gmr_left
Integration time [ms]:   3.882
Averaging Nr. [scans]: 1000
Smoothing Nr. [pixels]: 0
Data measured with spectrometer [name]: 7414430SP
Wave   ;Sample   ;Dark     ;Reference
[nm]   ;[counts] ;[counts] ;[counts] 

288.544;  129.747;   10.292;  793.890
289.143;  132.385;    4.564;  681.602
289.742;  133.691;    6.144;  828.814
290.341;  120.983;    4.396;  789.841
290.940;  110.701;    0.938;  730.702
291.538;  113.093;   -0.684;  881.108
292.137;  111.474;   -2.845;  792.581
292.736;  115.225;   -0.144;  975.101
293.335;  110.752;   -6.352;  735.086
293.934;  110.771;   -7.642;  781.677
294.532;  111.804;   -4.992; 1031.958
295.131;   97.318;   -5.478;  834.394
295.730;   98.304;   -6.549;  809.588
296.328;   96.140;   -9.558;  783.442
296.927;   96.742;   -8.118;  779.652
297.525;   97.280;   -6.908;  781.236
298.124;   87.562;   -9.195;  654.009
298.722;   91.762;   -8.198;  761.933
299.321;   89.819;   -8.817;  708.597
299.919;   87.505;   -7.716;  751.918
300.518;   83.690;  -10.745;  689.338
301.116;   85.408;   -9.647;  691.381
301.715;   86.147;  -10.828;  730.222
302.313;   85.557;   -6.087;  704.943
302.911;   80.737;   -6.824;  733.830
303.509;   85.462;   -8.807;  925.627
304.108;   83.161;   -8.198;  760.383
304.706;   83.664;   -6.218;  801.664
305.304;   77.993;   -7.185;  796.707
305.902;   82.347;   -8.568;  784.484
306.500;   78.101;   -7.737;  728.200
307.098;   77.453;   -6.026;  746.560
307.696;   75.762;   -7.176;  780.432
308.294;   76.445;   -8.656;  731.359
308.892;   78.262;   -6.838;  759.769
309.490;   74.205;   -2.596;  712.161
310.088;   71.790;   -4.485;  788.444
310.686;   76.932;   -3.907;  821.749
311.284;   72.893;   -2.806;  766.040
311.882;   70.712;   -2.845;  731.225
312.480;   67.178;   -3.274;  697.167
313.078;   69.056;   -3.645;  808.331
313.675;   70.657;   -4.997;  691.600
314.273;   65.534;   -0.894;  797.837
314.871;   63.980;   -2.854;  589.829
315.468;   62.910;   -3.644;  652.090
316.066;   65.614;   -3.947;  694.427
316.664;   58.418;   -1.824;  656.351
317.261;   63.266;    1.565;  910.128
317.859;   58.627;   -3.955;  768.735
318.456;   59.989;   -2.886;  830.096
319.054;   55.521;   -0.995;  787.828
319.651;   55.138;   -1.765;  759.928
320.249;   54.826;   -3.685;  810.188
320.846;   52.233;   -3.736;  714.286
321.443;   50.129;   -2.065;  832.135
322.041;   48.601;   -5.635;  812.315
322.638;   45.450;   -5.985;  701.456
323.235;   47.573;   -6.677;  665.683
323.833;   45.769;   -3.497;  740.354
324.430;   41.062;   -6.756;  615.900
325.027;   42.333;   -7.647;  876.855
325.624;   43.386;   -7.598;  644.532
326.221;   40.841;   -5.848;  689.717
326.818;   40.143;   -5.777;  818.332
327.415;   42.887;   -8.769;  748.828
328.012;   41.801;   -6.299;  690.585
328.609;   40.292;   -6.639;  731.389
329.206;   38.486;   -6.358;  778.621
329.803;   37.909;   -8.698;  737.841
330.400;   40.302;   -8.379;  704.260
330.997;   41.067;   -6.178;  817.147
331.594;   38.435;   -5.646;  788.185
332.191;   42.244;   -6.928;  728.722
332.787;   44.926;   -6.057;  844.463
333.384;   40.882;   -6.445;  763.093
333.981;   40.271;   -8.002;  815.687
334.578;   42.241;   -8.443;  708.378
335.174;   44.146;   -6.053;  731.469
335.771;   43.921;   -5.791;  836.456
336.367;   40.997;   -6.570;  710.631
336.964;   43.701;   -6.741;  793.266
337.561;   42.106;   -5.710;  731.112
338.157;   38.436;   -3.928;  911.916
338.754;   34.752;   -5.577;  796.589
339.350;   34.260;   -9.667;  722.493
339.946;   38.370;   -5.269;  773.135
340.543;   29.539;   -4.485;  846.136
341.139;   24.509;   -7.584;  720.836
341.735;   23.234;   -8.553;  772.593
342.332;   22.012;   -4.984;  691.472
342.928;   22.660;   -3.475;  795.394
343.524;   17.391;   -6.653;  761.684
344.120;   14.926;   -7.173;  738.562
344.716;   17.745;   -4.385;  723.717
345.313;   15.335;   -3.565;  795.342
345.909;   10.792;   -7.495;  627.336
346.505;   13.171;   -8.276;  740.247
347.101;   13.985;   -5.697;  827.864
347.697;   13.965;   -4.767;  785.398
348.293;    8.467;   -7.226;  627.244
348.889;   10.024;   -7.547;  745.914
349.485;    9.566;   -9.147;  688.205
350.081;   10.761;   -6.568;  772.592
350.676;    4.951;   -6.516;  691.606
351.272;   10.237;   -7.378;  809.530
351.868;   10.103;   -6.759;  780.497
352.464;    7.226;   -4.798;  723.932
353.059;    4.134;   -7.977;  646.017
353.655;    7.602;   -8.769;  777.063
354.251;    8.017;   -5.920;  759.845
354.846;    2.808;   -7.647;  740.646
355.442;    0.359;   -6.956;  753.071
356.038;    3.025;   -9.928;  751.708
356.633;    2.890;   -7.698;  728.594
357.229;    0.498;   -6.307;  724.757
357.824;    0.275;   -7.647;  703.600
358.420;   -0.854;  -10.047;  679.726
359.015;   -0.439;   -7.458;  695.357
359.610;    0.248;   -5.748;  763.920
360.206;   -6.239;   -9.346;  603.240
360.801;   -2.637;  -11.268;  646.503
361.396;   -0.442;   -8.789;  725.975
361.992;   -4.838;   -6.347;  668.220
362.587;   -7.304;   -6.476;  670.160
363.182;   -5.236;   -9.457;  689.631
363.777;   -3.789;   -7.147;  738.242
364.372;   -4.032;   -5.507;  737.314
364.967;   -8.736;   -6.386;  680.744
365.563;   -2.970;   -7.858;  815.567
366.158;   -6.082;   -8.517;  685.161
366.753;   -5.607;   -8.728;  649.263
367.348;   -7.300;   -7.677;  746.056
367.942;   -7.769;  -10.387;  697.298
368.537;   -7.628;   -7.187;  754.245
369.132;   -7.715;   -8.587;  703.428
369.727;  -12.375;   -8.606;  638.079
370.322;  -10.160;  -10.426;  580.186
370.917;  -10.603;   -5.776;  710.646
371.511;   -7.942;   -6.007;  861.834
372.106;  -10.502;   -6.686;  776.964
372.701;  -14.763;   -9.335;  585.988
373.296;   -8.170;   -6.777;  863.135
373.890;  -13.279;   -7.546;  647.840
374.485;  -15.905;   -8.755;  691.199
375.079;  -10.576;   -9.797;  738.685
375.674;   -9.657;   -6.327;  812.970
376.268;  -14.389;   -9.046;  691.759
376.863;  -19.587;   -7.993;  580.327
377.457;  -13.165;   -9.206;  662.490
378.052;  -14.723;   -5.345;  764.884
378.646;  -15.300;   -5.605;  741.167
379.240;  -16.453;   -6.825;  721.176
379.835;  -15.856;  -10.476;  636.978
380.429;  -17.071;   -8.676;  562.557
381.023;  -16.728;   -4.945;  779.205
381.617;  -19.766;   -8.094;  680.106
382.212;  -15.934;  -10.646;  685.303
382.806;  -14.683;   -8.136;  760.690
383.400;  -19.566;   -7.855;  672.281
383.994;  -20.090;   -8.125;  664.870
384.588;  -15.968;   -7.637;  697.701
385.182;  -14.069;   -7.458;  726.624
385.776;  -16.283;   -6.277;  706.875
386.370;  -19.359;   -7.485;  681.968
386.964;  -17.037;   -9.416;  684.155
387.558;  -15.159;   -8.518;  598.360
388.152;  -19.935;   -7.096;  681.959
388.745;  -17.423;   -7.656;  814.707
389.339;  -16.655;   -8.927;  747.642
389.933;  -14.635;   -9.538;  695.370
390.527;  -15.728;   -5.857;  859.029
391.120;  -22.136;   -9.455;  595.318
391.714;  -18.823;   -9.746;  711.633
392.308;  -15.040;   -7.857;  780.253
392.901;  -19.535;   -9.106;  642.460
393.495;  -21.700;  -10.365;  595.414
394.089;  -18.569;   -9.696;  760.452
394.682;  -19.426;   -7.016;  697.188
395.275;  -20.464;   -8.466;  719.927
395.869;  -21.397;   -8.985;  667.314
396.462;  -19.746;  -11.496;  616.609
397.056;  -15.635;   -7.838;  776.621
397.649;  -20.769;   -6.895;  731.575
398.242;  -17.467;   -5.017;  712.645
398.836;  -16.038;   -8.787;  766.408
399.429;  -17.524;   -8.967;  631.041
400.022;  -22.114;   -8.815;  665.902
400.615;  -18.838;   -6.276;  805.609
401.208;  -16.734;   -8.407;  691.451
401.802;  -18.967;   -7.296;  699.329
402.395;  -20.448;   -7.585;  683.502
402.988;  -21.721;   -8.015;  696.627
403.581;  -17.595;   -9.577;  646.878
404.174;  -15.274;   -7.588;  686.568
404.767;  -18.448;   -7.906;  638.583
405.360;  -21.519;   -7.875;  621.445
405.953;  -15.174;   -8.127;  759.034
406.545;  -14.799;   -7.198;  725.342
407.138;  -18.947;   -8.916;  618.350
407.731;  -17.879;   -9.767;  613.303
408.324;  -13.649;  -10.659;  660.554
408.917;  -14.486;   -8.068;  681.864
409.509;  -16.725;   -9.837;  740.396
410.102;  -18.552;   -8.146;  643.948
410.695;  -12.101;   -7.969;  665.758
411.287;  -12.763;   -8.579;  599.821
411.880;  -14.797;   -6.968;  585.421
412.472;  -17.508;   -9.487;  613.092
413.065;  -14.268;  -10.338;  629.408
413.657;  -12.123;   -9.169;  576.678
414.250;  -11.925;  -10.119;  646.681
414.842;  -14.001;   -9.938;  676.353
415.434;  -11.659;  -10.409;  570.463
416.027;   -7.445;   -9.591;  652.196
416.619;   -9.365;   -7.379;  713.400
417.211;   -9.531;   -9.159;  599.352
417.804;   -5.710;   -9.191;  628.499
418.396;   -9.758;   -8.159;  607.643
418.988;   -7.672;   -6.960;  659.238
419.580;  -11.473;  -11.389;  568.276
420.172;   -9.176;  -13.460;  536.196
420.764;   -4.365;  -10.701;  672.482
421.356;   -5.644;   -8.961;  636.898
421.948;   -6.019;   -9.770;  677.661
422.540;   -1.319;   -8.832;  680.027
423.132;   -2.210;   -8.153;  600.641
423.724;   -5.526;   -8.481;  561.267
424.316;   -3.526;   -9.261;  621.345
424.908;    0.081;   -9.643;  591.517
425.500;    1.146;   -8.663;  647.978
426.092;    1.685;   -8.503;  648.268
426.683;    0.707;  -10.522;  684.836
427.275;    3.296;  -11.734;  641.471
427.867;    5.450;  -10.264;  668.948
428.458;    5.852;   -7.644;  732.344
429.050;    3.651;   -7.853;  680.749
429.642;    5.976;   -8.904;  743.124
430.233;    6.506;  -10.795;  569.356
430.825;    8.046;   -7.665;  724.809
431.416;    5.279;   -8.843;  698.241
432.008;    8.908;   -9.885;  651.723
432.599;   10.234;   -9.966;  656.073
433.190;    6.527;   -9.164;  637.670
433.782;    5.895;   -8.584;  590.395
434.373;   13.466;   -8.296;  884.765
434.964;   12.666;   -9.896;  602.920
435.556;   10.043;   -8.255;  634.537
436.147;   14.042;   -8.075;  758.490
436.738;   13.076;   -9.716;  701.099
437.329;   18.781;   -7.318;  721.723
437.920;   10.926;   -6.694;  666.688
438.511;   10.550;   -9.644;  564.526
439.103;   17.829;   -9.427;  623.998
439.694;   20.204;  -10.748;  681.583
440.285;   21.198;   -7.997;  764.432
440.876;   19.593;  -10.046;  845.738
441.466;   17.956;  -13.467;  575.162
442.057;   23.586;   -9.329;  665.814
442.648;   22.176;   -7.707;  746.255
443.239;   20.718;   -9.017;  620.477
443.830;   25.262;  -10.279;  704.958
444.421;   28.014;  -12.630;  655.474
445.011;   23.554;   -8.697;  693.619
445.602;   24.159;   -7.787;  743.126
446.193;   25.583;  -13.329;  488.117
446.783;   30.457;   -9.171;  640.397
447.374;   25.712;   -7.457;  692.759
447.964;   25.710;   -9.277;  713.770
448.555;   35.127;   -9.041;  822.742
449.145;   31.610;   -8.969;  662.853
449.736;   32.125;   -6.809;  803.179
450.326;   32.446;   -7.229;  713.626
450.917;   36.434;  -11.391;  675.324
451.507;   36.274;   -9.501;  600.661
452.097;   36.451;   -8.460;  746.267
452.688;   38.502;  -10.080;  742.160
453.278;   38.132;  -12.861;  566.840
453.868;   43.410;   -8.372;  793.550
454.458;   39.876;   -8.131;  651.141
455.048;   40.164;   -8.520;  711.783
455.639;   41.880;  -13.632;  567.096
456.229;   45.984;  -10.143;  710.694
456.819;   47.784;   -9.163;  751.158
457.409;   48.355;   -8.652;  773.993
457.999;   51.158;   -9.933;  737.505
458.589;   51.308;  -10.363;  686.606
459.179;   50.477;  -10.633;  717.658
459.769;   48.275;  -12.442;  627.099
460.358;   52.768;   -9.844;  797.262
460.948;   53.467;   -9.924;  689.503
461.538;   54.746;  -10.484;  660.677
462.128;   52.174;  -10.703;  664.934
462.717;   59.952;  -11.486;  710.326
463.307;   63.395;  -10.767;  705.846
463.897;   58.746;   -8.814;  656.942
464.486;   57.313;   -8.182;  837.128
465.076;   62.153;   -9.985;  733.776
465.666;   66.536;  -10.447;  652.900
466.255;   63.932;   -7.754;  785.651
466.845;   62.626;  -10.884;  666.749
467.434;   66.141;  -12.525;  725.873
468.023;   67.173;  -11.456;  658.357
468.613;   63.939;   -9.173;  713.946
469.202;   68.655;   -9.306;  646.507
469.791;   73.266;   -8.917;  737.811
470.381;   76.010;   -9.657;  742.813
470.970;   74.198;   -9.947;  711.099
471.559;   74.473;   -9.256;  733.291
472.148;   78.327;  -13.397;  675.737
472.738;   81.175;   -9.928;  765.466
473.327;   79.440;  -10.897;  637.529
473.916;   79.518;   -8.526;  737.446
474.505;   83.652;  -11.078;  751.703
475.094;   87.111;   -9.559;  806.570
475.683;   86.296;   -8.838;  797.699
476.272;   86.897;  -10.198;  730.632
476.861;   90.010;  -11.489;  706.754
477.449;   96.208;  -10.721;  728.487
478.038;   90.703;   -9.818;  692.513
478.627;   91.210;   -9.887;  714.852
479.216;   98.641;  -10.030;  769.441
479.805;  101.838;   -9.401;  783.375
480.393;  101.406;   -5.739; 1008.945
480.982;   99.734;   -7.838;  874.501
481.571;  107.228;   -9.111;  858.333
482.159;  107.277;  -10.601;  705.386
482.748;  106.729;   -8.500;  821.385
483.336;  112.187;   -9.241;  858.209
483.925;  111.606;  -10.440;  774.373
484.513;  119.829;  -11.063;  758.962
485.102;  114.475;   -9.540;  810.965
485.690;  124.400;   -6.742; 1011.050
486.278;  126.878;   -8.442;  979.329
486.867;  126.340;  -10.472;  809.662
487.455;  128.358;   -8.811;  898.229
488.043;  129.751;  -10.721;  748.361
488.631;  138.717;  -10.393; 1005.079
489.220;  142.561;  -10.843;  908.626
489.808;  141.995;  -10.572;  741.415
490.396;  150.562;  -10.482;  914.645
490.984;  155.743;  -11.542;  830.161
491.572;  164.700;   -8.463;  940.315
492.160;  170.795;   -8.491;  919.081
492.748;  180.598;   -9.681;  884.341
493.336;  201.805;  -10.493; 1019.693
493.924;  225.711;   -9.354;  958.077
494.512;  253.250;   -9.132; 1066.638
495.100;  293.220;   -9.001; 1103.280
495.687;  351.407;  -11.924; 1206.373
496.275;  425.065;  -11.193; 1150.796
496.863;  499.079;   -9.241; 1281.171
497.451;  594.680;  -11.341; 1386.805
498.038;  719.159;  -11.364; 1556.729
498.626;  832.293;   -8.104; 1741.407
499.214; 1000.169;   -8.842; 2016.609
499.801; 1251.054;  -10.112; 2220.633
500.389; 1476.868;  -11.953; 2312.494
500.976; 1669.618;  -10.023; 2744.849
501.564; 1944.080;   -8.662; 3148.565
502.151; 2285.960;  -10.531; 3515.999
502.738; 2667.578;  -13.853; 3971.274
503.326; 3209.708;  -10.794; 4403.796
503.913; 3647.176;   -8.663; 5161.749
504.500; 4273.529;  -10.172; 5986.420
505.088; 5191.577;  -13.472; 6381.201
505.675; 5749.145;  -10.924; 6925.547
506.262; 5753.690;   -8.551; 7619.060
506.849; 6212.563;  -10.523; 8733.969
507.436; 7046.477;  -10.834; 9790.121
508.023; 7484.107;   -9.093; 9985.472
508.610; 7730.007;  -10.073;10434.618
509.197; 8712.976;   -9.500;11198.435
509.784;10274.313;  -13.242;12391.194
510.371;11135.719;  -10.964;13603.713
510.958;11476.677;   -9.772;14426.586
511.545;11840.993;   -7.842;15243.775
512.132;11889.857;  -12.184;15945.876
512.719;12931.014;   -9.733;16340.369
513.305;15548.265;   -9.172;18011.766
513.892;16784.621;   -9.581;19754.971
514.479;17388.275;  -10.253;20967.805
515.066;17534.236;   -8.183;22299.793
515.652;17561.043;   -9.253;22908.660
516.239;18619.111;   -9.412;23798.875
516.825;20348.396;  -11.153;25567.275
517.412;21674.605;  -10.263;28154.959
517.998;23020.168;   -8.802;28344.111
518.585;24610.553;  -10.401;27134.219
519.171;24567.197;  -12.744;27268.576
519.758;25511.477;  -11.793;28964.129
520.344;28567.148;   -8.912;30664.494
520.930;31973.416;  -10.901;32550.605
521.516;32182.162;  -12.034;35422.895
522.103;32561.930;  -10.473;38280.004
522.689;34196.016;   -8.311;37835.117
523.275;36537.422;  -10.691;37288.613
523.861;38535.715;  -11.193;37281.395
524.447;36251.223;  -11.484;37846.949
525.033;36118.574;   -7.702;38321.949
525.619;36113.715;  -11.241;38579.285
526.205;36143.492;  -12.152;40622.875
526.791;37287.719;  -11.423;42258.836
527.377;37705.504;   -7.981;42966.902
527.963;38249.293;   -9.450;42018.949
528.549;38373.492;  -11.351;42476.828
529.135;38187.918;  -10.202;41854.852
529.721;39810.262;   -8.672;41237.711
530.306;39889.527;   -9.111;41259.445
530.892;41005.867;  -11.252;41506.047
531.478;44211.059;  -10.432;43559.613
532.063;46312.719;  -10.721;47695.563
532.649;47010.598;   -7.450;50808.324
533.235;48247.039;  -11.811;51787.500
533.820;47258.219;   -9.383;52145.035
534.406;45000.859;   -9.400;51133.488
534.991;43733.824;   -8.861;49996.805
535.576;45077.254;  -10.612;48882.852
536.162;43175.664;   -7.322;46942.285
536.747;42016.855;   -9.360;45711.746
537.333;42970.887;  -10.450;48510.180
537.918;45691.727;  -12.610;50439.891
538.503;46257.586;  -12.132;50863.711
539.088;43264.715;  -10.831;50906.922
539.673;42115.512;  -11.220;52621.965
540.259;46170.723;  -11.481;52368.094
540.844;46860.422;  -11.462;50879.109
541.429;47828.305;   -7.869;52077.777
542.014;46382.543;  -11.859;52716.695
542.599;44661.922;  -11.061;52363.281
543.184;45576.820;  -12.300;53187.137
543.769;46709.977;   -9.369;54697.605
544.354;47944.410;  -12.020;53913.914
544.938;43556.750;  -10.350;49680.164
545.523;39669.918;  -10.841;47386.277
546.108;42271.004;   -8.579;49151.949
546.693;44662.668;   -8.818;51384.637
547.278;46071.109;  -11.331;51853.254
547.862;45414.844;  -10.292;51173.750
548.447;42624.469;   -8.349;51691.395
549.031;41513.676;  -10.838;52456.703
549.616;42387.941;  -11.681;52714.516
550.201;43430.992;  -11.140;52414.598
550.785;39372.629;   -8.649;52355.059
551.370;37028.918;  -11.889;54589.453
551.954;40220.461;  -11.239;58267.348
552.538;45773.047;   -8.850;59062.176
553.123;50902.203;  -10.829;58115.285
553.707;53186.441;   -8.887;56556.285
554.291;50584.641;  -10.430;56201.668
554.876;48389.645;   -9.799;55335.762
555.460;45526.129;  -10.018;54155.703
556.044;43971.727;   -7.307;53721.484
556.628;47567.602;  -12.229;53731.016
557.212;48860.172;   -9.820;54312.531
557.796;46700.133;   -9.109;53797.773
558.380;43156.781;   -9.707;56145.984
558.964;43786.461;  -10.980;57277.930
559.548;47505.535;  -12.010;56459.641
560.132;48470.547;   -7.928;54434.543
560.716;51250.219;  -10.247;54800.617
561.300;52328.383;  -11.250;57606.945
561.884;50462.234;  -10.568;58972.445
562.467;50033.031;   -9.727;57327.570
563.051;47318.289;  -11.847;54962.434
563.635;45850.953;  -10.747;52594.473
564.219;44471.398;  -13.108;50610.410
564.802;41601.453;  -11.417;49551.180
565.386;39543.410;  -10.457;48370.953
565.969;41687.152;   -8.959;48178.871
566.553;41879.582;  -10.328;49957.305
567.136;41913.418;  -10.257;50369.594
567.720;41926.281;  -10.186;49492.004
568.303;40762.824;  -10.027;50616.352
568.887;40890.641;  -10.397;50727.148
569.470;42355.957;   -8.185;51698.379
570.053;41568.242;  -11.596;52122.078
570.637;40221.039;  -11.378;52536.438
571.220;40453.680;   -9.138;51186.098
571.803;39574.559;   -7.675;51032.762
572.386;37244.043;   -8.976;49609.887
572.969;37761.758;  -12.477;48285.926
573.552;38456.777;   -9.767;47624.285
574.135;37859.309;   -8.175;45498.641
574.718;33323.781;  -11.096;41970.434
575.301;32114.922;  -11.966;41447.137
575.884;30906.063;  -12.836;40923.836
576.467;36143.746;   -9.116;45267.723
577.050;38522.789;  -10.536;48175.543
577.633;39049.086;  -11.027;47729.328
578.216;37614.840;   -9.946;47579.793
578.799;36118.922;   -9.645;47820.996
579.381;36209.012;   -9.446;48115.551
579.964;36844.727;  -12.217;47333.766
580.547;37661.984;  -10.586;46668.969
581.129;37237.711;   -8.374;44466.141
581.712;35439.313;  -10.434;44164.922
582.294;34545.680;  -10.896;46477.855
582.877;35557.078;   -8.906;48244.254
583.459;36859.340;   -9.994;47437.895
584.042;36541.477;  -10.084;46943.219
584.624;35291.844;  -13.534;46792.227
585.206;33733.973;  -12.716;46557.250
585.789;34283.535;  -11.614;45793.773
586.371;35229.156;  -10.203;43836.391
586.953;34115.348;  -10.314;42972.492
587.536;32127.535;   -9.776;42487.211
588.118;32423.535;   -9.821;42086.414
588.700;33504.250;  -10.073;43389.930
589.282;34950.898;  -12.395;43646.039
589.864;33309.008;  -11.514;43438.109
590.446;33249.605;  -10.803;43151.926
591.028;34644.711;  -11.043;42781.867
591.610;35094.984;  -13.244;42839.098
592.192;31808.988;  -11.095;42820.402
592.774;29253.787;  -10.823;40724.277
593.356;28455.281;  -11.052;39874.789
593.937;30768.313;  -11.664;39980.648
594.519;33758.242;  -10.454;42069.633
595.101;34734.445;  -10.322;42976.031
595.683;33468.016;  -10.042;44084.441
596.264;31701.318;  -14.334;43478.797
596.846;31695.588;  -10.863;43803.672
597.427;32487.346;   -9.901;42986.934
598.009;33136.891;  -10.911;42832.219
598.591;34132.719;  -10.483;42580.086
599.172;32784.406;   -9.663;43061.805
599.753;30708.412;  -10.631;41691.469
600.335;29971.059;   -9.371;40692.520
600.916;31028.555;  -13.992;39982.422
601.498;32588.855;   -8.352;40318.617
602.079;30924.021;   -8.411;40670.609
602.660;32391.865;  -10.841;41450.898
603.241;34750.449;  -12.963;41137.738
603.823;33739.672;  -11.523;38868.797
604.404;31661.254;  -11.881;38182.785
604.985;31598.316;  -11.721;38078.047
605.566;32959.816;   -9.293;38056.633
606.147;32657.936;  -10.940;37020.418
606.728;31170.086;  -11.840;37883.359
607.309;30076.242;  -11.781;38748.273
607.890;30512.967;  -11.262;38850.230
608.471;30048.324;  -10.111;37457.918
609.051;29778.650;   -7.709;36066.457
609.632;30619.938;  -12.409;35991.074
610.213;29901.850;  -10.811;37402.641
610.794;29051.418;  -11.630;38383.363
611.374;30161.621;   -8.030;40562.387
611.955;31422.072;  -10.809;38533.727
612.536;32995.383;  -10.531;36951.789
613.116;33259.426;  -12.820;37197.891
613.697;32139.482;  -11.419;38411.125
614.277;31551.945;   -9.768;38673.938
614.858;32022.162;  -10.251;37075.863
615.438;28747.223;  -11.981;35092.906
616.019;26140.627;   -8.978;33666.301
616.599;28717.900;  -12.219;34189.023
617.179;32017.084;  -14.170;36952.047
617.760;33529.801;   -9.211;39582.574
618.340;33807.715;   -9.018;38943.977
618.920;32540.029;   -9.249;37594.156
619.500;31606.299;  -12.728;37866.938
620.080;33529.066;  -12.939;37869.043
620.660;33223.773;  -11.586;36868.617
621.241;32044.568;  -11.538;36352.309
621.821;32524.080;  -11.398;35459.520
622.401;33134.148;  -10.179;35207.414
622.980;33913.555;  -11.587;35980.422
623.560;33208.922;  -12.888;37351.328
624.140;31104.236;  -13.149;34388.582
624.720;26364.105;   -9.928;32368.764
625.300;25645.711;  -10.869;32638.629
625.880;30225.479;   -8.617;34599.035
626.459;35108.930;  -12.138;36831.738
627.039;36946.887;  -12.267;38299.098
627.619;36576.164;   -7.476;38289.574
628.198;37034.625;  -11.347;37220.695
628.778;36614.254;  -11.678;37632.563
629.357;34446.000;  -12.438;38003.012
629.937;32105.086;   -9.576;38402.039
630.516;30971.492;  -11.096;37868.801
631.096;30361.350;  -11.828;35760.410
631.675;30461.873;  -11.565;35225.219
632.254;30524.160;  -11.845;35130.289
632.834;31424.889;  -11.545;35794.570
633.413;32278.725;  -10.887;35788.922
633.992;34098.277;  -10.175;34532.863
634.571;33455.715;   -9.704;33590.113
635.151;31193.172;  -10.815;34943.863
635.730;30485.721;  -11.617;35352.523
636.309;29356.240;  -10.836;35366.605
636.888;29805.025;   -9.755;36165.637
637.467;30713.010;  -11.684;37515.902
638.046;32527.418;  -11.987;39288.695
638.625;33815.863;  -10.455;38279.699
639.204;33559.637;  -11.234;37741.598
639.782;31035.414;  -12.023;38364.551
640.361;28599.426;  -11.506;36740.621
640.940;28195.971;  -12.316;34950.082
641.519;30137.623;  -11.616;34137.398
642.097;34113.785;   -9.266;35654.258
642.676;35013.645;  -12.936;35637.957
643.255;33519.359;   -9.966;36567.074
643.833;33011.414;   -8.916;37809.434
644.412;34216.180;  -10.936;37337.293
644.990;37046.613;  -12.176;37018.531
645.569;38050.965;  -12.246;36518.469
646.147;37348.086;  -12.107;36186.430
646.726;36173.855;  -12.937;36267.688
647.304;38057.930;  -12.547;36647.625
647.882;39001.563;  -12.597;39286.742
648.461;37343.094;   -9.427;39157.703
649.039;35236.578;   -8.937;35412.883
649.617;32876.121;  -11.067;34744.918
650.195;33058.555;  -10.657;35403.098
650.773;32725.467;  -10.097;35053.797
651.352;30468.203;  -11.887;33756.816
651.930;26015.162;  -13.557;31868.773
652.508;22725.975;  -11.767;33121.551
653.086;23838.484;  -10.777;33564.793
653.663;27613.256;  -12.067;34054.668
654.241;30648.170;  -14.918;35693.309
654.819;32274.125;  -11.788;36422.906
655.397;31819.572;  -11.268;38213.484
655.975;32718.021;  -11.738;39507.625
656.553;32118.311;  -11.018;39498.223
657.130;31024.018;  -12.848;40395.480
657.708;30285.238;  -10.098;39242.020
658.286;30655.807;  -11.678;38920.020
658.863;33216.402;  -11.498;40202.898
659.441;36122.016;  -11.008;39677.938
660.018;36802.637;  -11.048;40413.355
660.596;36456.375;  -12.058;39931.414
661.173;35523.434;  -14.158;39604.531
661.750;34906.102;  -12.298;39700.070
662.328;33975.551;  -10.699;39292.809
662.905;32044.295;  -12.119;38235.648
663.482;27251.412;  -11.829;36212.305
664.060;26155.500;  -11.009;35944.945
664.637;28905.582;  -10.369;35170.785
665.214;29468.385;  -10.459;34197.523
665.791;28223.525;  -12.599;34549.520
666.368;28143.498;  -12.919;35118.578
666.945;30221.814;  -10.699;36019.418
667.522;31630.123;  -11.359;36048.438
668.099;31947.717;  -13.529;36243.914
668.676;31817.756;  -10.229;35958.875
669.253;31724.063;   -9.279;37384.730
669.830;30384.725;  -11.370;36779.629
670.407;30292.471;  -10.950;35231.289
670.984;31561.320;  -12.850;35544.270
671.560;31102.906;   -8.440;35466.867
672.137;29649.648;  -13.520;34280.863
672.714;29044.602;  -13.620;34632.863
673.290;29919.629;  -10.450;35135.422
673.867;29731.727;  -10.960;36114.480
674.443;28342.055;  -13.300;36152.859
675.020;28789.672;  -12.370;35327.238
675.596;29675.844;  -11.250;35795.176
676.173;30237.541;  -11.080;35430.355
676.749;30172.863;  -13.220;33549.516
677.326;32819.051;  -13.000;32210.012
677.902;34834.121;  -12.701;32068.871
678.478;34913.523;  -12.801;32583.891
679.054;34235.191;   -8.601;32088.928
679.631;34629.063;  -12.631;30978.848
680.207;34074.770;   -9.451;33160.887
680.783;32734.783;  -11.701;35570.363
681.359;32366.875;  -12.701;36125.184
681.935;32169.834;  -13.271;35240.922
682.511;31313.393;  -10.791;34429.961
683.087;31259.447;  -10.791;34463.680
683.663;31235.139;   -8.121;34648.898
684.239;32900.664;  -13.261;34546.457
684.815;32665.998;  -10.581;35586.375
685.390;29484.434;   -9.961;35821.895
685.966;28330.500;  -11.182;35085.871
686.542;27868.434;  -13.512;34198.230
687.118;27998.600;  -11.472;32847.707
687.693;28179.580;  -10.152;32794.027
688.269;29042.879;  -14.442;33072.367
688.844;30557.633;  -11.852;33141.664
689.420;28954.164;  -13.942;33965.742
689.995;27672.779;   -9.702;34655.523
690.571;27686.789;  -11.312;33576.742
691.146;27137.736;  -14.332;32657.219
691.722;27893.664;  -11.192;32526.979
692.297;30518.086;  -10.962;33014.617
692.872;30060.002;  -11.082;34012.254
693.448;28852.316;  -14.732;34237.434
694.023;28323.438;  -12.363;34142.672
694.598;28338.367;  -12.393;34132.031
695.173;27351.412;  -11.023;34205.250
695.748;26650.271;  -12.743;32882.488
696.323;27878.988;  -11.103;32864.906
696.898;28996.959;   -8.123;33170.004
697.473;28844.041;  -12.603;32432.984
698.048;28874.785;  -12.553;31649.303
698.623;30457.705;  -12.573;30778.141
699.198;34047.426;  -12.743;31140.119
699.773;32085.146;  -12.843;31764.299
700.348;30741.541;  -16.683;31780.816
700.922;31138.625;  -11.403;32046.375
701.497;31752.768;  -11.253;32603.574
702.072;32127.156;  -10.044;34799.871
702.646;31890.684;  -13.054;35793.172
703.221;30418.820;  -11.414;35201.590
703.795;30296.998;  -10.644;34764.527
704.370;31986.352;  -13.484;34307.367
704.944;32242.434;  -12.144;33509.887
705.519;31126.439;  -12.024;31388.584
706.093;29752.455;  -11.234;31340.104
706.668;27972.756;   -9.874;32630.281
707.242;27187.660;  -12.404;32728.779
707.816;27467.086;  -10.644;32947.238
708.390;26726.904;  -11.174;33277.855
708.965;26601.854;  -10.324;33834.336
709.539;26436.604;  -12.014;33709.273
710.113;26519.201;  -12.295;33044.313
710.687;27626.270;  -10.965;31953.992
711.261;28491.088;  -13.685;30505.949
711.835;28005.043;  -15.335;30262.369
712.409;27363.930;  -13.785;31254.447
712.983;27841.824;  -10.525;32754.986
713.557;29459.295;  -13.175;34018.824
714.131;30913.941;  -13.245;34579.625
714.704;32791.262;  -13.175;33890.262
715.278;35140.016;  -11.545;33531.102
715.852;34585.543;  -10.975;33601.660
716.425;33048.695;  -10.075;33515.117
716.999;32413.582;  -12.185;33185.555
717.573;32765.076;   -9.685;33905.996
718.146;34778.945;  -10.516;35199.293
718.720;32081.754;  -12.106;35060.551
719.293;30277.984;  -12.386;34973.230
719.867;33540.262;  -12.456;36394.449
720.440;34124.152;  -10.686;36663.008
721.013;33962.215;  -12.596;35102.426
721.587;33879.746;  -13.956;33985.266
722.160;33463.430;   -9.806;33524.965
722.733;33341.758;  -11.676;32987.043
723.306;32553.018;  -14.276;33066.301
723.880;32255.209;  -12.126;33399.500
724.453;33586.199;  -10.156;33468.297
725.026;32156.322;  -12.956;33816.637
725.599;29780.412;  -11.676;32797.996
726.172;28174.900;  -12.337;33187.434
726.745;28666.477;  -11.277;35136.613
727.318;28828.826;  -11.927;35751.730
727.891;27777.664;  -13.607;35890.430
728.463;27797.295;  -11.327;34822.090
729.036;26834.633;  -11.917;32895.086
729.609;26869.543;  -12.697;31823.225
730.182;27574.342;  -11.787;31445.283
730.754;27883.025;  -12.957;32373.223
731.327;28758.186;  -11.017;33676.820
731.900;27595.012;  -12.797;33417.000
732.472;25777.740;  -10.677;31978.498
733.045;25007.498;  -12.797;30368.777
733.617;26073.201;  -13.908;30574.215
734.190;26470.381;  -12.258;31280.975
734.762;27180.041;  -13.438;31674.412
735.334;27815.627;  -11.758;31247.291
735.907;27671.285;  -11.158;29876.211
736.479;28863.631;  -11.258;29808.488
737.051;31359.074;  -10.918;30233.547
737.623;32494.049;  -11.038;31469.086
738.195;32600.422;  -12.188;31784.225
738.768;29187.744;  -11.378;32120.523
739.340;27527.178;  -12.598;32094.342
739.912;29277.883;  -11.568;31312.680
740.484;30312.656;   -9.348;31946.238
741.056;29479.270;  -12.628;32984.059
741.628;28821.859;  -13.349;33897.715
742.199;28776.330;  -11.309;33213.016
742.771;27736.650;  -12.699;31369.113
743.343;28721.160;  -11.919;31865.473
743.915;29225.104;  -11.679;32388.631
744.487;28275.150;  -12.249;31079.568
745.058;26816.836;  -11.119;30570.107
745.630;25573.613;   -9.439;29970.127
746.201;26040.121;  -11.949;29186.766
746.773;26917.721;  -12.639;28805.723
747.344;26442.986;  -11.039;29591.223
747.916;24983.090;  -12.549;31412.201
748.487;23618.148;  -12.659;32194.898
749.059;22619.123;  -13.059;32533.719
749.630;24329.754;  -12.080;32158.518
750.201;24597.457;  -13.100;30855.395
750.773;23613.797;  -15.310;28622.555
751.344;22801.746;  -12.240;28405.732
751.915;22139.480;  -11.960;28461.551
752.486;21330.773;  -13.200;27842.850
753.057;21100.494;  -15.230;27845.008
753.628;21539.891;  -13.130;27728.107
754.199;21799.361;  -12.720;27381.086
754.770;21390.465;  -10.680;25882.203
755.341;21344.424;  -11.010;25886.184
755.912;20997.510;  -12.990;26050.861
756.483;19817.434;  -11.110;26798.779
757.054;19132.244;  -12.190;27048.238
757.625;19573.674;  -13.981;26294.838
758.195;19411.879;  -11.041;26142.076
758.766;20020.896;  -11.861;26392.234
759.337;20850.697;  -11.461;26334.594
759.907;21898.596;  -15.001;27579.652
760.478;21767.932;   -9.681;28352.770
761.048;20991.119;  -12.421;27325.088
761.619;20529.336;  -11.761;26460.428
762.189;19160.621;  -12.391;26029.826
762.760;18197.641;  -10.201;26430.145
763.330;18496.840;  -10.811;26670.902
763.900;21010.363;  -10.261;26603.021
764.471;21952.922;  -13.061;25542.740
765.041;20088.947;  -11.051;24358.459
765.611;19410.746;  -11.032;23991.297
766.181;18925.559;  -10.532;24470.236
766.751;18907.053;  -13.502;24845.975
767.321;19100.967;  -11.392;24533.633
767.891;19283.852;  -11.522;24916.492
768.461;19673.344;  -13.672;24776.771
769.031;19330.555;  -14.652;24757.988
769.601;18700.414;  -10.182;24181.088
770.171;17588.215;  -11.752;23670.387
770.741;15619.228;  -12.272;22960.045
771.311;14982.751;  -13.112;22917.523
771.880;15325.013;  -14.122;23562.941
772.450;16278.735;  -11.782;24216.500
773.020;18556.172;  -12.642;24140.398
773.589;18815.156;  -13.043;24414.857
774.159;16818.221;  -11.783;23858.717
774.729;15495.831;  -13.473;22942.135
775.298;16069.066;  -14.523;22324.033
775.867;16950.695;  -12.013;21140.313
776.437;16408.133;  -12.113;20838.092
777.006;15143.335;  -13.543;20599.510
777.576;13954.925;  -12.523;20508.809
778.145;13165.896;  -12.173;20732.947
778.714;13900.542;  -12.153;21062.465
779.283;14290.144;  -11.833;20949.664
779.853;15064.116;  -13.483;20508.623
780.422;15938.154;  -12.933;20649.082
780.991;15566.020;  -13.173;21527.520
781.560;13820.168;  -10.224;22632.658
782.129;12940.204;  -12.684;23048.277
782.698;14025.146;  -11.284;23438.555
783.267;15318.169;  -11.684;23267.734
783.836;14797.950;  -10.974;22415.133
784.404;13411.026;  -13.534;20443.152
784.973;13121.185;  -16.734;19699.150
785.542;13047.518;  -12.594;19763.828
786.111;12593.487;  -11.644;20341.408
786.679;12857.161;  -11.384;20207.967
787.248;13651.127;  -12.014;19516.465
787.817;12683.069;  -12.804;18900.363
788.385;11515.217;  -11.994;17879.121
788.954;11710.022;  -12.564;17658.301
789.522;13191.262;  -12.225;17788.879
790.090;13651.197;  -13.775;18118.277
790.659;12760.863;  -12.485;18338.736
791.227;11928.501;  -12.295;18508.615
791.795;11898.877;  -13.415;17898.254
792.364;11381.540;  -12.995;17295.133
792.932;10989.254;   -8.365;16822.051
793.500;11206.521;  -11.925;17040.148
794.068;11649.023;  -13.245;17179.787
794.636;11935.362;  -13.815;16664.246
795.204;11297.448;  -13.375;16524.545
795.772;10924.362;  -12.125;17274.564
796.340;11102.385;  -13.855;17891.002
796.908;11463.012;  -13.456;17648.561
797.476;11064.037;  -13.116;17064.080
798.044;10363.160;  -13.226;16672.777
798.612;10803.582;  -11.236;17023.996
799.180;11870.002;  -10.476;16561.615
799.747;12022.559;  -11.746;15962.773
800.315;11030.676;  -12.366;15296.992
800.883;10011.734;  -14.616;14801.771
801.450; 9541.551;  -11.996;14534.430
802.018;10260.772;  -11.206;14173.248
802.585;10180.633;  -12.466;14029.547
803.153; 9343.497;  -12.846;13836.846
803.720; 9022.494;  -12.136;13567.324
804.287; 8735.850;  -10.966;13360.622
804.855; 8746.783;   -9.797;13681.981
805.422; 8628.099;  -13.037;13536.560
805.989; 8350.341;  -12.697;13355.958
806.556; 8488.374;  -11.737;13747.896
807.124; 8860.223;  -11.997;13987.376
807.691; 8485.024;  -13.997;14038.674
808.258; 8186.418;  -10.927;14120.152
808.825; 8589.769;  -13.727;13860.111
809.392; 9082.039;  -11.847;13268.790
809.959; 8662.356;  -14.217;12680.389
810.526; 7795.236;   -8.277;12427.308
811.093; 7423.091;   -9.647;12030.105
811.659; 7336.251;  -10.987;11653.664
812.226; 7020.094;  -13.447;11637.183
812.793; 7120.234;  -14.418;11611.521
813.360; 7567.246;  -13.908;11885.181
813.926; 7688.611;  -12.918;12770.539
814.493; 7453.298;  -14.888;12677.638
815.060; 7485.701;  -12.758;11974.336
815.626; 7860.585;  -13.478;11594.715
816.193; 8012.467;  -13.898;11579.474
816.759; 7841.463;  -13.588;11666.972
817.325; 7853.702;  -12.018;11325.530
817.892; 7578.740;  -14.068;11105.369
818.458; 6762.177;  -13.458;10843.928
819.024; 6343.139;  -11.968;10714.406
819.591; 6002.331;  -11.028;10469.165
820.157; 5721.735;  -12.088;10235.523
820.723; 5685.825;  -12.599;10847.563
821.289; 5903.067;  -10.419;11040.980
821.855; 6528.880;  -10.939;10357.100
822.421; 7140.091;  -12.539; 9978.918
822.987; 7146.449;  -13.259; 9754.177
823.553; 6505.138;  -15.369;10065.755
824.119; 6186.713;  -10.779;10036.294
824.685; 5818.871;   -9.999;10029.192
825.251; 5480.631;  -11.819;10199.230
825.816; 5239.099;  -13.369; 9820.189
826.382; 5304.972;  -12.679; 9297.248
826.948; 5606.747;  -11.199; 9381.347
827.513; 5567.774;  -11.179; 9450.726
828.079; 5458.956;  -13.489; 9472.444
828.645; 5677.784;  -12.500; 9292.643
829.210; 6033.562;  -15.120; 9065.341
829.776; 6028.397;  -12.590; 9132.620
830.341; 5840.654;  -11.540; 9092.878
830.906; 5698.789;  -12.400; 9078.557
831.472; 5545.867;  -12.720; 8534.535
832.037; 5179.406;  -11.490; 8677.874
832.602; 4719.979;  -14.380; 8628.692
833.167; 4796.912;  -12.780; 8879.031
833.733; 5000.642;  -11.100; 9189.790
834.298; 5177.278;  -12.080; 9052.608
834.863; 5308.718;  -13.910; 8895.087
835.428; 5169.786;  -13.470; 8824.266
835.993; 5362.030;  -11.760; 8845.385
836.558; 5689.093;  -12.731; 8888.563
837.123; 5859.184;  -12.431; 8966.582
837.688; 5693.325;  -11.241; 8617.860
838.253; 5376.905;  -13.681; 8590.699
838.817; 4993.208;  -12.531; 8443.797
839.382; 4957.700;  -12.671; 8799.356
839.947; 4980.382;  -11.541; 8810.595
840.511; 4832.711;  -12.021; 8796.394
841.076; 4818.992;  -13.071; 8347.231
841.641; 4822.158;  -11.411; 8224.330
842.205; 4598.227;  -13.671; 8223.349
842.770; 4430.947;  -11.291; 8622.107
843.334; 4496.383;  -12.951; 8410.386
843.898; 4594.232;  -11.221; 8337.465
844.463; 4578.229;  -11.322; 8506.283
845.027; 4433.243;  -11.412; 8280.962
845.591; 4174.515;  -11.512; 8231.141
846.156; 4283.606;  -14.042; 7969.179
846.720; 4546.424;  -12.152; 7768.278
847.284; 4527.887;  -10.922; 7630.957
847.848; 4254.909;  -10.962; 7472.395
848.412; 3914.403;  -14.612; 7437.394
848.976; 3835.810;  -11.492; 7674.592
849.540; 3856.390;   -9.172; 7836.011
850.104; 4081.247;  -11.232; 7913.669
850.668; 4528.049;  -15.182; 7694.508
851.232; 4375.080;  -15.332; 7756.887
851.796; 3956.185;  -13.703; 7926.545
852.359; 3961.135;  -11.113; 7827.844
852.923; 4069.685;  -11.843; 7641.163
853.487; 4052.164;  -11.173; 7342.501
854.050; 3927.998;  -13.443; 7042.820
854.614; 3742.723;  -13.823; 7151.338
855.177; 3657.251;  -16.393; 7105.077
855.741; 3795.725;  -11.693; 6989.675
856.304; 3916.411;  -10.843; 6596.634
856.868; 3879.397;  -13.783; 6356.272
857.431; 3655.478;  -11.953; 6468.571
857.995; 3410.403;  -13.683; 6373.210
858.558; 3287.321;  -11.433; 6324.448
859.121; 3063.375;  -12.493; 6408.327
859.684; 2713.830;  -12.384; 6347.886
860.247; 2377.904;  -14.774; 6321.264
860.810; 2109.442;  -13.154; 6301.903
861.374; 1981.432;  -11.264; 6607.881
861.937; 2014.583;  -15.424; 6408.200
862.500; 2148.185;  -12.854; 6572.639
863.062; 2277.690;  -12.344; 6387.297
863.625; 2343.298;  -13.314; 6190.836
864.188; 2277.219;  -14.724; 5807.254
864.751; 2233.789;  -13.464; 5682.413
865.314; 2264.300;  -11.684; 5547.492
865.876; 2389.963;  -11.104; 5500.150
866.439; 2587.687;  -12.344; 5415.909
867.002; 2643.735;  -13.494; 5501.567
867.564; 2666.946;  -10.935; 5413.946
868.127; 2561.701;  -12.665; 5160.325
868.689; 2376.353;  -14.515; 5133.183
869.252; 2376.812;  -13.425; 5252.382
869.814; 2412.029;  -11.595; 5297.141
870.377; 2432.468;  -12.175; 5390.919
870.939; 2325.863;  -10.265; 5599.898
871.501; 2215.010;  -12.375; 5248.336
872.063; 2193.895;  -14.355; 4854.235
872.626; 2265.694;  -14.435; 4817.074
873.188; 2206.964;  -12.415; 4987.732
873.750; 2165.652;  -14.555; 4868.651
874.312; 2170.024;  -11.185; 4779.330
874.874; 2116.338;  -12.715; 4866.348
875.436; 1979.963;  -13.196; 4718.887
875.998; 1882.227;  -11.426; 4660.005
876.560; 1812.432;   -9.786; 4462.964
877.122; 1808.364;  -12.796; 4145.042
877.683; 1767.776;  -13.226; 4056.481
878.245; 1695.190;  -12.036; 3950.740
878.807; 1613.025;  -11.536; 4058.958
879.369; 1562.305;  -10.806; 3954.677
879.930; 1620.723;  -13.946; 3941.495
880.492; 1750.161;  -11.876; 4067.014
881.053; 1728.865;  -13.216; 3859.633
881.615; 1618.090;  -12.226; 3776.071
882.176; 1559.658;  -12.946; 3734.750
882.738; 1539.918;  -10.736; 3678.489
883.299; 1474.393;  -12.057; 3405.407
883.860; 1359.185;  -12.677; 3351.106
884.422; 1282.320;  -14.097; 3394.044
884.983; 1225.360;  -13.667; 3166.443
885.544; 1166.875;  -10.717; 3189.802
886.105; 1121.673;  -14.357; 3160.360
886.666; 1077.984;  -14.287; 3093.059
887.227; 1034.903;  -14.297; 2941.957
887.788; 1005.007;  -13.137; 2974.836
888.349;  949.811;  -14.637; 2721.214
888.910;  884.231;  -12.247; 2696.493
889.471;  876.435;  -10.577; 2560.172
890.032;  872.785;  -12.937; 2558.190
890.593;  852.490;  -12.487; 2567.669
891.153;  828.654;  -11.898; 2460.307
891.714;  789.924;  -14.278; 2372.046
892.275;  765.987;  -13.308; 2309.505
892.835;  729.162;  -12.058; 2382.543
893.396;  650.425;  -15.268; 2295.502
893.956;  596.765;  -13.278; 2162.420
894.517;  575.831;  -11.968; 2125.439
895.077;  580.472;  -12.798; 2086.978
895.638;  569.056;  -11.908; 2126.316
896.198;  555.057;  -13.288; 1838.275
896.758;  533.320;  -12.198; 1892.813
897.319;  504.036;  -13.048; 1792.232
897.879;  474.150;  -13.718; 1762.751
898.439;  438.435;  -14.138; 1661.149
898.999;  400.835;  -13.659; 1781.468
899.559;  377.816;  -14.699; 1703.347
900.119;  360.994;  -14.339; 1537.525
900.679;  334.963;  -11.789; 1638.384
901.239;  307.507;  -13.629; 1527.902
901.799;  289.607;  -13.679; 1456.441
902.359;  280.614;  -13.679; 1357.140
902.919;  273.130;  -14.159; 1331.118
903.479;  262.988;  -13.419; 1317.257
904.038;  247.005;  -14.899; 1262.595
904.598;  232.720;  -14.339; 1152.034
905.158;  224.357;  -13.959; 1240.893
905.717;  218.600;  -12.749; 1233.691
906.277;  215.366;  -11.889; 1217.330
906.836;  210.115;  -12.870; 1222.408
907.396;  204.536;  -11.790; 1193.047
907.955;  196.933;  -13.750; 1182.526
908.515;  187.630;  -14.760; 1099.364
909.074;  181.717;  -12.540; 1092.863
909.633;  177.792;  -12.120; 1069.121
910.192;  171.671;  -12.550; 1196.460
910.752;  166.814;  -12.760; 1029.960
911.311;  163.305;  -14.750; 1009.780
911.870;  161.265;  -13.860;  971.460
912.429;  161.139;  -13.480; 1094.080
912.988;  159.806;  -12.370; 1081.060
913.547;  157.309;  -14.670;  940.380
914.106;  155.789;  -12.800;  999.420
914.665;  155.004;  -11.370;  984.020
915.224;  152.421;  -11.430; 1035.760
915.782;  150.064;  -12.260;  922.560
916.341;  148.859;  -12.540; 1049.840
916.900;  145.159;  -12.540;  925.260
917.458;  143.589;  -13.480;  884.220
918.017;  142.559;  -12.470;  942.600
918.576;  142.526;  -13.450;  904.440
919.134;  141.224;  -12.890;  837.980
919.693;  140.125;  -15.480;  893.060
920.251;  139.313;  -14.420;  876.500
920.809;  137.954;  -12.170;  839.580
921.368;  138.541;  -13.650;  885.360
921.926;  137.714;  -12.750;  842.940
922.484;  136.587;  -14.150;  903.360
923.042;  136.374;  -15.100;  880.340
923.601;  137.874;  -10.990;  998.680
924.159;  135.618;  -12.470;  935.560
924.717;  135.959;  -15.640;  841.080
925.275;  137.877;  -12.380;  903.240
925.833;  136.980;  -12.710;  779.320
926.391;  138.860;  -11.200;  938.380
926.949;  139.062;  -16.000;  857.680
927.506;  140.988;  -12.260;  903.500
928.064;  141.467;  -11.300;  877.580
928.622;  141.119;  -13.750;  880.100
929.180;  141.090;  -15.290;  814.180
929.737;  142.193;  -14.500;  808.540
930.295;  144.410;  -10.630;  928.480
930.853;  147.483;  -14.590;  849.100
931.410;  148.919;  -14.450;  821.120
931.968;  153.692;  -14.390;  940.660
932.525;  158.329;  -13.050;  909.380
933.082;  159.652;  -15.620;  811.440
933.640;  163.670;  -15.650;  925.900
934.197;  156.949;  -13.610;  886.360
934.754;  151.275;  -13.320;  897.780
935.312;  145.835;  -13.370;  863.340
935.869;  148.748;  -12.780; 1012.980
936.426;  153.069;  -14.480;  872.800
936.983;  157.947;  -13.180;  889.020
937.540;  160.059;  -15.710;  838.280
938.097;  162.920;  -14.980;  940.120
938.654;  164.143;  -13.060;  898.860
939.211;  163.347;  -12.760;  952.480
939.768;  165.982;  -16.230;  915.420
940.324;  172.683;  -10.940;  904.200
940.881;  179.591;  -12.570;  878.500
941.438;  184.292;  -13.650; 1021.200
941.995;  181.812;  -13.300;  992.560
942.551;  180.593;  -15.800;  875.620
943.108;  180.035;  -14.180;  937.920
943.664;  174.314;  -13.890;  869.340
944.221;  173.340;  -12.640; 1088.140
944.777;  171.070;  -14.700;  869.680
945.334;  171.295;  -13.010;  884.840
945.890;  172.002;  -13.480;  946.480
946.446;  170.798;  -14.920;  947.020
947.003;  170.077;  -13.860;  964.940
947.559;  172.175;  -12.000; 1063.040
948.115;  172.711;  -10.510; 1026.540
948.671;  170.340;  -12.760;  967.300
949.227;  165.472;  -15.390;  859.560
949.783;  162.905;  -15.570;  858.900
950.339;  164.831;  -12.800;  991.000
950.895;  161.966;  -13.780; 1023.840
951.451;  159.506;  -13.810;  925.280
952.007;  159.288;  -12.390;  998.540
952.563;  157.178;  -11.980;  937.780
953.118;  153.510;  -14.070;  904.940
953.674;  150.936;  -14.140;  935.780
954.230;  151.387;  -12.680;  949.640
954.785;  152.826;  -12.770;  936.640
955.341;  151.473;  -11.450;  998.160
955.897;  146.510;  -15.350;  834.660
956.452;  145.995;  -14.200;  953.840
957.008;  145.407;  -10.820; 1083.640
957.563;  142.203;  -13.200; 1009.540
958.118;  137.516;  -14.460;  877.700
958.674;  136.256;  -13.840;  946.780
959.229;  136.494;  -10.670; 1013.980
959.784;  137.779;  -17.040;  832.400
960.339;  140.609;  -12.970; 1001.280
960.894;  140.919;  -12.700;  963.760
961.449;  139.125;  -13.790;  859.960
962.004;  144.284;  -11.760; 1212.840
962.559;  143.067;  -14.840;  860.140
963.114;  142.696;  -14.530;  742.480
963.669;  145.669;  -12.780;  915.500
964.224;  146.399;  -14.330;  874.340
964.779;  143.898;  -14.380;  828.420
965.334;  138.698;  -12.460; 1017.860
965.888;  131.760;  -13.490;  875.360
966.443;  131.899;  -14.140;  972.380
966.998;  128.956;  -16.240;  819.460
967.552;  126.673;  -12.730;  908.380
968.107;  122.735;  -14.510;  868.300
968.661;  124.251;  -11.850;  922.440
969.216;  121.940;  -14.370;  856.280
969.770;  122.005;  -13.010;  917.200
970.324;  121.817;  -12.460;  923.140
970.879;  121.661;  -11.580;  947.180
971.433;  120.329;  -13.130;  952.720
971.987;  118.487;  -12.360;  895.340
972.541;  117.781;  -14.330;  917.100
973.095;  117.937;  -13.310; 1009.460
973.649;  115.208;  -15.830;  809.480
974.203;  118.161;  -15.830;  829.040
974.757;  121.890;  -13.480;  855.220
975.311;  120.721;  -13.720;  872.600
975.865;  117.285;  -15.780;  881.820
976.419;  113.568;  -14.290;  857.400
976.973;  111.744;  -13.210;  849.620
977.526;  109.667;  -12.300;  949.920
978.080;  107.043;  -14.840;  796.780
978.634;  107.739;  -13.100;  921.320
979.187;  104.294;  -12.300;  905.400
979.741;  102.353;  -12.020; 1018.380
980.294;   96.574;  -14.590;  789.160
980.848;   92.743;  -14.390;  717.220
981.401;   92.039;  -14.280;  816.540
981.955;   92.856;  -11.920;  844.300
982.508;   90.978;  -15.790;  746.340
983.061;   90.947;  -12.070;  915.260
983.615;   88.324;  -13.260;  798.800
984.168;   84.752;  -15.540;  770.080
984.721;   84.800;  -13.230;  880.760
985.274;   84.266;  -11.820;  867.500
985.827;   81.115;  -13.510;  834.220
986.380;   79.490;  -14.840;  721.340
986.933;   79.775;  -13.970;  864.800
987.486;   78.645;  -12.450;  861.920
988.039;   75.714;  -11.170;  863.100
988.591;   74.332;  -13.070;  893.260
989.144;   70.375;  -15.530;  737.260
989.697;   69.572;  -14.300;  758.740
990.250;   68.979;  -13.310;  858.100
990.802;   67.409;  -14.490;  755.860
991.355;   68.785;  -12.980;  974.880
991.907;   66.867;  -13.715;  864.320
992.460;   64.949;  -14.450;  753.760
993.012;   65.397;  -12.590;  749.540
993.565;   63.136;  -15.180;  711.360
994.117;   65.256;  -11.630;  950.780
994.669;   60.301;  -13.760;  701.320
995.221;   60.240;  -12.710;  791.920
995.774;   59.652;  -14.620;  787.580
996.326;   57.728;  -13.150;  740.220
996.878;   58.253;  -12.880;  838.420
997.430;   56.870;  -14.580;  699.860
997.982;   56.277;  -14.030;  750.140
998.534;   55.500;  -12.190;  739.060
999.086;   53.929;  -12.990;  738.220
999.638;   53.304;  -13.180;  661.380
1000.190;   52.466;  -14.970;  699.320
1000.741;   52.713;  -12.200;  742.700
1001.293;   52.136;  -13.400;  686.020
1001.845;   52.186;  -14.490;  676.640
1002.396;   52.013;  -15.280;  743.400
1002.948;   51.870;  -12.380;  737.400
1003.500;   50.691;  -13.260;  723.780
1004.051;   51.225;  -13.730;  907.580
1004.603;   49.748;  -12.300;  791.820
1005.154;   46.012;  -15.330;  608.980
1005.705;   45.922;  -12.800;  723.960
1006.257;   45.121;  -13.900;  707.220
1006.808;   43.870;  -14.430;  685.460
1007.359;   43.536;  -12.010;  763.240
1007.910;   41.924;  -12.690;  646.640
1008.461;   41.225;  -13.610;  732.940
1009.013;   39.809;  -14.990;  588.340
1009.564;   41.602;  -11.860;  793.520
1010.115;   39.941;  -12.640;  597.040
1010.665;   39.287;  -14.570;  602.160
1011.216;   39.653;  -15.190;  667.920
1011.767;   38.759;  -13.470;  697.920
1012.318;   39.932;  -13.760;  736.980
1012.869;   38.202;  -15.950;  679.000
1013.419;   37.618;  -15.880;  603.120
1013.970;   37.798;  -14.540;  666.640
1014.521;   37.554;  -13.220;  620.620
1015.071;   37.518;  -15.020;  670.380
1015.622;   36.591;  -17.510;  635.460
1016.172;   35.766;  -14.130;  596.820
1016.723;   35.906;  -14.220;  614.380
1017.273;   36.215;  -15.370;  604.160
1017.823;   35.571;  -15.290;  650.340
1018.374;   36.315;  -13.420;  611.760
1018.924;   35.406;  -11.740;  716.880
1019.474;   36.814;  -12.250;  718.880
1020.024;   34.083;  -15.850;  657.580
1020.574;   34.787;  -13.280;  726.160
1021.124;   34.141;  -13.560;  673.580
1021.674;   32.874;  -13.790;  559.120
1022.224;   34.742;  -14.610;  708.940
1022.774;   33.560;  -13.100;  668.820
1023.324;   34.703;  -11.470;  753.520
1023.874;   36.184;  -11.990;  875.760
1024.423;   32.555;  -14.550;  613.700
1024.973;   32.997;  -14.440;  610.760
1025.523;   31.859;  -13.250;  620.960
1026.072;   32.118;  -15.200;  606.420
1026.622;   31.030;  -14.590;  675.740
1027.172;   33.232;  -11.080;  715.660
1027.721;   31.783;  -14.010;  601.220
1028.270;   31.930;  -13.690;  663.400
1028.820;   31.538;  -15.380;  638.080
1029.369;   31.054;  -14.980;  612.700
1029.918;   30.947;  -13.100;  649.840
1030.468;   30.287;  -13.680;  564.780
1031.017;   30.927;  -13.770;  634.800
1031.566;   29.817;  -14.100;  608.900
1032.115;   30.542;  -11.770;  694.500
1032.664;   29.065;  -14.940;  596.480
1033.213;   30.471;  -13.370;  735.420
1033.762;   28.921;  -13.660;  635.620
1034.311;   28.229;  -13.650;  677.220
1034.860;   29.323;  -13.820;  691.000
1035.408;   28.973;  -12.860;  722.720
1035.957;   28.880;  -13.060;  719.540
1036.506;   26.931;  -14.510;  530.800
1037.055;   30.382;  -13.470;  844.320
1037.603;   28.369;  -14.800;  664.000
1038.152;   26.307;  -14.190;  534.760
1038.700;   27.145;  -11.810;  585.740
1039.249;   27.701;  -12.850;  681.220
1039.797;   27.517;  -14.610;  633.360
1040.345;   26.888;  -15.220;  705.420
1040.894;   26.750;  -13.480;  625.300
1041.442;   25.917;  -13.310;  632.200
1041.990;   24.957;  -14.510;  559.160
1042.538;   25.057;  -15.700;  536.180
1043.087;   25.145;  -13.910;  570.860
1043.635;   26.774;  -13.620;  670.500
1044.183;   24.841;  -14.230;  586.400
1044.731;   25.434;  -13.730;  576.000
1045.279;   25.140;  -13.970;  674.920
1045.827;   27.831;  -10.750;  892.400
1046.374;   23.888;  -15.230;  515.420
1046.922;   23.224;  -15.390;  590.580
1047.470;   25.406;  -12.320;  691.300
1048.018;   24.733;  -13.230;  647.960
1048.565;   25.834;  -13.390;  708.600
1049.113;   22.991;  -15.030;  557.000
1049.660;   23.345;  -12.540;  629.660
1050.208;   24.334;  -15.040;  675.640
1050.755;   23.601;  -14.680;  606.580
1051.303;   23.896;  -13.610;  686.820
1051.850;   23.438;  -14.340;  635.120
1052.397;   21.289;  -16.330;  473.960
1052.945;   22.321;  -15.710;  617.760
1053.492;   24.132;  -12.320;  741.840
1054.039;   23.001;  -13.730;  720.180
1054.586;   21.733;  -16.140;  557.240
1055.133;   23.066;  -14.020;  693.140
1055.680;   21.991;  -13.430;  646.620
1056.227;   20.848;  -14.570;  542.780
1056.774;   23.635;  -14.400;  794.980
1057.321;   21.550;  -14.230;  523.260
1057.868;   21.100;  -14.220;  651.320
1058.415;   20.962;  -14.060;  651.980
1058.961;   21.758;  -14.640;  678.940
1059.508;   21.713;  -13.970;  643.820
1060.055;   20.341;  -15.100;  581.780
1060.601;   20.876;  -12.180;  624.300
1061.148;   20.449;  -15.010;  616.820
1061.694;   20.410;  -14.750;  592.580
1062.241;   20.268;  -14.130;  596.320
1062.787;   20.798;  -14.770;  663.140
1063.334;   22.665;  -13.130;  808.560
1063.880;   20.532;  -14.420;  668.360
1064.426;   20.470;  -13.130;  706.820
1064.972;   19.321;  -13.960;  601.340
1065.518;   18.356;  -13.680;  566.640
1066.065;   19.658;  -15.720;  624.460
1066.611;   19.142;  -13.970;  598.800
1067.157;   18.916;  -13.920;  641.860
1067.703;   19.448;  -14.760;  668.480
1068.249;   19.457;  -14.490;  605.220
1068.794;   19.281;  -14.740;  626.880
1069.340;   17.425;  -13.220;  578.960
1069.886;   18.330;  -14.930;  590.700
1070.432;   17.321;  -14.700;  541.720
1070.977;   17.622;  -14.470;  601.080
1071.523;   18.095;  -14.330;  573.060
1072.068;   17.575;  -14.960;  582.000
1072.614;   17.468;  -16.220;  527.760
1073.160;   18.380;  -11.280;  687.040
1073.705;   15.827;  -15.990;  572.520
1074.250;   16.528;  -16.550;  559.900
1074.796;   18.025;  -14.600;  655.160
1075.341;   17.885;  -13.440;  664.100
1075.886;   17.016;  -14.450;  594.240
1076.431;   17.668;  -13.160;  649.880
1076.976;   16.954;  -14.710;  639.220
1077.521;   15.854;  -14.000;  583.080
1078.067;   15.896;  -14.470;  579.400
1078.612;   16.247;  -14.530;  661.620
1079.156;   15.928;  -15.660;  601.540
1079.701;   16.358;  -16.120;  693.260
1080.246;   17.747;  -12.960;  696.300
1080.791;   16.803;  -13.700;  625.020
1081.336;   16.293;  -15.540;  659.320
1081.880;   16.485;  -14.640;  649.680
1082.425;   14.618;  -14.220;  573.480
1082.970;   16.967;  -11.890;  717.040
1083.514;   14.965;  -13.820;  597.000
1084.059;   14.218;  -14.280;  586.720
1084.603;   13.906;  -12.890;  565.840
1085.147;   15.419;  -13.590;  645.220
1085.692;   15.878;  -14.050;  716.800
1086.236;   13.516;  -14.990;  503.140
1086.780;   15.647;  -12.640;  751.440
1087.325;   14.812;  -15.550;  654.620
1087.869;   14.498;  -14.980;  610.700
1088.413;   14.795;  -13.440;  705.040
1088.957;   13.189;  -12.170;  543.400
1089.501;   15.460;  -12.730;  766.640
1090.045;   14.502;  -14.650;  726.480
1090.589;   12.377;  -14.500;  569.920
1091.133;   13.604;  -12.320;  673.340
1091.676;   13.216;  -16.130;  591.940
1092.220;   12.666;  -13.930;  600.920
1092.764;   14.211;  -12.820;  706.960
1093.307;   13.883;  -11.700;  673.780
1093.851;   12.242;  -15.600;  556.540
1094.395;   13.633;  -13.920;  683.140
1094.938;   12.528;  -16.090;  632.520
1095.482;   12.546;  -13.820;  559.800
1096.025;   13.742;  -12.720;  710.880
1096.568;   13.529;  -12.100;  779.280
1097.112;   10.740;  -15.450;  508.180
1097.655;   12.526;  -14.310;  603.000
1098.198;   10.684;  -14.740;  600.180
1098.741;   11.342;  -15.550;  612.860
1099.285;   12.328;  -12.600;  657.300
1099.828;   10.478;  -15.050;  439.400
1100.371;   11.858;  -14.800;  608.160
1100.914;   11.859;  -16.480;  682.660
1101.457;   12.076;  -12.990;  679.900
1101.999;    9.823;  -14.110;  584.680
1102.542;   11.738;  -11.450;  641.440
1103.085;   11.170;  -13.350;  658.500
1103.628;   11.808;  -13.200;  762.060
1104.170;   10.099;  -12.310;  588.280
1104.713;   10.789;  -14.320;  646.700
1105.256;    9.769;  -16.110;  557.440
1105.798;    8.978;  -15.910;  499.980
1106.341;   11.432;  -12.200;  728.900
1106.883;    9.401;  -14.910;  521.340
1107.425;   10.242;  -14.960;  668.180
1107.968;    9.677;  -13.440;  612.380
1108.510;   10.365;  -14.010;  684.960
1109.052;    8.128;  -15.430;  612.620
1109.594;    8.480;  -15.290;  554.440
1110.136;    9.913;  -13.360;  643.220
1110.679;    9.058;  -13.820;  633.080
1111.221;    9.492;  -13.690;  604.460
1111.763;    8.882;  -14.890;  559.220
1112.304;    8.596;  -14.550;  547.140
1112.846;    9.601;  -12.760;  666.240
1113.388;   12.480;  -10.780;  942.180
1113.930;    8.885;  -12.690;  694.200
1114.472;    8.665;  -15.730;  606.540
1115.013;    6.620;  -14.620;  551.280
1115.555;    7.807;  -14.950;  587.100
1116.097;    7.175;  -16.460;  579.480
1116.638;    8.239;  -13.730;  684.600
1117.180;    7.871;  -13.810;  667.740
1117.721;    7.561;  -13.280;  568.580
1118.262;    8.861;  -15.080;  677.960
1118.804;    8.024;  -14.040;  637.340
1119.345;    7.532;  -15.430;  578.400
1119.886;    8.891;  -15.240;  704.040
1120.427;    7.488;  -15.820;  589.020
1120.969;    6.830;  -14.550;  597.920
1121.510;    6.951;  -14.030;  563.060
1122.051;    8.324;  -11.990;  723.580
1122.592;    6.874;  -16.490;  655.420
1123.133;    5.462;  -15.580;  547.940
1123.673;    7.849;  -12.850;  706.480
1124.214;    7.122;  -13.630;  612.460
1124.755;    7.733;  -14.830;  639.460
1125.296;    6.416;  -13.110;  627.320
1125.836;    7.525;  -11.320;  691.500
1126.377;    6.362;  -14.330;  599.660
1126.918;    6.852;  -12.800;  614.980
1127.458;    6.230;  -13.580;  622.220
1127.999;    7.318;  -10.330;  656.980
1128.539;    6.965;  -13.390;  694.240
1129.079;    6.484;  -16.420;  632.720
1129.620;    5.144;  -15.700;  558.100
1130.160;    5.322;  -14.790;  539.480
1130.700;    5.969;  -12.910;  640.840
1131.240;    6.059;  -15.610;  643.700
1131.781;    5.454;  -12.920;  619.680
1132.321;    5.036;  -15.300;  599.120
1132.861;    4.356;  -14.760;  564.200
1133.401;    4.652;  -15.470;  593.940
1133.941;    5.494;  -13.710;  626.280
1134.481;    4.728;  -11.820;  597.580
1135.020;    4.703;  -14.810;  609.160
1135.560;    4.729;  -13.660;  674.940
1136.100;    3.798;  -13.940;  501.160
1136.640;    3.681;  -15.410;  510.480
1137.179;    4.465;  -16.920;  537.960
1137.719;    4.377;  -16.430;  605.400
1138.258;    4.483;  -16.300;  587.360
1138.798;    4.776;  -13.710;  663.780
1139.337;    4.043;  -13.840;  482.840
1139.877;    4.680;  -16.140;  642.360
1140.416;    6.995;  -11.410;  878.060
1140.955;    3.406;  -12.820;  535.380
1141.494;    4.094;  -12.310;  669.280
1142.034;    3.469;  -16.280;  583.520
1142.573;    4.395;  -13.090;  646.280
1143.112;    2.409;  -13.770;  553.480
1143.651;    3.216;  -15.830;  536.480
1144.190;    4.757;  -15.010;  691.640
1144.729;    3.603;  -13.650;  607.420
1145.267;    3.110;  -13.670;  584.900
1145.806;    4.116;  -13.630;  637.040
1146.345;    2.926;  -14.160;  635.020
1146.884;    3.013;  -11.180;  622.500
1147.422;    2.471;  -15.890;  533.060
1147.961;    4.344;  -12.760;  708.460
1148.500;    3.660;  -15.220;  669.720
1149.038;    3.146;  -13.720;  632.500
1149.577;    3.309;  -13.250;  698.640
1150.115;    0.966;  -16.790;  452.280
1150.653;    2.717;  -15.810;  607.340
1151.192;    2.138;  -14.730;  552.920
1151.730;    2.711;  -13.660;  652.560
1152.268;    2.131;  -15.120;  589.520
1152.806;    1.763;  -15.580;  571.180
1153.344;    1.348;  -16.210;  577.640
1153.882;    2.398;  -12.810;  600.060
1154.421;    0.103;  -14.150;  470.620
1154.958;    1.809;  -15.360;  595.240
1155.496;    3.165;  -14.710;  645.280
1156.034;    2.852;  -13.640;  721.880
1156.572;    2.946;  -13.740;  667.060
1157.110;    0.242;  -16.960;  473.940
1157.647;    2.343;  -11.940;  676.960
1158.185;    0.583;  -14.090;  564.320
1158.723;    0.617;  -13.610;  509.200
1159.260;    2.339;  -14.760;  701.700
1159.798;    2.200;  -13.700;  658.160
1160.335;    1.483;  -13.820;  631.820

