gmr_right
Integration time [ms]:   3.882
Averaging Nr. [scans]: 1000
Smoothing Nr. [pixels]: 0
Data measured with spectrometer [name]: 7414430SP
Wave   ;Sample   ;Dark     ;Reference
[nm]   ;[counts] ;[counts] ;[counts] 

288.544;  129.081;   10.292;  793.890
289.143;  131.291;    4.564;  681.602
289.742;  133.740;    6.144;  828.814
290.341;  120.348;    4.396;  789.841
290.940;  110.792;    0.938;  730.702
291.538;  111.907;   -0.684;  881.108
292.137;  111.081;   -2.845;  792.581
292.736;  115.162;   -0.144;  975.101
293.335;  111.290;   -6.352;  735.086
293.934;  110.024;   -7.642;  781.677
294.532;  111.372;   -4.992; 1031.958
295.131;   97.259;   -5.478;  834.394
295.730;   97.267;   -6.549;  809.588
296.328;   96.269;   -9.558;  783.442
296.927;   95.786;   -8.118;  779.652
297.525;   97.067;   -6.908;  781.236
298.124;   87.361;   -9.195;  654.009
298.722;   92.293;   -8.198;  761.933
299.321;   90.397;   -8.817;  708.597
299.919;   87.944;   -7.716;  751.918
300.518;   84.011;  -10.745;  689.338
301.116;   85.416;   -9.647;  691.381
301.715;   86.715;  -10.828;  730.222
302.313;   85.639;   -6.087;  704.943
302.911;   80.392;   -6.824;  733.830
303.509;   86.052;   -8.807;  925.627
304.108;   83.401;   -8.198;  760.383
304.706;   83.416;   -6.218;  801.664
305.304;   77.112;   -7.185;  796.707
305.902;   84.137;   -8.568;  784.484
306.500;   79.120;   -7.737;  728.200
307.098;   77.777;   -6.026;  746.560
307.696;   75.362;   -7.176;  780.432
308.294;   76.224;   -8.656;  731.359
308.892;   78.763;   -6.838;  759.769
309.490;   73.969;   -2.596;  712.161
310.088;   72.222;   -4.485;  788.444
310.686;   77.431;   -3.907;  821.749
311.284;   73.088;   -2.806;  766.040
311.882;   70.790;   -2.845;  731.225
312.480;   66.718;   -3.274;  697.167
313.078;   69.916;   -3.645;  808.331
313.675;   70.405;   -4.997;  691.600
314.273;   65.254;   -0.894;  797.837
314.871;   64.499;   -2.854;  589.829
315.468;   63.146;   -3.644;  652.090
316.066;   66.418;   -3.947;  694.427
316.664;   58.620;   -1.824;  656.351
317.261;   63.898;    1.565;  910.128
317.859;   58.738;   -3.955;  768.735
318.456;   60.627;   -2.886;  830.096
319.054;   55.715;   -0.995;  787.828
319.651;   56.106;   -1.765;  759.928
320.249;   54.400;   -3.685;  810.188
320.846;   53.030;   -3.736;  714.286
321.443;   49.604;   -2.065;  832.135
322.041;   47.654;   -5.635;  812.315
322.638;   46.192;   -5.985;  701.456
323.235;   48.926;   -6.677;  665.683
323.833;   45.546;   -3.497;  740.354
324.430;   41.554;   -6.756;  615.900
325.027;   43.491;   -7.647;  876.855
325.624;   43.782;   -7.598;  644.532
326.221;   41.076;   -5.848;  689.717
326.818;   40.956;   -5.777;  818.332
327.415;   43.428;   -8.769;  748.828
328.012;   42.438;   -6.299;  690.585
328.609;   40.770;   -6.639;  731.389
329.206;   39.107;   -6.358;  778.621
329.803;   38.067;   -8.698;  737.841
330.400;   40.356;   -8.379;  704.260
330.997;   41.581;   -6.178;  817.147
331.594;   38.398;   -5.646;  788.185
332.191;   43.060;   -6.928;  728.722
332.787;   44.491;   -6.057;  844.463
333.384;   42.347;   -6.445;  763.093
333.981;   40.236;   -8.002;  815.687
334.578;   41.806;   -8.443;  708.378
335.174;   44.308;   -6.053;  731.469
335.771;   43.480;   -5.791;  836.456
336.367;   40.086;   -6.570;  710.631
336.964;   43.085;   -6.741;  793.266
337.561;   42.639;   -5.710;  731.112
338.157;   38.854;   -3.928;  911.916
338.754;   35.181;   -5.577;  796.589
339.350;   34.079;   -9.667;  722.493
339.946;   38.386;   -5.269;  773.135
340.543;   29.836;   -4.485;  846.136
341.139;   24.277;   -7.584;  720.836
341.735;   23.650;   -8.553;  772.593
342.332;   22.997;   -4.984;  691.472
342.928;   22.564;   -3.475;  795.394
343.524;   17.743;   -6.653;  761.684
344.120;   14.040;   -7.173;  738.562
344.716;   17.206;   -4.385;  723.717
345.313;   15.924;   -3.565;  795.342
345.909;   11.157;   -7.495;  627.336
346.505;   13.367;   -8.276;  740.247
347.101;   14.460;   -5.697;  827.864
347.697;   14.463;   -4.767;  785.398
348.293;    8.808;   -7.226;  627.244
348.889;    9.630;   -7.547;  745.914
349.485;    9.832;   -9.147;  688.205
350.081;   11.104;   -6.568;  772.592
350.676;    5.262;   -6.516;  691.606
351.272;   10.197;   -7.378;  809.530
351.868;   10.688;   -6.759;  780.497
352.464;    7.660;   -4.798;  723.932
353.059;    4.255;   -7.977;  646.017
353.655;    8.087;   -8.769;  777.063
354.251;    8.630;   -5.920;  759.845
354.846;    3.089;   -7.647;  740.646
355.442;    0.359;   -6.956;  753.071
356.038;    2.555;   -9.928;  751.708
356.633;    2.856;   -7.698;  728.594
357.229;    0.824;   -6.307;  724.757
357.824;   -0.023;   -7.647;  703.600
358.420;   -0.704;  -10.047;  679.726
359.015;   -0.195;   -7.458;  695.357
359.610;    1.067;   -5.748;  763.920
360.206;   -5.758;   -9.346;  603.240
360.801;   -2.172;  -11.268;  646.503
361.396;    0.046;   -8.789;  725.975
361.992;   -3.981;   -6.347;  668.220
362.587;   -7.369;   -6.476;  670.160
363.182;   -4.229;   -9.457;  689.631
363.777;   -4.894;   -7.147;  738.242
364.372;   -4.758;   -5.507;  737.314
364.967;   -8.963;   -6.386;  680.744
365.563;   -3.513;   -7.858;  815.567
366.158;   -6.371;   -8.517;  685.161
366.753;   -5.807;   -8.728;  649.263
367.348;   -8.120;   -7.677;  746.056
367.942;   -7.635;  -10.387;  697.298
368.537;   -8.207;   -7.187;  754.245
369.132;   -8.436;   -8.587;  703.428
369.727;  -12.530;   -8.606;  638.079
370.322;  -10.838;  -10.426;  580.186
370.917;  -10.125;   -5.776;  710.646
371.511;   -7.327;   -6.007;  861.834
372.106;  -11.779;   -6.686;  776.964
372.701;  -15.042;   -9.335;  585.988
373.296;   -8.711;   -6.777;  863.135
373.890;  -14.325;   -7.546;  647.840
374.485;  -15.827;   -8.755;  691.199
375.079;  -11.993;   -9.797;  738.685
375.674;   -9.828;   -6.327;  812.970
376.268;  -14.542;   -9.046;  691.759
376.863;  -20.309;   -7.993;  580.327
377.457;  -14.352;   -9.206;  662.490
378.052;  -14.817;   -5.345;  764.884
378.646;  -15.786;   -5.605;  741.167
379.240;  -16.886;   -6.825;  721.176
379.835;  -15.480;  -10.476;  636.978
380.429;  -17.418;   -8.676;  562.557
381.023;  -17.383;   -4.945;  779.205
381.617;  -20.002;   -8.094;  680.106
382.212;  -16.014;  -10.646;  685.303
382.806;  -14.406;   -8.136;  760.690
383.400;  -19.946;   -7.855;  672.281
383.994;  -20.503;   -8.125;  664.870
384.588;  -15.851;   -7.637;  697.701
385.182;  -14.556;   -7.458;  726.624
385.776;  -16.754;   -6.277;  706.875
386.370;  -20.379;   -7.485;  681.968
386.964;  -18.590;   -9.416;  684.155
387.558;  -16.284;   -8.518;  598.360
388.152;  -20.101;   -7.096;  681.959
388.745;  -18.468;   -7.656;  814.707
389.339;  -15.399;   -8.927;  747.642
389.933;  -15.483;   -9.538;  695.370
390.527;  -16.197;   -5.857;  859.029
391.120;  -22.628;   -9.455;  595.318
391.714;  -19.529;   -9.746;  711.633
392.308;  -15.932;   -7.857;  780.253
392.901;  -19.977;   -9.106;  642.460
393.495;  -22.435;  -10.365;  595.414
394.089;  -19.830;   -9.696;  760.452
394.682;  -20.813;   -7.016;  697.188
395.275;  -20.811;   -8.466;  719.927
395.869;  -22.386;   -8.985;  667.314
396.462;  -20.018;  -11.496;  616.609
397.056;  -15.046;   -7.838;  776.621
397.649;  -20.975;   -6.895;  731.575
398.242;  -18.302;   -5.017;  712.645
398.836;  -16.780;   -8.787;  766.408
399.429;  -18.619;   -8.967;  631.041
400.022;  -22.659;   -8.815;  665.902
400.615;  -19.472;   -6.276;  805.609
401.208;  -17.662;   -8.407;  691.451
401.802;  -18.890;   -7.296;  699.329
402.395;  -20.267;   -7.585;  683.502
402.988;  -22.579;   -8.015;  696.627
403.581;  -18.533;   -9.577;  646.878
404.174;  -15.924;   -7.588;  686.568
404.767;  -18.992;   -7.906;  638.583
405.360;  -22.750;   -7.875;  621.445
405.953;  -15.515;   -8.127;  759.034
406.545;  -14.788;   -7.198;  725.342
407.138;  -18.944;   -8.916;  618.350
407.731;  -18.181;   -9.767;  613.303
408.324;  -13.975;  -10.659;  660.554
408.917;  -14.458;   -8.068;  681.864
409.509;  -16.737;   -9.837;  740.396
410.102;  -19.155;   -8.146;  643.948
410.695;  -12.145;   -7.969;  665.758
411.287;  -13.446;   -8.579;  599.821
411.880;  -15.043;   -6.968;  585.421
412.472;  -18.063;   -9.487;  613.092
413.065;  -14.424;  -10.338;  629.408
413.657;  -12.254;   -9.169;  576.678
414.250;  -12.642;  -10.119;  646.681
414.842;  -14.244;   -9.938;  676.353
415.434;  -11.997;  -10.409;  570.463
416.027;   -7.181;   -9.591;  652.196
416.619;   -9.779;   -7.379;  713.400
417.211;  -10.753;   -9.159;  599.352
417.804;   -5.861;   -9.191;  628.499
418.396;  -10.500;   -8.159;  607.643
418.988;   -7.642;   -6.960;  659.238
419.580;  -11.912;  -11.389;  568.276
420.172;   -9.850;  -13.460;  536.196
420.764;   -4.784;  -10.701;  672.482
421.356;   -5.844;   -8.961;  636.898
421.948;   -6.898;   -9.770;  677.661
422.540;   -1.402;   -8.832;  680.027
423.132;   -2.153;   -8.153;  600.641
423.724;   -5.319;   -8.481;  561.267
424.316;   -3.788;   -9.261;  621.345
424.908;    0.045;   -9.643;  591.517
425.500;    0.973;   -8.663;  647.978
426.092;    1.528;   -8.503;  648.268
426.683;   -0.362;  -10.522;  684.836
427.275;    3.668;  -11.734;  641.471
427.867;    4.715;  -10.264;  668.948
428.458;    5.778;   -7.644;  732.344
429.050;    3.896;   -7.853;  680.749
429.642;    6.433;   -8.904;  743.124
430.233;    6.862;  -10.795;  569.356
430.825;    8.024;   -7.665;  724.809
431.416;    5.471;   -8.843;  698.241
432.008;    9.581;   -9.885;  651.723
432.599;   10.080;   -9.966;  656.073
433.190;    6.925;   -9.164;  637.670
433.782;    5.695;   -8.584;  590.395
434.373;   14.467;   -8.296;  884.765
434.964;   12.304;   -9.896;  602.920
435.556;    9.752;   -8.255;  634.537
436.147;   12.499;   -8.075;  758.490
436.738;   12.908;   -9.716;  701.099
437.329;   18.528;   -7.318;  721.723
437.920;   10.767;   -6.694;  666.688
438.511;   10.731;   -9.644;  564.526
439.103;   18.079;   -9.427;  623.998
439.694;   19.164;  -10.748;  681.583
440.285;   20.379;   -7.997;  764.432
440.876;   18.589;  -10.046;  845.738
441.466;   18.097;  -13.467;  575.162
442.057;   23.728;   -9.329;  665.814
442.648;   21.634;   -7.707;  746.255
443.239;   19.754;   -9.017;  620.477
443.830;   26.023;  -10.279;  704.958
444.421;   27.407;  -12.630;  655.474
445.011;   23.603;   -8.697;  693.619
445.602;   23.675;   -7.787;  743.126
446.193;   25.796;  -13.329;  488.117
446.783;   30.370;   -9.171;  640.397
447.374;   25.613;   -7.457;  692.759
447.964;   26.065;   -9.277;  713.770
448.555;   35.416;   -9.041;  822.742
449.145;   31.111;   -8.969;  662.853
449.736;   31.459;   -6.809;  803.179
450.326;   31.660;   -7.229;  713.626
450.917;   37.183;  -11.391;  675.324
451.507;   37.067;   -9.501;  600.661
452.097;   37.213;   -8.460;  746.267
452.688;   38.564;  -10.080;  742.160
453.278;   38.201;  -12.861;  566.840
453.868;   42.759;   -8.372;  793.550
454.458;   40.189;   -8.131;  651.141
455.048;   40.073;   -8.520;  711.783
455.639;   42.379;  -13.632;  567.096
456.229;   46.149;  -10.143;  710.694
456.819;   48.042;   -9.163;  751.158
457.409;   48.246;   -8.652;  773.993
457.999;   50.510;   -9.933;  737.505
458.589;   51.198;  -10.363;  686.606
459.179;   50.791;  -10.633;  717.658
459.769;   49.126;  -12.442;  627.099
460.358;   53.213;   -9.844;  797.262
460.948;   53.725;   -9.924;  689.503
461.538;   55.820;  -10.484;  660.677
462.128;   53.070;  -10.703;  664.934
462.717;   59.992;  -11.486;  710.326
463.307;   63.690;  -10.767;  705.846
463.897;   59.180;   -8.814;  656.942
464.486;   58.615;   -8.182;  837.128
465.076;   63.349;   -9.985;  733.776
465.666;   66.934;  -10.447;  652.900
466.255;   64.207;   -7.754;  785.651
466.845;   62.891;  -10.884;  666.749
467.434;   66.308;  -12.525;  725.873
468.023;   66.943;  -11.456;  658.357
468.613;   64.714;   -9.173;  713.946
469.202;   68.987;   -9.306;  646.507
469.791;   74.077;   -8.917;  737.811
470.381;   75.828;   -9.657;  742.813
470.970;   75.707;   -9.947;  711.099
471.559;   74.584;   -9.256;  733.291
472.148;   78.599;  -13.397;  675.737
472.738;   81.511;   -9.928;  765.466
473.327;   80.551;  -10.897;  637.529
473.916;   79.522;   -8.526;  737.446
474.505;   84.364;  -11.078;  751.703
475.094;   87.627;   -9.559;  806.570
475.683;   87.292;   -8.838;  797.699
476.272;   87.727;  -10.198;  730.632
476.861;   90.825;  -11.489;  706.754
477.449;   96.857;  -10.721;  728.487
478.038;   91.679;   -9.818;  692.513
478.627;   91.919;   -9.887;  714.852
479.216;   99.466;  -10.030;  769.441
479.805;  102.816;   -9.401;  783.375
480.393;  102.055;   -5.739; 1008.945
480.982;  101.145;   -7.838;  874.501
481.571;  107.500;   -9.111;  858.333
482.159;  107.558;  -10.601;  705.386
482.748;  108.388;   -8.500;  821.385
483.336;  112.860;   -9.241;  858.209
483.925;  114.179;  -10.440;  774.373
484.513;  120.729;  -11.063;  758.962
485.102;  116.476;   -9.540;  810.965
485.690;  126.502;   -6.742; 1011.050
486.278;  128.348;   -8.442;  979.329
486.867;  128.027;  -10.472;  809.662
487.455;  130.176;   -8.811;  898.229
488.043;  131.171;  -10.721;  748.361
488.631;  141.424;  -10.393; 1005.079
489.220;  145.248;  -10.843;  908.626
489.808;  144.058;  -10.572;  741.415
490.396;  152.692;  -10.482;  914.645
490.984;  159.096;  -11.542;  830.161
491.572;  168.483;   -8.463;  940.315
492.160;  174.846;   -8.491;  919.081
492.748;  185.609;   -9.681;  884.341
493.336;  207.142;  -10.493; 1019.693
493.924;  232.197;   -9.354;  958.077
494.512;  261.880;   -9.132; 1066.638
495.100;  302.490;   -9.001; 1103.280
495.687;  364.451;  -11.924; 1206.373
496.275;  440.689;  -11.193; 1150.796
496.863;  518.100;   -9.241; 1281.171
497.451;  616.660;  -11.341; 1386.805
498.038;  746.381;  -11.364; 1556.729
498.626;  863.984;   -8.104; 1741.407
499.214; 1037.978;   -8.842; 2016.609
499.801; 1286.431;  -10.112; 2220.633
500.389; 1506.898;  -11.953; 2312.494
500.976; 1706.624;  -10.023; 2744.849
501.564; 1989.121;   -8.662; 3148.565
502.151; 2350.346;  -10.531; 3515.999
502.738; 2747.271;  -13.853; 3971.274
503.326; 3309.105;  -10.794; 4403.796
503.913; 3760.975;   -8.663; 5161.749
504.500; 4417.530;  -10.172; 5986.420
505.088; 5362.212;  -13.472; 6381.201
505.675; 5905.810;  -10.924; 6925.547
506.262; 5927.825;   -8.551; 7619.060
506.849; 6411.513;  -10.523; 8733.969
507.436; 7338.945;  -10.834; 9790.121
508.023; 7798.816;   -9.093; 9985.472
508.610; 8031.031;  -10.073;10434.618
509.197; 9129.870;   -9.500;11198.435
509.784;10870.170;  -13.242;12391.194
510.371;11761.080;  -10.964;13603.713
510.958;12158.550;   -9.772;14426.586
511.545;12569.210;   -7.842;15243.775
512.132;12672.712;  -12.184;15945.876
512.719;13949.641;   -9.733;16340.369
513.305;16805.234;   -9.172;18011.766
513.892;18235.236;   -9.581;19754.971
514.479;19306.838;  -10.253;20967.805
515.066;20386.400;   -8.183;22299.793
515.652;21454.129;   -9.253;22908.660
516.239;23058.373;   -9.412;23798.875
516.825;24422.354;  -11.153;25567.275
517.412;24416.020;  -10.263;28154.959
517.998;24328.982;   -8.802;28344.111
518.585;24912.592;  -10.401;27134.219
519.171;24512.807;  -12.744;27268.576
519.758;25553.029;  -11.793;28964.129
520.344;28734.035;   -8.912;30664.494
520.930;32221.021;  -10.901;32550.605
521.516;32577.607;  -12.034;35422.895
522.103;33179.918;  -10.473;38280.004
522.689;34563.410;   -8.311;37835.117
523.275;36365.410;  -10.691;37288.613
523.861;37893.785;  -11.193;37281.395
524.447;35455.910;  -11.484;37846.949
525.033;35476.336;   -7.702;38321.949
525.619;35641.422;  -11.241;38579.285
526.205;35938.875;  -12.152;40622.875
526.791;37006.578;  -11.423;42258.836
527.377;37205.738;   -7.981;42966.902
527.963;37704.895;   -9.450;42018.949
528.549;37860.055;  -11.351;42476.828
529.135;37681.531;  -10.202;41854.852
529.721;39106.176;   -8.672;41237.711
530.306;38811.160;   -9.111;41259.445
530.892;40188.637;  -11.252;41506.047
531.478;43319.996;  -10.432;43559.613
532.063;45437.172;  -10.721;47695.563
532.649;46180.031;   -7.450;50808.324
533.235;47488.480;  -11.811;51787.500
533.820;46508.199;   -9.383;52145.035
534.406;44377.488;   -9.400;51133.488
534.991;43485.168;   -8.861;49996.805
535.576;44880.391;  -10.612;48882.852
536.162;43079.289;   -7.322;46942.285
536.747;42157.938;   -9.360;45711.746
537.333;43229.398;  -10.450;48510.180
537.918;46158.848;  -12.610;50439.891
538.503;46782.172;  -12.132;50863.711
539.088;43589.160;  -10.831;50906.922
539.673;42521.211;  -11.220;52621.965
540.259;46581.305;  -11.481;52368.094
540.844;47193.875;  -11.462;50879.109
541.429;48141.160;   -7.869;52077.777
542.014;46683.605;  -11.859;52716.695
542.599;44905.402;  -11.061;52363.281
543.184;45667.039;  -12.300;53187.137
543.769;46773.527;   -9.369;54697.605
544.354;48056.434;  -12.020;53913.914
544.938;43765.035;  -10.350;49680.164
545.523;40172.680;  -10.841;47386.277
546.108;43091.973;   -8.579;49151.949
546.693;45783.832;   -8.818;51384.637
547.278;47423.133;  -11.331;51853.254
547.862;46633.969;  -10.292;51173.750
548.447;44552.277;   -8.349;51691.395
549.031;44100.359;  -10.838;52456.703
549.616;45584.777;  -11.681;52714.516
550.201;48237.645;  -11.140;52414.598
550.785;46635.461;   -8.649;52355.059
551.370;46166.355;  -11.889;54589.453
551.954;47373.035;  -11.239;58267.348
552.538;49155.867;   -8.850;59062.176
553.123;51768.023;  -10.829;58115.285
553.707;53063.285;   -8.887;56556.285
554.291;49919.047;  -10.430;56201.668
554.876;47560.809;   -9.799;55335.762
555.460;44830.945;  -10.018;54155.703
556.044;43919.441;   -7.307;53721.484
556.628;47430.637;  -12.229;53731.016
557.212;48424.352;   -9.820;54312.531
557.796;46294.449;   -9.109;53797.773
558.380;43110.773;   -9.707;56145.984
558.964;44102.340;  -10.980;57277.930
559.548;47575.012;  -12.010;56459.641
560.132;48141.996;   -7.928;54434.543
560.716;50681.879;  -10.247;54800.617
561.300;51160.910;  -11.250;57606.945
561.884;48982.668;  -10.568;58972.445
562.467;47787.934;   -9.727;57327.570
563.051;43661.199;  -11.847;54962.434
563.635;40821.480;  -10.747;52594.473
564.219;39333.660;  -13.108;50610.410
564.802;38382.711;  -11.417;49551.180
565.386;38442.004;  -10.457;48370.953
565.969;41675.129;   -8.959;48178.871
566.553;42378.129;  -10.328;49957.305
567.136;42726.086;  -10.257;50369.594
567.720;42680.984;  -10.186;49492.004
568.303;41574.078;  -10.027;50616.352
568.887;41887.188;  -10.397;50727.148
569.470;43363.461;   -8.185;51698.379
570.053;42376.449;  -11.596;52122.078
570.637;40863.992;  -11.378;52536.438
571.220;40859.160;   -9.138;51186.098
571.803;39823.090;   -7.675;51032.762
572.386;37544.840;   -8.976;49609.887
572.969;38040.242;  -12.477;48285.926
573.552;38762.746;   -9.767;47624.285
574.135;37842.145;   -8.175;45498.641
574.718;33043.324;  -11.096;41970.434
575.301;32073.152;  -11.966;41447.137
575.884;31102.979;  -12.836;40923.836
576.467;36510.910;   -9.116;45267.723
577.050;38914.910;  -10.536;48175.543
577.633;39128.180;  -11.027;47729.328
578.216;37485.488;   -9.946;47579.793
578.799;36262.313;   -9.645;47820.996
579.381;36276.484;   -9.446;48115.551
579.964;36862.695;  -12.217;47333.766
580.547;37598.152;  -10.586;46668.969
581.129;37100.699;   -8.374;44466.141
581.712;35376.828;  -10.434;44164.922
582.294;34426.832;  -10.896;46477.855
582.877;35438.059;   -8.906;48244.254
583.459;36871.617;   -9.994;47437.895
584.042;36641.000;  -10.084;46943.219
584.624;35292.684;  -13.534;46792.227
585.206;33779.207;  -12.716;46557.250
585.789;34620.125;  -11.614;45793.773
586.371;35513.152;  -10.203;43836.391
586.953;34209.891;  -10.314;42972.492
587.536;32163.691;   -9.776;42487.211
588.118;32458.521;   -9.821;42086.414
588.700;33506.293;  -10.073;43389.930
589.282;34820.484;  -12.395;43646.039
589.864;33309.176;  -11.514;43438.109
590.446;33521.633;  -10.803;43151.926
591.028;34892.754;  -11.043;42781.867
591.610;34958.348;  -13.244;42839.098
592.192;31609.549;  -11.095;42820.402
592.774;29113.971;  -10.823;40724.277
593.356;28531.029;  -11.052;39874.789
593.937;30726.402;  -11.664;39980.648
594.519;33164.461;  -10.454;42069.633
595.101;33773.930;  -10.322;42976.031
595.683;32553.941;  -10.042;44084.441
596.264;31145.949;  -14.334;43478.797
596.846;31463.656;  -10.863;43803.672
597.427;32104.588;   -9.901;42986.934
598.009;32662.715;  -10.911;42832.219
598.591;33492.848;  -10.483;42580.086
599.172;32178.906;   -9.663;43061.805
599.753;30197.881;  -10.631;41691.469
600.335;29531.643;   -9.371;40692.520
600.916;30833.566;  -13.992;39982.422
601.498;32251.742;   -8.352;40318.617
602.079;30207.996;   -8.411;40670.609
602.660;31088.336;  -10.841;41450.898
603.241;32315.043;  -12.963;41137.738
603.823;29993.172;  -11.523;38868.797
604.404;27363.854;  -11.881;38182.785
604.985;28345.688;  -11.721;38078.047
605.566;31313.426;   -9.293;38056.633
606.147;32082.889;  -10.940;37020.418
606.728;31002.375;  -11.840;37883.359
607.309;30040.598;  -11.781;38748.273
607.890;30461.730;  -11.262;38850.230
608.471;30045.707;  -10.111;37457.918
609.051;29902.914;   -7.709;36066.457
609.632;30584.225;  -12.409;35991.074
610.213;29621.313;  -10.811;37402.641
610.794;28781.439;  -11.630;38383.363
611.374;29958.436;   -8.030;40562.387
611.955;31128.125;  -10.809;38533.727
612.536;32683.117;  -10.531;36951.789
613.116;33092.203;  -12.820;37197.891
613.697;32115.037;  -11.419;38411.125
614.277;31538.240;   -9.768;38673.938
614.858;31741.559;  -10.251;37075.863
615.438;28435.789;  -11.981;35092.906
616.019;26101.244;   -8.978;33666.301
616.599;28707.043;  -12.219;34189.023
617.179;32102.566;  -14.170;36952.047
617.760;33432.840;   -9.211;39582.574
618.340;33525.609;   -9.018;38943.977
618.920;32315.035;   -9.249;37594.156
619.500;31487.037;  -12.728;37866.938
620.080;33331.996;  -12.939;37869.043
620.660;32973.922;  -11.586;36868.617
621.241;32127.953;  -11.538;36352.309
621.821;32652.980;  -11.398;35459.520
622.401;33182.984;  -10.179;35207.414
622.980;33745.855;  -11.587;35980.422
623.560;32915.469;  -12.888;37351.328
624.140;30805.316;  -13.149;34388.582
624.720;26050.346;   -9.928;32368.764
625.300;25473.295;  -10.869;32638.629
625.880;29978.301;   -8.617;34599.035
626.459;34988.652;  -12.138;36831.738
627.039;36751.680;  -12.267;38299.098
627.619;36287.109;   -7.476;38289.574
628.198;36828.543;  -11.347;37220.695
628.778;36336.305;  -11.678;37632.563
629.357;34176.516;  -12.438;38003.012
629.937;31953.570;   -9.576;38402.039
630.516;30949.287;  -11.096;37868.801
631.096;30450.006;  -11.828;35760.410
631.675;30519.180;  -11.565;35225.219
632.254;30428.367;  -11.845;35130.289
632.834;31229.047;  -11.545;35794.570
633.413;32106.625;  -10.887;35788.922
633.992;33887.770;  -10.175;34532.863
634.571;33154.559;   -9.704;33590.113
635.151;30986.041;  -10.815;34943.863
635.730;30467.090;  -11.617;35352.523
636.309;29455.625;  -10.836;35366.605
636.888;29903.357;   -9.755;36165.637
637.467;30844.348;  -11.684;37515.902
638.046;32863.145;  -11.987;39288.695
638.625;34117.582;  -10.455;38279.699
639.204;33659.965;  -11.234;37741.598
639.782;30937.082;  -12.023;38364.551
640.361;28876.117;  -11.506;36740.621
640.940;28649.570;  -12.316;34950.082
641.519;30375.166;  -11.616;34137.398
642.097;34010.160;   -9.266;35654.258
642.676;34913.566;  -12.936;35637.957
643.255;33706.199;   -9.966;36567.074
643.833;33129.504;   -8.916;37809.434
644.412;34302.359;  -10.936;37337.293
644.990;37231.973;  -12.176;37018.531
645.569;38187.148;  -12.246;36518.469
646.147;37577.559;  -12.107;36186.430
646.726;36467.207;  -12.937;36267.688
647.304;38497.512;  -12.547;36647.625
647.882;39651.043;  -12.597;39286.742
648.461;37899.355;   -9.427;39157.703
649.039;35431.086;   -8.937;35412.883
649.617;33246.426;  -11.067;34744.918
650.195;33466.082;  -10.657;35403.098
650.773;33013.867;  -10.097;35053.797
651.352;30857.699;  -11.887;33756.816
651.930;26492.662;  -13.557;31868.773
652.508;23294.586;  -11.767;33121.551
653.086;24410.400;  -10.777;33564.793
653.663;28334.943;  -12.067;34054.668
654.241;31308.461;  -14.918;35693.309
654.819;32710.537;  -11.788;36422.906
655.397;32377.385;  -11.268;38213.484
655.975;33586.965;  -11.738;39507.625
656.553;32802.664;  -11.018;39498.223
657.130;31572.158;  -12.848;40395.480
657.708;31103.139;  -10.098;39242.020
658.286;31775.346;  -11.678;38920.020
658.863;34108.863;  -11.498;40202.898
659.441;36743.141;  -11.008;39677.938
660.018;37466.875;  -11.048;40413.355
660.596;37164.188;  -12.058;39931.414
661.173;36179.824;  -14.158;39604.531
661.750;35696.340;  -12.298;39700.070
662.328;34813.379;  -10.699;39292.809
662.905;32662.734;  -12.119;38235.648
663.482;27701.391;  -11.829;36212.305
664.060;26544.104;  -11.009;35944.945
664.637;29444.486;  -10.369;35170.785
665.214;30054.154;  -10.459;34197.523
665.791;28768.113;  -12.599;34549.520
666.368;28652.414;  -12.919;35118.578
666.945;30768.059;  -10.699;36019.418
667.522;32107.547;  -11.359;36048.438
668.099;32394.340;  -13.529;36243.914
668.676;32442.029;  -10.229;35958.875
669.253;32248.791;   -9.279;37384.730
669.830;30921.871;  -11.370;36779.629
670.407;31026.650;  -10.950;35231.289
670.984;32208.613;  -12.850;35544.270
671.560;31714.381;   -8.440;35466.867
672.137;30223.643;  -13.520;34280.863
672.714;29460.422;  -13.620;34632.863
673.290;30174.854;  -10.450;35135.422
673.867;29848.775;  -10.960;36114.480
674.443;28728.297;  -13.300;36152.859
675.020;29413.584;  -12.370;35327.238
675.596;29995.781;  -11.250;35795.176
676.173;30271.488;  -11.080;35430.355
676.749;30259.732;  -13.220;33549.516
677.326;32985.145;  -13.000;32210.012
677.902;34872.680;  -12.701;32068.871
678.478;35002.973;  -12.801;32583.891
679.054;34230.414;   -8.601;32088.928
679.631;34547.410;  -12.631;30978.848
680.207;33928.109;   -9.451;33160.887
680.783;32703.521;  -11.701;35570.363
681.359;32438.396;  -12.701;36125.184
681.935;32197.230;  -13.271;35240.922
682.511;31242.426;  -10.791;34429.961
683.087;31287.068;  -10.791;34463.680
683.663;31282.719;   -8.121;34648.898
684.239;32974.547;  -13.261;34546.457
684.815;32610.389;  -10.581;35586.375
685.390;29515.482;   -9.961;35821.895
685.966;28395.393;  -11.182;35085.871
686.542;27959.998;  -13.512;34198.230
687.118;28220.514;  -11.472;32847.707
687.693;28376.162;  -10.152;32794.027
688.269;29297.285;  -14.442;33072.367
688.844;30821.250;  -11.852;33141.664
689.420;29210.854;  -13.942;33965.742
689.995;28022.502;   -9.702;34655.523
690.571;28028.986;  -11.312;33576.742
691.146;27511.420;  -14.332;32657.219
691.722;28529.533;  -11.192;32526.979
692.297;31084.340;  -10.962;33014.617
692.872;30420.105;  -11.082;34012.254
693.448;29289.918;  -14.732;34237.434
694.023;28970.283;  -12.363;34142.672
694.598;29049.082;  -12.393;34132.031
695.173;27981.285;  -11.023;34205.250
695.748;27347.818;  -12.743;32882.488
696.323;28677.025;  -11.103;32864.906
696.898;29812.873;   -8.123;33170.004
697.473;29536.830;  -12.603;32432.984
698.048;29463.564;  -12.553;31649.303
698.623;31065.436;  -12.573;30778.141
699.198;34545.605;  -12.743;31140.119
699.773;32334.721;  -12.843;31764.299
700.348;30932.791;  -16.683;31780.816
700.922;31265.090;  -11.403;32046.375
701.497;31860.939;  -11.253;32603.574
702.072;32317.613;  -10.044;34799.871
702.646;32003.828;  -13.054;35793.172
703.221;30497.336;  -11.414;35201.590
703.795;30467.578;  -10.644;34764.527
704.370;32115.379;  -13.484;34307.367
704.944;32315.473;  -12.144;33509.887
705.519;31360.770;  -12.024;31388.584
706.093;30072.436;  -11.234;31340.104
706.668;28144.336;   -9.874;32630.281
707.242;27309.510;  -12.404;32728.779
707.816;27452.473;  -10.644;32947.238
708.390;26948.533;  -11.174;33277.855
708.965;27121.861;  -10.324;33834.336
709.539;27027.549;  -12.014;33709.273
710.113;27085.828;  -12.295;33044.313
710.687;28188.721;  -10.965;31953.992
711.261;28928.229;  -13.685;30505.949
711.835;28235.629;  -15.335;30262.369
712.409;27531.451;  -13.785;31254.447
712.983;27886.182;  -10.525;32754.986
713.557;29256.875;  -13.175;34018.824
714.131;30564.252;  -13.245;34579.625
714.704;32637.801;  -13.175;33890.262
715.278;35181.625;  -11.545;33531.102
715.852;34772.559;  -10.975;33601.660
716.425;33306.133;  -10.075;33515.117
716.999;32627.785;  -12.185;33185.555
717.573;33097.691;   -9.685;33905.996
718.146;35099.613;  -10.516;35199.293
718.720;32177.152;  -12.106;35060.551
719.293;30798.020;  -12.386;34973.230
719.867;34146.430;  -12.456;36394.449
720.440;34570.785;  -10.686;36663.008
721.013;34603.344;  -12.596;35102.426
721.587;34529.586;  -13.956;33985.266
722.160;33934.457;   -9.806;33524.965
722.733;33861.703;  -11.676;32987.043
723.306;33174.211;  -14.276;33066.301
723.880;33030.359;  -12.126;33399.500
724.453;34369.367;  -10.156;33468.297
725.026;32813.195;  -12.956;33816.637
725.599;30188.893;  -11.676;32797.996
726.172;28557.230;  -12.337;33187.434
726.745;29242.943;  -11.277;35136.613
727.318;29296.223;  -11.927;35751.730
727.891;28125.615;  -13.607;35890.430
728.463;28035.180;  -11.327;34822.090
729.036;27016.939;  -11.917;32895.086
729.609;27224.094;  -12.697;31823.225
730.182;27931.979;  -11.787;31445.283
730.754;28321.604;  -12.957;32373.223
731.327;29083.586;  -11.017;33676.820
731.900;27780.840;  -12.797;33417.000
732.472;25911.367;  -10.677;31978.498
733.045;25307.125;  -12.797;30368.777
733.617;26593.922;  -13.908;30574.215
734.190;27004.494;  -12.258;31280.975
734.762;27817.322;  -13.438;31674.412
735.334;28130.264;  -11.758;31247.291
735.907;27804.490;  -11.158;29876.211
736.479;29146.945;  -11.258;29808.488
737.051;31711.320;  -10.918;30233.547
737.623;32906.410;  -11.038;31469.086
738.195;32776.313;  -12.188;31784.225
738.768;29037.320;  -11.378;32120.523
739.340;27458.900;  -12.598;32094.342
739.912;29312.979;  -11.568;31312.680
740.484;30343.451;   -9.348;31946.238
741.056;29591.570;  -12.628;32984.059
741.628;28990.373;  -13.349;33897.715
742.199;28825.244;  -11.309;33213.016
742.771;27798.809;  -12.699;31369.113
743.343;28747.936;  -11.919;31865.473
743.915;29090.877;  -11.679;32388.631
744.487;27945.947;  -12.249;31079.568
745.058;26347.684;  -11.119;30570.107
745.630;25197.908;   -9.439;29970.127
746.201;25880.498;  -11.949;29186.766
746.773;26640.723;  -12.639;28805.723
747.344;26097.119;  -11.039;29591.223
747.916;24832.361;  -12.549;31412.201
748.487;23561.252;  -12.659;32194.898
749.059;22673.645;  -13.059;32533.719
749.630;24310.789;  -12.080;32158.518
750.201;24560.857;  -13.100;30855.395
750.773;23551.371;  -15.310;28622.555
751.344;22663.643;  -12.240;28405.732
751.915;21977.908;  -11.960;28461.551
752.486;21497.053;  -13.200;27842.850
753.057;21507.561;  -15.230;27845.008
753.628;21922.691;  -13.130;27728.107
754.199;22100.412;  -12.720;27381.086
754.770;21763.270;  -10.680;25882.203
755.341;21649.090;  -11.010;25886.184
755.912;21148.453;  -12.990;26050.861
756.483;19941.621;  -11.110;26798.779
757.054;19396.514;  -12.190;27048.238
757.625;19829.258;  -13.981;26294.838
758.195;19617.684;  -11.041;26142.076
758.766;20222.352;  -11.861;26392.234
759.337;21003.652;  -11.461;26334.594
759.907;22098.279;  -15.001;27579.652
760.478;22011.254;   -9.681;28352.770
761.048;21272.787;  -12.421;27325.088
761.619;20842.289;  -11.761;26460.428
762.189;19355.191;  -12.391;26029.826
762.760;18335.336;  -10.201;26430.145
763.330;18656.115;  -10.811;26670.902
763.900;21250.928;  -10.261;26603.021
764.471;22118.494;  -13.061;25542.740
765.041;20410.451;  -11.051;24358.459
765.611;19827.740;  -11.032;23991.297
766.181;19379.973;  -10.532;24470.236
766.751;19264.369;  -13.502;24845.975
767.321;19345.430;  -11.392;24533.633
767.891;19537.043;  -11.522;24916.492
768.461;20057.172;  -13.672;24776.771
769.031;19799.463;  -14.652;24757.988
769.601;19184.924;  -10.182;24181.088
770.171;17885.100;  -11.752;23670.387
770.741;15892.994;  -12.272;22960.045
771.311;15327.562;  -13.112;22917.523
771.880;15597.506;  -14.122;23562.941
772.450;16593.734;  -11.782;24216.500
773.020;18743.875;  -12.642;24140.398
773.589;18711.104;  -13.043;24414.857
774.159;16684.381;  -11.783;23858.717
774.729;15516.194;  -13.473;22942.135
775.298;16198.229;  -14.523;22324.033
775.867;17001.467;  -12.013;21140.313
776.437;16351.815;  -12.113;20838.092
777.006;15038.063;  -13.543;20599.510
777.576;13805.354;  -12.523;20508.809
778.145;13143.321;  -12.173;20732.947
778.714;13888.304;  -12.153;21062.465
779.283;14259.474;  -11.833;20949.664
779.853;14953.245;  -13.483;20508.623
780.422;15703.927;  -12.933;20649.082
780.991;15271.569;  -13.173;21527.520
781.560;13604.264;  -10.224;22632.658
782.129;12934.623;  -12.684;23048.277
782.698;14248.963;  -11.284;23438.555
783.267;15622.787;  -11.684;23267.734
783.836;14998.503;  -10.974;22415.133
784.404;13592.351;  -13.534;20443.152
784.973;13325.550;  -16.734;19699.150
785.542;13215.891;  -12.594;19763.828
786.111;12804.918;  -11.644;20341.408
786.679;13195.958;  -11.384;20207.967
787.248;14053.882;  -12.014;19516.465
787.817;13085.592;  -12.804;18900.363
788.385;11912.108;  -11.994;17879.121
788.954;12060.202;  -12.564;17658.301
789.522;13415.112;  -12.225;17788.879
790.090;13734.903;  -13.775;18118.277
790.659;12732.163;  -12.485;18338.736
791.227;11925.545;  -12.295;18508.615
791.795;11886.798;  -13.415;17898.254
792.364;11316.488;  -12.995;17295.133
792.932;10976.407;   -8.365;16822.051
793.500;11254.248;  -11.925;17040.148
794.068;11703.819;  -13.245;17179.787
794.636;11888.250;  -13.815;16664.246
795.204;11207.079;  -13.375;16524.545
795.772;10937.060;  -12.125;17274.564
796.340;11232.488;  -13.855;17891.002
796.908;11616.787;  -13.456;17648.561
797.476;11170.110;  -13.116;17064.080
798.044;10465.284;  -13.226;16672.777
798.612;10934.316;  -11.236;17023.996
799.180;12020.153;  -10.476;16561.615
799.747;12218.663;  -11.746;15962.773
800.315;11283.951;  -12.366;15296.992
800.883;10279.203;  -14.616;14801.771
801.450; 9816.991;  -11.996;14534.430
802.018;10545.708;  -11.206;14173.248
802.585;10330.238;  -12.466;14029.547
803.153; 9424.178;  -12.846;13836.846
803.720; 9118.834;  -12.136;13567.324
804.287; 8871.646;  -10.966;13360.622
804.855; 8912.944;   -9.797;13681.981
805.422; 8802.609;  -13.037;13536.560
805.989; 8521.857;  -12.697;13355.958
806.556; 8666.323;  -11.737;13747.896
807.124; 8995.853;  -11.997;13987.376
807.691; 8567.284;  -13.997;14038.674
808.258; 8311.701;  -10.927;14120.152
808.825; 8762.866;  -13.727;13860.111
809.392; 9252.953;  -11.847;13268.790
809.959; 8790.387;  -14.217;12680.389
810.526; 7920.966;   -8.277;12427.308
811.093; 7616.687;   -9.647;12030.105
811.659; 7543.967;  -10.987;11653.664
812.226; 7173.446;  -13.447;11637.183
812.793; 7260.881;  -14.418;11611.521
813.360; 7690.022;  -13.908;11885.181
813.926; 7804.460;  -12.918;12770.539
814.493; 7606.326;  -14.888;12677.638
815.060; 7662.554;  -12.758;11974.336
815.626; 8034.317;  -13.478;11594.715
816.193; 8162.547;  -13.898;11579.474
816.759; 7970.370;  -13.588;11666.972
817.325; 7959.911;  -12.018;11325.530
817.892; 7640.088;  -14.068;11105.369
818.458; 6844.907;  -13.458;10843.928
819.024; 6473.196;  -11.968;10714.406
819.591; 6128.698;  -11.028;10469.165
820.157; 5832.854;  -12.088;10235.523
820.723; 5791.878;  -12.599;10847.563
821.289; 6046.927;  -10.419;11040.980
821.855; 6715.346;  -10.939;10357.100
822.421; 7342.150;  -12.539; 9978.918
822.987; 7321.432;  -13.259; 9754.177
823.553; 6678.343;  -15.369;10065.755
824.119; 6390.423;  -10.779;10036.294
824.685; 6018.860;   -9.999;10029.192
825.251; 5660.346;  -11.819;10199.230
825.816; 5426.427;  -13.369; 9820.189
826.382; 5511.675;  -12.679; 9297.248
826.948; 5812.079;  -11.199; 9381.347
827.513; 5753.982;  -11.179; 9450.726
828.079; 5663.945;  -13.489; 9472.444
828.645; 5931.233;  -12.500; 9292.643
829.210; 6275.016;  -15.120; 9065.341
829.776; 6233.900;  -12.590; 9132.620
830.341; 6025.163;  -11.540; 9092.878
830.906; 5899.304;  -12.400; 9078.557
831.472; 5749.386;  -12.720; 8534.535
832.037; 5347.915;  -11.490; 8677.874
832.602; 4890.830;  -14.380; 8628.692
833.167; 5026.259;  -12.780; 8879.031
833.733; 5242.390;  -11.100; 9189.790
834.298; 5441.631;  -12.080; 9052.608
834.863; 5547.808;  -13.910; 8895.087
835.428; 5339.646;  -13.470; 8824.266
835.993; 5532.266;  -11.760; 8845.385
836.558; 5892.963;  -12.731; 8888.563
837.123; 6053.574;  -12.431; 8966.582
837.688; 5851.802;  -11.241; 8617.860
838.253; 5501.273;  -13.681; 8590.699
838.817; 5116.753;  -12.531; 8443.797
839.382; 5117.413;  -12.671; 8799.356
839.947; 5148.471;  -11.541; 8810.595
840.511; 4996.257;  -12.021; 8796.394
841.076; 4990.189;  -13.071; 8347.231
841.641; 4964.834;  -11.411; 8224.330
842.205; 4733.337;  -13.671; 8223.349
842.770; 4584.755;  -11.291; 8622.107
843.334; 4655.384;  -12.951; 8410.386
843.898; 4722.652;  -11.221; 8337.465
844.463; 4675.987;  -11.322; 8506.283
845.027; 4502.895;  -11.412; 8280.962
845.591; 4242.116;  -11.512; 8231.141
846.156; 4377.876;  -14.042; 7969.179
846.720; 4654.989;  -12.152; 7768.278
847.284; 4622.190;  -10.922; 7630.957
847.848; 4327.023;  -10.962; 7472.395
848.412; 3995.243;  -14.612; 7437.394
848.976; 3966.999;  -11.492; 7674.592
849.540; 3988.291;   -9.172; 7836.011
850.104; 4217.975;  -11.232; 7913.669
850.668; 4657.670;  -15.182; 7694.508
851.232; 4470.005;  -15.332; 7756.887
851.796; 4064.972;  -13.703; 7926.545
852.359; 4082.559;  -11.113; 7827.844
852.923; 4164.220;  -11.843; 7641.163
853.487; 4112.558;  -11.173; 7342.501
854.050; 3943.971;  -13.443; 7042.820
854.614; 3731.445;  -13.823; 7151.338
855.177; 3654.855;  -16.393; 7105.077
855.741; 3766.889;  -11.693; 6989.675
856.304; 3868.995;  -10.843; 6596.634
856.868; 3823.540;  -13.783; 6356.272
857.431; 3617.545;  -11.953; 6468.571
857.995; 3441.529;  -13.683; 6373.210
858.558; 3425.591;  -11.433; 6324.448
859.121; 3406.600;  -12.493; 6408.327
859.684; 3350.923;  -12.384; 6347.886
860.247; 3290.563;  -14.774; 6321.264
860.810; 3154.888;  -13.154; 6301.903
861.374; 3050.286;  -11.264; 6607.881
861.937; 3015.719;  -15.424; 6408.200
862.500; 3020.886;  -12.854; 6572.639
863.062; 3043.831;  -12.344; 6387.297
863.625; 3038.815;  -13.314; 6190.836
864.188; 2884.364;  -14.724; 5807.254
864.751; 2755.083;  -13.464; 5682.413
865.314; 2705.083;  -11.684; 5547.492
865.876; 2759.503;  -11.104; 5500.150
866.439; 2908.759;  -12.344; 5415.909
867.002; 2929.353;  -13.494; 5501.567
867.564; 2942.555;  -10.935; 5413.946
868.127; 2822.643;  -12.665; 5160.325
868.689; 2626.577;  -14.515; 5133.183
869.252; 2625.989;  -13.425; 5252.382
869.814; 2647.882;  -11.595; 5297.141
870.377; 2640.445;  -12.175; 5390.919
870.939; 2510.802;  -10.265; 5599.898
871.501; 2388.294;  -12.375; 5248.336
872.063; 2364.458;  -14.355; 4854.235
872.626; 2429.518;  -14.435; 4817.074
873.188; 2358.095;  -12.415; 4987.732
873.750; 2298.456;  -14.555; 4868.651
874.312; 2298.296;  -11.185; 4779.330
874.874; 2250.642;  -12.715; 4866.348
875.436; 2116.550;  -13.196; 4718.887
875.998; 2019.447;  -11.426; 4660.005
876.560; 1944.536;   -9.786; 4462.964
877.122; 1936.044;  -12.796; 4145.042
877.683; 1883.597;  -13.226; 4056.481
878.245; 1787.400;  -12.036; 3950.740
878.807; 1683.346;  -11.536; 4058.958
879.369; 1629.412;  -10.806; 3954.677
879.930; 1693.441;  -13.946; 3941.495
880.492; 1816.505;  -11.876; 4067.014
881.053; 1782.824;  -13.216; 3859.633
881.615; 1675.836;  -12.226; 3776.071
882.176; 1620.972;  -12.946; 3734.750
882.738; 1604.729;  -10.736; 3678.489
883.299; 1546.315;  -12.057; 3405.407
883.860; 1428.319;  -12.677; 3351.106
884.422; 1353.710;  -14.097; 3394.044
884.983; 1294.058;  -13.667; 3166.443
885.544; 1226.616;  -10.717; 3189.802
886.105; 1174.965;  -14.357; 3160.360
886.666; 1123.686;  -14.287; 3093.059
887.227; 1071.444;  -14.297; 2941.957
887.788; 1038.025;  -13.137; 2974.836
888.349;  978.337;  -14.637; 2721.214
888.910;  913.720;  -12.247; 2696.493
889.471;  908.921;  -10.577; 2560.172
890.032;  903.319;  -12.937; 2558.190
890.593;  881.972;  -12.487; 2567.669
891.153;  856.926;  -11.898; 2460.307
891.714;  821.022;  -14.278; 2372.046
892.275;  795.936;  -13.308; 2309.505
892.835;  755.417;  -12.058; 2382.543
893.396;  677.594;  -15.268; 2295.502
893.956;  626.078;  -13.278; 2162.420
894.517;  605.532;  -11.968; 2125.439
895.077;  610.243;  -12.798; 2086.978
895.638;  593.433;  -11.908; 2126.316
896.198;  576.307;  -13.288; 1838.275
896.758;  548.872;  -12.198; 1892.813
897.319;  519.166;  -13.048; 1792.232
897.879;  489.923;  -13.718; 1762.751
898.439;  452.953;  -14.138; 1661.149
898.999;  414.707;  -13.659; 1781.468
899.559;  391.901;  -14.699; 1703.347
900.119;  373.948;  -14.339; 1537.525
900.679;  346.825;  -11.789; 1638.384
901.239;  317.621;  -13.629; 1527.902
901.799;  300.397;  -13.679; 1456.441
902.359;  290.456;  -13.679; 1357.140
902.919;  285.180;  -14.159; 1331.118
903.479;  272.444;  -13.419; 1317.257
904.038;  255.830;  -14.899; 1262.595
904.598;  240.172;  -14.339; 1152.034
905.158;  231.647;  -13.959; 1240.893
905.717;  226.407;  -12.749; 1233.691
906.277;  222.567;  -11.889; 1217.330
906.836;  217.217;  -12.870; 1222.408
907.396;  210.575;  -11.790; 1193.047
907.955;  202.982;  -13.750; 1182.526
908.515;  192.452;  -14.760; 1099.364
909.074;  187.269;  -12.540; 1092.863
909.633;  183.139;  -12.120; 1069.121
910.192;  177.400;  -12.550; 1196.460
910.752;  171.103;  -12.760; 1029.960
911.311;  167.723;  -14.750; 1009.780
911.870;  165.939;  -13.860;  971.460
912.429;  166.001;  -13.480; 1094.080
912.988;  164.649;  -12.370; 1081.060
913.547;  161.398;  -14.670;  940.380
914.106;  160.150;  -12.800;  999.420
914.665;  159.133;  -11.370;  984.020
915.224;  155.638;  -11.430; 1035.760
915.782;  153.587;  -12.260;  922.560
916.341;  153.217;  -12.540; 1049.840
916.900;  148.788;  -12.540;  925.260
917.458;  146.992;  -13.480;  884.220
918.017;  146.839;  -12.470;  942.600
918.576;  147.108;  -13.450;  904.440
919.134;  145.194;  -12.890;  837.980
919.693;  144.363;  -15.480;  893.060
920.251;  143.061;  -14.420;  876.500
920.809;  142.410;  -12.170;  839.580
921.368;  141.892;  -13.650;  885.360
921.926;  140.666;  -12.750;  842.940
922.484;  140.214;  -14.150;  903.360
923.042;  140.960;  -15.100;  880.340
923.601;  141.977;  -10.990;  998.680
924.159;  140.484;  -12.470;  935.560
924.717;  139.819;  -15.640;  841.080
925.275;  141.531;  -12.380;  903.240
925.833;  141.058;  -12.710;  779.320
926.391;  143.178;  -11.200;  938.380
926.949;  144.151;  -16.000;  857.680
927.506;  144.937;  -12.260;  903.500
928.064;  146.290;  -11.300;  877.580
928.622;  145.617;  -13.750;  880.100
929.180;  146.579;  -15.290;  814.180
929.737;  146.888;  -14.500;  808.540
930.295;  150.137;  -10.630;  928.480
930.853;  150.875;  -14.590;  849.100
931.410;  152.909;  -14.450;  821.120
931.968;  154.955;  -14.390;  940.660
932.525;  156.954;  -13.050;  909.380
933.082;  160.955;  -15.620;  811.440
933.640;  168.216;  -15.650;  925.900
934.197;  172.908;  -13.610;  886.360
934.754;  175.879;  -13.320;  897.780
935.312;  175.283;  -13.370;  863.340
935.869;  176.584;  -12.780; 1012.980
936.426;  177.903;  -14.480;  872.800
936.983;  181.118;  -13.180;  889.020
937.540;  181.751;  -15.710;  838.280
938.097;  182.385;  -14.980;  940.120
938.654;  182.030;  -13.060;  898.860
939.211;  181.985;  -12.760;  952.480
939.768;  182.358;  -16.230;  915.420
940.324;  192.543;  -10.940;  904.200
940.881;  202.209;  -12.570;  878.500
941.438;  208.213;  -13.650; 1021.200
941.995;  202.345;  -13.300;  992.560
942.551;  196.357;  -15.800;  875.620
943.108;  184.695;  -14.180;  937.920
943.664;  164.140;  -13.890;  869.340
944.221;  149.389;  -12.640; 1088.140
944.777;  137.268;  -14.700;  869.680
945.334;  134.579;  -13.010;  884.840
945.890;  139.402;  -13.480;  946.480
946.446;  145.045;  -14.920;  947.020
947.003;  153.031;  -13.860;  964.940
947.559;  159.836;  -12.000; 1063.040
948.115;  161.427;  -10.510; 1026.540
948.671;  159.835;  -12.760;  967.300
949.227;  157.200;  -15.390;  859.560
949.783;  156.420;  -15.570;  858.900
950.339;  159.503;  -12.800;  991.000
950.895;  159.579;  -13.780; 1023.840
951.451;  156.407;  -13.810;  925.280
952.007;  157.202;  -12.390;  998.540
952.563;  155.106;  -11.980;  937.780
953.118;  150.855;  -14.070;  904.940
953.674;  149.492;  -14.140;  935.780
954.230;  149.679;  -12.680;  949.640
954.785;  150.995;  -12.770;  936.640
955.341;  151.277;  -11.450;  998.160
955.897;  146.954;  -15.350;  834.660
956.452;  146.397;  -14.200;  953.840
957.008;  146.258;  -10.820; 1083.640
957.563;  141.844;  -13.200; 1009.540
958.118;  137.436;  -14.460;  877.700
958.674;  138.882;  -13.840;  946.780
959.229;  137.953;  -10.670; 1013.980
959.784;  138.987;  -17.040;  832.400
960.339;  142.359;  -12.970; 1001.280
960.894;  142.951;  -12.700;  963.760
961.449;  141.971;  -13.790;  859.960
962.004;  146.436;  -11.760; 1212.840
962.559;  146.055;  -14.840;  860.140
963.114;  145.432;  -14.530;  742.480
963.669;  148.100;  -12.780;  915.500
964.224;  148.002;  -14.330;  874.340
964.779;  145.066;  -14.380;  828.420
965.334;  140.319;  -12.460; 1017.860
965.888;  134.657;  -13.490;  875.360
966.443;  134.356;  -14.140;  972.380
966.998;  131.047;  -16.240;  819.460
967.552;  129.060;  -12.730;  908.380
968.107;  125.640;  -14.510;  868.300
968.661;  126.551;  -11.850;  922.440
969.216;  124.814;  -14.370;  856.280
969.770;  124.215;  -13.010;  917.200
970.324;  124.704;  -12.460;  923.140
970.879;  124.115;  -11.580;  947.180
971.433;  124.218;  -13.130;  952.720
971.987;  120.982;  -12.360;  895.340
972.541;  120.812;  -14.330;  917.100
973.095;  120.715;  -13.310; 1009.460
973.649;  117.447;  -15.830;  809.480
974.203;  119.904;  -15.830;  829.040
974.757;  125.241;  -13.480;  855.220
975.311;  122.342;  -13.720;  872.600
975.865;  119.311;  -15.780;  881.820
976.419;  115.618;  -14.290;  857.400
976.973;  114.315;  -13.210;  849.620
977.526;  112.756;  -12.300;  949.920
978.080;  109.456;  -14.840;  796.780
978.634;  111.023;  -13.100;  921.320
979.187;  106.799;  -12.300;  905.400
979.741;  104.270;  -12.020; 1018.380
980.294;   98.233;  -14.590;  789.160
980.848;   95.263;  -14.390;  717.220
981.401;   94.829;  -14.280;  816.540
981.955;   95.086;  -11.920;  844.300
982.508;   92.548;  -15.790;  746.340
983.061;   92.878;  -12.070;  915.260
983.615;   89.974;  -13.260;  798.800
984.168;   86.257;  -15.540;  770.080
984.721;   87.056;  -13.230;  880.760
985.274;   85.538;  -11.820;  867.500
985.827;   82.366;  -13.510;  834.220
986.380;   79.729;  -14.840;  721.340
986.933;   80.613;  -13.970;  864.800
987.486;   80.022;  -12.450;  861.920
988.039;   77.772;  -11.170;  863.100
988.591;   75.592;  -13.070;  893.260
989.144;   72.324;  -15.530;  737.260
989.697;   71.284;  -14.300;  758.740
990.250;   71.031;  -13.310;  858.100
990.802;   68.979;  -14.490;  755.860
991.355;   70.430;  -12.980;  974.880
991.907;   68.626;  -13.715;  864.320
992.460;   66.821;  -14.450;  753.760
993.012;   65.303;  -12.590;  749.540
993.565;   65.298;  -15.180;  711.360
994.117;   66.052;  -11.630;  950.780
994.669;   62.268;  -13.760;  701.320
995.221;   60.828;  -12.710;  791.920
995.774;   60.691;  -14.620;  787.580
996.326;   59.652;  -13.150;  740.220
996.878;   59.851;  -12.880;  838.420
997.430;   57.629;  -14.580;  699.860
997.982;   57.292;  -14.030;  750.140
998.534;   57.394;  -12.190;  739.060
999.086;   56.100;  -12.990;  738.220
999.638;   54.591;  -13.180;  661.380
1000.190;   53.240;  -14.970;  699.320
1000.741;   54.382;  -12.200;  742.700
1001.293;   53.655;  -13.400;  686.020
1001.845;   52.709;  -14.490;  676.640
1002.396;   52.918;  -15.280;  743.400
1002.948;   53.154;  -12.380;  737.400
1003.500;   51.815;  -13.260;  723.780
1004.051;   51.717;  -13.730;  907.580
1004.603;   50.743;  -12.300;  791.820
1005.154;   47.308;  -15.330;  608.980
1005.705;   46.516;  -12.800;  723.960
1006.257;   45.826;  -13.900;  707.220
1006.808;   44.798;  -14.430;  685.460
1007.359;   44.913;  -12.010;  763.240
1007.910;   42.598;  -12.690;  646.640
1008.461;   43.055;  -13.610;  732.940
1009.013;   41.674;  -14.990;  588.340
1009.564;   42.821;  -11.860;  793.520
1010.115;   40.069;  -12.640;  597.040
1010.665;   39.960;  -14.570;  602.160
1011.216;   40.812;  -15.190;  667.920
1011.767;   40.102;  -13.470;  697.920
1012.318;   40.325;  -13.760;  736.980
1012.869;   39.317;  -15.950;  679.000
1013.419;   38.961;  -15.880;  603.120
1013.970;   39.126;  -14.540;  666.640
1014.521;   38.555;  -13.220;  620.620
1015.071;   38.146;  -15.020;  670.380
1015.622;   38.157;  -17.510;  635.460
1016.172;   37.430;  -14.130;  596.820
1016.723;   37.098;  -14.220;  614.380
1017.273;   37.118;  -15.370;  604.160
1017.823;   36.456;  -15.290;  650.340
1018.374;   36.240;  -13.420;  611.760
1018.924;   35.989;  -11.740;  716.880
1019.474;   36.750;  -12.250;  718.880
1020.024;   35.063;  -15.850;  657.580
1020.574;   35.978;  -13.280;  726.160
1021.124;   35.600;  -13.560;  673.580
1021.674;   33.700;  -13.790;  559.120
1022.224;   34.787;  -14.610;  708.940
1022.774;   34.559;  -13.100;  668.820
1023.324;   35.622;  -11.470;  753.520
1023.874;   36.540;  -11.990;  875.760
1024.423;   33.602;  -14.550;  613.700
1024.973;   32.792;  -14.440;  610.760
1025.523;   33.004;  -13.250;  620.960
1026.072;   32.244;  -15.200;  606.420
1026.622;   33.069;  -14.590;  675.740
1027.172;   34.292;  -11.080;  715.660
1027.721;   31.360;  -14.010;  601.220
1028.270;   32.028;  -13.690;  663.400
1028.820;   31.401;  -15.380;  638.080
1029.369;   31.596;  -14.980;  612.700
1029.918;   32.001;  -13.100;  649.840
1030.468;   30.907;  -13.680;  564.780
1031.017;   31.572;  -13.770;  634.800
1031.566;   30.347;  -14.100;  608.900
1032.115;   31.570;  -11.770;  694.500
1032.664;   29.058;  -14.940;  596.480
1033.213;   30.579;  -13.370;  735.420
1033.762;   29.890;  -13.660;  635.620
1034.311;   29.502;  -13.650;  677.220
1034.860;   30.128;  -13.820;  691.000
1035.408;   29.451;  -12.860;  722.720
1035.957;   30.390;  -13.060;  719.540
1036.506;   27.340;  -14.510;  530.800
1037.055;   30.809;  -13.470;  844.320
1037.603;   28.243;  -14.800;  664.000
1038.152;   27.379;  -14.190;  534.760
1038.700;   28.050;  -11.810;  585.740
1039.249;   27.557;  -12.850;  681.220
1039.797;   27.899;  -14.610;  633.360
1040.345;   28.352;  -15.220;  705.420
1040.894;   27.576;  -13.480;  625.300
1041.442;   26.619;  -13.310;  632.200
1041.990;   25.450;  -14.510;  559.160
1042.538;   26.171;  -15.700;  536.180
1043.087;   26.731;  -13.910;  570.860
1043.635;   27.229;  -13.620;  670.500
1044.183;   26.460;  -14.230;  586.400
1044.731;   26.211;  -13.730;  576.000
1045.279;   26.339;  -13.970;  674.920
1045.827;   27.923;  -10.750;  892.400
1046.374;   24.519;  -15.230;  515.420
1046.922;   24.138;  -15.390;  590.580
1047.470;   25.910;  -12.320;  691.300
1048.018;   25.113;  -13.230;  647.960
1048.565;   26.509;  -13.390;  708.600
1049.113;   24.171;  -15.030;  557.000
1049.660;   24.444;  -12.540;  629.660
1050.208;   24.708;  -15.040;  675.640
1050.755;   24.238;  -14.680;  606.580
1051.303;   24.493;  -13.610;  686.820
1051.850;   24.507;  -14.340;  635.120
1052.397;   21.991;  -16.330;  473.960
1052.945;   22.852;  -15.710;  617.760
1053.492;   24.291;  -12.320;  741.840
1054.039;   24.135;  -13.730;  720.180
1054.586;   22.112;  -16.140;  557.240
1055.133;   23.245;  -14.020;  693.140
1055.680;   24.056;  -13.430;  646.620
1056.227;   22.390;  -14.570;  542.780
1056.774;   23.663;  -14.400;  794.980
1057.321;   21.553;  -14.230;  523.260
1057.868;   22.150;  -14.220;  651.320
1058.415;   22.141;  -14.060;  651.980
1058.961;   21.976;  -14.640;  678.940
1059.508;   22.330;  -13.970;  643.820
1060.055;   21.405;  -15.100;  581.780
1060.601;   22.334;  -12.180;  624.300
1061.148;   20.522;  -15.010;  616.820
1061.694;   20.928;  -14.750;  592.580
1062.241;   21.566;  -14.130;  596.320
1062.787;   21.390;  -14.770;  663.140
1063.334;   22.884;  -13.130;  808.560
1063.880;   21.410;  -14.420;  668.360
1064.426;   21.538;  -13.130;  706.820
1064.972;   19.366;  -13.960;  601.340
1065.518;   17.545;  -13.680;  566.640
1066.065;   20.571;  -15.720;  624.460
1066.611;   19.101;  -13.970;  598.800
1067.157;   18.949;  -13.920;  641.860
1067.703;   19.660;  -14.760;  668.480
1068.249;   19.825;  -14.490;  605.220
1068.794;   19.003;  -14.740;  626.880
1069.340;   18.158;  -13.220;  578.960
1069.886;   18.853;  -14.930;  590.700
1070.432;   17.325;  -14.700;  541.720
1070.977;   18.168;  -14.470;  601.080
1071.523;   18.389;  -14.330;  573.060
1072.068;   18.019;  -14.960;  582.000
1072.614;   17.247;  -16.220;  527.760
1073.160;   19.107;  -11.280;  687.040
1073.705;   16.448;  -15.990;  572.520
1074.250;   17.193;  -16.550;  559.900
1074.796;   18.367;  -14.600;  655.160
1075.341;   18.447;  -13.440;  664.100
1075.886;   17.169;  -14.450;  594.240
1076.431;   17.137;  -13.160;  649.880
1076.976;   17.553;  -14.710;  639.220
1077.521;   17.622;  -14.000;  583.080
1078.067;   15.682;  -14.470;  579.400
1078.612;   16.610;  -14.530;  661.620
1079.156;   16.335;  -15.660;  601.540
1079.701;   17.058;  -16.120;  693.260
1080.246;   17.489;  -12.960;  696.300
1080.791;   17.137;  -13.700;  625.020
1081.336;   16.275;  -15.540;  659.320
1081.880;   17.281;  -14.640;  649.680
1082.425;   15.285;  -14.220;  573.480
1082.970;   16.981;  -11.890;  717.040
1083.514;   15.413;  -13.820;  597.000
1084.059;   14.451;  -14.280;  586.720
1084.603;   14.482;  -12.890;  565.840
1085.147;   15.165;  -13.590;  645.220
1085.692;   16.364;  -14.050;  716.800
1086.236;   13.431;  -14.990;  503.140
1086.780;   16.869;  -12.640;  751.440
1087.325;   15.372;  -15.550;  654.620
1087.869;   14.469;  -14.980;  610.700
1088.413;   15.829;  -13.440;  705.040
1088.957;   13.881;  -12.170;  543.400
1089.501;   15.602;  -12.730;  766.640
1090.045;   14.678;  -14.650;  726.480
1090.589;   12.216;  -14.500;  569.920
1091.133;   14.606;  -12.320;  673.340
1091.676;   13.401;  -16.130;  591.940
1092.220;   13.760;  -13.930;  600.920
1092.764;   15.235;  -12.820;  706.960
1093.307;   13.986;  -11.700;  673.780
1093.851;   12.309;  -15.600;  556.540
1094.395;   13.861;  -13.920;  683.140
1094.938;   13.205;  -16.090;  632.520
1095.482;   12.957;  -13.820;  559.800
1096.025;   13.573;  -12.720;  710.880
1096.568;   13.932;  -12.100;  779.280
1097.112;   10.693;  -15.450;  508.180
1097.655;   12.626;  -14.310;  603.000
1098.198;   11.872;  -14.740;  600.180
1098.741;   11.367;  -15.550;  612.860
1099.285;   12.899;  -12.600;  657.300
1099.828;   10.187;  -15.050;  439.400
1100.371;   11.693;  -14.800;  608.160
1100.914;   12.296;  -16.480;  682.660
1101.457;   12.442;  -12.990;  679.900
1101.999;   10.178;  -14.110;  584.680
1102.542;   11.954;  -11.450;  641.440
1103.085;   10.443;  -13.350;  658.500
1103.628;   12.526;  -13.200;  762.060
1104.170;   10.691;  -12.310;  588.280
1104.713;   10.362;  -14.320;  646.700
1105.256;    9.816;  -16.110;  557.440
1105.798;    9.286;  -15.910;  499.980
1106.341;   11.681;  -12.200;  728.900
1106.883;    9.026;  -14.910;  521.340
1107.425;   11.003;  -14.960;  668.180
1107.968;   10.525;  -13.440;  612.380
1108.510;   11.568;  -14.010;  684.960
1109.052;    8.717;  -15.430;  612.620
1109.594;    9.432;  -15.290;  554.440
1110.136;   10.233;  -13.360;  643.220
1110.679;    8.985;  -13.820;  633.080
1111.221;    9.274;  -13.690;  604.460
1111.763;    9.794;  -14.890;  559.220
1112.304;    8.767;  -14.550;  547.140
1112.846;    9.220;  -12.760;  666.240
1113.388;   12.624;  -10.780;  942.180
1113.930;    9.942;  -12.690;  694.200
1114.472;    8.581;  -15.730;  606.540
1115.013;    7.336;  -14.620;  551.280
1115.555;    8.177;  -14.950;  587.100
1116.097;    7.896;  -16.460;  579.480
1116.638;    8.664;  -13.730;  684.600
1117.180;    8.801;  -13.810;  667.740
1117.721;    8.094;  -13.280;  568.580
1118.262;    9.386;  -15.080;  677.960
1118.804;    9.035;  -14.040;  637.340
1119.345;    7.832;  -15.430;  578.400
1119.886;    9.275;  -15.240;  704.040
1120.427;    7.375;  -15.820;  589.020
1120.969;    6.731;  -14.550;  597.920
1121.510;    6.512;  -14.030;  563.060
1122.051;    7.598;  -11.990;  723.580
1122.592;    6.847;  -16.490;  655.420
1123.133;    5.765;  -15.580;  547.940
1123.673;    7.290;  -12.850;  706.480
1124.214;    6.479;  -13.630;  612.460
1124.755;    8.273;  -14.830;  639.460
1125.296;    7.091;  -13.110;  627.320
1125.836;    7.852;  -11.320;  691.500
1126.377;    6.282;  -14.330;  599.660
1126.918;    7.121;  -12.800;  614.980
1127.458;    6.508;  -13.580;  622.220
1127.999;    7.026;  -10.330;  656.980
1128.539;    7.179;  -13.390;  694.240
1129.079;    5.829;  -16.420;  632.720
1129.620;    5.989;  -15.700;  558.100
1130.160;    5.627;  -14.790;  539.480
1130.700;    6.631;  -12.910;  640.840
1131.240;    6.087;  -15.610;  643.700
1131.781;    5.954;  -12.920;  619.680
1132.321;    5.179;  -15.300;  599.120
1132.861;    4.374;  -14.760;  564.200
1133.401;    4.978;  -15.470;  593.940
1133.941;    6.224;  -13.710;  626.280
1134.481;    4.497;  -11.820;  597.580
1135.020;    4.432;  -14.810;  609.160
1135.560;    5.299;  -13.660;  674.940
1136.100;    3.795;  -13.940;  501.160
1136.640;    4.221;  -15.410;  510.480
1137.179;    3.832;  -16.920;  537.960
1137.719;    4.396;  -16.430;  605.400
1138.258;    4.694;  -16.300;  587.360
1138.798;    5.099;  -13.710;  663.780
1139.337;    3.145;  -13.840;  482.840
1139.877;    4.475;  -16.140;  642.360
1140.416;    7.249;  -11.410;  878.060
1140.955;    2.864;  -12.820;  535.380
1141.494;    3.892;  -12.310;  669.280
1142.034;    3.387;  -16.280;  583.520
1142.573;    5.295;  -13.090;  646.280
1143.112;    3.601;  -13.770;  553.480
1143.651;    2.922;  -15.830;  536.480
1144.190;    4.247;  -15.010;  691.640
1144.729;    3.578;  -13.650;  607.420
1145.267;    4.073;  -13.670;  584.900
1145.806;    3.944;  -13.630;  637.040
1146.345;    3.234;  -14.160;  635.020
1146.884;    3.215;  -11.180;  622.500
1147.422;    2.520;  -15.890;  533.060
1147.961;    4.015;  -12.760;  708.460
1148.500;    3.784;  -15.220;  669.720
1149.038;    4.332;  -13.720;  632.500
1149.577;    3.480;  -13.250;  698.640
1150.115;    0.634;  -16.790;  452.280
1150.653;    3.044;  -15.810;  607.340
1151.192;    3.098;  -14.730;  552.920
1151.730;    3.030;  -13.660;  652.560
1152.268;    2.543;  -15.120;  589.520
1152.806;    2.130;  -15.580;  571.180
1153.344;    1.634;  -16.210;  577.640
1153.882;    2.501;  -12.810;  600.060
1154.421;    0.300;  -14.150;  470.620
1154.958;    1.538;  -15.360;  595.240
1155.496;    2.784;  -14.710;  645.280
1156.034;    3.141;  -13.640;  721.880
1156.572;    3.494;  -13.740;  667.060
1157.110;    1.434;  -16.960;  473.940
1157.647;    2.428;  -11.940;  676.960
1158.185;    1.251;  -14.090;  564.320
1158.723;    0.291;  -13.610;  509.200
1159.260;    1.625;  -14.760;  701.700
1159.798;    2.920;  -13.700;  658.160
1160.335;    1.438;  -13.820;  631.820

