
Integration time [ms]:   3.276
Averaging Nr. [scans]: 1000
Smoothing Nr. [pixels]: 0
Data measured with spectrometer [name]: 7414430SP
Wave   ;Sample   ;Dark     ;Reference
[nm]   ;[counts] ;[counts] ;[counts] 

288.544;  158.278;    7.793;  793.890
289.143;  161.676;    7.462;  681.602
289.742;  161.637;    8.602;  828.814
290.341;  148.117;    1.321;  789.841
290.940;  138.871;   -0.709;  730.702
291.538;  140.186;    0.881;  881.108
292.137;  138.842;    0.122;  792.581
292.736;  140.870;   -1.929;  975.101
293.335;  138.374;   -8.229;  735.086
293.934;  138.487;   -5.279;  781.677
294.532;  138.877;   -1.369; 1031.958
295.131;  123.569;   -7.641;  834.394
295.730;  124.329;   -8.420;  809.588
296.328;  123.646;   -5.611;  783.442
296.927;  122.233;   -5.781;  779.652
297.525;  123.636;   -6.361;  781.236
298.124;  113.350;  -11.382;  654.009
298.722;  117.597;   -7.641;  761.933
299.321;  115.987;   -6.811;  708.597
299.919;  113.571;   -6.991;  751.918
300.518;  110.024;  -10.362;  689.338
301.116;  111.454;   -9.581;  691.381
301.715;  111.767;   -4.891;  730.222
302.313;  111.029;   -8.801;  704.943
302.911;  106.692;   -8.522;  733.830
303.509;  110.634;   -6.171;  925.627
304.108;  108.144;   -7.311;  760.383
304.706;  108.197;   -8.321;  801.664
305.304;  102.501;  -10.222;  796.707
305.902;  107.797;   -6.021;  784.484
306.500;  103.256;   -4.971;  728.200
307.098;  100.678;   -7.061;  746.560
307.696;   99.808;   -8.801;  780.432
308.294;  100.562;   -6.411;  731.359
308.892;  102.002;   -2.901;  759.769
309.490;   97.268;   -5.041;  712.161
310.088;   95.105;   -5.002;  788.444
310.686;  100.632;   -2.041;  821.749
311.284;   95.756;   -2.351;  766.040
311.882;   93.368;   -4.422;  731.225
312.480;   89.566;   -4.192;  697.167
313.078;   91.827;   -1.172;  808.331
313.675;   92.863;   -2.601;  691.600
314.273;   87.627;   -1.312;  797.837
314.871;   87.228;   -3.942;  589.829
315.468;   85.051;   -2.802;  652.090
316.066;   88.370;   -0.701;  694.427
316.664;   80.356;   -4.362;  656.351
317.261;   84.319;   -2.872;  910.128
317.859;   79.869;   -2.022;  768.735
318.456;   80.722;   -0.531;  830.096
319.054;   75.779;   -3.912;  787.828
319.651;   75.044;   -4.752;  759.928
320.249;   75.059;   -2.602;  810.188
320.846;   71.995;   -0.821;  714.286
321.443;   68.593;   -4.642;  832.135
322.041;   65.610;   -5.002;  812.315
322.638;   63.688;   -3.982;  701.456
323.235;   64.651;   -3.411;  665.683
323.833;   61.669;   -7.361;  740.354
324.430;   57.223;   -8.611;  615.900
325.027;   57.740;   -4.061;  876.855
325.624;   57.500;   -4.031;  644.532
326.221;   55.861;   -7.481;  689.717
326.818;   54.336;   -5.281;  818.332
327.415;   56.823;   -7.460;  748.828
328.012;   57.294;   -5.510;  690.585
328.609;   55.440;   -7.880;  731.389
329.206;   52.550;   -8.331;  778.621
329.803;   52.776;   -5.121;  737.841
330.400;   56.044;   -4.510;  704.260
330.997;   57.938;   -6.441;  817.147
331.594;   55.611;   -8.831;  788.185
332.191;   60.752;   -7.621;  728.722
332.787;   64.843;   -4.591;  844.463
333.384;   64.940;   -7.412;  763.093
333.981;   62.964;   -8.293;  815.687
334.578;   65.609;   -7.052;  708.378
335.174;   67.998;   -3.102;  731.469
335.771;   67.576;   -5.943;  836.456
336.367;   63.606;   -7.393;  710.631
336.964;   68.396;   -4.063;  793.266
337.561;   66.172;   -3.813;  731.112
338.157;   61.424;   -4.654;  911.916
338.754;   60.115;   -7.934;  796.589
339.350;   58.626;   -4.414;  722.493
339.946;   59.416;   -4.664;  773.135
340.543;   52.126;   -6.375;  846.136
341.139;   46.769;   -9.815;  720.836
341.735;   43.833;   -4.526;  772.593
342.332;   42.805;   -4.895;  691.472
342.928;   43.249;   -4.295;  795.394
343.524;   36.836;   -5.476;  761.684
344.120;   32.459;   -5.856;  738.562
344.716;   36.331;   -2.155;  723.717
345.313;   32.990;   -6.275;  795.342
345.909;   28.549;   -8.815;  627.336
346.505;   30.640;   -5.305;  740.247
347.101;   31.256;   -2.674;  827.864
347.697;   30.697;   -4.344;  785.398
348.293;   24.578;   -9.975;  627.244
348.889;   26.463;   -5.774;  745.914
349.485;   25.715;   -5.004;  688.205
350.081;   25.923;   -4.704;  772.592
350.676;   21.431;   -6.635;  691.606
351.272;   25.579;   -4.504;  809.530
351.868;   25.016;   -3.914;  780.497
352.464;   22.357;   -9.044;  723.932
353.059;   18.590;   -8.314;  646.017
353.655;   22.033;   -7.024;  777.063
354.251;   22.739;   -5.343;  759.845
354.846;   17.528;   -8.604;  740.646
355.442;   15.159;   -6.945;  753.071
356.038;   17.821;   -7.564;  751.708
356.633;   17.161;   -5.814;  728.594
357.229;   14.878;   -7.364;  724.757
357.824;   13.272;   -8.024;  703.600
358.420;   13.040;   -9.384;  679.726
359.015;   13.734;   -5.104;  695.357
359.610;   13.667;   -6.854;  763.920
360.206;    8.235;  -10.185;  603.240
360.801;   11.888;   -7.054;  646.503
361.396;   12.763;   -5.034;  725.975
361.992;    8.644;   -8.284;  668.220
362.587;    5.589;   -8.625;  670.160
363.182;    7.533;   -7.674;  689.631
363.777;    8.719;   -5.164;  738.242
364.372;    8.649;   -8.604;  737.314
364.967;    4.003;   -9.055;  680.744
365.563;    9.019;   -6.114;  815.567
366.158;    5.713;   -5.814;  685.161
366.753;    6.206;   -7.854;  649.263
367.348;    4.902;   -7.804;  746.056
367.942;    4.670;   -7.954;  697.298
368.537;    4.220;   -4.984;  754.245
369.132;    3.244;   -8.564;  703.428
369.727;   -0.608;   -8.855;  638.079
370.322;    1.135;   -6.245;  580.186
370.917;    1.022;   -6.425;  710.646
371.511;    3.867;   -6.294;  861.834
372.106;    0.094;   -7.685;  776.964
372.701;   -3.642;   -7.335;  585.988
373.296;    2.715;   -4.564;  863.135
373.890;   -2.020;  -10.235;  647.840
374.485;   -4.322;   -7.885;  691.199
375.079;   -0.122;   -7.324;  738.685
375.674;    0.325;   -3.494;  812.970
376.268;   -3.605;   -8.525;  691.759
376.863;   -8.917;  -10.086;  580.327
377.457;   -2.806;   -7.025;  662.490
378.052;   -4.693;   -3.585;  764.884
378.646;   -6.273;   -7.595;  741.167
379.240;   -6.412;   -8.335;  721.176
379.835;   -5.270;   -5.785;  636.978
380.429;   -7.524;   -4.335;  562.557
381.023;   -7.581;   -6.805;  779.205
381.617;   -9.810;   -9.195;  680.106
382.212;   -5.895;   -6.905;  685.303
382.806;   -5.669;   -3.745;  760.690
383.400;   -9.702;   -7.745;  672.281
383.994;  -10.337;   -9.765;  664.870
384.588;   -7.145;   -6.564;  697.701
385.182;   -5.282;   -5.344;  726.624
385.776;   -7.089;   -8.514;  706.875
386.370;  -10.794;   -9.555;  681.968
386.964;   -8.567;   -8.715;  684.155
387.558;   -7.163;   -6.174;  598.360
388.152;  -10.409;   -8.725;  681.959
388.745;   -8.811;   -7.965;  814.707
389.339;   -7.347;   -5.924;  747.642
389.933;   -6.291;   -5.524;  695.370
390.527;   -7.577;   -7.114;  859.029
391.120;  -13.890;  -10.725;  595.318
391.714;  -10.886;   -8.035;  711.633
392.308;   -7.862;   -3.574;  780.253
392.901;  -11.272;   -7.245;  642.460
393.495;  -12.651;   -9.285;  595.414
394.089;  -10.761;   -5.895;  760.452
394.682;  -10.811;   -4.295;  697.188
395.275;  -11.875;   -9.875;  719.927
395.869;  -14.179;   -8.485;  667.314
396.462;  -11.691;   -7.455;  616.609
397.056;   -8.055;   -5.424;  776.621
397.649;  -12.387;   -6.605;  731.575
398.242;  -10.352;   -8.224;  712.645
398.836;   -9.530;   -7.474;  766.408
399.429;  -10.333;   -7.094;  631.041
400.022;  -13.483;   -9.475;  665.902
400.615;  -11.243;   -7.145;  805.609
401.208;   -9.587;   -7.174;  691.451
401.802;  -12.149;   -5.515;  699.329
402.395;  -12.457;   -9.875;  683.502
402.988;  -13.990;   -8.845;  696.627
403.581;  -10.208;   -8.874;  646.878
404.174;   -8.188;   -5.324;  686.568
404.767;  -11.572;   -9.575;  638.583
405.360;  -14.476;  -10.965;  621.445
405.953;   -8.697;   -8.764;  759.034
406.545;   -7.657;   -7.514;  725.342
407.138;  -11.466;  -10.025;  618.350
407.731;  -11.047;  -10.034;  613.303
408.324;   -6.426;   -9.374;  660.554
408.917;   -7.554;   -6.534;  681.864
409.509;  -10.179;   -8.004;  740.396
410.102;  -12.153;   -9.875;  643.948
410.695;   -5.628;   -8.604;  665.758
411.287;   -6.430;   -6.794;  599.821
411.880;   -8.018;   -9.334;  585.421
412.472;  -10.904;  -10.254;  613.092
413.065;   -8.046;   -6.714;  629.408
413.657;   -6.057;   -7.234;  576.678
414.250;   -5.703;  -10.544;  646.681
414.842;   -7.551;   -9.744;  676.353
415.434;   -5.356;   -6.994;  570.463
416.027;   -0.946;   -5.893;  652.196
416.619;   -3.538;   -7.264;  713.400
417.211;   -4.366;  -10.374;  599.352
417.804;   -0.112;   -7.993;  628.499
418.396;   -3.366;   -7.234;  607.643
418.988;   -2.021;   -9.443;  659.238
419.580;   -5.414;  -10.724;  568.276
420.172;   -2.991;  -10.323;  536.196
420.764;    1.381;   -8.793;  672.482
421.356;    0.014;  -11.143;  636.898
421.948;   -1.266;   -8.293;  677.661
422.540;    4.417;   -7.893;  680.027
423.132;    3.731;   -7.082;  600.641
423.724;   -0.351;   -8.653;  561.267
424.316;    2.235;  -10.213;  621.345
424.908;    5.709;   -9.762;  591.517
425.500;    7.357;   -5.572;  647.978
426.092;    7.135;   -8.422;  648.268
426.683;    5.414;   -9.283;  684.836
427.275;    9.067;   -7.852;  641.471
427.867;   10.036;   -5.272;  668.948
428.458;   10.146;   -7.682;  732.344
429.050;    9.209;  -10.612;  680.749
429.642;   11.290;   -9.882;  743.124
430.233;   11.911;   -6.962;  569.356
430.825;   13.185;   -6.842;  724.809
431.416;    9.612;   -9.672;  698.241
432.008;   14.665;   -6.552;  651.723
432.599;   14.645;   -6.891;  656.073
433.190;   12.671;  -10.912;  637.670
433.782;   11.221;  -11.172;  590.395
434.373;   18.686;   -6.061;  884.765
434.964;   17.373;   -8.251;  602.920
435.556;   14.267;   -9.722;  634.537
436.147;   16.895;   -9.082;  758.490
436.738;   17.668;   -8.041;  701.099
437.329;   23.307;   -7.341;  721.723
437.920;   15.599;   -8.162;  666.688
438.511;   15.721;  -11.802;  564.526
439.103;   23.261;  -10.191;  623.998
439.694;   24.269;   -7.601;  681.583
440.285;   25.007;   -8.541;  764.432
440.876;   23.205;   -9.751;  845.738
441.466;   23.244;   -9.401;  575.162
442.057;   27.727;   -7.760;  665.814
442.648;   27.152;   -9.971;  746.255
443.239;   24.937;  -11.001;  620.477
443.830;   30.036;   -7.990;  704.958
444.421;   31.234;   -7.910;  655.474
445.011;   28.626;   -8.131;  693.619
445.602;   27.701;   -7.111;  743.126
446.193;   30.040;  -10.920;  488.117
446.783;   35.045;   -6.500;  640.397
447.374;   29.933;   -8.671;  692.759
447.964;   29.631;  -10.781;  713.770
448.555;   38.509;   -9.650;  822.742
449.145;   36.265;   -8.660;  662.853
449.736;   36.376;   -8.990;  803.179
450.326;   35.961;   -9.500;  713.626
450.917;   40.748;   -8.680;  675.324
451.507;   40.514;   -7.520;  600.661
452.097;   40.768;   -8.590;  746.267
452.688;   41.504;  -11.340;  742.160
453.278;   41.322;  -10.100;  566.840
453.868;   46.222;   -6.019;  793.550
454.458;   43.890;   -9.440;  651.141
455.048;   44.743;  -10.560;  711.783
455.639;   46.421;  -11.799;  567.096
456.229;   49.356;   -6.899;  710.694
456.819;   51.220;   -7.389;  751.158
457.409;   51.812;  -11.119;  773.993
457.999;   54.678;   -9.289;  737.505
458.589;   54.325;   -6.139;  686.606
459.179;   53.898;   -8.729;  717.658
459.769;   53.518;   -9.789;  627.099
460.358;   57.312;  -10.259;  797.262
460.948;   57.635;   -7.299;  689.503
461.538;   59.264;  -10.289;  660.677
462.128;   56.697;  -11.269;  664.934
462.717;   63.721;   -9.368;  710.326
463.307;   66.891;   -7.908;  705.846
463.897;   61.876;   -9.599;  656.942
464.486;   61.234;   -9.769;  837.128
465.076;   65.883;   -8.048;  733.776
465.666;   70.010;   -9.358;  652.900
466.255;   66.981;   -7.919;  785.651
466.845;   66.671;  -11.689;  666.749
467.434;   69.893;   -7.818;  725.873
468.023;   70.950;   -7.678;  658.357
468.613;   68.878;  -10.939;  713.946
469.202;   72.763;  -10.118;  646.507
469.791;   77.481;   -9.108;  737.811
470.381;   79.790;   -6.058;  742.813
470.970;   78.917;  -10.428;  711.099
471.559;   77.937;  -10.268;  733.291
472.148;   81.853;   -8.448;  675.737
472.738;   84.849;   -6.917;  765.466
473.327;   83.857;  -11.978;  637.529
473.916;   83.547;  -11.888;  737.446
474.505;   88.207;   -9.437;  751.703
475.094;   90.574;   -6.747;  806.570
475.683;   91.037;   -9.367;  797.699
476.272;   91.409;  -12.637;  730.632
476.861;   94.159;  -10.027;  706.754
477.449;  100.800;   -8.716;  728.487
478.038;   94.812;   -9.577;  692.513
478.627;   96.355;   -9.718;  714.852
479.216;  103.754;   -8.947;  769.441
479.805;  106.731;   -6.256;  783.375
480.393;  106.853;   -7.937; 1008.945
480.982;  105.782;   -7.717;  874.501
481.571;  112.724;   -9.266;  858.333
482.159;  113.551;   -7.636;  705.386
482.748;  113.015;   -9.667;  821.385
483.336;  117.035;  -10.376;  858.209
483.925;  118.948;   -7.147;  774.373
484.513;  125.011;   -7.996;  758.962
485.102;  122.392;  -10.027;  810.965
485.690;  130.299;  -10.446; 1011.050
486.278;  132.595;   -8.446;  979.329
486.867;  133.318;   -6.356;  809.662
487.455;  136.530;   -9.136;  898.229
488.043;  138.409;  -10.646;  748.361
488.631;  147.598;   -7.456; 1005.079
489.220;  150.987;   -6.636;  908.626
489.808;  151.941;  -11.036;  741.415
490.396;  159.413;  -10.246;  914.645
490.984;  168.177;   -8.556;  830.161
491.572;  180.209;   -5.886;  940.315
492.160;  188.759;   -9.486;  919.081
492.748;  200.967;  -10.976;  884.341
493.336;  225.268;   -8.776; 1019.693
493.924;  260.218;   -5.465;  958.077
494.512;  302.179;   -9.986; 1066.638
495.100;  351.590;  -10.636; 1103.280
495.687;  423.869;  -10.885; 1206.373
496.275;  518.641;   -8.126; 1150.796
496.863;  609.852;  -10.586; 1281.171
497.451;  734.654;  -11.926; 1386.805
498.038;  854.159;  -10.885; 1556.729
498.626;  996.146;   -6.315; 1741.407
499.214; 1231.253;   -7.326; 2016.609
499.801; 1498.834;  -11.906; 2220.633
500.389; 1849.478;  -10.466; 2312.494
500.976; 2162.898;   -5.236; 2744.849
501.564; 2683.173;   -8.936; 3148.565
502.151; 3407.417;  -13.176; 3515.999
502.738; 3831.114;  -10.646; 3971.274
503.326; 4282.932;   -9.525; 4403.796
503.913; 4779.372;  -10.856; 5161.749
504.500; 5256.143;  -11.586; 5986.420
505.088; 5873.459;  -10.336; 6381.201
505.675; 6860.376;   -6.355; 6925.547
506.262; 7534.355;   -9.046; 7619.060
506.849; 7963.903;  -10.416; 8733.969
507.436; 8465.759;  -10.305; 9790.121
508.023; 8866.807;   -5.496; 9985.472
508.610; 8937.105;   -7.856;10434.618
509.197;10002.161;  -10.097;11198.435
509.784;11461.605;  -10.886;12391.194
510.371;12997.034;   -9.315;13603.713
510.958;14156.087;   -9.936;14426.586
511.545;14733.048;   -9.326;15243.775
512.132;14989.579;  -10.075;15945.876
512.719;15503.563;   -7.796;16340.369
513.305;16804.346;  -10.606;18011.766
513.892;18477.195;  -11.486;19754.971
514.479;19892.105;   -9.126;20967.805
515.066;21401.287;   -6.026;22299.793
515.652;21586.682;   -8.466;22908.660
516.239;22066.506;  -10.886;23798.875
516.825;23516.693;  -11.496;25567.275
517.412;25153.871;   -5.796;28154.959
517.998;26471.461;  -10.506;28344.111
518.585;27484.512;  -10.076;27134.219
519.171;27053.326;   -8.315;27268.576
519.758;27668.494;   -8.596;28964.129
520.344;30331.447;   -8.466;30664.494
520.930;29344.945;  -11.006;32550.605
521.516;27713.514;  -10.495;35422.895
522.103;29624.699;   -5.526;38280.004
522.689;32186.568;   -8.746;37835.117
523.275;33354.313;  -11.376;37288.613
523.861;35457.023;  -11.156;37281.395
524.447;35166.910;   -8.135;37846.949
525.033;35367.520;   -7.896;38321.949
525.619;36136.875;  -12.476;38579.285
526.205;36318.559;   -9.516;40622.875
526.791;35835.066;   -6.926;42258.836
527.377;35647.113;   -8.346;42966.902
527.963;37476.867;   -8.717;42018.949
528.549;39170.309;  -11.016;42476.828
529.135;37565.328;   -8.536;41854.852
529.721;37494.383;   -9.666;41237.711
530.306;36438.520;  -10.066;41259.445
530.892;37416.379;  -11.356;41506.047
531.478;39636.195;   -6.596;43559.613
532.063;41759.504;   -8.836;47695.563
532.649;39927.395;  -10.047;50808.324
533.235;39730.438;   -9.746;51787.500
533.820;42190.887;   -6.566;52145.035
534.406;43878.840;  -10.817;51133.488
534.991;45850.496;   -9.416;49996.805
535.576;44501.391;   -9.036;48882.852
536.162;41768.313;   -6.156;46942.285
536.747;42206.324;  -11.607;45711.746
537.333;45104.176;  -11.787;48510.180
537.918;46020.992;  -12.437;50439.891
538.503;45346.160;   -7.196;50863.711
539.088;45801.500;  -10.556;50906.922
539.673;46998.832;   -8.767;52621.965
540.259;43939.664;  -10.026;52368.094
540.844;43218.645;   -7.416;50879.109
541.429;42764.703;   -9.467;52077.777
542.014;42126.215;   -9.527;52716.695
542.599;45433.555;   -9.946;52363.281
543.184;47074.199;   -7.927;53187.137
543.769;47189.973;   -9.297;54697.605
544.354;47496.996;  -10.127;53913.914
544.938;45276.082;   -9.267;49680.164
545.523;43089.289;   -6.506;47386.277
546.108;44766.645;   -9.787;49151.949
546.693;45739.453;  -11.587;51384.637
547.278;46203.727;  -10.986;51853.254
547.862;46690.160;   -8.206;51173.750
548.447;44721.504;  -10.067;51691.395
549.031;44479.758;   -9.637;52456.703
549.616;45015.508;   -9.926;52714.516
550.201;44191.727;   -6.347;52414.598
550.785;45235.500;   -7.917;52355.059
551.370;46236.930;  -10.867;54589.453
551.954;48476.926;   -9.047;58267.348
552.538;47789.770;   -7.827;59062.176
553.123;45827.336;  -10.287;58115.285
553.707;44937.852;  -12.178;56556.285
554.291;42226.035;   -8.717;56201.668
554.876;43350.895;   -7.457;55335.762
555.460;45449.352;  -10.387;54155.703
556.044;46920.070;   -9.618;53721.484
556.628;47778.078;  -11.567;53731.016
557.212;48530.605;   -8.097;54312.531
557.796;50103.633;  -11.077;53797.773
558.380;48031.684;  -11.108;56145.984
558.964;46413.145;   -9.057;57277.930
559.548;44036.574;   -6.977;56459.641
560.132;40604.117;  -11.457;54434.543
560.716;41819.297;  -11.378;54800.617
561.300;44135.688;   -9.577;57606.945
561.884;42845.867;   -7.127;58972.445
562.467;41246.895;   -7.118;57327.570
563.051;39723.715;  -13.358;54962.434
563.635;37782.234;  -10.178;52594.473
564.219;39730.480;   -7.837;50610.410
564.802;43433.277;  -11.398;49551.180
565.386;43854.188;  -12.788;48370.953
565.969;44948.445;   -9.077;48178.871
566.553;43898.980;   -6.207;49957.305
567.136;42194.770;   -8.568;50369.594
567.720;43243.730;  -11.868;49492.004
568.303;44501.664;   -8.268;50616.352
568.887;43766.184;   -8.698;50727.148
569.470;41430.766;   -6.808;51698.379
570.053;39072.820;  -13.188;52122.078
570.637;36638.559;  -12.037;52536.438
571.220;36849.523;   -8.577;51186.098
571.803;37038.535;   -8.498;51032.762
572.386;39174.676;  -10.498;49609.887
572.969;40077.758;   -9.388;48285.926
573.552;40440.273;   -8.338;47624.285
574.135;39779.746;   -8.518;45498.641
574.718;36854.117;  -13.628;41970.434
575.301;37101.105;  -10.893;41447.137
575.884;37348.098;   -8.158;40923.836
576.467;41106.516;  -10.328;45267.723
577.050;40899.934;  -13.058;48175.543
577.633;39647.879;   -9.458;47729.328
578.216;36178.750;   -8.928;47579.793
578.799;33624.547;   -9.358;47820.996
579.381;35035.410;  -11.388;48115.551
579.964;35579.141;  -11.718;47333.766
580.547;34336.785;   -8.588;46668.969
581.129;34903.012;   -8.859;44466.141
581.712;36747.051;  -10.729;44164.922
582.294;36539.559;  -11.118;46477.855
582.877;37241.637;   -5.218;48244.254
583.459;37325.254;   -8.679;47437.895
584.042;38551.680;  -10.709;46943.219
584.624;36481.977;  -11.669;46792.227
585.206;35314.363;   -8.218;46557.250
585.789;36435.457;  -10.569;45793.773
586.371;36998.402;  -11.859;43836.391
586.953;37784.832;  -10.719;42972.492
587.536;39193.129;   -7.198;42487.211
588.118;38418.383;   -8.720;42086.414
588.700;37348.223;  -10.439;43389.930
589.282;34677.703;   -9.198;43646.039
589.864;32427.166;   -9.199;43438.109
590.446;32392.342;  -11.319;43151.926
591.028;31983.658;  -11.159;42781.867
591.610;32202.592;  -11.779;42839.098
592.192;33428.082;   -7.668;42820.402
592.774;32636.186;  -11.949;40724.277
593.356;30722.121;  -12.129;39874.789
593.937;30496.418;  -10.669;39980.648
594.519;33174.191;   -6.509;42069.633
595.101;33311.387;  -10.849;42976.031
595.683;31892.162;  -11.679;44084.441
596.264;31090.137;   -9.049;43478.797
596.846;30755.191;   -8.849;43803.672
597.427;30812.322;   -9.570;42986.934
598.009;32673.551;  -12.620;42832.219
598.591;32646.514;  -10.039;42580.086
599.172;34811.469;  -10.369;43061.805
599.753;37086.277;   -9.140;41691.469
600.335;36528.047;  -11.430;40692.520
600.916;33957.176;   -9.939;39982.422
601.498;30629.514;   -8.479;40318.617
602.079;30142.994;  -10.920;40670.609
602.660;29916.172;  -11.480;41450.898
603.241;30762.768;  -11.699;41137.738
603.823;31134.490;   -9.579;38868.797
604.404;30710.043;  -10.620;38182.785
604.985;33617.191;  -10.450;38078.047
605.566;34561.480;   -9.129;38056.633
606.147;35402.781;   -7.510;37020.418
606.728;34153.668;  -10.660;37883.359
607.309;32264.807;  -11.740;38748.273
607.890;32191.982;   -9.759;38850.230
608.471;30886.537;   -8.250;37457.918
609.051;30996.225;   -9.240;36066.457
609.632;30973.051;  -12.120;35991.074
610.213;30621.223;   -9.110;37402.641
610.794;31755.408;   -8.030;38383.363
611.374;30407.609;   -8.110;40562.387
611.955;30112.498;  -13.560;38533.727
612.536;31214.016;  -11.400;36951.789
613.116;30744.287;   -8.070;37197.891
613.697;31569.873;  -10.830;38411.125
614.277;31331.051;  -11.641;38673.938
614.858;30659.254;  -13.310;37075.863
615.438;30766.129;   -7.460;35092.906
616.019;28827.289;   -7.601;33666.301
616.599;29596.211;  -12.020;34189.023
617.179;29532.662;  -11.780;36952.047
617.760;28483.301;   -8.570;39582.574
618.340;28932.014;  -11.471;38943.977
618.920;29498.797;  -11.170;37594.156
619.500;30403.398;  -11.071;37866.938
620.080;30890.088;   -7.750;37869.043
620.660;31124.383;  -12.711;36868.617
621.241;31997.832;  -10.211;36352.309
621.821;31498.275;  -10.961;35459.520
622.401;31550.654;   -7.720;35207.414
622.980;33457.574;   -8.981;35980.422
623.560;32218.307;   -9.331;37351.328
624.140;27950.352;   -9.850;34388.582
624.720;23982.787;   -7.451;32368.764
625.300;23566.848;   -9.070;32638.629
625.880;27745.836;  -12.601;34599.035
626.459;30899.613;  -11.751;36831.738
627.039;30856.881;   -9.281;38299.098
627.619;30041.014;   -8.801;38289.574
628.198;30325.232;  -12.071;37220.695
628.778;31203.176;   -9.461;37632.563
629.357;31927.025;   -8.491;38003.012
629.937;31496.713;   -9.721;38402.039
630.516;32103.625;   -9.951;37868.801
631.096;33287.816;  -11.731;35760.410
631.675;35597.063;   -8.572;35225.219
632.254;35581.969;  -11.282;35130.289
632.834;34273.953;  -13.322;35794.570
633.413;35063.859;  -10.301;35788.922
633.992;35189.359;   -8.582;34532.863
634.571;36032.426;   -8.352;33590.113
635.151;35327.570;  -11.912;34943.863
635.730;33097.641;  -10.511;35352.523
636.309;32866.543;   -7.731;35366.605
636.888;32309.479;   -9.952;36165.637
637.467;31603.510;  -11.672;37515.902
638.046;30133.387;   -8.901;39288.695
638.625;29514.840;   -7.912;38279.699
639.204;28718.039;  -10.022;37741.598
639.782;29981.049;  -12.252;38364.551
640.361;32143.914;  -10.041;36740.621
640.940;32003.941;  -11.161;34950.082
641.519;31388.734;   -9.701;34137.398
642.097;32490.256;  -11.271;35654.258
642.676;32474.076;   -8.651;35637.957
643.255;31470.279;   -8.711;36567.074
643.833;31118.328;   -9.581;37809.434
644.412;31931.920;  -13.711;37337.293
644.990;33334.227;  -11.811;37018.531
645.569;36135.141;   -9.411;36518.469
646.147;36713.766;  -10.291;36186.430
646.726;34751.227;  -12.401;36267.688
647.304;33193.711;  -10.411;36647.625
647.882;33870.992;   -9.651;39286.742
648.461;33726.828;   -9.631;39157.703
649.039;31223.172;  -11.881;35412.883
649.617;31012.770;   -9.661;34744.918
650.195;31616.154;   -9.301;35403.098
650.773;30916.514;  -10.511;35053.797
651.352;30805.936;  -11.521;33756.816
651.930;29618.625;  -12.211;31868.773
652.508;28556.723;   -9.171;33121.551
653.086;29914.059;   -9.371;33564.793
653.663;32175.979;  -13.161;34054.668
654.241;30961.787;  -13.031;35693.309
654.819;28963.115;   -9.371;36422.906
655.397;29673.428;  -10.511;38213.484
655.975;29994.650;  -10.371;39507.625
656.553;30848.439;  -10.051;39498.223
657.130;31624.850;  -10.061;40395.480
657.708;28482.297;   -9.561;39242.020
658.286;25709.016;  -11.511;38920.020
658.863;26065.326;  -10.261;40202.898
659.441;28811.643;   -7.531;39677.938
660.018;31506.143;   -9.501;40413.355
660.596;32170.285;  -13.301;39931.414
661.173;34932.363;  -11.211;39604.531
661.750;34211.543;   -9.951;39700.070
662.328;31449.834;   -9.390;39292.809
662.905;30043.451;  -11.330;38235.648
663.482;27217.760;   -9.050;36212.305
664.060;24888.547;   -8.240;35944.945
664.637;28830.229;  -10.050;35170.785
665.214;33461.051;  -11.760;34197.523
665.791;32340.777;  -10.530;34549.520
666.368;32075.209;   -9.690;35118.578
666.945;32484.289;   -9.320;36019.418
667.522;33216.141;  -11.860;36048.438
668.099;32263.730;  -10.770;36243.914
668.676;32462.689;   -6.260;35958.875
669.253;34662.895;   -7.000;37384.730
669.830;34929.945;  -10.190;36779.629
670.407;33675.887;   -9.550;35231.289
670.984;32975.078;   -9.260;35544.270
671.560;31441.490;   -9.280;35466.867
672.137;29777.197;  -11.810;34280.863
672.714;29686.879;  -11.490;34632.863
673.290;30360.893;   -7.740;35135.422
673.867;30675.352;  -10.660;36114.480
674.443;30041.650;  -12.230;36152.859
675.020;28600.496;  -10.450;35327.238
675.596;27224.521;   -9.260;35795.176
676.173;28109.705;  -10.780;35430.355
676.749;28736.654;  -13.690;33549.516
677.326;29739.930;  -11.980;32210.012
677.902;27917.330;   -8.630;32068.871
678.478;26046.959;  -10.730;32583.891
679.054;27676.623;  -10.520;32088.928
679.631;29064.814;  -11.920;30978.848
680.207;30194.053;   -7.490;33160.887
680.783;31399.672;   -9.860;35570.363
681.359;31905.264;  -13.380;36125.184
681.935;30732.906;  -12.480;35240.922
682.511;31390.969;   -7.900;34429.961
683.087;32065.035;   -7.710;34463.680
683.663;32792.316;  -11.480;34648.898
684.239;32346.850;  -14.090;34546.457
684.815;33283.445;   -7.560;35586.375
685.390;33306.301;   -9.910;35821.895
685.966;32933.066;  -11.159;35085.871
686.542;33553.156;  -11.169;34198.230
687.118;32070.645;   -5.959;32847.707
687.693;32170.184;  -10.329;32794.027
688.269;31627.697;  -12.059;33072.367
688.844;32082.602;  -10.909;33141.664
689.420;33204.887;   -8.019;33965.742
689.995;30034.365;   -8.399;34655.523
690.571;29217.930;  -10.949;33576.742
691.146;28534.701;   -9.619;32657.219
691.722;26459.219;   -8.999;32526.979
692.297;25538.156;  -11.589;33014.617
692.872;26299.203;  -11.739;34012.254
693.448;26576.783;  -11.059;34237.434
694.023;28380.965;  -10.139;34142.672
694.598;30576.027;   -9.029;34132.031
695.173;30379.889;  -13.319;34205.250
695.748;27779.662;  -10.169;32882.488
696.323;25415.242;   -8.339;32864.906
696.898;24994.018;   -8.169;33170.004
697.473;28112.314;  -12.309;32432.984
698.048;28099.711;  -10.989;31649.303
698.623;27054.914;   -9.329;30778.141
699.198;28592.381;   -9.849;31140.119
699.773;29876.783;  -12.329;31764.299
700.348;29781.971;  -10.389;31780.816
700.922;27993.996;   -9.269;32046.375
701.497;26226.295;   -9.329;32603.574
702.072;27755.164;  -10.789;34799.871
702.646;27637.348;  -10.839;35793.172
703.221;28206.215;   -9.099;35201.590
703.795;28766.859;  -10.939;34764.527
704.370;27487.736;  -12.859;34307.367
704.944;28883.096;  -11.559;33509.887
705.519;29891.045;   -7.939;31388.584
706.093;31723.717;  -10.499;31340.104
706.668;32727.123;  -11.289;32630.281
707.242;31741.328;  -11.509;32728.779
707.816;30259.797;   -9.639;32947.238
708.390;29764.668;  -11.429;33277.855
708.965;30818.459;  -11.869;33834.336
709.539;30891.557;  -11.689;33709.273
710.113;30536.723;  -10.478;33044.313
710.687;27934.027;  -10.228;31953.992
711.261;27176.238;  -13.698;30505.949
711.835;27017.932;  -13.378;30262.369
712.409;26583.471;   -9.698;31254.447
712.983;26077.691;  -11.898;32754.986
713.557;24934.023;  -15.138;34018.824
714.131;26302.707;  -14.098;34579.625
714.704;26447.494;   -9.958;33890.262
715.278;25681.678;  -10.028;33531.102
715.852;24711.090;  -11.148;33601.660
716.425;24224.020;   -9.068;33515.117
716.999;25777.434;  -10.038;33185.555
717.573;26414.967;   -9.798;33905.996
718.146;27372.959;  -12.378;35199.293
718.720;27923.254;  -11.918;35060.551
719.293;27102.141;   -8.088;34973.230
719.867;26227.859;  -10.888;36394.449
720.440;26941.859;  -11.938;36663.008
721.013;28763.689;  -12.818;35102.426
721.587;30252.830;  -10.298;33985.266
722.160;30096.180;  -10.048;33524.965
722.733;28211.602;  -12.108;32987.043
723.306;26045.523;  -10.818;33066.301
723.880;26443.162;   -8.908;33399.500
724.453;25485.742;   -9.878;33468.297
725.026;25178.463;  -11.188;33816.637
725.599;25468.570;  -11.678;32797.996
726.172;25250.074;   -9.618;33187.434
726.745;26247.797;   -8.258;35136.613
727.318;28765.646;  -12.978;35751.730
727.891;30721.170;  -12.148;35890.430
728.463;32140.053;   -8.968;34822.090
729.036;32426.877;  -10.188;32895.086
729.609;30001.016;  -11.788;31823.225
730.182;28076.662;  -11.788;31445.283
730.754;27248.785;  -10.268;32373.223
731.327;27033.861;   -9.998;33676.820
731.900;26182.799;  -12.228;33417.000
732.472;25207.301;  -13.848;31978.498
733.045;25060.354;   -8.698;30368.777
733.617;24578.693;  -10.607;30574.215
734.190;23187.377;  -11.507;31280.975
734.762;23495.912;  -13.647;31674.412
735.334;24803.607;   -9.767;31247.291
735.907;25068.635;   -9.897;29876.211
736.479;23054.408;  -11.637;29808.488
737.051;22416.602;   -9.567;30233.547
737.623;23365.434;   -8.187;31469.086
738.195;25277.859;  -11.187;31784.225
738.768;25697.342;  -12.337;32120.523
739.340;25097.420;  -12.227;32094.342
739.912;24589.039;  -11.057;31312.680
740.484;25422.564;  -10.207;31946.238
741.056;26638.557;  -10.047;32984.059
741.628;26213.406;  -13.627;33897.715
742.199;26649.959;   -7.177;33213.016
742.771;25011.400;  -10.797;31369.113
743.343;23516.887;  -11.997;31865.473
743.915;23649.043;  -12.867;32388.631
744.487;24190.756;   -7.617;31079.568
745.058;25477.400;   -9.557;30570.107
745.630;25358.645;   -9.877;29970.127
746.201;24271.656;  -14.177;29186.766
746.773;23911.500;   -9.237;28805.723
747.344;24001.051;   -9.847;29591.223
747.916;24025.012;  -11.657;31412.201
748.487;23623.188;  -10.587;32194.898
749.059;23533.365;   -8.707;32533.719
749.630;22563.846;  -10.537;32158.518
750.201;22758.523;  -11.687;30855.395
750.773;22890.270;  -11.647;28622.555
751.344;24107.484;   -7.147;28405.732
751.915;24046.600;   -9.757;28461.551
752.486;23687.912;  -12.427;27842.850
753.057;22139.797;  -12.227;27845.008
753.628;21715.828;  -10.417;27728.107
754.199;21848.289;  -11.767;27381.086
754.770;21338.111;  -11.187;25882.203
755.341;20859.703;  -10.507;25886.184
755.912;21202.018;   -9.387;26050.861
756.483;21642.658;  -10.647;26798.779
757.054;21312.291;  -11.837;27048.238
757.625;19504.490;  -12.716;26294.838
758.195;18786.041;   -9.666;26142.076
758.766;19747.553;   -8.656;26392.234
759.337;19650.230;  -12.856;26334.594
759.907;18936.590;  -13.366;27579.652
760.478;18033.453;   -8.576;28352.770
761.048;18605.813;  -10.526;27325.088
761.619;19240.338;  -11.116;26460.428
762.189;18867.873;  -12.136;26029.826
762.760;18850.311;   -9.456;26430.145
763.330;19055.602;   -7.136;26670.902
763.900;19081.154;  -11.786;26603.021
764.471;18375.850;  -11.546;25542.740
765.041;18102.529;   -8.096;24358.459
765.611;18215.898;   -8.876;23991.297
766.181;18184.779;  -12.196;24470.236
766.751;18763.467;  -11.636;24845.975
767.321;18911.906;  -10.156;24533.633
767.891;18680.428;  -11.766;24916.492
768.461;18420.223;  -14.936;24776.771
769.031;17595.250;  -12.356;24757.988
769.601;17275.539;   -7.526;24181.088
770.171;17591.924;  -10.766;23670.387
770.741;18201.893;  -13.176;22960.045
771.311;17841.287;  -10.616;22917.523
771.880;16541.807;   -9.576;23562.941
772.450;15987.899;  -10.336;24216.500
773.020;16217.402;  -13.516;24140.398
773.589;16103.643;  -13.466;24414.857
774.159;15579.518;   -8.686;23858.717
774.729;14945.848;   -9.476;22942.135
775.298;14898.515;  -13.666;22324.033
775.867;14918.966;  -11.716;21140.313
776.437;14362.571;   -9.906;20838.092
777.006;14207.822;  -12.166;20599.510
777.576;15471.635;  -12.356;20508.809
778.145;14869.026;  -11.646;20732.947
778.714;13521.707;   -8.226;21062.465
779.283;12997.454;   -9.556;20949.664
779.853;12789.836;  -14.116;20508.623
780.422;13053.954;  -11.506;20649.082
780.991;13468.056;   -9.556;21527.520
781.560;14065.073;   -9.095;22632.658
782.129;13018.377;  -12.135;23048.277
782.698;11748.898;  -10.865;23438.555
783.267;11136.724;   -9.335;23267.734
783.836;11432.553;  -11.045;22415.133
784.404;12099.570;  -13.865;20443.152
784.973;12318.039;  -13.095;19699.150
785.542;12221.018;  -11.575;19763.828
786.111;12005.330;   -9.705;20341.408
786.679;11860.320;  -12.105;20207.967
787.248;11595.560;  -12.455;19516.465
787.817;11458.688;  -11.535;18900.363
788.385;11247.720;   -9.765;17879.121
788.954;11029.130;  -14.005;17658.301
789.522;10861.759;  -11.955;17788.879
790.090;10100.392;  -10.135;18118.277
790.659; 9304.185;  -10.975;18338.736
791.227; 9344.180;  -13.375;18508.615
791.795; 9670.851;  -12.375;17898.254
792.364; 9816.291;  -10.725;17295.133
792.932;10081.474;   -9.715;16822.051
793.500; 9866.643;  -12.675;17040.148
794.068;10113.872;  -13.495;17179.787
794.636;10156.394;  -10.885;16664.246
795.204; 9813.736;  -11.045;16524.545
795.772; 9840.876;  -13.175;17274.564
796.340; 9652.573;  -12.445;17891.002
796.908; 9793.457;   -9.735;17648.561
797.476;10137.011;   -9.815;17064.080
798.044; 9908.493;  -13.985;16672.777
798.612; 9518.222;  -13.115;17023.996
799.180; 8798.558;  -10.185;16561.615
799.747; 8470.594;   -9.055;15962.773
800.315; 8679.080;  -12.385;15296.992
800.883; 8150.196;  -15.035;14801.771
801.450; 7503.780;  -10.365;14534.430
802.018; 7253.677;   -9.855;14173.248
802.585; 7203.724;  -11.905;14029.547
803.153; 7359.063;  -11.585;13836.846
803.720; 7157.954;   -9.095;13567.324
804.287; 7065.973;   -9.135;13360.622
804.855; 7254.259;  -11.604;13681.981
805.422; 7619.033;  -11.794;13536.560
805.989; 7845.539;  -10.734;13355.958
806.556; 7820.564;  -10.444;13747.896
807.124; 8105.942;  -12.764;13987.376
807.691; 8579.411;  -12.964;14038.674
808.258; 8644.104;  -11.134;14120.152
808.825; 8651.080;   -9.854;13860.111
809.392; 8326.273;  -10.504;13268.790
809.959; 7689.615;  -13.054;12680.389
810.526; 7020.355;   -8.294;12427.308
811.093; 6420.188;   -8.394;12030.105
811.659; 6211.175;  -12.304;11653.664
812.226; 6371.019;  -13.944;11637.183
812.793; 6741.556;  -10.484;11611.521
813.360; 6880.906;  -10.144;11885.181
813.926; 6925.195;  -11.684;12770.539
814.493; 6858.653;  -13.644;12677.638
815.060; 6744.664;   -9.724;11974.336
815.626; 6911.122;   -9.854;11594.715
816.193; 6998.552;  -13.254;11579.474
816.759; 6417.429;  -13.204;11666.972
817.325; 6008.560;   -9.434;11325.530
817.892; 5897.874;  -10.134;11105.369
818.458; 6067.317;  -13.474;10843.928
819.024; 6537.175;  -11.854;10714.406
819.591; 6661.595;  -10.244;10469.165
820.157; 6431.835;  -10.704;10235.523
820.723; 6405.501;  -12.324;10847.563
821.289; 6312.798;   -9.444;11040.980
821.855; 6372.910;   -8.374;10357.100
822.421; 6711.180;  -10.234; 9978.918
822.987; 6697.276;  -13.294; 9754.177
823.553; 6368.253;  -10.884;10065.755
824.119; 6111.802;   -8.884;10036.294
824.685; 5643.871;   -6.784;10029.192
825.251; 5559.909;  -12.004;10199.230
825.816; 5333.339;  -11.474; 9820.189
826.382; 5136.872;   -9.174; 9297.248
826.948; 5419.780;   -9.214; 9381.347
827.513; 5843.649;  -10.774; 9450.726
828.079; 5942.975;  -11.924; 9472.444
828.645; 5746.467;  -10.543; 9292.643
829.210; 5615.484;  -10.533; 9065.341
829.776; 5526.436;  -10.753; 9132.620
830.341; 5667.108;  -10.173; 9092.878
830.906; 5686.066;  -10.743; 9078.557
831.472; 5453.846;  -11.113; 8534.535
832.037; 5087.090;  -10.603; 8677.874
832.602; 4951.022;  -13.323; 8628.692
833.167; 4728.798;  -10.823; 8879.031
833.733; 4583.874;  -10.113; 9189.790
834.298; 4439.284;  -13.583; 9052.608
834.863; 4614.193;  -12.703; 8895.087
835.428; 4833.720;  -10.523; 8824.266
835.993; 4783.122;   -6.963; 8845.385
836.558; 4750.261;  -10.763; 8888.563
837.123; 4883.397;   -9.903; 8966.582
837.688; 5235.004;   -9.913; 8617.860
838.253; 5289.856;  -10.283; 8590.699
838.817; 4944.791;  -12.963; 8443.797
839.382; 4805.485;  -14.243; 8799.356
839.947; 4921.828;  -10.733; 8810.595
840.511; 4928.542;   -9.383; 8796.394
841.076; 4777.168;  -12.563; 8347.231
841.641; 4604.339;  -12.953; 8224.330
842.205; 4464.176;   -7.043; 8223.349
842.770; 4255.376;   -8.163; 8622.107
843.334; 4381.183;  -12.503; 8410.386
843.898; 4536.225;  -11.693; 8337.465
844.463; 4138.638;  -10.203; 8506.283
845.027; 3835.123;   -9.533; 8280.962
845.591; 3846.885;  -13.443; 8231.141
846.156; 3905.328;  -13.143; 7969.179
846.720; 3738.902;   -9.433; 7768.278
847.284; 3640.880;  -11.033; 7630.957
847.848; 3621.353;  -10.403; 7472.395
848.412; 3462.168;  -11.553; 7437.394
848.976; 3373.330;   -8.393; 7674.592
849.540; 3344.728;   -8.713; 7836.011
850.104; 3330.197;  -12.463; 7913.669
850.668; 3402.543;  -12.973; 7694.508
851.232; 3386.949;  -10.793; 7756.887
851.796; 3412.902;  -10.662; 7926.545
852.359; 3495.345;  -13.082; 7827.844
852.923; 3464.366;  -12.192; 7641.163
853.487; 3458.839;  -11.912; 7342.501
854.050; 3306.274;  -10.892; 7042.820
854.614; 3339.615;  -13.992; 7151.338
855.177; 3402.106;  -11.732; 7105.077
855.741; 3280.950;   -8.962; 6989.675
856.304; 3144.028;   -9.442; 6596.634
856.868; 3019.685;  -14.192; 6356.272
857.431; 2958.100;  -12.702; 6468.571
857.995; 2965.688;   -9.942; 6373.210
858.558; 3058.157;   -9.112; 6324.448
859.121; 2973.218;  -12.932; 6408.327
859.684; 2846.347;  -13.442; 6347.886
860.247; 2812.281;  -10.632; 6321.264
860.810; 2768.317;  -11.272; 6301.903
861.374; 2692.597;   -9.832; 6607.881
861.937; 2609.625;  -11.762; 6408.200
862.500; 2606.305;   -9.722; 6572.639
863.062; 2590.150;  -10.512; 6387.297
863.625; 2582.132;  -11.232; 6190.836
864.188; 2619.761;  -14.112; 5807.254
864.751; 2633.164;  -11.302; 5682.413
865.314; 2524.516;  -10.112; 5547.492
865.876; 2366.162;  -12.182; 5500.150
866.439; 2221.469;  -10.722; 5415.909
867.002; 2122.681;   -9.252; 5501.567
867.564; 2177.324;   -9.572; 5413.946
868.127; 2224.351;  -13.142; 5160.325
868.689; 2299.899;  -12.902; 5133.183
869.252; 2402.563;   -9.732; 5252.382
869.814; 2340.057;   -9.432; 5297.141
870.377; 2244.510;  -11.552; 5390.919
870.939; 2231.622;   -9.052; 5599.898
871.501; 2179.762;  -10.982; 5248.336
872.063; 2075.816;  -12.292; 4854.235
872.626; 2025.865;  -14.912; 4817.074
873.188; 1944.103;  -13.112; 4987.732
873.750; 1920.078;  -13.442; 4868.651
874.312; 1890.081;   -9.402; 4779.330
874.874; 1852.683;  -11.062; 4866.348
875.436; 1744.547;  -13.931; 4718.887
875.998; 1624.309;   -9.561; 4660.005
876.560; 1606.789;  -11.321; 4462.964
877.122; 1671.929;  -12.221; 4145.042
877.683; 1792.244;  -12.191; 4056.481
878.245; 1843.887;  -12.101; 3950.740
878.807; 1871.992;   -8.971; 4058.958
879.369; 1817.974;  -12.071; 3954.677
879.930; 1681.688;  -14.621; 3941.495
880.492; 1591.798;  -10.311; 4067.014
881.053; 1595.229;  -10.901; 3859.633
881.615; 1590.314;  -14.411; 3776.071
882.176; 1526.354;  -13.761; 3734.750
882.738; 1445.586;   -9.181; 3678.489
883.299; 1422.766;  -11.791; 3405.407
883.860; 1434.948;  -13.121; 3351.106
884.422; 1387.099;  -11.211; 3394.044
884.983; 1307.979;  -10.091; 3166.443
885.544; 1266.698;   -8.461; 3189.802
886.105; 1207.685;  -12.361; 3160.360
886.666; 1142.318;  -14.141; 3093.059
887.227; 1108.434;  -11.361; 2941.957
887.788; 1056.688;  -11.401; 2974.836
888.349;  964.837;  -13.791; 2721.214
888.910;  924.252;  -13.191; 2696.493
889.471;  889.024;   -9.881; 2560.172
890.032;  895.822;   -9.881; 2558.190
890.593;  892.009;  -10.371; 2567.669
891.153;  805.967;  -13.301; 2460.307
891.714;  695.892;  -11.431; 2372.046
892.275;  647.968;  -11.291; 2309.505
892.835;  656.867;  -11.471; 2382.543
893.396;  649.525;  -11.541; 2295.502
893.956;  624.024;  -11.181; 2162.420
894.517;  585.463;  -11.741; 2125.439
895.077;  534.676;  -11.671; 2086.978
895.638;  495.198;  -11.311; 2126.316
896.198;  483.784;   -9.831; 1838.275
896.758;  470.214;   -8.421; 1892.813
897.319;  447.214;  -12.351; 1792.232
897.879;  429.000;  -13.511; 1762.751
898.439;  396.502;  -12.001; 1661.149
898.999;  375.710;  -10.180; 1781.468
899.559;  370.403;  -12.030; 1703.347
900.119;  363.355;  -15.710; 1537.525
900.679;  348.981;   -8.900; 1638.384
901.239;  328.255;   -8.340; 1527.902
901.799;  299.229;  -13.910; 1456.441
902.359;  277.403;  -13.460; 1357.140
902.919;  269.697;  -11.490; 1331.118
903.479;  269.594;  -12.110; 1317.257
904.038;  265.023;  -11.720; 1262.595
904.598;  256.853;  -13.610; 1152.034
905.158;  246.886;  -11.040; 1240.893
905.717;  229.806;  -10.900; 1233.691
906.277;  220.915;  -15.080; 1217.330
906.836;  218.174;  -13.380; 1222.408
907.396;  216.133;  -10.780; 1193.047
907.955;  208.605;   -8.500; 1182.526
908.515;  203.900;  -12.760; 1099.364
909.074;  202.936;  -11.900; 1092.863
909.633;  202.035;   -8.950; 1069.121
910.192;  199.693;   -8.770; 1196.460
910.752;  189.250;  -12.390; 1029.960
911.311;  180.007;  -13.680; 1009.780
911.870;  170.603;  -12.370;  971.460
912.429;  165.122;  -10.900; 1094.080
912.988;  162.999;  -11.690; 1081.060
913.547;  160.239;  -13.240;  940.380
914.106;  159.030;  -11.990;  999.420
914.665;  157.071;   -9.990;  984.020
915.224;  154.872;  -12.880; 1035.760
915.782;  152.654;  -12.350;  922.560
916.341;  151.872;   -9.110; 1049.840
916.900;  149.389;   -9.270;  925.260
917.458;  147.588;  -13.240;  884.220
918.017;  146.162;  -13.550;  942.600
918.576;  143.982;  -12.320;  904.440
919.134;  143.489;  -11.490;  837.980
919.693;  141.427;  -13.670;  893.060
920.251;  140.187;  -15.470;  876.500
920.809;  139.282;  -11.290;  839.580
921.368;  139.948;  -10.210;  885.360
921.926;  136.943;  -12.140;  842.940
922.484;  134.690;  -13.080;  903.360
923.042;  133.851;  -11.720;  880.340
923.601;  133.905;   -7.480;  998.680
924.159;  131.944;  -11.570;  935.560
924.717;  130.172;  -13.840;  841.080
925.275;  130.650;  -10.640;  903.240
925.833;  128.860;  -11.540;  779.320
926.391;  129.898;  -12.960;  938.380
926.949;  130.054;  -14.130;  857.680
927.506;  130.437;  -11.750;  903.500
928.064;  129.654;  -10.250;  877.580
928.622;  130.247;  -13.030;  880.100
929.180;  132.071;  -13.400;  814.180
929.737;  133.810;  -10.700;  808.540
930.295;  137.382;  -10.070;  928.480
930.853;  136.587;  -11.960;  849.100
931.410;  137.315;  -13.120;  821.120
931.968;  139.205;  -10.770;  940.660
932.525;  139.465;  -10.680;  909.380
933.082;  138.751;  -13.130;  811.440
933.640;  139.357;  -13.210;  925.900
934.197;  139.668;  -11.060;  886.360
934.754;  139.368;   -9.580;  897.780
935.312;  140.507;  -14.000;  863.340
935.869;  141.882;  -10.710; 1012.980
936.426;  140.756;   -9.860;  872.800
936.983;  140.581;   -9.710;  889.020
937.540;  141.249;  -13.990;  838.280
938.097;  146.822;  -14.040;  940.120
938.654;  149.226;  -10.310;  898.860
939.211;  149.762;  -10.560;  952.480
939.768;  150.299;  -13.900;  915.420
940.324;  153.066;  -14.760;  904.200
940.881;  155.829;  -10.370;  878.500
941.438;  159.522;   -8.260; 1021.200
941.995;  158.054;  -12.540;  992.560
942.551;  158.355;  -14.670;  875.620
943.108;  159.254;  -10.450;  937.920
943.664;  159.945;  -10.750;  869.340
944.221;  164.085;  -11.550; 1088.140
944.777;  164.462;  -14.770;  869.680
945.334;  161.592;  -12.820;  884.840
945.890;  156.002;  -10.130;  946.480
946.446;  152.965;  -13.470;  947.020
947.003;  154.677;  -12.120;  964.940
947.559;  155.634;   -9.980; 1063.040
948.115;  151.852;   -9.080; 1026.540
948.671;  148.806;  -10.830;  967.300
949.227;  148.414;  -12.440;  859.560
949.783;  148.411;  -12.910;  858.900
950.339;  152.880;  -10.270;  991.000
950.895;  153.241;  -13.630; 1023.840
951.451;  151.493;  -15.100;  925.280
952.007;  150.781;  -11.330;  998.540
952.563;  147.604;  -10.580;  937.780
953.118;  144.723;  -13.440;  904.940
953.674;  143.385;  -12.710;  935.780
954.230;  145.464;  -10.350;  949.640
954.785;  148.572;   -9.190;  936.640
955.341;  151.692;  -11.200;  998.160
955.897;  146.001;  -16.560;  834.660
956.452;  145.014;  -12.570;  953.840
957.008;  142.910;   -7.970; 1083.640
957.563;  138.531;  -11.940; 1009.540
958.118;  133.877;  -13.450;  877.700
958.674;  133.363;  -12.030;  946.780
959.229;  132.489;   -9.410; 1013.980
959.784;  133.340;  -12.000;  832.400
960.339;  133.507;  -14.780; 1001.280
960.894;  131.843;   -9.860;  963.760
961.449;  128.096;   -9.970;  859.960
962.004;  127.455;  -10.900; 1212.840
962.559;  126.186;  -13.150;  860.140
963.114;  125.033;  -13.740;  742.480
963.669;  123.064;   -9.820;  915.500
964.224;  121.593;  -13.890;  874.340
964.779;  121.935;  -12.600;  828.420
965.334;  123.834;  -10.950; 1017.860
965.888;  121.872;  -11.170;  875.360
966.443;  121.086;  -12.540;  972.380
966.998;  119.349;  -15.780;  819.460
967.552;  118.075;   -9.760;  908.380
968.107;  115.799;   -9.060;  868.300
968.661;  115.724;  -11.950;  922.440
969.216;  113.178;  -12.800;  856.280
969.770;  111.620;  -11.210;  917.200
970.324;  110.919;  -11.610;  923.140
970.879;  111.083;  -11.370;  947.180
971.433;  113.862;  -12.540;  952.720
971.987;  112.611;  -11.320;  895.340
972.541;  110.282;  -10.720;  917.100
973.095;  109.498;   -9.680; 1009.460
973.649;  106.582;  -11.440;  809.480
974.203;  104.522;  -11.210;  829.040
974.757;  104.391;  -10.240;  855.220
975.311;  103.941;  -13.720;  872.600
975.865;  103.419;  -13.770;  881.820
976.419;  100.689;  -11.690;  857.400
976.973;   98.420;   -9.510;  849.620
977.526;   97.272;  -12.620;  949.920
978.080;   95.303;  -12.010;  796.780
978.634;   95.369;  -10.170;  921.320
979.187;   94.331;   -9.020;  905.400
979.741;   95.083;   -9.820; 1018.380
980.294;   92.637;  -14.870;  789.160
980.848;   91.841;  -12.380;  717.220
981.401;   91.835;  -10.350;  816.540
981.955;   90.547;  -13.720;  844.300
982.508;   87.013;  -11.490;  746.340
983.061;   87.585;  -10.000;  915.260
983.615;   85.250;  -11.480;  798.800
984.168;   83.600;  -13.220;  770.080
984.721;   82.729;  -13.960;  880.760
985.274;   80.918;  -10.870;  867.500
985.827;   79.343;   -9.790;  834.220
986.380;   76.796;  -13.120;  721.340
986.933;   77.257;  -12.450;  864.800
987.486;   75.907;  -10.210;  861.920
988.039;   76.079;   -8.430;  863.100
988.591;   75.222;  -10.520;  893.260
989.144;   73.369;  -14.860;  737.260
989.697;   72.089;  -13.080;  758.740
990.250;   70.984;  -10.150;  858.100
990.802;   68.789;  -13.430;  755.860
991.355;   69.323;  -12.750;  974.880
991.907;   67.119;  -12.040;  864.320
992.460;   64.916;  -11.330;  753.760
993.012;   64.082;  -13.610;  749.540
993.565;   62.184;  -13.460;  711.360
994.117;   63.544;   -9.360;  950.780
994.669;   60.880;  -11.300;  701.320
995.221;   59.600;  -13.540;  791.920
995.774;   59.033;  -13.430;  787.580
996.326;   57.385;  -12.520;  740.220
996.878;   56.714;  -10.950;  838.420
997.430;   53.872;  -14.300;  699.860
997.982;   53.181;  -13.760;  750.140
998.534;   53.347;  -11.530;  739.060
999.086;   52.451;  -10.310;  738.220
999.638;   50.820;  -12.530;  661.380
1000.190;   50.301;  -11.840;  699.320
1000.741;   49.503;  -10.260;  742.700
1001.293;   49.162;   -8.860;  686.020
1001.845;   48.270;  -13.700;  676.640
1002.396;   47.994;  -12.100;  743.400
1002.948;   47.628;  -12.760;  737.400
1003.500;   46.356;  -10.380;  723.780
1004.051;   46.078;  -11.900;  907.580
1004.603;   44.893;  -12.250;  791.820
1005.154;   41.483;  -13.210;  608.980
1005.705;   42.056;  -10.950;  723.960
1006.257;   40.666;  -13.880;  707.220
1006.808;   40.384;  -12.840;  685.460
1007.359;   40.212;  -10.570;  763.240
1007.910;   39.405;   -9.620;  646.640
1008.461;   38.569;  -13.630;  732.940
1009.013;   37.550;  -17.200;  588.340
1009.564;   38.977;  -10.200;  793.520
1010.115;   36.064;  -12.570;  597.040
1010.665;   35.943;  -15.150;  602.160
1011.216;   35.927;  -14.480;  667.920
1011.767;   36.677;  -11.340;  697.920
1012.318;   35.348;   -9.780;  736.980
1012.869;   35.018;  -12.380;  679.000
1013.419;   34.264;  -15.560;  603.120
1013.970;   35.171;  -11.010;  666.640
1014.521;   35.439;  -11.610;  620.620
1015.071;   34.058;  -13.450;  670.380
1015.622;   33.774;  -13.870;  635.460
1016.172;   34.106;  -11.610;  596.820
1016.723;   33.321;  -12.120;  614.380
1017.273;   32.175;  -13.620;  604.160
1017.823;   32.362;  -14.140;  650.340
1018.374;   32.355;  -12.800;  611.760
1018.924;   32.625;  -12.340;  716.880
1019.474;   32.522;  -11.410;  718.880
1020.024;   31.089;  -14.770;  657.580
1020.574;   32.557;   -9.780;  726.160
1021.124;   32.086;   -8.560;  673.580
1021.674;   30.802;  -15.190;  559.120
1022.224;   31.967;  -13.530;  708.940
1022.774;   31.607;  -13.280;  668.820
1023.324;   31.810;  -10.690;  753.520
1023.874;   32.199;  -10.240;  875.760
1024.423;   29.945;  -12.540;  613.700
1024.973;   29.907;  -10.010;  610.760
1025.523;   29.991;  -10.550;  620.960
1026.072;   29.573;  -13.560;  606.420
1026.622;   28.647;  -15.120;  675.740
1027.172;   30.360;  -11.260;  715.660
1027.721;   28.659;  -11.410;  601.220
1028.270;   29.157;  -13.530;  663.400
1028.820;   28.259;  -13.680;  638.080
1029.369;   29.073;  -13.520;  612.700
1029.918;   28.496;  -10.980;  649.840
1030.468;   27.550;  -13.530;  564.780
1031.017;   28.654;  -13.170;  634.800
1031.566;   27.266;  -12.200;  608.900
1032.115;   27.542;   -9.960;  694.500
1032.664;   26.488;  -13.210;  596.480
1033.213;   27.658;  -12.500;  735.420
1033.762;   26.913;  -11.910;  635.620
1034.311;   27.236;   -9.640;  677.220
1034.860;   26.317;  -13.310;  691.000
1035.408;   27.102;  -11.830;  722.720
1035.957;   26.906;  -12.000;  719.540
1036.506;   24.776;  -11.690;  530.800
1037.055;   27.315;  -10.990;  844.320
1037.603;   25.726;  -15.120;  664.000
1038.152;   24.570;  -12.450;  534.760
1038.700;   24.306;  -10.560;  585.740
1039.249;   24.505;  -11.080;  681.220
1039.797;   24.526;  -12.540;  633.360
1040.345;   25.596;  -11.920;  705.420
1040.894;   24.891;  -11.410;  625.300
1041.442;   24.066;  -14.320;  632.200
1041.990;   23.365;  -16.240;  559.160
1042.538;   23.993;  -11.680;  536.180
1043.087;   23.733;  -10.760;  570.860
1043.635;   24.350;  -11.850;  670.500
1044.183;   22.784;  -15.480;  586.400
1044.731;   23.124;  -11.770;  576.000
1045.279;   22.658;  -13.090;  674.920
1045.827;   24.179;  -12.440;  892.400
1046.374;   22.518;  -13.840;  515.420
1046.922;   21.619;  -13.220;  590.580
1047.470;   22.977;  -10.230;  691.300
1048.018;   22.198;  -14.590;  647.960
1048.565;   23.033;  -12.050;  708.600
1049.113;   22.149;  -11.650;  557.000
1049.660;   21.672;  -10.510;  629.660
1050.208;   21.930;  -13.310;  675.640
1050.755;   20.869;  -15.900;  606.580
1051.303;   22.781;  -11.430;  686.820
1051.850;   21.356;   -8.480;  635.120
1052.397;   19.044;  -15.010;  473.960
1052.945;   20.090;  -13.960;  617.760
1053.492;   22.270;  -13.150;  741.840
1054.039;   21.453;   -9.630;  720.180
1054.586;   20.072;  -13.680;  557.240
1055.133;   20.459;  -14.570;  693.140
1055.680;   21.345;  -13.820;  646.620
1056.227;   19.237;  -11.730;  542.780
1056.774;   20.589;  -12.480;  794.980
1057.321;   19.134;  -13.930;  523.260
1057.868;   19.861;  -11.690;  651.320
1058.415;   18.764;   -9.520;  651.980
1058.961;   19.995;  -13.160;  678.940
1059.508;   19.544;  -12.920;  643.820
1060.055;   19.506;  -11.920;  581.780
1060.601;   19.776;  -11.500;  624.300
1061.148;   18.814;  -14.330;  616.820
1061.694;   18.210;  -16.870;  592.580
1062.241;   18.395;  -10.330;  596.320
1062.787;   18.802;  -10.620;  663.140
1063.334;   19.625;  -10.110;  808.560
1063.880;   18.156;  -13.400;  668.360
1064.426;   18.933;  -10.680;  706.820
1064.972;   18.059;   -9.920;  601.340
1065.518;   16.428;  -10.980;  566.640
1066.065;   17.955;  -14.890;  624.460
1066.611;   17.294;  -12.870;  598.800
1067.157;   18.155;  -12.950;  641.860
1067.703;   16.898;  -13.540;  668.480
1068.249;   16.669;  -13.540;  605.220
1068.794;   17.272;  -12.600;  626.880
1069.340;   15.321;  -10.620;  578.960
1069.886;   16.468;  -12.830;  590.700
1070.432;   15.253;  -14.870;  541.720
1070.977;   15.549;  -11.980;  601.080
1071.523;   16.459;   -8.200;  573.060
1072.068;   15.410;  -12.330;  582.000
1072.614;   15.631;  -16.370;  527.760
1073.160;   16.268;  -11.100;  687.040
1073.705;   14.754;  -10.480;  572.520
1074.250;   14.847;  -14.520;  559.900
1074.796;   15.574;  -11.460;  655.160
1075.341;   15.635;  -11.950;  664.100
1075.886;   14.989;  -11.460;  594.240
1076.431;   14.219;  -13.770;  649.880
1076.976;   14.004;  -12.680;  639.220
1077.521;   14.572;  -13.170;  583.080
1078.067;   14.274;  -10.860;  579.400
1078.612;   14.987;  -13.920;  661.620
1079.156;   13.419;  -13.880;  601.540
1079.701;   14.287;  -13.120;  693.260
1080.246;   15.163;   -9.940;  696.300
1080.791;   14.137;  -14.740;  625.020
1081.336;   13.565;  -13.750;  659.320
1081.880;   14.063;  -13.400;  649.680
1082.425;   13.683;  -12.220;  573.480
1082.970;   14.448;  -11.610;  717.040
1083.514;   13.173;  -13.580;  597.000
1084.059;   13.373;  -12.810;  586.720
1084.603;   12.682;  -12.320;  565.840
1085.147;   13.281;  -13.190;  645.220
1085.692;   13.322;  -12.480;  716.800
1086.236;   12.510;  -13.020;  503.140
1086.780;   13.800;   -9.190;  751.440
1087.325;   12.827;  -12.480;  654.620
1087.869;   12.220;  -12.450;  610.700
1088.413;   12.979;  -12.240;  705.040
1088.957;   11.125;   -9.020;  543.400
1089.501;   13.021;  -10.320;  766.640
1090.045;   12.055;  -12.720;  726.480
1090.589;   10.377;  -13.690;  569.920
1091.133;   11.535;  -10.020;  673.340
1091.676;   11.077;  -12.330;  591.940
1092.220;   11.932;  -14.970;  600.920
1092.764;   12.108;  -12.430;  706.960
1093.307;   11.652;   -9.800;  673.780
1093.851;    9.728;  -14.970;  556.540
1094.395;   12.094;  -15.310;  683.140
1094.938;   11.145;  -10.370;  632.520
1095.482;   10.364;  -11.050;  559.800
1096.025;   10.728;  -11.840;  710.880
1096.568;   11.592;  -12.840;  779.280
1097.112;    9.720;  -14.700;  508.180
1097.655;   11.221;   -8.720;  603.000
1098.198;    9.226;  -13.610;  600.180
1098.741;    9.159;  -13.350;  612.860
1099.285;   10.459;  -11.230;  657.300
1099.828;    8.228;  -11.840;  439.400
1100.371;    9.315;  -10.840;  608.160
1100.914;    9.446;  -14.190;  682.660
1101.457;    9.627;  -11.240;  679.900
1101.999;    8.456;  -11.270;  584.680
1102.542;    8.764;  -11.480;  641.440
1103.085;    8.738;  -11.750;  658.500
1103.628;    9.932;  -11.400;  762.060
1104.170;    8.539;  -10.490;  588.280
1104.713;    9.097;  -10.600;  646.700
1105.256;    8.783;  -14.360;  557.440
1105.798;    8.274;  -13.210;  499.980
1106.341;    8.990;  -10.270;  728.900
1106.883;    8.631;  -12.200;  521.340
1107.425;    7.596;  -13.110;  668.180
1107.968;    8.780;  -12.840;  612.380
1108.510;    8.941;   -6.480;  684.960
1109.052;    7.278;  -13.940;  612.620
1109.594;    7.105;  -13.690;  554.440
1110.136;    8.028;  -11.880;  643.220
1110.679;    7.943;   -9.500;  633.080
1111.221;    8.084;  -14.160;  604.460
1111.763;    6.948;  -13.980;  559.220
1112.304;    6.678;  -13.880;  547.140
1112.846;    7.607;  -12.210;  666.240
1113.388;   10.139;  -11.390;  942.180
1113.930;    7.373;  -14.540;  694.200
1114.472;    6.146;  -12.640;  606.540
1115.013;    5.597;  -11.620;  551.280
1115.555;    5.782;  -13.640;  587.100
1116.097;    6.035;  -15.380;  579.480
1116.638;    7.111;  -12.640;  684.600
1117.180;    6.407;   -9.850;  667.740
1117.721;    6.343;  -13.690;  568.580
1118.262;    6.753;  -12.680;  677.960
1118.804;    7.030;  -12.530;  637.340
1119.345;    5.764;  -11.690;  578.400
1119.886;    6.604;  -13.380;  704.040
1120.427;    5.144;  -14.070;  589.020
1120.969;    4.940;  -13.500;  597.920
1121.510;    5.183;  -11.480;  563.060
1122.051;    5.361;  -12.830;  723.580
1122.592;    5.327;  -14.290;  655.420
1123.133;    4.463;  -12.400;  547.940
1123.673;    5.916;  -10.130;  706.480
1124.214;    4.715;  -12.930;  612.460
1124.755;    5.341;  -14.380;  639.460
1125.296;    5.447;  -14.000;  627.320
1125.836;    5.591;  -10.070;  691.500
1126.377;    4.253;  -12.640;  599.660
1126.918;    4.842;  -12.960;  614.980
1127.458;    4.235;  -13.350;  622.220
1127.999;    4.875;  -10.750;  656.980
1128.539;    4.912;  -12.350;  694.240
1129.079;    4.477;  -14.860;  632.720
1129.620;    3.738;  -13.840;  558.100
1130.160;    4.496;  -12.330;  539.480
1130.700;    3.973;  -14.530;  640.840
1131.240;    4.851;  -12.530;  643.700
1131.781;    3.623;  -14.450;  619.680
1132.321;    3.478;   -9.790;  599.120
1132.861;    2.580;  -14.860;  564.200
1133.401;    2.769;  -14.290;  593.940
1133.941;    3.711;  -11.750;  626.280
1134.481;    2.831;   -9.920;  597.580
1135.020;    2.662;  -12.290;  609.160
1135.560;    3.421;  -11.650;  674.940
1136.100;    2.224;  -16.270;  501.160
1136.640;    2.512;  -10.890;  510.480
1137.179;    1.963;  -14.180;  537.960
1137.719;    2.024;  -16.250;  605.400
1138.258;    2.242;  -14.230;  587.360
1138.798;    2.977;   -9.090;  663.780
1139.337;    1.530;  -15.130;  482.840
1139.877;    2.426;  -13.680;  642.360
1140.416;    4.498;  -11.320;  878.060
1140.955;    1.836;  -10.860;  535.380
1141.494;    2.081;  -12.920;  669.280
1142.034;    2.052;  -13.930;  583.520
1142.573;    3.250;  -11.440;  646.280
1143.112;    1.479;  -12.000;  553.480
1143.651;    1.697;  -13.670;  536.480
1144.190;    2.231;  -12.730;  691.640
1144.729;    2.123;  -14.560;  607.420
1145.267;    2.060;  -11.830;  584.900
1145.806;    2.323;  -12.230;  637.040
1146.345;    1.243;  -14.130;  635.020
1146.884;    1.449;  -11.590;  622.500
1147.422;    1.174;  -12.550;  533.060
1147.961;    2.525;  -11.180;  708.460
1148.500;    2.424;  -11.510;  669.720
1149.038;    2.522;  -11.640;  632.500
1149.577;    1.800;  -10.130;  698.640
1150.115;   -1.138;  -13.970;  452.280
1150.653;    1.014;  -14.520;  607.340
1151.192;    1.340;  -12.810;  552.920
1151.730;    1.248;   -9.100;  652.560
1152.268;    0.279;  -12.220;  589.520
1152.806;    0.372;  -14.140;  571.180
1153.344;    0.357;  -12.350;  577.640
1153.882;    0.980;   -8.980;  600.060
1154.421;   -0.666;  -15.190;  470.620
1154.958;   -0.084;  -15.210;  595.240
1155.496;    1.749;  -12.850;  645.280
1156.034;   -0.147;   -9.940;  721.880
1156.572;    1.090;  -13.570;  667.060
1157.110;   -1.297;  -14.590;  473.940
1157.647;   -0.030;  -13.030;  676.960
1158.185;   -0.448;  -12.140;  564.320
1158.723;   -1.717;  -14.390;  509.200
1159.260;   -0.047;  -14.090;  701.700
1159.798;    0.720;  -11.920;  658.160
1160.335;    0.471;  -11.110;  631.820

