
Integration time [ms]:   3.882
Averaging Nr. [scans]: 1000
Smoothing Nr. [pixels]: 0
Data measured with spectrometer [name]: 7414430SP
Wave   ;Sample   ;Dark     ;Reference
[nm]   ;[counts] ;[counts] ;[counts] 

288.544;  137.707;    7.153;  793.890
289.143;  141.448;    8.402;  681.602
289.742;  142.621;    7.062;  828.814
290.341;  129.915;    0.191;  789.841
290.940;  120.933;    0.321;  730.702
291.538;  121.140;    3.811;  881.108
292.137;  120.473;   -3.438;  792.581
292.736;  123.233;   -2.809;  975.101
293.335;  120.165;   -5.239;  735.086
293.934;  120.891;   -4.939;  781.677
294.532;  122.028;   -2.199; 1031.958
295.131;  107.659;   -6.831;  834.394
295.730;  106.927;   -6.620;  809.588
296.328;  104.225;   -6.471;  783.442
296.927;  104.180;   -6.571;  779.652
297.525;  105.851;   -7.391;  781.236
298.124;   97.315;   -9.402;  654.009
298.722;  102.039;   -5.781;  761.933
299.321;   99.815;   -6.351;  708.597
299.919;   97.298;   -8.661;  751.918
300.518;   93.614;  -11.922;  689.338
301.116;   94.346;   -6.941;  691.381
301.715;   95.667;   -5.471;  730.222
302.313;   94.291;   -8.361;  704.943
302.911;   90.316;   -9.082;  733.830
303.509;   94.906;   -4.571;  925.627
304.108;   93.264;   -7.111;  760.383
304.706;   93.201;   -7.681;  801.664
305.304;   88.030;   -9.162;  796.707
305.902;   92.266;   -6.761;  784.484
306.500;   88.115;   -6.921;  728.200
307.098;   86.812;   -6.491;  746.560
307.696;   85.498;   -6.941;  780.432
308.294;   84.977;   -6.301;  731.359
308.892;   87.032;   -4.771;  759.769
309.490;   84.217;   -5.141;  712.161
310.088;   82.075;   -2.912;  788.444
310.686;   86.314;   -0.421;  821.749
311.284;   82.221;   -3.461;  766.040
311.882;   80.279;   -6.282;  731.225
312.480;   76.862;   -3.632;  697.167
313.078;   78.695;   -2.112;  808.331
313.675;   79.185;   -1.931;  691.600
314.273;   74.213;   -1.442;  797.837
314.871;   74.630;   -3.002;  589.829
315.468;   71.856;   -2.252;  652.090
316.066;   74.600;   -1.091;  694.427
316.664;   68.601;   -4.512;  656.351
317.261;   72.675;   -0.062;  910.128
317.859;   67.860;   -0.952;  768.735
318.456;   68.919;    0.719;  830.096
319.054;   65.310;   -4.002;  787.828
319.651;   64.012;   -4.972;  759.928
320.249;   62.247;   -1.162;  810.188
320.846;   60.214;   -2.651;  714.286
321.443;   58.592;   -3.832;  832.135
322.041;   56.202;   -4.312;  812.315
322.638;   53.421;   -3.872;  701.456
323.235;   55.272;   -4.361;  665.683
323.833;   52.631;   -4.821;  740.354
324.430;   48.326;   -6.971;  615.900
325.027;   49.755;   -4.361;  876.855
325.624;   50.360;   -5.581;  644.532
326.221;   46.233;   -6.601;  689.717
326.818;   46.084;   -7.301;  818.332
327.415;   48.679;   -6.180;  748.828
328.012;   48.151;   -5.920;  690.585
328.609;   46.356;   -8.390;  731.389
329.206;   44.311;   -6.121;  778.621
329.803;   44.160;   -5.241;  737.841
330.400;   46.279;   -7.420;  704.260
330.997;   46.906;   -5.931;  817.147
331.594;   44.988;   -5.641;  788.185
332.191;   50.292;   -6.451;  728.722
332.787;   53.311;   -4.651;  844.463
333.384;   51.596;   -5.472;  763.093
333.981;   48.976;   -6.303;  815.687
334.578;   50.419;   -5.892;  708.378
335.174;   53.810;   -4.102;  731.469
335.771;   54.349;   -8.053;  836.456
336.367;   51.041;   -7.363;  710.631
336.964;   54.062;   -6.243;  793.266
337.561;   53.729;   -5.653;  731.112
338.157;   49.144;   -7.074;  911.916
338.754;   47.310;   -5.474;  796.589
339.350;   45.809;   -5.624;  722.493
339.946;   47.939;   -5.054;  773.135
340.543;   40.394;   -6.695;  846.136
341.139;   34.819;   -6.215;  720.836
341.735;   33.153;   -5.746;  772.593
342.332;   32.597;   -7.335;  691.472
342.928;   32.550;   -4.835;  795.394
343.524;   26.666;   -4.586;  761.684
344.120;   23.416;   -3.946;  738.562
344.716;   26.453;   -4.835;  723.717
345.313;   24.312;   -5.325;  795.342
345.909;   19.781;   -6.535;  627.336
346.505;   21.535;   -4.725;  740.247
347.101;   21.985;   -4.164;  827.864
347.697;   22.785;   -5.274;  785.398
348.293;   16.722;   -7.145;  627.244
348.889;   17.362;   -4.364;  745.914
349.485;   16.780;   -6.404;  688.205
350.081;   17.908;   -7.534;  772.592
350.676;   13.300;   -6.995;  691.606
351.272;   17.889;   -3.544;  809.530
351.868;   17.487;   -5.324;  780.497
352.464;   13.974;   -7.204;  723.932
353.059;   11.241;   -6.894;  646.017
353.655;   14.491;   -3.754;  777.063
354.251;   15.885;   -6.143;  759.845
354.846;   10.219;   -9.464;  740.646
355.442;    8.034;   -7.555;  753.071
356.038;    9.270;   -5.474;  751.708
356.633;    9.493;   -5.914;  728.594
357.229;    7.753;   -8.944;  724.757
357.824;    6.034;   -6.794;  703.600
358.420;    5.152;   -5.754;  679.726
359.015;    6.053;   -5.664;  695.357
359.610;    6.500;   -8.004;  763.920
360.206;    1.317;   -8.815;  603.240
360.801;    3.462;   -8.834;  646.503
361.396;    6.629;   -6.274;  725.975
361.992;    1.402;   -8.574;  668.220
362.587;   -1.203;   -9.265;  670.160
363.182;    0.931;   -5.484;  689.631
363.777;    1.637;   -5.164;  738.242
364.372;    2.234;   -6.954;  737.314
364.967;   -1.928;   -7.065;  680.744
365.563;    1.713;   -5.684;  815.567
366.158;   -1.001;   -6.484;  685.161
366.753;   -0.055;   -8.004;  649.263
367.348;   -1.819;  -10.114;  746.056
367.942;   -1.583;   -7.764;  697.298
368.537;   -2.149;   -4.554;  754.245
369.132;   -2.933;   -7.664;  703.428
369.727;   -6.986;   -8.905;  638.079
370.322;   -5.170;   -4.945;  580.186
370.917;   -5.385;   -7.095;  710.646
371.511;   -2.622;   -6.574;  861.834
372.106;   -5.306;   -6.515;  776.964
372.701;   -9.868;   -8.225;  585.988
373.296;   -3.998;   -4.494;  863.135
373.890;   -8.169;   -7.965;  647.840
374.485;  -10.522;   -9.745;  691.199
375.079;   -6.524;   -5.554;  738.685
375.674;   -4.927;   -4.724;  812.970
376.268;   -9.259;   -8.365;  691.759
376.863;  -15.190;   -8.126;  580.327
377.457;   -9.151;   -6.045;  662.490
378.052;  -10.054;   -6.835;  764.884
378.646;  -10.802;   -9.375;  741.167
379.240;  -11.105;   -6.185;  721.176
379.835;  -10.453;   -6.135;  636.978
380.429;  -12.700;   -8.365;  562.557
381.023;  -12.494;   -7.935;  779.205
381.617;  -14.950;   -8.325;  680.106
382.212;  -11.455;   -7.405;  685.303
382.806;  -10.647;   -4.155;  760.690
383.400;  -14.859;   -8.945;  672.281
383.994;  -15.194;   -8.365;  664.870
384.588;  -11.410;   -7.824;  697.701
385.182;  -10.010;   -7.984;  726.624
385.776;  -12.737;  -10.404;  706.875
386.370;  -14.542;   -7.335;  681.968
386.964;  -14.280;   -7.485;  684.155
387.558;  -11.907;   -8.174;  598.360
388.152;  -15.316;  -10.415;  681.959
388.745;  -13.838;   -9.595;  814.707
389.339;  -12.558;   -6.454;  747.642
389.933;  -10.367;   -5.804;  695.370
390.527;  -12.149;   -6.854;  859.029
391.120;  -19.213;   -7.665;  595.318
391.714;  -15.998;   -7.245;  711.633
392.308;  -12.270;   -4.514;  780.253
392.901;  -17.039;   -7.935;  642.460
393.495;  -17.300;   -8.585;  595.414
394.089;  -15.977;   -5.245;  760.452
394.682;  -16.358;   -6.305;  697.188
395.275;  -17.034;   -9.335;  719.927
395.869;  -17.816;   -7.375;  667.314
396.462;  -16.820;   -7.055;  616.609
397.056;  -12.453;   -5.434;  776.621
397.649;  -17.299;   -9.525;  731.575
398.242;  -14.315;   -7.574;  712.645
398.836;  -13.411;   -5.134;  766.408
399.429;  -14.470;   -6.544;  631.041
400.022;  -18.484;   -9.215;  665.902
400.615;  -15.123;   -8.105;  805.609
401.208;  -13.981;   -7.614;  691.451
401.802;  -15.919;   -8.085;  699.329
402.395;  -17.483;   -9.575;  683.502
402.988;  -18.206;   -9.285;  696.627
403.581;  -15.178;   -7.514;  646.878
404.174;  -12.909;   -6.404;  686.568
404.767;  -15.730;   -8.775;  638.583
405.360;  -18.223;   -7.415;  621.445
405.953;  -13.024;   -5.624;  759.034
406.545;  -11.948;   -6.474;  725.342
407.138;  -16.761;   -8.445;  618.350
407.731;  -14.961;  -10.044;  613.303
408.324;  -11.154;   -8.484;  660.554
408.917;  -11.860;   -7.624;  681.864
409.509;  -14.528;   -8.304;  740.396
410.102;  -16.466;   -8.495;  643.948
410.695;   -9.747;   -7.824;  665.758
411.287;  -11.755;   -7.754;  599.821
411.880;  -12.763;   -9.294;  585.421
412.472;  -15.459;   -8.814;  613.092
413.065;  -12.601;   -6.674;  629.408
413.657;   -9.658;   -9.664;  576.678
414.250;   -9.525;  -10.264;  646.681
414.842;  -11.473;   -8.664;  676.353
415.434;   -9.575;   -8.584;  570.463
416.027;   -5.397;   -9.423;  652.196
416.619;   -7.255;  -10.764;  713.400
417.211;   -8.095;   -7.404;  599.352
417.804;   -4.930;   -7.383;  628.499
418.396;   -8.402;   -8.334;  607.643
418.988;   -6.589;   -9.633;  659.238
419.580;   -9.206;  -10.554;  568.276
420.172;   -7.681;   -8.683;  536.196
420.764;   -3.026;   -9.713;  672.482
421.356;   -4.053;  -11.303;  636.898
421.948;   -5.387;   -8.453;  677.661
422.540;   -0.894;   -5.793;  680.027
423.132;   -1.247;   -7.162;  600.641
423.724;   -4.814;   -7.933;  561.267
424.316;   -1.899;   -9.083;  621.345
424.908;    0.903;   -8.392;  591.517
425.500;    1.676;   -8.062;  647.978
426.092;    1.284;   -9.692;  648.268
426.683;    0.593;   -8.223;  684.836
427.275;    3.809;   -8.602;  641.471
427.867;    5.976;   -8.382;  668.948
428.458;    5.587;  -10.472;  732.344
429.050;    4.834;   -9.112;  680.749
429.642;    6.235;   -7.752;  743.124
430.233;    6.726;   -8.832;  569.356
430.825;    8.501;   -8.292;  724.809
431.416;    6.136;   -7.522;  698.241
432.008;    9.038;   -9.262;  651.723
432.599;    9.309;   -6.441;  656.073
433.190;    6.429;   -9.222;  637.670
433.782;    6.388;  -11.832;  590.395
434.373;   14.092;   -7.121;  884.765
434.964;   12.589;   -9.141;  602.920
435.556;    9.956;   -9.332;  634.537
436.147;   13.001;   -8.892;  758.490
436.738;   12.939;   -8.151;  701.099
437.329;   18.284;   -8.281;  721.723
437.920;   10.336;   -9.062;  666.688
438.511;   10.669;  -11.182;  564.526
439.103;   17.548;   -7.461;  623.998
439.694;   19.105;   -8.541;  681.583
440.285;   20.019;   -7.351;  764.432
440.876;   18.580;   -8.201;  845.738
441.466;   17.752;  -10.381;  575.162
442.057;   23.366;   -7.620;  665.814
442.648;   21.508;   -8.461;  746.255
443.239;   19.394;   -8.991;  620.477
443.830;   24.490;   -7.910;  704.958
444.421;   26.744;   -7.340;  655.474
445.011;   23.279;   -8.981;  693.619
445.602;   22.937;   -9.341;  743.126
446.193;   24.462;  -11.390;  488.117
446.783;   28.674;  -11.240;  640.397
447.374;   24.649;   -8.471;  692.759
447.964;   25.336;   -8.471;  713.770
448.555;   33.422;   -6.590;  822.742
449.145;   29.658;   -8.200;  662.853
449.736;   30.529;  -11.040;  803.179
450.326;   31.371;   -9.640;  713.626
450.917;   35.346;   -9.480;  675.324
451.507;   34.362;   -8.020;  600.661
452.097;   35.484;  -10.210;  746.267
452.688;   36.276;   -7.810;  742.160
453.278;   36.731;   -9.360;  566.840
453.868;   41.185;   -8.669;  793.550
454.458;   38.789;  -10.950;  651.141
455.048;   39.032;  -10.200;  711.783
455.639;   40.437;   -9.369;  567.096
456.229;   43.831;   -7.739;  710.694
456.819;   45.573;   -8.939;  751.158
457.409;   45.916;   -7.169;  773.993
457.999;   48.062;   -7.779;  737.505
458.589;   48.155;   -7.039;  686.606
459.179;   47.209;   -9.019;  717.658
459.769;   46.145;   -8.909;  627.099
460.358;   51.084;   -8.659;  797.262
460.948;   50.315;   -8.209;  689.503
461.538;   52.218;   -9.879;  660.677
462.128;   50.779;   -9.379;  664.934
462.717;   57.722;   -9.158;  710.326
463.307;   60.186;   -8.638;  705.846
463.897;   55.859;   -8.869;  656.942
464.486;   55.550;   -7.409;  837.128
465.076;   59.717;   -9.618;  733.776
465.666;   62.606;   -7.578;  652.900
466.255;   60.783;   -9.369;  785.651
466.845;   60.464;  -10.049;  666.749
467.434;   63.239;   -8.168;  725.873
468.023;   64.069;   -9.188;  658.357
468.613;   61.157;   -9.849;  713.946
469.202;   65.695;  -12.958;  646.507
469.791;   70.973;   -9.488;  737.811
470.381;   71.780;   -6.468;  742.813
470.970;   70.974;  -10.248;  711.099
471.559;   70.360;  -11.428;  733.291
472.148;   73.760;   -9.738;  675.737
472.738;   76.536;   -7.877;  765.466
473.327;   75.933;  -11.868;  637.529
473.916;   75.448;   -8.578;  737.446
474.505;   79.459;  -11.137;  751.703
475.094;   82.982;   -9.407;  806.570
475.683;   82.558;   -9.977;  797.699
476.272;   83.278;  -10.807;  730.632
476.861;   85.829;  -11.017;  706.754
477.449;   92.034;  -10.316;  728.487
478.038;   85.959;  -10.187;  692.513
478.627;   87.689;  -12.458;  714.852
479.216;   93.176;  -10.127;  769.441
479.805;   97.579;   -6.256;  783.375
480.393;   97.636;   -8.737; 1008.945
480.982;   95.607;   -9.087;  874.501
481.571;  101.107;   -7.806;  858.333
482.159;  102.539;  -10.596;  705.386
482.748;  100.831;  -11.507;  821.385
483.336;  106.067;   -8.366;  858.209
483.925;  106.854;   -7.497;  774.373
484.513;  113.461;   -8.326;  758.962
485.102;  110.060;  -10.277;  810.965
485.690;  118.931;   -8.256; 1011.050
486.278;  120.793;   -7.146;  979.329
486.867;  120.657;   -7.986;  809.662
487.455;  122.343;   -9.926;  898.229
488.043;  123.720;  -10.026;  748.361
488.631;  133.151;   -7.226; 1005.079
489.220;  136.670;   -8.696;  908.626
489.808;  135.820;  -12.276;  741.415
490.396;  144.045;   -9.386;  914.645
490.984;  148.586;   -8.506;  830.161
491.572;  158.610;   -8.226;  940.315
492.160;  163.741;   -9.836;  919.081
492.748;  173.619;  -10.316;  884.341
493.336;  194.069;   -7.146; 1019.693
493.924;  215.620;   -7.965;  958.077
494.512;  243.086;  -10.316; 1066.638
495.100;  276.510;  -10.186; 1103.280
495.687;  331.732;   -7.805; 1206.373
496.275;  391.448;   -9.686; 1150.796
496.863;  472.731;  -11.566; 1281.171
497.451;  554.536;  -11.406; 1386.805
498.038;  653.811;   -8.235; 1556.729
498.626;  777.202;   -7.485; 1741.407
499.214;  936.331;   -8.646; 2016.609
499.801; 1181.143;   -9.936; 2220.633
500.389; 1394.408;   -8.056; 2312.494
500.976; 1537.037;   -6.166; 2744.849
501.564; 1719.999;   -9.126; 3148.565
502.151; 2004.161;  -12.456; 3515.999
502.738; 2384.800;  -10.056; 3971.274
503.326; 2786.806;  -10.605; 4403.796
503.913; 3166.345;  -10.576; 5161.749
504.500; 3635.219;   -9.056; 5986.420
505.088; 4160.074;  -10.136; 6381.201
505.675; 4823.440;   -9.075; 6925.547
506.262; 5259.555;  -11.346; 7619.060
506.849; 6105.138;   -9.376; 8733.969
507.436; 6877.603;   -7.365; 9790.121
508.023; 6850.898;   -8.686; 9985.472
508.610; 7019.202;   -8.846;10434.618
509.197; 7753.120;   -9.077;11198.435
509.784; 9174.635;  -10.246;12391.194
510.371;10432.880;   -9.825;13603.713
510.958;11472.804;  -10.896;14426.586
511.545;12132.833;   -9.006;15243.775
512.132;11938.203;   -8.765;15945.876
512.719;12416.200;   -8.286;16340.369
513.305;14449.862;   -9.256;18011.766
513.892;16536.828;  -11.106;19754.971
514.479;19369.211;   -8.576;20967.805
515.066;22070.590;   -9.046;22299.793
515.652;22914.447;  -10.676;22908.660
516.239;23514.303;  -10.166;23798.875
516.825;22963.881;  -11.266;25567.275
517.412;22301.391;   -7.446;28154.959
517.998;21911.816;  -10.916;28344.111
518.585;21564.010;   -9.166;27134.219
519.171;20884.715;  -10.135;27268.576
519.758;21734.381;   -8.806;28964.129
520.344;24557.793;   -6.716;30664.494
520.930;27199.627;  -10.166;32550.605
521.516;27275.150;   -9.615;35422.895
522.103;29442.568;   -8.656;38280.004
522.689;30291.838;   -9.646;37835.117
523.275;29546.475;  -10.786;37288.613
523.861;31774.090;   -9.266;37281.395
524.447;32552.205;   -8.285;37846.949
525.033;31687.027;   -9.426;38321.949
525.619;31339.898;   -9.836;38579.285
526.205;32872.973;   -8.136;40622.875
526.791;32850.941;   -9.986;42258.836
527.377;31680.447;   -8.236;42966.902
527.963;30492.275;  -12.117;42018.949
528.549;30263.473;   -8.376;42476.828
529.135;33553.195;   -8.696;41854.852
529.721;37602.617;   -9.686;41237.711
530.306;40446.680;   -8.616;41259.445
530.892;42822.543;   -9.396;41506.047
531.478;43660.750;   -9.926;43559.613
532.063;43941.176;  -10.236;47695.563
532.649;44755.906;   -8.257;50808.324
533.235;45649.309;  -11.476;51787.500
533.820;45574.918;   -8.156;52145.035
534.406;46629.422;  -12.257;51133.488
534.991;43196.426;   -8.686;49996.805
535.576;40073.938;   -9.426;48882.852
536.162;39613.355;   -8.436;46942.285
536.747;39424.656;  -10.957;45711.746
537.333;37919.230;  -13.147;48510.180
537.918;37839.070;   -9.027;50439.891
538.503;37636.820;   -8.256;50863.711
539.088;37362.508;  -10.576;50906.922
539.673;39668.992;  -10.907;52621.965
540.259;44469.941;   -9.126;52368.094
540.844;46806.918;   -9.026;50879.109
541.429;48719.715;   -9.597;52077.777
542.014;52368.824;  -11.447;52716.695
542.599;54162.801;   -9.236;52363.281
543.184;53760.066;  -12.267;53187.137
543.769;54429.449;  -10.367;54697.605
544.354;54391.844;  -10.887;53913.914
544.938;48003.750;  -11.687;49680.164
545.523;43210.293;   -8.286;47386.277
546.108;44144.723;   -9.317;49151.949
546.693;45131.746;  -10.187;51384.637
547.278;42900.516;   -9.926;51853.254
547.862;42017.176;   -9.196;51173.750
548.447;41607.691;   -9.657;51691.395
549.031;43308.293;   -9.127;52456.703
549.616;45611.723;  -10.836;52714.516
550.201;46394.563;   -8.507;52414.598
550.785;47512.477;  -10.537;52355.059
551.370;50997.258;  -11.727;54589.453
551.954;50078.535;   -9.457;58267.348
552.538;48166.789;   -8.147;59062.176
553.123;47711.172;   -9.397;58115.285
553.707;49179.414;   -9.558;56556.285
554.291;48588.543;   -9.417;56201.668
554.876;50494.789;   -7.627;55335.762
555.460;48826.395;  -10.457;54155.703
556.044;44284.184;  -10.078;53721.484
556.628;43471.699;   -9.407;53731.016
557.212;42411.379;   -7.957;54312.531
557.796;41892.813;  -11.327;53797.773
558.380;45989.570;  -10.868;56145.984
558.964;46041.875;   -9.637;57277.930
559.548;44124.293;   -8.807;56459.641
560.132;46291.633;  -10.187;54434.543
560.716;47165.703;   -9.868;54800.617
561.300;48562.840;  -10.217;57606.945
561.884;48762.305;   -4.947;58972.445
562.467;46275.348;   -9.588;57327.570
563.051;42162.094;  -11.138;54962.434
563.635;42477.914;   -9.358;52594.473
564.219;43007.531;   -9.797;50610.410
564.802;41652.227;   -9.918;49551.180
565.386;40529.133;  -10.838;48370.953
565.969;39781.336;   -8.037;48178.871
566.553;38665.137;   -5.667;49957.305
567.136;38706.148;   -8.258;50369.594
567.720;39179.539;  -11.278;49492.004
568.303;37264.508;   -9.028;50616.352
568.887;36085.020;   -7.508;50727.148
569.470;35086.598;  -11.068;51698.379
570.053;37086.824;  -10.028;52122.078
570.637;37412.871;  -11.077;52536.438
571.220;38850.328;   -8.747;51186.098
571.803;41072.195;   -8.868;51032.762
572.386;42331.633;  -10.608;49609.887
572.969;41585.527;  -10.548;48285.926
573.552;39007.723;   -7.898;47624.285
574.135;38596.918;   -9.918;45498.641
574.718;34312.492;  -10.328;41970.434
575.301;31663.451;   -9.548;41447.137
575.884;29014.410;   -8.768;40923.836
576.467;34283.449;   -9.858;45267.723
577.050;35135.270;  -11.018;48175.543
577.633;36590.691;  -10.048;47729.328
578.216;35595.492;  -10.268;47579.793
578.799;33544.508;  -11.808;47820.996
579.381;32603.479;   -7.338;48115.551
579.964;34346.574;   -9.728;47333.766
580.547;34864.879;   -8.928;46668.969
581.129;34533.254;   -9.149;44466.141
581.712;35903.453;  -11.359;44164.922
582.294;35999.238;  -10.738;46477.855
582.877;34314.453;   -8.788;48244.254
583.459;33304.301;   -9.859;47437.895
584.042;34247.188;   -9.649;46943.219
584.624;34627.098;  -10.529;46792.227
585.206;33016.242;  -10.298;46557.250
585.789;31274.119;  -11.029;45793.773
586.371;31515.240;   -9.359;43836.391
586.953;32272.496;   -8.799;42972.492
587.536;32239.586;   -8.928;42487.211
588.118;31613.467;   -9.180;42086.414
588.700;30166.947;  -10.519;43389.930
589.282;29185.783;   -8.098;43646.039
589.864;29313.461;   -8.139;43438.109
590.446;30886.146;  -10.509;43151.926
591.028;33581.289;  -11.119;42781.867
591.610;34302.184;  -10.019;42839.098
592.192;32629.734;   -8.838;42820.402
592.774;30426.238;  -11.549;40724.277
593.356;28192.244;  -11.609;39874.789
593.937;28872.486;  -10.019;39980.648
594.519;31472.709;   -7.839;42069.633
595.101;32515.098;  -10.779;42976.031
595.683;33634.145;  -10.049;44084.441
596.264;33929.289;   -9.969;43478.797
596.846;32339.816;   -9.699;43803.672
597.427;31389.867;  -10.970;42986.934
598.009;32413.105;  -13.090;42832.219
598.591;32728.383;   -9.509;42580.086
599.172;31110.709;   -9.019;43061.805
599.753;28858.986;  -13.310;41691.469
600.335;29102.080;  -11.010;40692.520
600.916;29983.609;  -10.309;39982.422
601.498;30301.057;   -8.209;40318.617
602.079;30388.061;  -11.440;40670.609
602.660;31656.631;   -8.690;41450.898
603.241;32915.008;  -12.759;41137.738
603.823;31233.730;  -10.409;38868.797
604.404;31230.277;  -11.790;38182.785
604.985;29780.533;  -10.280;38078.047
605.566;30425.787;   -8.059;38056.633
606.147;30947.551;   -8.960;37020.418
606.728;30712.672;  -10.710;37883.359
607.309;29845.975;  -12.760;38748.273
607.890;27762.988;   -9.959;38850.230
608.471;26301.693;   -9.780;37457.918
609.051;27943.697;   -8.940;36066.457
609.632;30703.289;  -12.070;35991.074
610.213;32662.957;   -9.610;37402.641
610.794;32731.082;   -8.750;38383.363
611.374;31848.537;  -11.100;40562.387
611.955;32353.455;  -12.200;38533.727
612.536;32121.504;  -10.410;36951.789
613.116;32064.441;  -10.010;37197.891
613.697;31207.186;  -10.480;38411.125
614.277;29753.791;  -12.751;38673.938
614.858;29798.898;  -11.600;37075.863
615.438;29249.148;   -8.190;35092.906
616.019;27827.887;   -8.941;33666.301
616.599;28830.908;  -13.540;34189.023
617.179;29367.840;  -10.890;36952.047
617.760;30009.883;   -7.610;39582.574
618.340;29426.166;  -14.441;38943.977
618.920;28856.736;   -9.180;37594.156
619.500;28950.098;  -11.881;37866.938
620.080;30883.063;   -9.870;37869.043
620.660;30752.141;  -13.211;36868.617
621.241;29607.717;  -11.921;36352.309
621.821;28485.563;  -10.271;35459.520
622.401;28208.172;   -8.200;35207.414
622.980;29253.658;  -11.141;35980.422
623.560;30768.156;  -14.321;37351.328
624.140;30423.543;   -9.360;34388.582
624.720;26922.182;   -7.481;32368.764
625.300;23892.715;  -12.730;32638.629
625.880;28761.945;  -11.441;34599.035
626.459;32274.355;  -10.971;36831.738
627.039;33641.520;   -9.011;38299.098
627.619;33571.301;   -8.521;38289.574
628.198;34703.035;   -9.861;37220.695
628.778;34538.039;   -8.841;37632.563
629.357;33067.023;   -9.891;38003.012
629.937;30691.348;  -11.871;38402.039
630.516;29644.084;  -10.641;37868.801
631.096;31888.498;  -11.391;35760.410
631.675;33411.160;   -6.622;35225.219
632.254;31338.568;  -13.002;35130.289
632.834;29783.559;  -11.622;35794.570
633.413;31566.004;   -8.321;35788.922
633.992;29831.998;   -7.732;34532.863
634.571;29220.777;  -10.992;33590.113
635.151;30627.828;  -10.422;34943.863
635.730;31058.980;  -11.511;35352.523
636.309;30221.920;   -7.901;35366.605
636.888;29299.139;  -11.452;36165.637
637.467;29024.730;  -10.672;37515.902
638.046;29148.719;   -9.301;39288.695
638.625;30150.775;  -11.452;38279.699
639.204;31645.184;  -12.262;37741.598
639.782;31108.764;  -11.892;38364.551
640.361;29746.438;  -11.411;36740.621
640.940;26750.184;  -11.501;34950.082
641.519;27030.162;  -10.921;34137.398
642.097;30278.217;  -10.101;35654.258
642.676;30739.277;  -10.821;35637.957
643.255;33118.574;   -8.631;36567.074
643.833;35409.664;  -11.411;37809.434
644.412;36613.086;  -12.021;37337.293
644.990;36295.637;  -12.271;37018.531
645.569;35292.703;   -9.741;36518.469
646.147;34210.563;   -9.051;36186.430
646.726;32286.586;  -13.861;36267.688
647.304;32099.566;   -9.461;36647.625
647.882;31113.408;  -13.171;39286.742
648.461;31125.350;  -11.911;39157.703
649.039;31537.158;   -9.541;35412.883
649.617;33585.859;   -8.901;34744.918
650.195;31807.727;   -8.591;35403.098
650.773;30212.863;  -13.031;35053.797
651.352;28585.287;  -12.211;33756.816
651.930;25630.004;  -11.361;31868.773
652.508;23047.219;   -8.601;33121.551
653.086;26563.861;   -9.991;33564.793
653.663;30928.158;  -11.931;34054.668
654.241;32837.195;  -10.821;35693.309
654.819;33363.813;   -9.341;36422.906
655.397;31096.467;  -10.851;38213.484
655.975;29361.264;  -11.461;39507.625
656.553;30169.533;   -8.841;39498.223
657.130;29710.617;  -10.371;40395.480
657.708;28539.162;  -11.071;39242.020
658.286;28361.047;  -11.141;38920.020
658.863;30693.383;  -10.861;40202.898
659.441;36203.430;  -11.181;39677.938
660.018;37642.797;  -10.851;40413.355
660.596;36758.047;  -12.571;39931.414
661.173;37562.219;  -12.141;39604.531
661.750;34289.824;  -11.571;39700.070
662.328;31010.342;  -10.780;39292.809
662.905;29774.146;  -10.750;38235.648
663.482;26832.090;  -11.320;36212.305
664.060;25816.662;  -10.160;35944.945
664.637;31517.275;  -13.120;35170.785
665.214;33976.746;  -11.500;34197.523
665.791;31719.848;  -12.430;34549.520
666.368;29160.416;   -9.840;35118.578
666.945;28030.594;  -11.290;36019.418
667.522;28418.121;  -13.540;36048.438
668.099;29209.438;  -10.250;36243.914
668.676;28464.775;  -11.270;35958.875
669.253;27913.152;   -8.210;37384.730
669.830;26591.264;   -9.710;36779.629
670.407;26027.047;   -9.700;35231.289
670.984;25811.320;   -9.190;35544.270
671.560;24603.645;   -9.560;35466.867
672.137;24445.398;  -11.820;34280.863
672.714;27412.242;  -12.460;34632.863
673.290;31620.414;  -10.940;35135.422
673.867;32925.246;  -10.510;36114.480
674.443;31249.178;  -12.110;36152.859
675.020;31254.482;  -11.760;35327.238
675.596;31800.221;   -9.380;35795.176
676.173;30899.045;  -11.120;35430.355
676.749;29855.285;  -13.390;33549.516
677.326;28764.773;  -12.600;32210.012
677.902;27779.801;  -10.830;32068.871
678.478;27179.959;  -12.400;32583.891
679.054;28511.164;   -8.610;32088.928
679.631;29764.252;  -11.640;30978.848
680.207;30510.855;   -8.140;33160.887
680.783;30414.865;  -12.300;35570.363
681.359;29167.074;  -10.910;36125.184
681.935;28411.457;  -11.040;35240.922
682.511;28875.889;  -11.130;34429.961
683.087;29102.355;  -11.080;34463.680
683.663;30789.648;  -10.530;34648.898
684.239;31136.781;  -12.120;34546.457
684.815;30018.240;   -8.870;35586.375
685.390;28534.262;   -8.940;35821.895
685.966;27419.092;  -12.109;35085.871
686.542;26068.590;  -13.539;34198.230
687.118;25351.051;  -10.379;32847.707
687.693;26252.105;  -10.189;32794.027
688.269;25739.186;  -12.939;33072.367
688.844;24605.266;   -8.679;33141.664
689.420;25513.594;  -10.919;33965.742
689.995;26098.215;   -7.489;34655.523
690.571;25444.176;  -12.199;33576.742
691.146;25642.908;   -8.979;32657.219
691.722;27197.891;   -9.119;32526.979
692.297;27359.043;  -10.519;33014.617
692.872;27416.014;  -10.629;34012.254
693.448;27629.217;  -12.119;34237.434
694.023;26888.305;   -8.219;34142.672
694.598;25136.178;  -13.209;34132.031
695.173;23926.014;  -11.879;34205.250
695.748;24531.771;  -12.039;32882.488
696.323;25514.693;  -11.779;32864.906
696.898;25916.406;  -10.219;33170.004
697.473;27390.820;  -13.639;32432.984
698.048;28127.693;  -11.239;31649.303
698.623;30242.529;  -10.859;30778.141
699.198;32315.480;  -13.379;31140.119
699.773;32538.959;  -13.409;31764.299
700.348;31374.123;  -12.329;31780.816
700.922;31370.676;   -8.749;32046.375
701.497;31495.041;  -12.449;32603.574
702.072;29894.777;   -8.879;34799.871
702.646;27927.209;  -10.719;35793.172
703.221;27296.252;   -8.469;35201.590
703.795;27955.166;  -11.389;34764.527
704.370;26949.143;  -12.499;34307.367
704.944;25755.070;  -11.449;33509.887
705.519;25642.666;  -10.659;31388.584
706.093;24853.570;  -12.909;31340.104
706.668;25176.369;  -13.509;32630.281
707.242;26169.469;  -10.049;32728.779
707.816;26117.861;  -10.629;32947.238
708.390;25283.240;  -11.829;33277.855
708.965;24078.711;  -11.159;33834.336
709.539;24436.686;  -11.069;33709.273
710.113;24106.018;  -10.908;33044.313
710.687;22341.855;   -9.488;31953.992
711.261;22620.602;  -13.068;30505.949
711.835;25217.787;  -12.748;30262.369
712.409;27433.830;  -10.678;31254.447
712.983;26830.262;  -11.658;32754.986
713.557;26163.184;  -13.718;34018.824
714.131;26905.480;  -13.388;34579.625
714.704;29627.457;   -9.818;33890.262
715.278;31654.199;  -11.818;33531.102
715.852;31779.377;  -11.328;33601.660
716.425;32132.443;   -9.118;33515.117
716.999;32172.979;  -10.188;33185.555
717.573;31249.801;   -9.808;33905.996
718.146;30264.617;  -11.478;35199.293
718.720;28979.215;  -10.998;35060.551
719.293;28175.311;   -9.508;34973.230
719.867;29267.793;  -12.138;36394.449
720.440;28888.602;  -11.288;36663.008
721.013;31000.965;  -11.428;35102.426
721.587;32358.871;  -11.698;33985.266
722.160;33570.172;  -11.608;33524.965
722.733;33832.961;  -11.428;32987.043
723.306;30709.064;  -12.518;33066.301
723.880;29067.438;   -7.408;33399.500
724.453;28649.770;  -11.048;33468.297
725.026;27419.215;  -11.678;33816.637
725.599;26174.502;  -10.978;32797.996
726.172;24759.363;   -8.838;33187.434
726.745;24755.094;  -11.438;35136.613
727.318;26237.896;   -9.828;35751.730
727.891;26897.363;  -10.868;35890.430
728.463;26746.512;  -11.348;34822.090
729.036;25617.855;  -11.608;32895.086
729.609;25305.688;  -14.738;31823.225
730.182;25653.434;   -8.448;31445.283
730.754;26437.373;  -11.228;32373.223
731.327;26719.588;  -12.018;33676.820
731.900;28564.967;  -13.748;33417.000
732.472;29560.893;  -10.928;31978.498
733.045;29020.779;   -9.478;30368.777
733.617;27335.646;  -12.967;30574.215
734.190;26624.750;  -11.707;31280.975
734.762;25953.531;  -11.067;31674.412
735.334;25150.297;  -10.587;31247.291
735.907;24276.334;  -11.947;29876.211
736.479;24662.178;  -11.667;29808.488
737.051;26208.633;  -10.187;30233.547
737.623;26836.557;   -6.887;31469.086
738.195;28145.238;  -12.117;31784.225
738.768;30232.727;  -14.077;32120.523
739.340;29645.020;  -12.207;32094.342
739.912;27171.967;   -8.977;31312.680
740.484;25746.242;  -11.017;31946.238
741.056;27682.527;  -13.517;32984.059
741.628;30189.799;  -11.507;33897.715
742.199;30608.020;   -7.597;33213.016
742.771;30153.734;  -12.227;31369.113
743.343;28725.506;  -12.427;31865.473
743.915;26882.053;   -9.827;32388.631
744.487;25792.920;  -10.007;31079.568
745.058;24929.693;  -11.887;30570.107
745.630;23833.350;  -10.787;29970.127
746.201;23301.119;  -10.887;29186.766
746.773;24829.072;   -9.707;28805.723
747.344;26044.100;  -11.137;29591.223
747.916;25513.410;  -11.887;31412.201
748.487;24935.244;   -9.707;32194.898
749.059;24484.506;  -10.027;32533.719
749.630;23692.023;  -11.787;32158.518
750.201;22276.197;  -12.767;30855.395
750.773;20265.025;  -11.497;28622.555
751.344;21087.996;   -9.937;28405.732
751.915;21051.057;  -11.567;28461.551
752.486;19011.402;  -13.267;27842.850
753.057;18009.990;  -10.627;27845.008
753.628;18094.564;  -11.657;27728.107
754.199;20474.484;  -12.097;27381.086
754.770;22047.586;  -11.447;25882.203
755.341;22497.645;  -11.997;25886.184
755.912;20885.186;  -10.207;26050.861
756.483;19042.613;  -10.937;26798.779
757.054;19488.973;  -11.527;27048.238
757.625;19778.693;  -12.886;26294.838
758.195;19325.006;  -11.226;26142.076
758.766;19652.604;  -12.366;26392.234
759.337;18511.152;  -11.946;26334.594
759.907;18153.416;  -13.856;27579.652
760.478;19459.178;   -9.606;28352.770
761.048;20890.172;  -11.606;27325.088
761.619;21364.129;  -11.036;26460.428
762.189;19753.600;  -12.206;26029.826
762.760;19079.371;   -9.666;26430.145
763.330;20071.982;   -9.796;26670.902
763.900;19882.027;  -10.896;26603.021
764.471;19356.264;  -11.726;25542.740
765.041;20122.705;   -9.656;24358.459
765.611;20630.998;  -11.276;23991.297
766.181;20112.535;  -12.116;24470.236
766.751;19849.869;  -12.376;24845.975
767.321;20145.000;  -11.626;24533.633
767.891;19950.074;  -10.426;24916.492
768.461;18267.721;  -13.456;24776.771
769.031;15852.667;  -11.616;24757.988
769.601;14848.163;  -11.356;24181.088
770.171;14767.751;  -11.586;23670.387
770.741;15360.708;  -12.696;22960.045
771.311;17064.174;  -10.226;22917.523
771.880;17761.834;  -11.146;23562.941
772.450;18164.313;  -11.716;24216.500
773.020;18037.477;  -13.226;24140.398
773.589;16961.264;  -12.586;24414.857
774.159;16591.338;  -10.246;23858.717
774.729;16003.745;  -11.586;22942.135
775.298;15790.977;  -15.926;22324.033
775.867;15753.982;  -10.426;21140.313
776.437;15315.982;  -11.416;20838.092
777.006;13515.832;  -12.766;20599.510
777.576;13523.894;  -13.666;20508.809
778.145;14905.176;  -10.066;20732.947
778.714;15143.517;  -10.276;21062.465
779.283;14626.854;  -12.086;20949.664
779.853;14436.153;  -14.016;20508.623
780.422;14256.055;  -12.376;20649.082
780.991;13599.048;   -9.246;21527.520
781.560;13364.420;   -9.775;22632.658
782.129;13638.102;  -12.495;23048.277
782.698;13718.379;  -11.775;23438.555
783.267;13627.471;  -10.065;23267.734
783.836;14419.904;  -12.455;22415.133
784.404;14889.229;  -13.385;20443.152
784.973;14837.348;  -11.045;19699.150
785.542;14426.613;   -9.505;19763.828
786.111;13737.892;   -9.385;20341.408
786.679;13499.377;  -13.475;20207.967
787.248;13434.504;  -11.245;19516.465
787.817;12007.808;  -12.485;18900.363
788.385;10507.253;  -11.165;17879.121
788.954;10988.409;  -11.755;17658.301
789.522;11972.835;   -9.625;17788.879
790.090;12316.946;   -9.665;18118.277
790.659;11684.385;   -9.295;18338.736
791.227;11688.482;  -12.175;18508.615
791.795;12492.892;  -12.145;17898.254
792.364;12450.559;  -11.575;17295.133
792.932;11834.182;  -11.085;16822.051
793.500;11456.203;  -11.345;17040.148
794.068;11099.946;  -12.565;17179.787
794.636;11645.460;  -12.105;16664.246
795.204;12671.098;  -11.995;16524.545
795.772;12608.709;  -12.615;17274.564
796.340;12040.484;  -12.425;17891.002
796.908;11615.069;  -11.455;17648.561
797.476;10792.620;  -12.165;17064.080
798.044; 9751.024;  -15.795;16672.777
798.612; 9338.412;  -10.985;17023.996
799.180; 9944.108;  -12.055;16561.615
799.747;10461.926;  -12.525;15962.773
800.315; 9625.481;  -14.765;15296.992
800.883; 8435.508;  -12.435;14801.771
801.450; 8288.996;  -11.295;14534.430
802.018; 8705.644;  -11.185;14173.248
802.585; 8880.059;  -11.625;14029.547
803.153; 8223.534;  -10.665;13836.846
803.720; 7756.147;  -10.275;13567.324
804.287; 7913.943;  -12.865;13360.622
804.855; 8170.581;  -12.324;13681.981
805.422; 8139.656;  -11.574;13536.560
805.989; 7776.458;  -11.004;13355.958
806.556; 7958.208;  -12.214;13747.896
807.124; 8348.045;  -13.304;13987.376
807.691; 8258.791;  -12.034;14038.674
808.258; 8057.005;  -11.014;14120.152
808.825; 7955.063;  -11.804;13860.111
809.392; 7751.445;  -11.544;13268.790
809.959; 7587.749;  -14.954;12680.389
810.526; 7881.683;  -10.214;12427.308
811.093; 7928.584;  -10.754;12030.105
811.659; 7499.288;  -12.194;11653.664
812.226; 6744.159;   -9.194;11637.183
812.793; 6589.074;   -9.644;11611.521
813.360; 7277.576;  -11.544;11885.181
813.926; 8265.835;  -12.814;12770.539
814.493; 8341.746;  -11.524;12677.638
815.060; 8132.116;  -12.254;11974.336
815.626; 7918.650;  -12.114;11594.715
816.193; 7382.646;  -11.994;11579.474
816.759; 6830.223;  -11.464;11666.972
817.325; 6365.830;  -10.444;11325.530
817.892; 6055.720;  -11.124;11105.369
818.458; 6067.947;  -11.864;10843.928
819.024; 6587.095;  -10.634;10714.406
819.591; 6789.968;  -10.554;10469.165
820.157; 6856.228;  -13.334;10235.523
820.723; 6889.800;  -13.044;10847.563
821.289; 6769.822;   -9.664;11040.980
821.855; 6843.409;  -10.994;10357.100
822.421; 7097.173;  -11.784; 9978.918
822.987; 7259.069;  -12.554; 9754.177
823.553; 7267.223;  -12.554;10065.755
824.119; 6897.231;   -8.544;10036.294
824.685; 6110.094;  -12.144;10029.192
825.251; 5759.853;  -12.754;10199.230
825.816; 5449.592;  -11.354; 9820.189
826.382; 5074.638;  -11.004; 9297.248
826.948; 5047.579;  -11.004; 9381.347
827.513; 5248.697;  -12.474; 9450.726
828.079; 5361.415;  -13.084; 9472.444
828.645; 5494.240;  -10.813; 9292.643
829.210; 5332.349;  -11.593; 9065.341
829.776; 5354.260;  -12.633; 9132.620
830.341; 5653.507;  -10.473; 9092.878
830.906; 5557.224;   -8.763; 9078.557
831.472; 4874.657;  -13.453; 8534.535
832.037; 3951.029;  -12.173; 8677.874
832.602; 3669.534;  -14.093; 8628.692
833.167; 4028.957;  -13.593; 8879.031
833.733; 4615.464;  -10.793; 9189.790
834.298; 4976.337;  -14.783; 9052.608
834.863; 4625.435;  -11.023; 8895.087
835.428; 4291.888;  -11.113; 8824.266
835.993; 4601.021;   -9.983; 8845.385
836.558; 4841.776;  -13.003; 8888.563
837.123; 4742.206;  -10.733; 8966.582
837.688; 4397.677;   -9.683; 8617.860
838.253; 4178.636;  -12.253; 8590.699
838.817; 4361.694;  -11.643; 8443.797
839.382; 4571.420;  -11.953; 8799.356
839.947; 4542.172;  -11.443; 8810.595
840.511; 4408.494;  -10.843; 8796.394
841.076; 4403.693;  -13.533; 8347.231
841.641; 4518.656;  -11.743; 8224.330
842.205; 4375.767;  -10.013; 8223.349
842.770; 4236.311;  -11.023; 8622.107
843.334; 4239.570;  -14.273; 8410.386
843.898; 4403.633;  -11.323; 8337.465
844.463; 4767.700;  -10.263; 8506.283
845.027; 4938.527;  -10.353; 8280.962
845.591; 4872.695;  -12.163; 8231.141
846.156; 4681.577;  -12.263; 7969.179
846.720; 4671.321;  -11.553; 7768.278
847.284; 4566.956;  -12.393; 7630.957
847.848; 3953.820;  -12.623; 7472.395
848.412; 3395.516;  -11.863; 7437.394
848.976; 3301.401;  -10.203; 7674.592
849.540; 3388.510;  -10.603; 7836.011
850.104; 3514.942;  -12.423; 7913.669
850.668; 3588.177;  -14.613; 7694.508
851.232; 3531.738;  -12.873; 7756.887
851.796; 3555.124;  -14.192; 7926.545
852.359; 3696.856;  -13.652; 7827.844
852.923; 3674.320;  -11.402; 7641.163
853.487; 3552.226;  -12.022; 7342.501
854.050; 3421.952;  -15.202; 7042.820
854.614; 3426.451;  -14.592; 7151.338
855.177; 3402.144;  -12.572; 7105.077
855.741; 3425.344;   -9.932; 6989.675
856.304; 3582.889;  -12.192; 6596.634
856.868; 3625.208;  -13.462; 6356.272
857.431; 3585.683;  -11.542; 6468.571
857.995; 3602.113;  -12.062; 6373.210
858.558; 3361.920;  -11.142; 6324.448
859.121; 3064.764;  -11.742; 6408.327
859.684; 2901.805;  -10.332; 6347.886
860.247; 2886.537;  -11.962; 6321.264
860.810; 3014.049;  -12.332; 6301.903
861.374; 3047.216;  -10.292; 6607.881
861.937; 2970.598;  -12.062; 6408.200
862.500; 3058.416;  -11.702; 6572.639
863.062; 3232.513;  -13.852; 6387.297
863.625; 3320.523;  -12.972; 6190.836
864.188; 3214.753;  -10.292; 5807.254
864.751; 3070.313;  -12.382; 5682.413
865.314; 2886.302;  -13.232; 5547.492
865.876; 2671.823;  -12.772; 5500.150
866.439; 2508.149;  -11.952; 5415.909
867.002; 2495.149;   -9.332; 5501.567
867.564; 2715.272;  -11.712; 5413.946
868.127; 2905.472;  -12.012; 5160.325
868.689; 2700.393;  -11.882; 5133.183
869.252; 2383.890;  -11.572; 5252.382
869.814; 2255.435;  -10.692; 5297.141
870.377; 2345.930;  -12.392; 5390.919
870.939; 2470.992;  -10.582; 5599.898
871.501; 2486.578;  -12.782; 5248.336
872.063; 2427.766;  -15.612; 4854.235
872.626; 2411.281;  -13.922; 4817.074
873.188; 2308.375;  -13.832; 4987.732
873.750; 2171.130;  -10.962; 4868.651
874.312; 2212.274;  -11.022; 4779.330
874.874; 2258.265;  -13.152; 4866.348
875.436; 2234.399;  -13.401; 4718.887
875.998; 2185.708;   -8.891; 4660.005
876.560; 2126.466;  -12.591; 4462.964
877.122; 2052.938;  -14.531; 4145.042
877.683; 1967.285;  -10.781; 4056.481
878.245; 1883.584;  -14.281; 3950.740
878.807; 1861.095;  -10.311; 4058.958
879.369; 1757.852;  -13.201; 3954.677
879.930; 1671.025;  -12.061; 3941.495
880.492; 1710.633;   -9.181; 4067.014
881.053; 1866.437;  -12.051; 3859.633
881.615; 1942.201;  -11.501; 3776.071
882.176; 1717.118;  -12.221; 3734.750
882.738; 1275.289;   -8.931; 3678.489
883.299;  925.262;  -13.571; 3405.407
883.860;  846.106;  -12.331; 3351.106
884.422;  868.157;  -10.201; 3394.044
884.983;  868.075;  -12.521; 3166.443
885.544;  861.909;  -12.291; 3189.802
886.105;  880.387;  -12.991; 3160.360
886.666;  909.290;  -12.901; 3093.059
887.227;  909.801;  -12.061; 2941.957
887.788;  887.665;  -11.641; 2974.836
888.349;  858.228;  -14.691; 2721.214
888.910;  827.966;   -9.681; 2696.493
889.471;  812.728;   -9.971; 2560.172
890.032;  804.601;  -13.151; 2558.190
890.593;  785.662;  -12.051; 2567.669
891.153;  763.040;  -12.841; 2460.307
891.714;  745.958;  -13.561; 2372.046
892.275;  732.718;  -12.401; 2309.505
892.835;  704.109;  -13.191; 2382.543
893.396;  661.789;  -12.551; 2295.502
893.956;  649.263;  -11.981; 2162.420
894.517;  654.770;  -12.221; 2125.439
895.077;  628.586;  -12.021; 2086.978
895.638;  564.911;  -10.891; 2126.316
896.198;  508.128;  -13.171; 1838.275
896.758;  470.172;  -11.891; 1892.813
897.319;  428.764;  -12.491; 1792.232
897.879;  409.613;  -12.401; 1762.751
898.439;  383.910;  -13.431; 1661.149
898.999;  366.678;  -11.340; 1781.468
899.559;  359.891;  -13.930; 1703.347
900.119;  345.422;  -13.730; 1537.525
900.679;  330.020;   -9.210; 1638.384
901.239;  316.065;  -10.860; 1527.902
901.799;  298.995;  -11.450; 1456.441
902.359;  278.284;  -13.800; 1357.140
902.919;  267.268;  -12.130; 1331.118
903.479;  265.424;  -12.650; 1317.257
904.038;  255.318;  -16.110; 1262.595
904.598;  238.783;  -13.690; 1152.034
905.158;  225.320;  -10.290; 1240.893
905.717;  217.294;  -10.670; 1233.691
906.277;  216.319;  -14.040; 1217.330
906.836;  215.770;  -13.510; 1222.408
907.396;  211.096;  -11.530; 1193.047
907.955;  200.616;  -13.190; 1182.526
908.515;  189.840;  -12.950; 1099.364
909.074;  181.422;  -12.390; 1092.863
909.633;  174.988;  -10.340; 1069.121
910.192;  172.830;  -11.170; 1196.460
910.752;  167.734;  -14.200; 1029.960
911.311;  163.549;  -13.810; 1009.780
911.870;  159.708;  -12.750;  971.460
912.429;  159.575;  -12.380; 1094.080
912.988;  157.010;  -11.930; 1081.060
913.547;  153.665;  -10.990;  940.380
914.106;  151.606;  -11.200;  999.420
914.665;  150.471;  -13.150;  984.020
915.224;  148.458;  -13.310; 1035.760
915.782;  145.747;  -13.340;  922.560
916.341;  146.017;  -10.710; 1049.840
916.900;  142.947;  -12.980;  925.260
917.458;  142.169;  -13.060;  884.220
918.017;  140.795;  -10.900;  942.600
918.576;  139.999;  -11.630;  904.440
919.134;  139.223;  -12.860;  837.980
919.693;  139.424;  -15.160;  893.060
920.251;  138.464;  -13.470;  876.500
920.809;  138.156;  -13.700;  839.580
921.368;  138.101;  -13.420;  885.360
921.926;  138.560;  -14.710;  842.940
922.484;  139.651;  -12.560;  903.360
923.042;  140.785;  -11.930;  880.340
923.601;  140.657;  -10.270;  998.680
924.159;  138.250;  -12.960;  935.560
924.717;  136.479;  -13.040;  841.080
925.275;  137.021;  -12.560;  903.240
925.833;  138.391;  -13.040;  779.320
926.391;  141.577;  -13.360;  938.380
926.949;  140.577;  -13.940;  857.680
927.506;  142.041;   -9.400;  903.500
928.064;  140.813;  -10.940;  877.580
928.622;  140.398;  -13.180;  880.100
929.180;  140.363;  -12.730;  814.180
929.737;  140.750;  -12.840;  808.540
930.295;  143.618;  -11.810;  928.480
930.853;  149.508;  -13.650;  849.100
931.410;  153.422;  -13.580;  821.120
931.968;  154.611;  -12.020;  940.660
932.525;  154.655;  -13.320;  909.380
933.082;  153.863;  -13.800;  811.440
933.640;  158.829;  -11.380;  925.900
934.197;  160.502;  -11.480;  886.360
934.754;  162.057;  -13.220;  897.780
935.312;  161.586;  -14.950;  863.340
935.869;  159.919;  -10.940; 1012.980
936.426;  154.011;  -12.100;  872.800
936.983;  154.262;  -12.930;  889.020
937.540;  155.402;  -14.250;  838.280
938.097;  159.761;  -12.600;  940.120
938.654;  166.368;  -11.260;  898.860
939.211;  169.684;  -13.020;  952.480
939.768;  171.446;  -15.760;  915.420
940.324;  175.876;  -13.920;  904.200
940.881;  173.459;  -11.620;  878.500
941.438;  170.786;   -9.870; 1021.200
941.995;  166.859;  -13.920;  992.560
942.551;  163.902;  -12.830;  875.620
943.108;  165.285;  -11.980;  937.920
943.664;  168.632;  -13.740;  869.340
944.221;  176.417;  -12.670; 1088.140
944.777;  176.131;  -13.250;  869.680
945.334;  171.889;  -13.000;  884.840
945.890;  170.420;  -13.020;  946.480
946.446;  169.513;  -13.880;  947.020
947.003;  169.788;  -12.660;  964.940
947.559;  170.807;   -8.730; 1063.040
948.115;  168.715;  -11.960; 1026.540
948.671;  165.246;  -12.360;  967.300
949.227;  160.160;  -12.700;  859.560
949.783;  157.275;  -13.450;  858.900
950.339;  155.962;  -10.620;  991.000
950.895;  154.268;  -14.770; 1023.840
951.451;  150.848;  -13.650;  925.280
952.007;  151.909;  -11.180;  998.540
952.563;  151.268;  -11.680;  937.780
953.118;  150.579;  -13.280;  904.940
953.674;  151.790;  -12.510;  935.780
954.230;  152.131;  -12.220;  949.640
954.785;  148.839;  -12.190;  936.640
955.341;  145.037;  -12.270;  998.160
955.897;  142.833;  -14.900;  834.660
956.452;  144.417;  -12.520;  953.840
957.008;  143.352;   -9.410; 1083.640
957.563;  140.687;  -11.280; 1009.540
958.118;  137.091;  -13.470;  877.700
958.674;  138.110;  -12.190;  946.780
959.229;  139.017;  -12.760; 1013.980
959.784;  142.479;  -15.710;  832.400
960.339;  148.112;  -12.540; 1001.280
960.894;  147.188;  -11.680;  963.760
961.449;  143.729;  -11.410;  859.960
962.004;  141.568;  -10.430; 1212.840
962.559;  135.010;  -14.040;  860.140
963.114;  129.978;  -14.270;  742.480
963.669;  130.513;  -11.320;  915.500
964.224;  130.029;  -14.620;  874.340
964.779;  128.764;  -14.150;  828.420
965.334;  128.515;  -10.850; 1017.860
965.888;  128.273;  -14.530;  875.360
966.443;  130.147;  -13.520;  972.380
966.998;  128.276;  -13.370;  819.460
967.552;  125.793;   -9.960;  908.380
968.107;  121.732;  -12.360;  868.300
968.661;  122.980;  -12.270;  922.440
969.216;  121.593;  -12.140;  856.280
969.770;  120.074;  -11.860;  917.200
970.324;  120.772;  -12.170;  923.140
970.879;  119.578;  -14.160;  947.180
971.433;  118.280;  -12.940;  952.720
971.987;  114.594;  -10.180;  895.340
972.541;  113.348;  -12.130;  917.100
973.095;  113.637;  -14.980; 1009.460
973.649;  112.138;  -14.480;  809.480
974.203;  114.446;  -13.530;  829.040
974.757;  115.120;  -12.060;  855.220
975.311;  113.805;  -13.240;  872.600
975.865;  112.133;  -12.550;  881.820
976.419;  110.729;  -13.180;  857.400
976.973;  109.840;  -14.100;  849.620
977.526;  109.420;  -13.330;  949.920
978.080;  104.590;  -15.390;  796.780
978.634;  103.851;  -11.670;  921.320
979.187;  100.351;  -10.640;  905.400
979.741;  101.510;  -13.330; 1018.380
980.294;   99.171;  -14.480;  789.160
980.848;   98.740;  -13.420;  717.220
981.401;   97.150;  -12.360;  816.540
981.955;   94.402;  -12.480;  844.300
982.508;   89.698;  -14.000;  746.340
983.061;   88.309;  -10.440;  915.260
983.615;   86.022;  -14.340;  798.800
984.168;   83.676;  -14.950;  770.080
984.721;   83.630;  -13.270;  880.760
985.274;   82.273;  -12.240;  867.500
985.827;   80.342;  -12.720;  834.220
986.380;   76.170;  -14.920;  721.340
986.933;   76.457;  -12.860;  864.800
987.486;   75.453;  -10.440;  861.920
988.039;   74.347;  -11.820;  863.100
988.591;   73.113;  -13.760;  893.260
989.144;   70.539;  -14.080;  737.260
989.697;   70.189;  -13.440;  758.740
990.250;   70.611;  -12.050;  858.100
990.802;   69.501;  -14.550;  755.860
991.355;   70.413;  -10.770;  974.880
991.907;   68.707;  -11.710;  864.320
992.460;   67.002;  -12.650;  753.760
993.012;   66.011;  -13.860;  749.540
993.565;   63.938;  -14.310;  711.360
994.117;   64.041;   -9.920;  950.780
994.669;   59.558;  -13.420;  701.320
995.221;   58.855;  -14.200;  791.920
995.774;   58.656;  -13.400;  787.580
996.326;   57.748;  -11.850;  740.220
996.878;   57.363;  -12.230;  838.420
997.430;   55.029;  -14.260;  699.860
997.982;   54.998;  -11.430;  750.140
998.534;   55.066;  -11.590;  739.060
999.086;   54.350;  -11.960;  738.220
999.638;   53.091;  -13.640;  661.380
1000.190;   53.001;  -13.660;  699.320
1000.741;   52.346;   -9.980;  742.700
1001.293;   50.898;  -11.860;  686.020
1001.845;   49.572;  -14.280;  676.640
1002.396;   50.420;  -12.270;  743.400
1002.948;   49.914;  -13.670;  737.400
1003.500;   48.346;  -12.010;  723.780
1004.051;   50.005;  -11.890;  907.580
1004.603;   48.751;  -11.220;  791.820
1005.154;   44.546;  -13.210;  608.980
1005.705;   43.824;  -11.850;  723.960
1006.257;   43.783;  -13.670;  707.220
1006.808;   42.845;  -12.060;  685.460
1007.359;   42.963;  -10.250;  763.240
1007.910;   40.421;  -13.440;  646.640
1008.461;   40.900;  -13.170;  732.940
1009.013;   39.396;  -14.590;  588.340
1009.564;   40.955;  -12.100;  793.520
1010.115;   37.868;  -14.000;  597.040
1010.665;   38.515;  -15.020;  602.160
1011.216;   38.341;  -12.560;  667.920
1011.767;   38.241;  -11.330;  697.920
1012.318;   38.585;  -11.450;  736.980
1012.869;   37.678;  -11.000;  679.000
1013.419;   36.895;  -11.760;  603.120
1013.970;   37.509;  -11.800;  666.640
1014.521;   36.320;  -14.750;  620.620
1015.071;   36.272;  -14.430;  670.380
1015.622;   36.228;  -14.170;  635.460
1016.172;   35.185;  -11.700;  596.820
1016.723;   35.271;  -13.230;  614.380
1017.273;   34.966;  -16.120;  604.160
1017.823;   35.049;  -13.360;  650.340
1018.374;   34.670;  -13.710;  611.760
1018.924;   34.743;  -11.050;  716.880
1019.474;   34.645;  -14.120;  718.880
1020.024;   33.144;  -12.990;  657.580
1020.574;   34.353;  -12.010;  726.160
1021.124;   34.135;  -12.080;  673.580
1021.674;   32.478;  -15.860;  559.120
1022.224;   33.590;  -11.710;  708.940
1022.774;   33.435;  -13.030;  668.820
1023.324;   33.854;  -11.000;  753.520
1023.874;   34.391;  -13.270;  875.760
1024.423;   32.332;  -14.570;  613.700
1024.973;   31.339;  -12.620;  610.760
1025.523;   31.086;  -12.630;  620.960
1026.072;   30.588;  -14.110;  606.420
1026.622;   30.696;  -15.390;  675.740
1027.172;   31.581;   -9.090;  715.660
1027.721;   30.415;  -12.250;  601.220
1028.270;   30.575;  -15.590;  663.400
1028.820;   30.525;  -13.840;  638.080
1029.369;   30.108;  -13.170;  612.700
1029.918;   29.542;  -14.080;  649.840
1030.468;   28.839;  -13.860;  564.780
1031.017;   30.293;  -12.970;  634.800
1031.566;   28.394;  -12.320;  608.900
1032.115;   29.952;  -13.140;  694.500
1032.664;   27.978;  -14.560;  596.480
1033.213;   29.476;  -11.620;  735.420
1033.762;   28.190;  -13.190;  635.620
1034.311;   28.191;  -13.460;  677.220
1034.860;   28.908;  -15.770;  691.000
1035.408;   28.364;  -13.100;  722.720
1035.957;   28.247;  -12.880;  719.540
1036.506;   26.017;  -13.640;  530.800
1037.055;   29.325;  -12.420;  844.320
1037.603;   27.549;  -13.740;  664.000
1038.152;   25.496;  -13.840;  534.760
1038.700;   26.149;  -10.770;  585.740
1039.249;   26.115;  -13.520;  681.220
1039.797;   27.049;  -13.060;  633.360
1040.345;   26.007;  -11.760;  705.420
1040.894;   25.866;  -10.790;  625.300
1041.442;   25.779;  -15.420;  632.200
1041.990;   24.733;  -14.550;  559.160
1042.538;   24.466;  -15.620;  536.180
1043.087;   24.229;  -14.940;  570.860
1043.635;   25.740;  -12.100;  670.500
1044.183;   24.851;  -13.200;  586.400
1044.731;   24.695;  -11.630;  576.000
1045.279;   24.540;  -14.200;  674.920
1045.827;   27.044;  -12.510;  892.400
1046.374;   23.221;  -14.960;  515.420
1046.922;   22.290;  -11.850;  590.580
1047.470;   24.266;  -13.770;  691.300
1048.018;   23.798;  -15.380;  647.960
1048.565;   24.777;  -14.010;  708.600
1049.113;   22.433;  -14.620;  557.000
1049.660;   22.996;  -14.940;  629.660
1050.208;   23.743;  -14.540;  675.640
1050.755;   22.870;  -13.710;  606.580
1051.303;   23.268;  -11.880;  686.820
1051.850;   22.847;  -12.160;  635.120
1052.397;   21.068;  -15.110;  473.960
1052.945;   21.755;  -14.770;  617.760
1053.492;   22.848;  -12.320;  741.840
1054.039;   22.936;  -13.290;  720.180
1054.586;   20.744;  -15.210;  557.240
1055.133;   23.072;  -12.920;  693.140
1055.680;   22.203;  -12.610;  646.620
1056.227;   20.513;  -12.620;  542.780
1056.774;   22.282;  -13.010;  794.980
1057.321;   20.474;  -16.180;  523.260
1057.868;   20.977;  -11.230;  651.320
1058.415;   21.400;  -10.890;  651.980
1058.961;   20.638;  -12.530;  678.940
1059.508;   20.582;  -14.120;  643.820
1060.055;   19.551;  -13.340;  581.780
1060.601;   20.227;  -12.920;  624.300
1061.148;   20.143;  -14.430;  616.820
1061.694;   19.674;  -14.140;  592.580
1062.241;   19.570;  -12.550;  596.320
1062.787;   19.637;  -13.370;  663.140
1063.334;   22.266;  -12.260;  808.560
1063.880;   20.472;  -10.800;  668.360
1064.426;   20.150;   -9.920;  706.820
1064.972;   18.473;  -12.970;  601.340
1065.518;   17.963;  -14.440;  566.640
1066.065;   18.712;  -12.680;  624.460
1066.611;   17.387;  -13.520;  598.800
1067.157;   18.622;  -11.100;  641.860
1067.703;   18.259;  -14.100;  668.480
1068.249;   17.975;  -13.750;  605.220
1068.794;   18.630;  -11.070;  626.880
1069.340;   16.687;  -13.210;  578.960
1069.886;   17.660;  -14.850;  590.700
1070.432;   16.574;  -14.580;  541.720
1070.977;   16.464;  -12.930;  601.080
1071.523;   16.887;  -11.970;  573.060
1072.068;   16.911;  -13.730;  582.000
1072.614;   16.729;  -14.550;  527.760
1073.160;   17.435;  -13.690;  687.040
1073.705;   15.339;  -14.780;  572.520
1074.250;   15.899;  -15.430;  559.900
1074.796;   17.768;  -11.620;  655.160
1075.341;   17.054;  -11.580;  664.100
1075.886;   16.148;  -13.190;  594.240
1076.431;   16.553;  -13.630;  649.880
1076.976;   16.751;  -11.670;  639.220
1077.521;   15.751;  -11.600;  583.080
1078.067;   15.240;  -13.920;  579.400
1078.612;   15.940;  -12.910;  661.620
1079.156;   15.009;  -15.340;  601.540
1079.701;   15.903;  -12.560;  693.260
1080.246;   16.240;  -12.490;  696.300
1080.791;   15.226;  -14.550;  625.020
1081.336;   15.984;  -15.210;  659.320
1081.880;   15.373;  -11.280;  649.680
1082.425;   14.324;  -12.830;  573.480
1082.970;   16.619;  -11.680;  717.040
1083.514;   14.909;  -15.500;  597.000
1084.059;   14.023;  -11.770;  586.720
1084.603;   13.853;  -13.480;  565.840
1085.147;   14.202;  -13.940;  645.220
1085.692;   15.204;  -13.170;  716.800
1086.236;   12.902;  -15.740;  503.140
1086.780;   15.073;  -10.750;  751.440
1087.325;   13.855;  -14.900;  654.620
1087.869;   13.635;  -15.160;  610.700
1088.413;   14.677;  -11.030;  705.040
1088.957;   12.271;  -15.210;  543.400
1089.501;   15.525;  -12.310;  766.640
1090.045;   14.411;  -12.790;  726.480
1090.589;   11.735;  -14.040;  569.920
1091.133;   13.222;  -12.800;  673.340
1091.676;   12.757;  -13.600;  591.940
1092.220;   12.032;  -12.960;  600.920
1092.764;   13.701;  -10.830;  706.960
1093.307;   13.325;  -12.390;  673.780
1093.851;   10.827;  -15.850;  556.540
1094.395;   12.664;  -12.980;  683.140
1094.938;   11.769;  -13.670;  632.520
1095.482;   11.016;  -12.740;  559.800
1096.025;   13.073;  -13.340;  710.880
1096.568;   13.392;  -10.500;  779.280
1097.112;    9.749;  -13.500;  508.180
1097.655;   11.845;  -13.060;  603.000
1098.198;   10.775;  -13.240;  600.180
1098.741;   10.943;  -15.490;  612.860
1099.285;   11.659;  -13.410;  657.300
1099.828;    9.293;  -15.640;  439.400
1100.371;   11.040;  -13.980;  608.160
1100.914;   11.182;  -13.990;  682.660
1101.457;   11.502;  -15.030;  679.900
1101.999;    9.160;  -12.480;  584.680
1102.542;   11.458;  -12.410;  641.440
1103.085;   10.523;  -14.730;  658.500
1103.628;   10.658;  -12.190;  762.060
1104.170;   10.135;  -12.360;  588.280
1104.713;   10.415;  -13.350;  646.700
1105.256;    9.234;  -14.930;  557.440
1105.798;    8.229;  -15.150;  499.980
1106.341;   10.453;  -13.230;  728.900
1106.883;    8.902;  -14.680;  521.340
1107.425;    9.773;  -14.810;  668.180
1107.968;    9.005;  -12.940;  612.380
1108.510;    9.659;  -10.550;  684.960
1109.052;    8.855;  -15.640;  612.620
1109.594;    8.124;  -14.440;  554.440
1110.136;    9.363;  -11.380;  643.220
1110.679;    8.170;  -13.090;  633.080
1111.221;    8.832;  -14.230;  604.460
1111.763;    7.678;  -14.260;  559.220
1112.304;    7.711;  -14.510;  547.140
1112.846;    8.235;  -14.700;  666.240
1113.388;   11.831;  -12.270;  942.180
1113.930;    8.974;  -13.340;  694.200
1114.472;    7.684;  -12.560;  606.540
1115.013;    6.443;  -14.280;  551.280
1115.555;    7.176;  -14.010;  587.100
1116.097;    6.773;  -14.730;  579.480
1116.638;    8.002;  -12.160;  684.600
1117.180;    7.132;  -14.320;  667.740
1117.721;    6.592;  -15.730;  568.580
1118.262;    7.884;  -13.480;  677.960
1118.804;    7.816;  -11.530;  637.340
1119.345;    6.084;  -13.540;  578.400
1119.886;    8.450;  -14.470;  704.040
1120.427;    6.727;  -13.030;  589.020
1120.969;    6.068;  -13.150;  597.920
1121.510;    5.307;  -13.940;  563.060
1122.051;    6.864;  -12.310;  723.580
1122.592;    6.213;  -13.870;  655.420
1123.133;    4.578;  -12.890;  547.940
1123.673;    6.681;  -13.300;  706.480
1124.214;    5.955;  -14.000;  612.460
1124.755;    6.527;  -13.210;  639.460
1125.296;    6.187;  -13.450;  627.320
1125.836;    6.793;  -12.610;  691.500
1126.377;    5.307;  -15.840;  599.660
1126.918;    6.832;  -11.830;  614.980
1127.458;    5.208;  -11.830;  622.220
1127.999;    6.175;  -11.490;  656.980
1128.539;    6.443;  -12.900;  694.240
1129.079;    4.906;  -14.910;  632.720
1129.620;    4.033;  -12.920;  558.100
1130.160;    4.050;  -14.640;  539.480
1130.700;    5.396;  -13.270;  640.840
1131.240;    5.550;  -14.110;  643.700
1131.781;    4.654;  -13.130;  619.680
1132.321;    4.873;  -15.220;  599.120
1132.861;    4.060;  -15.670;  564.200
1133.401;    3.515;  -13.970;  593.940
1133.941;    4.977;  -13.740;  626.280
1134.481;    2.887;  -13.200;  597.580
1135.020;    3.727;  -14.830;  609.160
1135.560;    4.917;  -14.590;  674.940
1136.100;    3.018;  -13.730;  501.160
1136.640;    2.477;  -15.240;  510.480
1137.179;    3.552;  -14.710;  537.960
1137.719;    4.030;  -14.090;  605.400
1138.258;    3.354;  -12.470;  587.360
1138.798;    3.665;  -12.580;  663.780
1139.337;    2.817;  -16.480;  482.840
1139.877;    4.424;  -13.970;  642.360
1140.416;    6.143;   -9.870;  878.060
1140.955;    1.586;  -14.860;  535.380
1141.494;    3.694;  -14.530;  669.280
1142.034;    2.491;  -13.940;  583.520
1142.573;    4.028;  -11.160;  646.280
1143.112;    2.009;  -15.050;  553.480
1143.651;    2.946;  -15.390;  536.480
1144.190;    3.629;  -12.990;  691.640
1144.729;    2.440;  -12.220;  607.420
1145.267;    2.993;  -14.020;  584.900
1145.806;    3.254;  -12.740;  637.040
1146.345;    2.619;  -14.810;  635.020
1146.884;    2.678;  -12.920;  622.500
1147.422;    1.536;  -13.930;  533.060
1147.961;    3.215;  -11.830;  708.460
1148.500;    3.172;  -12.710;  669.720
1149.038;    3.159;  -14.420;  632.500
1149.577;    2.468;  -13.920;  698.640
1150.115;    0.065;  -17.050;  452.280
1150.653;    1.875;  -14.890;  607.340
1151.192;    1.845;  -15.270;  552.920
1151.730;    1.792;  -13.160;  652.560
1152.268;    1.440;  -15.430;  589.520
1152.806;    1.463;  -15.880;  571.180
1153.344;    0.528;  -13.240;  577.640
1153.882;    1.478;  -13.010;  600.060
1154.421;    0.198;  -16.180;  470.620
1154.958;    1.193;  -13.880;  595.240
1155.496;    2.407;  -13.590;  645.280
1156.034;    1.305;  -11.910;  721.880
1156.572;    2.363;  -12.010;  667.060
1157.110;   -0.589;  -16.250;  473.940
1157.647;    1.707;  -15.230;  676.960
1158.185;    0.319;  -13.770;  564.320
1158.723;    0.041;  -15.300;  509.200
1159.260;    1.088;  -13.130;  701.700
1159.798;    1.928;  -11.300;  658.160
1160.335;    0.406;  -13.210;  631.820

