
Integration time [ms]:   3.276
Averaging Nr. [scans]: 1000
Smoothing Nr. [pixels]: 0
Data measured with spectrometer [name]: 7414430SP
Wave   ;Sample   ;Dark     ;Reference
[nm]   ;[counts] ;[counts] ;[counts] 

288.544;  152.119;    7.793;  793.890
289.143;  155.093;    7.462;  681.602
289.742;  155.386;    8.602;  828.814
290.341;  141.537;    1.321;  789.841
290.940;  129.531;   -0.709;  730.702
291.538;  131.216;    0.881;  881.108
292.137;  131.489;    0.122;  792.581
292.736;  136.908;   -1.929;  975.101
293.335;  132.946;   -8.229;  735.086
293.934;  132.472;   -5.279;  781.677
294.532;  130.589;   -1.369; 1031.958
295.131;  117.533;   -7.641;  834.394
295.730;  117.800;   -8.420;  809.588
296.328;  115.821;   -5.611;  783.442
296.927;  117.481;   -5.781;  779.652
297.525;  118.275;   -6.361;  781.236
298.124;  108.725;  -11.382;  654.009
298.722;  111.793;   -7.641;  761.933
299.321;  110.453;   -6.811;  708.597
299.919;  108.411;   -6.991;  751.918
300.518;  105.286;  -10.362;  689.338
301.116;  106.563;   -9.581;  691.381
301.715;  106.593;   -4.891;  730.222
302.313;  105.986;   -8.801;  704.943
302.911;  101.097;   -8.522;  733.830
303.509;  105.513;   -6.171;  925.627
304.108;  103.592;   -7.311;  760.383
304.706;  102.828;   -8.321;  801.664
305.304;   97.573;  -10.222;  796.707
305.902;  102.798;   -6.021;  784.484
306.500;   98.757;   -4.971;  728.200
307.098;   97.202;   -7.061;  746.560
307.696;   95.284;   -8.801;  780.432
308.294;   95.369;   -6.411;  731.359
308.892;   97.035;   -2.901;  759.769
309.490;   94.332;   -5.041;  712.161
310.088;   91.906;   -5.002;  788.444
310.686;   96.814;   -2.041;  821.749
311.284;   91.654;   -2.351;  766.040
311.882;   89.775;   -4.422;  731.225
312.480;   87.000;   -4.192;  697.167
313.078;   88.087;   -1.172;  808.331
313.675;   89.454;   -2.601;  691.600
314.273;   84.228;   -1.312;  797.837
314.871;   84.004;   -3.942;  589.829
315.468;   81.375;   -2.802;  652.090
316.066;   84.583;   -0.701;  694.427
316.664;   77.026;   -4.362;  656.351
317.261;   81.135;   -2.872;  910.128
317.859;   76.402;   -2.022;  768.735
318.456;   76.699;   -0.531;  830.096
319.054;   73.700;   -3.912;  787.828
319.651;   71.959;   -4.752;  759.928
320.249;   71.166;   -2.602;  810.188
320.846;   68.567;   -0.821;  714.286
321.443;   65.976;   -4.642;  832.135
322.041;   63.086;   -5.002;  812.315
322.638;   60.388;   -3.982;  701.456
323.235;   62.413;   -3.411;  665.683
323.833;   60.408;   -7.361;  740.354
324.430;   54.366;   -8.611;  615.900
325.027;   55.406;   -4.061;  876.855
325.624;   55.027;   -4.031;  644.532
326.221;   52.841;   -7.481;  689.717
326.818;   52.907;   -5.281;  818.332
327.415;   55.595;   -7.460;  748.828
328.012;   54.861;   -5.510;  690.585
328.609;   53.655;   -7.880;  731.389
329.206;   52.647;   -8.331;  778.621
329.803;   51.517;   -5.121;  737.841
330.400;   54.398;   -4.510;  704.260
330.997;   55.531;   -6.441;  817.147
331.594;   55.132;   -8.831;  788.185
332.191;   59.241;   -7.621;  728.722
332.787;   62.614;   -4.591;  844.463
333.384;   61.771;   -7.412;  763.093
333.981;   60.294;   -8.293;  815.687
334.578;   63.040;   -7.052;  708.378
335.174;   65.943;   -3.102;  731.469
335.771;   65.377;   -5.943;  836.456
336.367;   61.759;   -7.393;  710.631
336.964;   65.621;   -4.063;  793.266
337.561;   63.716;   -3.813;  731.112
338.157;   59.667;   -4.654;  911.916
338.754;   57.001;   -7.934;  796.589
339.350;   54.953;   -4.414;  722.493
339.946;   56.910;   -4.664;  773.135
340.543;   49.243;   -6.375;  846.136
341.139;   44.271;   -9.815;  720.836
341.735;   41.297;   -4.526;  772.593
342.332;   40.190;   -4.895;  691.472
342.928;   41.139;   -4.295;  795.394
343.524;   35.164;   -5.476;  761.684
344.120;   31.656;   -5.856;  738.562
344.716;   33.741;   -2.155;  723.717
345.313;   32.987;   -6.275;  795.342
345.909;   26.862;   -8.815;  627.336
346.505;   28.558;   -5.305;  740.247
347.101;   29.204;   -2.674;  827.864
347.697;   29.695;   -4.344;  785.398
348.293;   24.164;   -9.975;  627.244
348.889;   24.933;   -5.774;  745.914
349.485;   24.161;   -5.004;  688.205
350.081;   25.007;   -4.704;  772.592
350.676;   19.934;   -6.635;  691.606
351.272;   24.252;   -4.504;  809.530
351.868;   23.883;   -3.914;  780.497
352.464;   21.616;   -9.044;  723.932
353.059;   18.341;   -8.314;  646.017
353.655;   20.494;   -7.024;  777.063
354.251;   22.627;   -5.343;  759.845
354.846;   17.247;   -8.604;  740.646
355.442;   15.536;   -6.945;  753.071
356.038;   16.759;   -7.564;  751.708
356.633;   16.470;   -5.814;  728.594
357.229;   15.307;   -7.364;  724.757
357.824;   12.931;   -8.024;  703.600
358.420;   11.744;   -9.384;  679.726
359.015;   12.286;   -5.104;  695.357
359.610;   13.576;   -6.854;  763.920
360.206;    7.935;  -10.185;  603.240
360.801;    9.990;   -7.054;  646.503
361.396;   12.532;   -5.034;  725.975
361.992;    8.100;   -8.284;  668.220
362.587;    6.043;   -8.625;  670.160
363.182;    6.821;   -7.674;  689.631
363.777;    7.808;   -5.164;  738.242
364.372;    8.449;   -8.604;  737.314
364.967;    4.796;   -9.055;  680.744
365.563;    7.960;   -6.114;  815.567
366.158;    4.818;   -5.814;  685.161
366.753;    5.965;   -7.854;  649.263
367.348;    4.268;   -7.804;  746.056
367.942;    4.314;   -7.954;  697.298
368.537;    3.115;   -4.984;  754.245
369.132;    3.582;   -8.564;  703.428
369.727;   -0.798;   -8.855;  638.079
370.322;    0.862;   -6.245;  580.186
370.917;    0.311;   -6.425;  710.646
371.511;    3.633;   -6.294;  861.834
372.106;    0.271;   -7.685;  776.964
372.701;   -3.305;   -7.335;  585.988
373.296;    1.948;   -4.564;  863.135
373.890;   -2.386;  -10.235;  647.840
374.485;   -4.339;   -7.885;  691.199
375.079;   -1.005;   -7.324;  738.685
375.674;    0.836;   -3.494;  812.970
376.268;   -3.396;   -8.525;  691.759
376.863;   -9.454;  -10.086;  580.327
377.457;   -3.783;   -7.025;  662.490
378.052;   -4.809;   -3.585;  764.884
378.646;   -5.928;   -7.595;  741.167
379.240;   -6.202;   -8.335;  721.176
379.835;   -5.083;   -5.785;  636.978
380.429;   -7.664;   -4.335;  562.557
381.023;   -6.653;   -6.805;  779.205
381.617;   -9.082;   -9.195;  680.106
382.212;   -6.650;   -6.905;  685.303
382.806;   -5.871;   -3.745;  760.690
383.400;   -9.714;   -7.745;  672.281
383.994;  -10.074;   -9.765;  664.870
384.588;   -6.327;   -6.564;  697.701
385.182;   -5.876;   -5.344;  726.624
385.776;   -6.178;   -8.514;  706.875
386.370;   -9.614;   -9.555;  681.968
386.964;   -9.492;   -8.715;  684.155
387.558;   -6.951;   -6.174;  598.360
388.152;  -10.444;   -8.725;  681.959
388.745;   -8.251;   -7.965;  814.707
389.339;   -6.047;   -5.924;  747.642
389.933;   -6.227;   -5.524;  695.370
390.527;   -7.014;   -7.114;  859.029
391.120;  -13.278;  -10.725;  595.318
391.714;  -11.099;   -8.035;  711.633
392.308;   -7.102;   -3.574;  780.253
392.901;  -11.078;   -7.245;  642.460
393.495;  -12.320;   -9.285;  595.414
394.089;  -10.643;   -5.895;  760.452
394.682;  -11.253;   -4.295;  697.188
395.275;  -11.476;   -9.875;  719.927
395.869;  -12.454;   -8.485;  667.314
396.462;  -11.325;   -7.455;  616.609
397.056;   -7.197;   -5.424;  776.621
397.649;  -11.927;   -6.605;  731.575
398.242;   -9.228;   -8.224;  712.645
398.836;   -8.867;   -7.474;  766.408
399.429;   -9.271;   -7.094;  631.041
400.022;  -13.510;   -9.475;  665.902
400.615;  -10.473;   -7.145;  805.609
401.208;   -8.992;   -7.174;  691.451
401.802;  -10.904;   -5.515;  699.329
402.395;  -12.006;   -9.875;  683.502
402.988;  -12.463;   -8.845;  696.627
403.581;  -10.177;   -8.874;  646.878
404.174;   -7.871;   -5.324;  686.568
404.767;  -10.487;   -9.575;  638.583
405.360;  -13.137;  -10.965;  621.445
405.953;   -8.336;   -8.764;  759.034
406.545;   -7.349;   -7.514;  725.342
407.138;  -11.321;  -10.025;  618.350
407.731;   -9.928;  -10.034;  613.303
408.324;   -5.763;   -9.374;  660.554
408.917;   -7.186;   -6.534;  681.864
409.509;   -9.308;   -8.004;  740.396
410.102;  -10.366;   -9.875;  643.948
410.695;   -4.820;   -8.604;  665.758
411.287;   -5.791;   -6.794;  599.821
411.880;   -7.145;   -9.334;  585.421
412.472;   -9.473;  -10.254;  613.092
413.065;   -7.405;   -6.714;  629.408
413.657;   -5.197;   -7.234;  576.678
414.250;   -5.173;  -10.544;  646.681
414.842;   -6.724;   -9.744;  676.353
415.434;   -4.826;   -6.994;  570.463
416.027;   -0.108;   -5.893;  652.196
416.619;   -2.299;   -7.264;  713.400
417.211;   -2.750;  -10.374;  599.352
417.804;    0.460;   -7.993;  628.499
418.396;   -3.184;   -7.234;  607.643
418.988;   -1.281;   -9.443;  659.238
419.580;   -3.580;  -10.724;  568.276
420.172;   -1.850;  -10.323;  536.196
420.764;    2.194;   -8.793;  672.482
421.356;    0.969;  -11.143;  636.898
421.948;    0.336;   -8.293;  677.661
422.540;    4.753;   -7.893;  680.027
423.132;    5.036;   -7.082;  600.641
423.724;    1.849;   -8.653;  561.267
424.316;    3.509;  -10.213;  621.345
424.908;    6.593;   -9.762;  591.517
425.500;    7.206;   -5.572;  647.978
426.092;    8.701;   -8.422;  648.268
426.683;    6.658;   -9.283;  684.836
427.275;    8.653;   -7.852;  641.471
427.867;   11.269;   -5.272;  668.948
428.458;   11.816;   -7.682;  732.344
429.050;   10.534;  -10.612;  680.749
429.642;   13.225;   -9.882;  743.124
430.233;   12.808;   -6.962;  569.356
430.825;   13.823;   -6.842;  724.809
431.416;   12.088;   -9.672;  698.241
432.008;   16.247;   -6.552;  651.723
432.599;   15.707;   -6.891;  656.073
433.190;   13.312;  -10.912;  637.670
433.782;   13.192;  -11.172;  590.395
434.373;   20.114;   -6.061;  884.765
434.964;   19.197;   -8.251;  602.920
435.556;   16.543;   -9.722;  634.537
436.147;   19.678;   -9.082;  758.490
436.738;   19.368;   -8.041;  701.099
437.329;   24.349;   -7.341;  721.723
437.920;   17.774;   -8.162;  666.688
438.511;   18.174;  -11.802;  564.526
439.103;   24.029;  -10.191;  623.998
439.694;   26.096;   -7.601;  681.583
440.285;   26.961;   -8.541;  764.432
440.876;   24.726;   -9.751;  845.738
441.466;   24.476;   -9.401;  575.162
442.057;   29.758;   -7.760;  665.814
442.648;   28.619;   -9.971;  746.255
443.239;   26.416;  -11.001;  620.477
443.830;   32.058;   -7.990;  704.958
444.421;   34.431;   -7.910;  655.474
445.011;   30.838;   -8.131;  693.619
445.602;   29.692;   -7.111;  743.126
446.193;   31.877;  -10.920;  488.117
446.783;   36.798;   -6.500;  640.397
447.374;   31.874;   -8.671;  692.759
447.964;   32.904;  -10.781;  713.770
448.555;   41.111;   -9.650;  822.742
449.145;   37.252;   -8.660;  662.853
449.736;   39.173;   -8.990;  803.179
450.326;   38.723;   -9.500;  713.626
450.917;   43.097;   -8.680;  675.324
451.507;   42.268;   -7.520;  600.661
452.097;   42.917;   -8.590;  746.267
452.688;   43.793;  -11.340;  742.160
453.278;   43.683;  -10.100;  566.840
453.868;   47.981;   -6.019;  793.550
454.458;   46.463;   -9.440;  651.141
455.048;   46.198;  -10.560;  711.783
455.639;   48.281;  -11.799;  567.096
456.229;   51.393;   -6.899;  710.694
456.819;   54.334;   -7.389;  751.158
457.409;   54.061;  -11.119;  773.993
457.999;   56.673;   -9.289;  737.505
458.589;   56.108;   -6.139;  686.606
459.179;   56.728;   -8.729;  717.658
459.769;   55.115;   -9.789;  627.099
460.358;   60.184;  -10.259;  797.262
460.948;   59.340;   -7.299;  689.503
461.538;   61.341;  -10.289;  660.677
462.128;   59.739;  -11.269;  664.934
462.717;   65.681;   -9.368;  710.326
463.307;   69.603;   -7.908;  705.846
463.897;   65.115;   -9.599;  656.942
464.486;   64.524;   -9.769;  837.128
465.076;   68.445;   -8.048;  733.776
465.666;   72.177;   -9.358;  652.900
466.255;   70.412;   -7.919;  785.651
466.845;   69.043;  -11.689;  666.749
467.434;   72.949;   -7.818;  725.873
468.023;   74.097;   -7.678;  658.357
468.613;   71.884;  -10.939;  713.946
469.202;   75.495;  -10.118;  646.507
469.791;   78.804;   -9.108;  737.811
470.381;   82.185;   -6.058;  742.813
470.970;   81.959;  -10.428;  711.099
471.559;   81.655;  -10.268;  733.291
472.148;   85.064;   -8.448;  675.737
472.738;   87.487;   -6.917;  765.466
473.327;   87.236;  -11.978;  637.529
473.916;   86.466;  -11.888;  737.446
474.505;   91.246;   -9.437;  751.703
475.094;   93.832;   -6.747;  806.570
475.683;   93.461;   -9.367;  797.699
476.272;   94.605;  -12.637;  730.632
476.861;   97.562;  -10.027;  706.754
477.449;  104.304;   -8.716;  728.487
478.038;   98.434;   -9.577;  692.513
478.627;   99.780;   -9.718;  714.852
479.216;  106.529;   -8.947;  769.441
479.805;  109.104;   -6.256;  783.375
480.393;  109.141;   -7.937; 1008.945
480.982;  108.802;   -7.717;  874.501
481.571;  114.900;   -9.266;  858.333
482.159;  115.097;   -7.636;  705.386
482.748;  115.559;   -9.667;  821.385
483.336;  120.344;  -10.376;  858.209
483.925;  121.390;   -7.147;  774.373
484.513;  128.103;   -7.996;  758.962
485.102;  125.576;  -10.027;  810.965
485.690;  133.607;  -10.446; 1011.050
486.278;  135.396;   -8.446;  979.329
486.867;  136.909;   -6.356;  809.662
487.455;  138.835;   -9.136;  898.229
488.043;  139.788;  -10.646;  748.361
488.631;  149.857;   -7.456; 1005.079
489.220;  152.908;   -6.636;  908.626
489.808;  153.846;  -11.036;  741.415
490.396;  162.848;  -10.246;  914.645
490.984;  168.462;   -8.556;  830.161
491.572;  179.122;   -5.886;  940.315
492.160;  186.102;   -9.486;  919.081
492.748;  198.377;  -10.976;  884.341
493.336;  222.483;   -8.776; 1019.693
493.924;  251.692;   -5.465;  958.077
494.512;  284.137;   -9.986; 1066.638
495.100;  328.751;  -10.636; 1103.280
495.687;  386.530;  -10.885; 1206.373
496.275;  452.815;   -8.126; 1150.796
496.863;  526.005;  -10.586; 1281.171
497.451;  637.394;  -11.926; 1386.805
498.038;  798.261;  -10.885; 1556.729
498.626;  926.410;   -6.315; 1741.407
499.214; 1074.346;   -7.326; 2016.609
499.801; 1300.886;  -11.906; 2220.633
500.389; 1588.370;  -10.466; 2312.494
500.976; 1980.915;   -5.236; 2744.849
501.564; 2424.344;   -8.936; 3148.565
502.151; 2832.040;  -13.176; 3515.999
502.738; 3376.177;  -10.646; 3971.274
503.326; 3796.939;   -9.525; 4403.796
503.913; 4294.195;  -10.856; 5161.749
504.500; 4681.445;  -11.586; 5986.420
505.088; 5133.804;  -10.336; 6381.201
505.675; 5720.054;   -6.355; 6925.547
506.262; 6370.456;   -9.046; 7619.060
506.849; 7200.702;  -10.416; 8733.969
507.436; 7741.989;  -10.305; 9790.121
508.023; 8171.197;   -5.496; 9985.472
508.610; 8507.419;   -7.856;10434.618
509.197; 9354.180;  -10.097;11198.435
509.784;11008.724;  -10.886;12391.194
510.371;12226.049;   -9.315;13603.713
510.958;12949.684;   -9.936;14426.586
511.545;13624.754;   -9.326;15243.775
512.132;14281.567;  -10.075;15945.876
512.719;14968.700;   -7.796;16340.369
513.305;16406.072;  -10.606;18011.766
513.892;17406.230;  -11.486;19754.971
514.479;18999.965;   -9.126;20967.805
515.066;20290.533;   -6.026;22299.793
515.652;21193.041;   -8.466;22908.660
516.239;22539.473;  -10.886;23798.875
516.825;23085.934;  -11.496;25567.275
517.412;24230.363;   -5.796;28154.959
517.998;25384.246;  -10.506;28344.111
518.585;25346.973;  -10.076;27134.219
519.171;25362.018;   -8.315;27268.576
519.758;27028.012;   -8.596;28964.129
520.344;28590.518;   -8.466;30664.494
520.930;28616.160;  -11.006;32550.605
521.516;30780.926;  -10.495;35422.895
522.103;33707.871;   -5.526;38280.004
522.689;34527.508;   -8.746;37835.117
523.275;33421.441;  -11.376;37288.613
523.861;33693.055;  -11.156;37281.395
524.447;35524.910;   -8.135;37846.949
525.033;35351.508;   -7.896;38321.949
525.619;35727.016;  -12.476;38579.285
526.205;37365.570;   -9.516;40622.875
526.791;40083.555;   -6.926;42258.836
527.377;40006.363;   -8.346;42966.902
527.963;42192.336;   -8.717;42018.949
528.549;41517.082;  -11.016;42476.828
529.135;39265.656;   -8.536;41854.852
529.721;38726.699;   -9.666;41237.711
530.306;38045.820;  -10.066;41259.445
530.892;38040.660;  -11.356;41506.047
531.478;39000.703;   -6.596;43559.613
532.063;41359.672;   -8.836;47695.563
532.649;41739.805;  -10.047;50808.324
533.235;43565.699;   -9.746;51787.500
533.820;45136.598;   -6.566;52145.035
534.406;45180.000;  -10.817;51133.488
534.991;44513.309;   -9.416;49996.805
535.576;43436.418;   -9.036;48882.852
536.162;43964.293;   -6.156;46942.285
536.747;44940.688;  -11.607;45711.746
537.333;48329.012;  -11.787;48510.180
537.918;50861.195;  -12.437;50439.891
538.503;49894.703;   -7.196;50863.711
539.088;47345.699;  -10.556;50906.922
539.673;48345.707;   -8.767;52621.965
540.259;48189.199;  -10.026;52368.094
540.844;44539.668;   -7.416;50879.109
541.429;44674.676;   -9.467;52077.777
542.014;48427.855;   -9.527;52716.695
542.599;49172.324;   -9.946;52363.281
543.184;45730.113;   -7.927;53187.137
543.769;46609.547;   -9.297;54697.605
544.354;46831.555;  -10.127;53913.914
544.938;46148.184;   -9.267;49680.164
545.523;48509.168;   -6.506;47386.277
546.108;50104.719;   -9.787;49151.949
546.693;52152.277;  -11.587;51384.637
547.278;52305.777;  -10.986;51853.254
547.862;48839.391;   -8.206;51173.750
548.447;44061.121;  -10.067;51691.395
549.031;43068.285;   -9.637;52456.703
549.616;47937.488;   -9.926;52714.516
550.201;47848.059;   -6.347;52414.598
550.785;47621.602;   -7.917;52355.059
551.370;47721.770;  -10.867;54589.453
551.954;48607.066;   -9.047;58267.348
552.538;50263.496;   -7.827;59062.176
553.123;48973.504;  -10.287;58115.285
553.707;46736.273;  -12.178;56556.285
554.291;46617.133;   -8.717;56201.668
554.876;46597.973;   -7.457;55335.762
555.460;47493.703;  -10.387;54155.703
556.044;50412.645;   -9.618;53721.484
556.628;48437.172;  -11.567;53731.016
557.212;47765.813;   -8.097;54312.531
557.796;46239.016;  -11.077;53797.773
558.380;46294.492;  -11.108;56145.984
558.964;46187.094;   -9.057;57277.930
559.548;46643.324;   -6.977;56459.641
560.132;45181.398;  -11.457;54434.543
560.716;44217.449;  -11.378;54800.617
561.300;44219.125;   -9.577;57606.945
561.884;45824.504;   -7.127;58972.445
562.467;45909.961;   -7.118;57327.570
563.051;44957.453;  -13.358;54962.434
563.635;45220.883;  -10.178;52594.473
564.219;46557.426;   -7.837;50610.410
564.802;47428.516;  -11.398;49551.180
565.386;47520.008;  -12.788;48370.953
565.969;46894.012;   -9.077;48178.871
566.553;46477.781;   -6.207;49957.305
567.136;46611.152;   -8.568;50369.594
567.720;42447.148;  -11.868;49492.004
568.303;40609.012;   -8.268;50616.352
568.887;40757.289;   -8.698;50727.148
569.470;41215.539;   -6.808;51698.379
570.053;39829.031;  -13.188;52122.078
570.637;38478.672;  -12.037;52536.438
571.220;38047.586;   -8.577;51186.098
571.803;38143.844;   -8.498;51032.762
572.386;40385.688;  -10.498;49609.887
572.969;43423.273;   -9.388;48285.926
573.552;42061.387;   -8.338;47624.285
574.135;41210.723;   -8.518;45498.641
574.718;37725.465;  -13.628;41970.434
575.301;36416.992;  -10.893;41447.137
575.884;35108.520;   -8.158;40923.836
576.467;35580.547;  -10.328;45267.723
577.050;38735.449;  -13.058;48175.543
577.633;40711.305;   -9.458;47729.328
578.216;39377.320;   -8.928;47579.793
578.799;38188.488;   -9.358;47820.996
579.381;36447.340;  -11.388;48115.551
579.964;34744.895;  -11.718;47333.766
580.547;35757.090;   -8.588;46668.969
581.129;36008.441;   -8.859;44466.141
581.712;36051.348;  -10.729;44164.922
582.294;36824.852;  -11.118;46477.855
582.877;37982.723;   -5.218;48244.254
583.459;36655.582;   -8.679;47437.895
584.042;34916.785;  -10.709;46943.219
584.624;34975.895;  -11.669;46792.227
585.206;33684.961;   -8.218;46557.250
585.789;34581.504;  -10.569;45793.773
586.371;37948.141;  -11.859;43836.391
586.953;38109.703;  -10.719;42972.492
587.536;38463.563;   -7.198;42487.211
588.118;38366.164;   -8.720;42086.414
588.700;35683.211;  -10.439;43389.930
589.282;34797.215;   -9.198;43646.039
589.864;34889.441;   -9.199;43438.109
590.446;36266.527;  -11.319;43151.926
591.028;35901.648;  -11.159;42781.867
591.610;35112.813;  -11.779;42839.098
592.192;32372.613;   -7.668;42820.402
592.774;30886.627;  -11.949;40724.277
593.356;29954.826;  -12.129;39874.789
593.937;29760.463;  -10.669;39980.648
594.519;32019.973;   -6.509;42069.633
595.101;33874.531;  -10.849;42976.031
595.683;33962.570;  -11.679;44084.441
596.264;35280.637;   -9.049;43478.797
596.846;33849.652;   -8.849;43803.672
597.427;32470.885;   -9.570;42986.934
598.009;34063.434;  -12.620;42832.219
598.591;34493.168;  -10.039;42580.086
599.172;34161.316;  -10.369;43061.805
599.753;34307.438;   -9.140;41691.469
600.335;35603.813;  -11.430;40692.520
600.916;33986.363;   -9.939;39982.422
601.498;32255.998;   -8.479;40318.617
602.079;31233.736;  -10.920;40670.609
602.660;31161.646;  -11.480;41450.898
603.241;31371.820;  -11.699;41137.738
603.823;29743.846;   -9.579;38868.797
604.404;30455.316;  -10.620;38182.785
604.985;31712.965;  -10.450;38078.047
605.566;30694.875;   -9.129;38056.633
606.147;30278.527;   -7.510;37020.418
606.728;33180.746;  -10.660;37883.359
607.309;32606.488;  -11.740;38748.273
607.890;31499.225;   -9.759;38850.230
608.471;31054.064;   -8.250;37457.918
609.051;30572.313;   -9.240;36066.457
609.632;29457.660;  -12.120;35991.074
610.213;30250.408;   -9.110;37402.641
610.794;30665.180;   -8.030;38383.363
611.374;29649.518;   -8.110;40562.387
611.955;29292.527;  -13.560;38533.727
612.536;30779.227;  -11.400;36951.789
613.116;31319.992;   -8.070;37197.891
613.697;32215.105;  -10.830;38411.125
614.277;30819.684;  -11.641;38673.938
614.858;31388.664;  -13.310;37075.863
615.438;31381.553;   -7.460;35092.906
616.019;28598.820;   -7.601;33666.301
616.599;28936.705;  -12.020;34189.023
617.179;30773.924;  -11.780;36952.047
617.760;30918.639;   -8.570;39582.574
618.340;32111.357;  -11.471;38943.977
618.920;33822.543;  -11.170;37594.156
619.500;33409.559;  -11.071;37866.938
620.080;33144.742;   -7.750;37869.043
620.660;34086.172;  -12.711;36868.617
621.241;34896.320;  -10.211;36352.309
621.821;34240.023;  -10.961;35459.520
622.401;33684.699;   -7.720;35207.414
622.980;32661.592;   -8.981;35980.422
623.560;31206.170;   -9.331;37351.328
624.140;31081.986;   -9.850;34388.582
624.720;26739.797;   -7.451;32368.764
625.300;22524.844;   -9.070;32638.629
625.880;25355.428;  -12.601;34599.035
626.459;28945.316;  -11.751;36831.738
627.039;31869.266;   -9.281;38299.098
627.619;32141.344;   -8.801;38289.574
628.198;30553.650;  -12.071;37220.695
628.778;30437.770;   -9.461;37632.563
629.357;31302.309;   -8.491;38003.012
629.937;30881.682;   -9.721;38402.039
630.516;29844.303;   -9.951;37868.801
631.096;29763.463;  -11.731;35760.410
631.675;33287.156;   -8.572;35225.219
632.254;38630.391;  -11.282;35130.289
632.834;37942.051;  -13.322;35794.570
633.413;36238.848;  -10.301;35788.922
633.992;32922.344;   -8.582;34532.863
634.571;33905.379;   -8.352;33590.113
635.151;36039.277;  -11.912;34943.863
635.730;34170.469;  -10.511;35352.523
636.309;31289.766;   -7.731;35366.605
636.888;28965.119;   -9.952;36165.637
637.467;29178.617;  -11.672;37515.902
638.046;31327.342;   -8.901;39288.695
638.625;34336.441;   -7.912;38279.699
639.204;33993.504;  -10.022;37741.598
639.782;32395.432;  -12.252;38364.551
640.361;28877.223;  -10.041;36740.621
640.940;25967.037;  -11.161;34950.082
641.519;25594.643;   -9.701;34137.398
642.097;28072.506;  -11.271;35654.258
642.676;31716.525;   -8.651;35637.957
643.255;33360.414;   -8.711;36567.074
643.833;32101.539;   -9.581;37809.434
644.412;32561.086;  -13.711;37337.293
644.990;32181.129;  -11.811;37018.531
645.569;32112.393;   -9.411;36518.469
646.147;30534.059;  -10.291;36186.430
646.726;29432.986;  -12.401;36267.688
647.304;30572.500;  -10.411;36647.625
647.882;31919.768;   -9.651;39286.742
648.461;33667.656;   -9.631;39157.703
649.039;33386.086;  -11.881;35412.883
649.617;33200.738;   -9.661;34744.918
650.195;33095.191;   -9.301;35403.098
650.773;32319.762;  -10.511;35053.797
651.352;30083.014;  -11.521;33756.816
651.930;27111.424;  -12.211;31868.773
652.508;24284.936;   -9.171;33121.551
653.086;27850.674;   -9.371;33564.793
653.663;31392.391;  -13.161;34054.668
654.241;30430.271;  -13.031;35693.309
654.819;31907.854;   -9.371;36422.906
655.397;31117.691;  -10.511;38213.484
655.975;30932.320;  -10.371;39507.625
656.553;31034.973;  -10.051;39498.223
657.130;29782.275;  -10.061;40395.480
657.708;29869.221;   -9.561;39242.020
658.286;29715.922;  -11.511;38920.020
658.863;29970.254;  -10.261;40202.898
659.441;31861.199;   -7.531;39677.938
660.018;31166.869;   -9.501;40413.355
660.596;30693.693;  -13.301;39931.414
661.173;32824.129;  -11.211;39604.531
661.750;33059.227;   -9.951;39700.070
662.328;32211.064;   -9.390;39292.809
662.905;31247.779;  -11.330;38235.648
663.482;26593.574;   -9.050;36212.305
664.060;24393.656;   -8.240;35944.945
664.637;27207.527;  -10.050;35170.785
665.214;28813.158;  -11.760;34197.523
665.791;30438.674;  -10.530;34549.520
666.368;29961.758;   -9.690;35118.578
666.945;30874.230;   -9.320;36019.418
667.522;31833.303;  -11.860;36048.438
668.099;32058.018;  -10.770;36243.914
668.676;31733.887;   -6.260;35958.875
669.253;29996.646;   -7.000;37384.730
669.830;29745.029;  -10.190;36779.629
670.407;29401.801;   -9.550;35231.289
670.984;30498.865;   -9.260;35544.270
671.560;30272.791;   -9.280;35466.867
672.137;28496.326;  -11.810;34280.863
672.714;29502.762;  -11.490;34632.863
673.290;29815.645;   -7.740;35135.422
673.867;30046.119;  -10.660;36114.480
674.443;30185.875;  -12.230;36152.859
675.020;28219.711;  -10.450;35327.238
675.596;29476.326;   -9.260;35795.176
676.173;30298.787;  -10.780;35430.355
676.749;29692.734;  -13.690;33549.516
677.326;29631.070;  -11.980;32210.012
677.902;29834.465;   -8.630;32068.871
678.478;29097.682;  -10.730;32583.891
679.054;29258.455;  -10.520;32088.928
679.631;30494.516;  -11.920;30978.848
680.207;31215.516;   -7.490;33160.887
680.783;32534.375;   -9.860;35570.363
681.359;31370.959;  -13.380;36125.184
681.935;29657.814;  -12.480;35240.922
682.511;28106.277;   -7.900;34429.961
683.087;28099.873;   -7.710;34463.680
683.663;28845.283;  -11.480;34648.898
684.239;28864.457;  -14.090;34546.457
684.815;28809.307;   -7.560;35586.375
685.390;28716.477;   -9.910;35821.895
685.966;28715.070;  -11.159;35085.871
686.542;31289.211;  -11.169;34198.230
687.118;33308.844;   -5.959;32847.707
687.693;33118.758;  -10.329;32794.027
688.269;32417.373;  -12.059;33072.367
688.844;29987.402;  -10.909;33141.664
689.420;28278.176;   -8.019;33965.742
689.995;26647.129;   -8.399;34655.523
690.571;25817.154;  -10.949;33576.742
691.146;26442.920;   -9.619;32657.219
691.722;25483.967;   -8.999;32526.979
692.297;25127.604;  -11.589;33014.617
692.872;27134.408;  -11.739;34012.254
693.448;27210.012;  -11.059;34237.434
694.023;25951.945;  -10.139;34142.672
694.598;27681.920;   -9.029;34132.031
695.173;27689.977;  -13.319;34205.250
695.748;27120.344;  -10.169;32882.488
696.323;26632.281;   -8.339;32864.906
696.898;26440.047;   -8.169;33170.004
697.473;26439.857;  -12.309;32432.984
698.048;26530.559;  -10.989;31649.303
698.623;27309.908;   -9.329;30778.141
699.198;29083.012;   -9.849;31140.119
699.773;29859.213;  -12.329;31764.299
700.348;28881.336;  -10.389;31780.816
700.922;29074.508;   -9.269;32046.375
701.497;29108.266;   -9.329;32603.574
702.072;28962.354;  -10.789;34799.871
702.646;28624.490;  -10.839;35793.172
703.221;27600.623;   -9.099;35201.590
703.795;29666.637;  -10.939;34764.527
704.370;29493.258;  -12.859;34307.367
704.944;29328.715;  -11.559;33509.887
705.519;30556.346;   -7.939;31388.584
706.093;31920.289;  -10.499;31340.104
706.668;31481.988;  -11.289;32630.281
707.242;29691.994;  -11.509;32728.779
707.816;28409.400;   -9.639;32947.238
708.390;26881.129;  -11.429;33277.855
708.965;27850.635;  -11.869;33834.336
709.539;28941.863;  -11.689;33709.273
710.113;29294.594;  -10.478;33044.313
710.687;28224.498;  -10.228;31953.992
711.261;25746.992;  -13.698;30505.949
711.835;25722.850;  -13.378;30262.369
712.409;27052.285;   -9.698;31254.447
712.983;28247.891;  -11.898;32754.986
713.557;29263.238;  -15.138;34018.824
714.131;29147.307;  -14.098;34579.625
714.704;28208.533;   -9.958;33890.262
715.278;25896.486;  -10.028;33531.102
715.852;25876.447;  -11.148;33601.660
716.425;27076.871;   -9.068;33515.117
716.999;27550.217;  -10.038;33185.555
717.573;28310.215;   -9.798;33905.996
718.146;29313.248;  -12.378;35199.293
718.720;29030.445;  -11.918;35060.551
719.293;28718.422;   -8.088;34973.230
719.867;31199.383;  -10.888;36394.449
720.440;31314.740;  -11.938;36663.008
721.013;30135.285;  -12.818;35102.426
721.587;28716.148;  -10.298;33985.266
722.160;26531.928;  -10.048;33524.965
722.733;25494.676;  -12.108;32987.043
723.306;26442.402;  -10.818;33066.301
723.880;28049.332;   -8.908;33399.500
724.453;29316.643;   -9.878;33468.297
725.026;28198.139;  -11.188;33816.637
725.599;25630.146;  -11.678;32797.996
726.172;26349.010;   -9.618;33187.434
726.745;28095.709;   -8.258;35136.613
727.318;30084.664;  -12.978;35751.730
727.891;30754.955;  -12.148;35890.430
728.463;30431.033;   -8.968;34822.090
729.036;28947.188;  -10.188;32895.086
729.609;28921.465;  -11.788;31823.225
730.182;25380.480;  -11.788;31445.283
730.754;22894.572;  -10.268;32373.223
731.327;23132.678;   -9.998;33676.820
731.900;23335.928;  -12.228;33417.000
732.472;24983.033;  -13.848;31978.498
733.045;27559.578;   -8.698;30368.777
733.617;27717.848;  -10.607;30574.215
734.190;26931.154;  -11.507;31280.975
734.762;23743.379;  -13.647;31674.412
735.334;22334.281;   -9.767;31247.291
735.907;23026.102;   -9.897;29876.211
736.479;22797.102;  -11.637;29808.488
737.051;22180.439;   -9.567;30233.547
737.623;23265.180;   -8.187;31469.086
738.195;24217.260;  -11.187;31784.225
738.768;25982.379;  -12.337;32120.523
739.340;25547.762;  -12.227;32094.342
739.912;23907.301;  -11.057;31312.680
740.484;23403.633;  -10.207;31946.238
741.056;22607.811;  -10.047;32984.059
741.628;24031.008;  -13.627;33897.715
742.199;26621.939;   -7.177;33213.016
742.771;25333.080;  -10.797;31369.113
743.343;22708.268;  -11.997;31865.473
743.915;21503.340;  -12.867;32388.631
744.487;21690.480;   -7.617;31079.568
745.058;21939.797;   -9.557;30570.107
745.630;22898.281;   -9.877;29970.127
746.201;24173.316;  -14.177;29186.766
746.773;24205.922;   -9.237;28805.723
747.344;23717.658;   -9.847;29591.223
747.916;22069.648;  -11.657;31412.201
748.487;21580.938;  -10.587;32194.898
749.059;22965.922;   -8.707;32533.719
749.630;24420.955;  -10.537;32158.518
750.201;24053.975;  -11.687;30855.395
750.773;22862.934;  -11.647;28622.555
751.344;23080.063;   -7.147;28405.732
751.915;23916.920;   -9.757;28461.551
752.486;22575.662;  -12.427;27842.850
753.057;20223.119;  -12.227;27845.008
753.628;19216.148;  -10.417;27728.107
754.199;19932.033;  -11.767;27381.086
754.770;20841.090;  -11.187;25882.203
755.341;21091.035;  -10.507;25886.184
755.912;21107.879;   -9.387;26050.861
756.483;20482.764;  -10.647;26798.779
757.054;18770.414;  -11.837;27048.238
757.625;17595.744;  -12.716;26294.838
758.195;17459.439;   -9.666;26142.076
758.766;17279.125;   -8.656;26392.234
759.337;18143.832;  -12.856;26334.594
759.907;19968.912;  -13.366;27579.652
760.478;21086.834;   -8.576;28352.770
761.048;20869.166;  -10.526;27325.088
761.619;20168.652;  -11.116;26460.428
762.189;19728.063;  -12.136;26029.826
762.760;20272.307;   -9.456;26430.145
763.330;21240.393;   -7.136;26670.902
763.900;20452.715;  -11.786;26603.021
764.471;17372.127;  -11.546;25542.740
765.041;16139.157;   -8.096;24358.459
765.611;16798.760;   -8.876;23991.297
766.181;17559.918;  -12.196;24470.236
766.751;18294.178;  -11.636;24845.975
767.321;17898.504;  -10.156;24533.633
767.891;15734.227;  -11.766;24916.492
768.461;15080.919;  -14.936;24776.771
769.031;15590.562;  -12.356;24757.988
769.601;17395.170;   -7.526;24181.088
770.171;17542.193;  -10.766;23670.387
770.741;16880.727;  -13.176;22960.045
771.311;16882.584;  -10.616;22917.523
771.880;16836.492;   -9.576;23562.941
772.450;16403.055;  -10.336;24216.500
773.020;16628.973;  -13.516;24140.398
773.589;16567.518;  -13.466;24414.857
774.159;16459.127;   -8.686;23858.717
774.729;15996.922;   -9.476;22942.135
775.298;15089.681;  -13.666;22324.033
775.867;14512.088;  -11.716;21140.313
776.437;14551.094;   -9.906;20838.092
777.006;14242.800;  -12.166;20599.510
777.576;14269.842;  -12.356;20508.809
778.145;14669.116;  -11.646;20732.947
778.714;14566.471;   -8.226;21062.465
779.283;13502.921;   -9.556;20949.664
779.853;13169.298;  -14.116;20508.623
780.422;13658.558;  -11.506;20649.082
780.991;13241.399;   -9.556;21527.520
781.560;12381.884;   -9.095;22632.658
782.129;12196.007;  -12.135;23048.277
782.698;11996.362;  -10.865;23438.555
783.267;11646.474;   -9.335;23267.734
783.836;11741.937;  -11.045;22415.133
784.404;12608.704;  -13.865;20443.152
784.973;12708.126;  -13.095;19699.150
785.542;12497.553;  -11.575;19763.828
786.111;12506.595;   -9.705;20341.408
786.679;12318.545;  -12.105;20207.967
787.248;12232.112;  -12.455;19516.465
787.817;11815.567;  -11.535;18900.363
788.385;11169.874;   -9.765;17879.121
788.954;10447.175;  -14.005;17658.301
789.522;10151.155;  -11.955;17788.879
790.090;10791.688;  -10.135;18118.277
790.659;11215.848;  -10.975;18338.736
791.227;10618.757;  -13.375;18508.615
791.795;10983.911;  -12.375;17898.254
792.364;11278.539;  -10.725;17295.133
792.932;11461.841;   -9.715;16822.051
793.500;11617.027;  -12.675;17040.148
794.068;11825.517;  -13.495;17179.787
794.636;11958.559;  -10.885;16664.246
795.204;11603.004;  -11.045;16524.545
795.772;11544.374;  -13.175;17274.564
796.340;11049.827;  -12.445;17891.002
796.908;10901.829;   -9.735;17648.561
797.476;10782.785;   -9.815;17064.080
798.044;10266.483;  -13.985;16672.777
798.612; 9542.439;  -13.115;17023.996
799.180; 9291.875;  -10.185;16561.615
799.747; 9219.323;   -9.055;15962.773
800.315; 8896.938;  -12.385;15296.992
800.883; 8526.773;  -15.035;14801.771
801.450; 8426.521;  -10.365;14534.430
802.018; 8467.217;   -9.855;14173.248
802.585; 8537.396;  -11.905;14029.547
803.153; 8663.798;  -11.585;13836.846
803.720; 8658.641;   -9.095;13567.324
804.287; 8310.762;   -9.135;13360.622
804.855; 7885.063;  -11.604;13681.981
805.422; 7704.420;  -11.794;13536.560
805.989; 7522.822;  -10.734;13355.958
806.556; 7684.114;  -10.444;13747.896
807.124; 8156.552;  -12.764;13987.376
807.691; 8236.921;  -12.964;14038.674
808.258; 8013.257;  -11.134;14120.152
808.825; 7636.748;   -9.854;13860.111
809.392; 7670.044;  -10.504;13268.790
809.959; 7288.062;  -13.054;12680.389
810.526; 6924.982;   -8.294;12427.308
811.093; 6910.418;   -8.394;12030.105
811.659; 7399.983;  -12.304;11653.664
812.226; 7799.450;  -13.944;11637.183
812.793; 7507.761;  -10.484;11611.521
813.360; 6936.899;  -10.144;11885.181
813.926; 6494.452;  -11.684;12770.539
814.493; 6211.273;  -13.644;12677.638
815.060; 5855.195;   -9.724;11974.336
815.626; 5898.613;   -9.854;11594.715
816.193; 6378.043;  -13.254;11579.474
816.759; 6477.897;  -13.204;11666.972
817.325; 6664.125;   -9.434;11325.530
817.892; 7045.669;  -10.134;11105.369
818.458; 7449.659;  -13.474;10843.928
819.024; 7101.255;  -11.854;10714.406
819.591; 6780.841;  -10.244;10469.165
820.157; 6553.770;  -10.704;10235.523
820.723; 6189.127;  -12.324;10847.563
821.289; 6043.076;   -9.444;11040.980
821.855; 5994.572;   -8.374;10357.100
822.421; 5961.117;  -10.234; 9978.918
822.987; 5825.976;  -13.294; 9754.177
823.553; 5495.417;  -10.884;10065.755
824.119; 5356.677;   -8.884;10036.294
824.685; 5469.047;   -6.784;10029.192
825.251; 5531.588;  -12.004;10199.230
825.816; 5499.043;  -11.474; 9820.189
826.382; 5368.215;   -9.174; 9297.248
826.948; 5609.675;   -9.214; 9381.347
827.513; 5974.938;  -10.774; 9450.726
828.079; 5782.994;  -11.924; 9472.444
828.645; 5234.196;  -10.543; 9292.643
829.210; 5165.973;  -10.533; 9065.341
829.776; 5168.435;  -10.753; 9132.620
830.341; 5096.890;  -10.173; 9092.878
830.906; 5296.477;  -10.743; 9078.557
831.472; 5654.245;  -11.113; 8534.535
832.037; 5459.834;  -10.603; 8677.874
832.602; 4909.143;  -13.323; 8628.692
833.167; 4497.873;  -10.823; 8879.031
833.733; 4362.283;  -10.113; 9189.790
834.298; 4425.508;  -13.583; 9052.608
834.863; 4380.891;  -12.703; 8895.087
835.428; 4383.378;  -10.523; 8824.266
835.993; 4482.481;   -6.963; 8845.385
836.558; 4428.267;  -10.763; 8888.563
837.123; 4475.081;   -9.903; 8966.582
837.688; 4583.001;   -9.913; 8617.860
838.253; 4703.021;  -10.283; 8590.699
838.817; 4870.846;  -12.963; 8443.797
839.382; 4835.894;  -14.243; 8799.356
839.947; 4546.918;  -10.733; 8810.595
840.511; 4235.745;   -9.383; 8796.394
841.076; 3869.464;  -12.563; 8347.231
841.641; 3880.113;  -12.953; 8224.330
842.205; 3926.825;   -7.043; 8223.349
842.770; 4064.941;   -8.163; 8622.107
843.334; 4380.568;  -12.503; 8410.386
843.898; 4410.689;  -11.693; 8337.465
844.463; 4384.231;  -10.203; 8506.283
845.027; 4104.418;   -9.533; 8280.962
845.591; 3903.433;  -13.443; 8231.141
846.156; 3895.652;  -13.143; 7969.179
846.720; 3783.844;   -9.433; 7768.278
847.284; 3664.335;  -11.033; 7630.957
847.848; 3470.322;  -10.403; 7472.395
848.412; 3334.901;  -11.553; 7437.394
848.976; 3374.267;   -8.393; 7674.592
849.540; 3354.234;   -8.713; 7836.011
850.104; 3431.238;  -12.463; 7913.669
850.668; 3706.094;  -12.973; 7694.508
851.232; 3771.142;  -10.793; 7756.887
851.796; 3611.341;  -10.662; 7926.545
852.359; 3338.904;  -13.082; 7827.844
852.923; 3218.520;  -12.192; 7641.163
853.487; 3075.306;  -11.912; 7342.501
854.050; 2992.666;  -10.892; 7042.820
854.614; 3119.440;  -13.992; 7151.338
855.177; 3241.979;  -11.732; 7105.077
855.741; 3277.894;   -8.962; 6989.675
856.304; 3152.489;   -9.442; 6596.634
856.868; 3114.256;  -14.192; 6356.272
857.431; 3270.817;  -12.702; 6468.571
857.995; 3396.980;   -9.942; 6373.210
858.558; 3438.535;   -9.112; 6324.448
859.121; 3185.573;  -12.932; 6408.327
859.684; 3026.804;  -13.442; 6347.886
860.247; 3092.981;  -10.632; 6321.264
860.810; 3040.716;  -11.272; 6301.903
861.374; 2769.308;   -9.832; 6607.881
861.937; 2494.183;  -11.762; 6408.200
862.500; 2452.590;   -9.722; 6572.639
863.062; 2574.103;  -10.512; 6387.297
863.625; 2704.317;  -11.232; 6190.836
864.188; 2849.584;  -14.112; 5807.254
864.751; 2940.008;  -11.302; 5682.413
865.314; 2850.059;  -10.112; 5547.492
865.876; 2702.068;  -12.182; 5500.150
866.439; 2727.136;  -10.722; 5415.909
867.002; 2656.642;   -9.252; 5501.567
867.564; 2423.214;   -9.572; 5413.946
868.127; 2216.240;  -13.142; 5160.325
868.689; 2166.574;  -12.902; 5133.183
869.252; 2124.406;   -9.732; 5252.382
869.814; 2037.889;   -9.432; 5297.141
870.377; 2039.546;  -11.552; 5390.919
870.939; 2120.571;   -9.052; 5599.898
871.501; 2171.774;  -10.982; 5248.336
872.063; 2174.537;  -12.292; 4854.235
872.626; 2141.529;  -14.912; 4817.074
873.188; 2132.415;  -13.112; 4987.732
873.750; 2091.929;  -13.442; 4868.651
874.312; 2015.050;   -9.402; 4779.330
874.874; 1941.735;  -11.062; 4866.348
875.436; 1878.560;  -13.931; 4718.887
875.998; 1862.240;   -9.561; 4660.005
876.560; 1856.407;  -11.321; 4462.964
877.122; 1797.922;  -12.221; 4145.042
877.683; 1712.832;  -12.191; 4056.481
878.245; 1649.875;  -12.101; 3950.740
878.807; 1668.239;   -8.971; 4058.958
879.369; 1653.747;  -12.071; 3954.677
879.930; 1550.835;  -14.621; 3941.495
880.492; 1502.699;  -10.311; 4067.014
881.053; 1479.716;  -10.901; 3859.633
881.615; 1380.659;  -14.411; 3776.071
882.176; 1324.572;  -13.761; 3734.750
882.738; 1319.774;   -9.181; 3678.489
883.299; 1316.849;  -11.791; 3405.407
883.860; 1323.328;  -13.121; 3351.106
884.422; 1310.481;  -11.211; 3394.044
884.983; 1254.887;  -10.091; 3166.443
885.544; 1153.653;   -8.461; 3189.802
886.105; 1083.526;  -12.361; 3160.360
886.666; 1045.914;  -14.141; 3093.059
887.227; 1000.363;  -11.361; 2941.957
887.788;  926.259;  -11.401; 2974.836
888.349;  855.453;  -13.791; 2721.214
888.910;  860.312;  -13.191; 2696.493
889.471;  869.304;   -9.881; 2560.172
890.032;  841.325;   -9.881; 2558.190
890.593;  809.540;  -10.371; 2567.669
891.153;  783.462;  -13.301; 2460.307
891.714;  739.700;  -11.431; 2372.046
892.275;  702.796;  -11.291; 2309.505
892.835;  662.041;  -11.471; 2382.543
893.396;  605.560;  -11.541; 2295.502
893.956;  554.728;  -11.181; 2162.420
894.517;  517.646;  -11.741; 2125.439
895.077;  514.967;  -11.671; 2086.978
895.638;  519.586;  -11.311; 2126.316
896.198;  493.581;   -9.831; 1838.275
896.758;  448.684;   -8.421; 1892.813
897.319;  415.562;  -12.351; 1792.232
897.879;  402.853;  -13.511; 1762.751
898.439;  377.490;  -12.001; 1661.149
898.999;  351.207;  -10.180; 1781.468
899.559;  340.097;  -12.030; 1703.347
900.119;  335.423;  -15.710; 1537.525
900.679;  333.905;   -8.900; 1638.384
901.239;  319.946;   -8.340; 1527.902
901.799;  310.247;  -13.910; 1456.441
902.359;  301.934;  -13.460; 1357.140
902.919;  292.685;  -11.490; 1331.118
903.479;  278.453;  -12.110; 1317.257
904.038;  258.207;  -11.720; 1262.595
904.598;  243.187;  -13.610; 1152.034
905.158;  238.091;  -11.040; 1240.893
905.717;  230.348;  -10.900; 1233.691
906.277;  219.207;  -15.080; 1217.330
906.836;  209.871;  -13.380; 1222.408
907.396;  202.324;  -10.780; 1193.047
907.955;  196.573;   -8.500; 1182.526
908.515;  190.437;  -12.760; 1099.364
909.074;  184.478;  -11.900; 1092.863
909.633;  178.203;   -8.950; 1069.121
910.192;  174.574;   -8.770; 1196.460
910.752;  170.258;  -12.390; 1029.960
911.311;  165.659;  -13.680; 1009.780
911.870;  163.508;  -12.370;  971.460
912.429;  164.074;  -10.900; 1094.080
912.988;  161.616;  -11.690; 1081.060
913.547;  156.713;  -13.240;  940.380
914.106;  153.102;  -11.990;  999.420
914.665;  149.433;   -9.990;  984.020
915.224;  147.693;  -12.880; 1035.760
915.782;  148.338;  -12.350;  922.560
916.341;  147.487;   -9.110; 1049.840
916.900;  144.454;   -9.270;  925.260
917.458;  142.752;  -13.240;  884.220
918.017;  141.633;  -13.550;  942.600
918.576;  140.832;  -12.320;  904.440
919.134;  139.634;  -11.490;  837.980
919.693;  137.327;  -13.670;  893.060
920.251;  134.712;  -15.470;  876.500
920.809;  134.268;  -11.290;  839.580
921.368;  134.304;  -10.210;  885.360
921.926;  133.190;  -12.140;  842.940
922.484;  131.351;  -13.080;  903.360
923.042;  131.683;  -11.720;  880.340
923.601;  134.571;   -7.480;  998.680
924.159;  132.520;  -11.570;  935.560
924.717;  128.716;  -13.840;  841.080
925.275;  129.251;  -10.640;  903.240
925.833;  129.945;  -11.540;  779.320
926.391;  129.806;  -12.960;  938.380
926.949;  127.405;  -14.130;  857.680
927.506;  127.482;  -11.750;  903.500
928.064;  128.362;  -10.250;  877.580
928.622;  128.038;  -13.030;  880.100
929.180;  127.037;  -13.400;  814.180
929.737;  127.374;  -10.700;  808.540
930.295;  132.210;  -10.070;  928.480
930.853;  133.818;  -11.960;  849.100
931.410;  135.034;  -13.120;  821.120
931.968;  134.110;  -10.770;  940.660
932.525;  133.354;  -10.680;  909.380
933.082;  133.264;  -13.130;  811.440
933.640;  133.573;  -13.210;  925.900
934.197;  132.422;  -11.060;  886.360
934.754;  133.739;   -9.580;  897.780
935.312;  136.791;  -14.000;  863.340
935.869;  141.397;  -10.710; 1012.980
936.426;  140.615;   -9.860;  872.800
936.983;  141.649;   -9.710;  889.020
937.540;  140.642;  -13.990;  838.280
938.097;  138.759;  -14.040;  940.120
938.654;  139.684;  -10.310;  898.860
939.211;  142.840;  -10.560;  952.480
939.768;  145.771;  -13.900;  915.420
940.324;  148.920;  -14.760;  904.200
940.881;  149.987;  -10.370;  878.500
941.438;  150.469;   -8.260; 1021.200
941.995;  146.456;  -12.540;  992.560
942.551;  143.332;  -14.670;  875.620
943.108;  143.055;  -10.450;  937.920
943.664;  145.168;  -10.750;  869.340
944.221;  148.818;  -11.550; 1088.140
944.777;  147.494;  -14.770;  869.680
945.334;  149.598;  -12.820;  884.840
945.890;  152.065;  -10.130;  946.480
946.446;  151.134;  -13.470;  947.020
947.003;  152.653;  -12.120;  964.940
947.559;  153.930;   -9.980; 1063.040
948.115;  154.451;   -9.080; 1026.540
948.671;  151.640;  -10.830;  967.300
949.227;  148.534;  -12.440;  859.560
949.783;  145.487;  -12.910;  858.900
950.339;  147.746;  -10.270;  991.000
950.895;  148.467;  -13.630; 1023.840
951.451;  147.588;  -15.100;  925.280
952.007;  148.360;  -11.330;  998.540
952.563;  150.348;  -10.580;  937.780
953.118;  148.585;  -13.440;  904.940
953.674;  148.120;  -12.710;  935.780
954.230;  149.038;  -10.350;  949.640
954.785;  147.525;   -9.190;  936.640
955.341;  146.302;  -11.200;  998.160
955.897;  142.930;  -16.560;  834.660
956.452;  144.040;  -12.570;  953.840
957.008;  141.275;   -7.970; 1083.640
957.563;  139.712;  -11.940; 1009.540
958.118;  135.691;  -13.450;  877.700
958.674;  135.756;  -12.030;  946.780
959.229;  138.423;   -9.410; 1013.980
959.784;  135.675;  -12.000;  832.400
960.339;  133.559;  -14.780; 1001.280
960.894;  129.699;   -9.860;  963.760
961.449;  125.470;   -9.970;  859.960
962.004;  126.646;  -10.900; 1212.840
962.559;  121.882;  -13.150;  860.140
963.114;  119.617;  -13.740;  742.480
963.669;  118.301;   -9.820;  915.500
964.224;  116.744;  -13.890;  874.340
964.779;  116.061;  -12.600;  828.420
965.334;  116.839;  -10.950; 1017.860
965.888;  115.712;  -11.170;  875.360
966.443;  117.544;  -12.540;  972.380
966.998;  115.938;  -15.780;  819.460
967.552;  116.488;   -9.760;  908.380
968.107;  112.382;   -9.060;  868.300
968.661;  113.269;  -11.950;  922.440
969.216;  114.029;  -12.800;  856.280
969.770;  114.538;  -11.210;  917.200
970.324;  113.267;  -11.610;  923.140
970.879;  110.613;  -11.370;  947.180
971.433;  107.343;  -12.540;  952.720
971.987;  101.592;  -11.320;  895.340
972.541;   99.135;  -10.720;  917.100
973.095;   98.832;   -9.680; 1009.460
973.649;   97.525;  -11.440;  809.480
974.203;   97.293;  -11.210;  829.040
974.757;   97.823;  -10.240;  855.220
975.311;   98.385;  -13.720;  872.600
975.865;   97.145;  -13.770;  881.820
976.419;   96.144;  -11.690;  857.400
976.973;   95.558;   -9.510;  849.620
977.526;   97.698;  -12.620;  949.920
978.080;   97.614;  -12.010;  796.780
978.634;   98.089;  -10.170;  921.320
979.187;   96.513;   -9.020;  905.400
979.741;   94.048;   -9.820; 1018.380
980.294;   88.420;  -14.870;  789.160
980.848;   86.699;  -12.380;  717.220
981.401;   88.415;  -10.350;  816.540
981.955;   90.576;  -13.720;  844.300
982.508;   89.020;  -11.490;  746.340
983.061;   90.292;  -10.000;  915.260
983.615;   87.475;  -11.480;  798.800
984.168;   83.797;  -13.220;  770.080
984.721;   83.060;  -13.960;  880.760
985.274;   82.113;  -10.870;  867.500
985.827;   81.647;   -9.790;  834.220
986.380;   79.590;  -13.120;  721.340
986.933;   78.289;  -12.450;  864.800
987.486;   76.828;  -10.210;  861.920
988.039;   75.956;   -8.430;  863.100
988.591;   73.091;  -10.520;  893.260
989.144;   71.209;  -14.860;  737.260
989.697;   69.791;  -13.080;  758.740
990.250;   71.022;  -10.150;  858.100
990.802;   71.015;  -13.430;  755.860
991.355;   71.507;  -12.750;  974.880
991.907;   68.822;  -12.040;  864.320
992.460;   66.137;  -11.330;  753.760
993.012;   65.638;  -13.610;  749.540
993.565;   64.169;  -13.460;  711.360
994.117;   66.398;   -9.360;  950.780
994.669;   62.667;  -11.300;  701.320
995.221;   61.839;  -13.540;  791.920
995.774;   59.847;  -13.430;  787.580
996.326;   57.701;  -12.520;  740.220
996.878;   57.166;  -10.950;  838.420
997.430;   55.126;  -14.300;  699.860
997.982;   54.180;  -13.760;  750.140
998.534;   53.686;  -11.530;  739.060
999.086;   52.396;  -10.310;  738.220
999.638;   51.229;  -12.530;  661.380
1000.190;   50.270;  -11.840;  699.320
1000.741;   50.320;  -10.260;  742.700
1001.293;   50.319;   -8.860;  686.020
1001.845;   48.923;  -13.700;  676.640
1002.396;   48.695;  -12.100;  743.400
1002.948;   48.292;  -12.760;  737.400
1003.500;   46.800;  -10.380;  723.780
1004.051;   47.900;  -11.900;  907.580
1004.603;   45.796;  -12.250;  791.820
1005.154;   41.987;  -13.210;  608.980
1005.705;   41.421;  -10.950;  723.960
1006.257;   41.203;  -13.880;  707.220
1006.808;   39.605;  -12.840;  685.460
1007.359;   39.918;  -10.570;  763.240
1007.910;   38.097;   -9.620;  646.640
1008.461;   39.086;  -13.630;  732.940
1009.013;   37.683;  -17.200;  588.340
1009.564;   37.903;  -10.200;  793.520
1010.115;   36.123;  -12.570;  597.040
1010.665;   36.468;  -15.150;  602.160
1011.216;   36.086;  -14.480;  667.920
1011.767;   35.165;  -11.340;  697.920
1012.318;   35.876;   -9.780;  736.980
1012.869;   35.242;  -12.380;  679.000
1013.419;   34.630;  -15.560;  603.120
1013.970;   34.113;  -11.010;  666.640
1014.521;   33.757;  -11.610;  620.620
1015.071;   34.541;  -13.450;  670.380
1015.622;   33.367;  -13.870;  635.460
1016.172;   33.095;  -11.610;  596.820
1016.723;   32.946;  -12.120;  614.380
1017.273;   32.289;  -13.620;  604.160
1017.823;   32.977;  -14.140;  650.340
1018.374;   31.359;  -12.800;  611.760
1018.924;   31.746;  -12.340;  716.880
1019.474;   33.005;  -11.410;  718.880
1020.024;   31.632;  -14.770;  657.580
1020.574;   31.175;   -9.780;  726.160
1021.124;   31.817;   -8.560;  673.580
1021.674;   30.408;  -15.190;  559.120
1022.224;   31.495;  -13.530;  708.940
1022.774;   31.131;  -13.280;  668.820
1023.324;   31.055;  -10.690;  753.520
1023.874;   32.926;  -10.240;  875.760
1024.423;   30.468;  -12.540;  613.700
1024.973;   29.820;  -10.010;  610.760
1025.523;   29.173;  -10.550;  620.960
1026.072;   28.625;  -13.560;  606.420
1026.622;   28.735;  -15.120;  675.740
1027.172;   29.799;  -11.260;  715.660
1027.721;   28.704;  -11.410;  601.220
1028.270;   28.684;  -13.530;  663.400
1028.820;   28.929;  -13.680;  638.080
1029.369;   28.202;  -13.520;  612.700
1029.918;   28.186;  -10.980;  649.840
1030.468;   28.027;  -13.530;  564.780
1031.017;   28.057;  -13.170;  634.800
1031.566;   26.812;  -12.200;  608.900
1032.115;   27.175;   -9.960;  694.500
1032.664;   26.275;  -13.210;  596.480
1033.213;   26.814;  -12.500;  735.420
1033.762;   26.146;  -11.910;  635.620
1034.311;   26.838;   -9.640;  677.220
1034.860;   27.122;  -13.310;  691.000
1035.408;   26.917;  -11.830;  722.720
1035.957;   26.735;  -12.000;  719.540
1036.506;   24.479;  -11.690;  530.800
1037.055;   27.017;  -10.990;  844.320
1037.603;   25.439;  -15.120;  664.000
1038.152;   23.907;  -12.450;  534.760
1038.700;   25.393;  -10.560;  585.740
1039.249;   24.332;  -11.080;  681.220
1039.797;   24.641;  -12.540;  633.360
1040.345;   25.265;  -11.920;  705.420
1040.894;   24.136;  -11.410;  625.300
1041.442;   24.236;  -14.320;  632.200
1041.990;   23.274;  -16.240;  559.160
1042.538;   23.304;  -11.680;  536.180
1043.087;   22.775;  -10.760;  570.860
1043.635;   23.838;  -11.850;  670.500
1044.183;   22.808;  -15.480;  586.400
1044.731;   22.366;  -11.770;  576.000
1045.279;   22.018;  -13.090;  674.920
1045.827;   24.793;  -12.440;  892.400
1046.374;   22.145;  -13.840;  515.420
1046.922;   21.444;  -13.220;  590.580
1047.470;   23.595;  -10.230;  691.300
1048.018;   23.085;  -14.590;  647.960
1048.565;   22.891;  -12.050;  708.600
1049.113;   21.842;  -11.650;  557.000
1049.660;   22.066;  -10.510;  629.660
1050.208;   21.724;  -13.310;  675.640
1050.755;   20.936;  -15.900;  606.580
1051.303;   20.873;  -11.430;  686.820
1051.850;   20.666;   -8.480;  635.120
1052.397;   19.372;  -15.010;  473.960
1052.945;   19.878;  -13.960;  617.760
1053.492;   21.681;  -13.150;  741.840
1054.039;   21.333;   -9.630;  720.180
1054.586;   20.506;  -13.680;  557.240
1055.133;   20.475;  -14.570;  693.140
1055.680;   20.486;  -13.820;  646.620
1056.227;   19.586;  -11.730;  542.780
1056.774;   21.095;  -12.480;  794.980
1057.321;   18.820;  -13.930;  523.260
1057.868;   18.731;  -11.690;  651.320
1058.415;   19.655;   -9.520;  651.980
1058.961;   19.564;  -13.160;  678.940
1059.508;   19.102;  -12.920;  643.820
1060.055;   18.976;  -11.920;  581.780
1060.601;   18.991;  -11.500;  624.300
1061.148;   18.599;  -14.330;  616.820
1061.694;   18.279;  -16.870;  592.580
1062.241;   18.117;  -10.330;  596.320
1062.787;   18.322;  -10.620;  663.140
1063.334;   19.877;  -10.110;  808.560
1063.880;   18.642;  -13.400;  668.360
1064.426;   18.470;  -10.680;  706.820
1064.972;   16.851;   -9.920;  601.340
1065.518;   16.363;  -10.980;  566.640
1066.065;   17.351;  -14.890;  624.460
1066.611;   16.542;  -12.870;  598.800
1067.157;   18.108;  -12.950;  641.860
1067.703;   17.623;  -13.540;  668.480
1068.249;   17.010;  -13.540;  605.220
1068.794;   16.972;  -12.600;  626.880
1069.340;   15.664;  -10.620;  578.960
1069.886;   16.329;  -12.830;  590.700
1070.432;   16.054;  -14.870;  541.720
1070.977;   15.474;  -11.980;  601.080
1071.523;   15.863;   -8.200;  573.060
1072.068;   16.419;  -12.330;  582.000
1072.614;   15.645;  -16.370;  527.760
1073.160;   16.629;  -11.100;  687.040
1073.705;   15.269;  -10.480;  572.520
1074.250;   15.572;  -14.520;  559.900
1074.796;   16.107;  -11.460;  655.160
1075.341;   16.054;  -11.950;  664.100
1075.886;   15.949;  -11.460;  594.240
1076.431;   14.870;  -13.770;  649.880
1076.976;   14.866;  -12.680;  639.220
1077.521;   14.277;  -13.170;  583.080
1078.067;   14.173;  -10.860;  579.400
1078.612;   14.985;  -13.920;  661.620
1079.156;   13.887;  -13.880;  601.540
1079.701;   14.790;  -13.120;  693.260
1080.246;   15.456;   -9.940;  696.300
1080.791;   15.020;  -14.740;  625.020
1081.336;   13.821;  -13.750;  659.320
1081.880;   13.869;  -13.400;  649.680
1082.425;   13.002;  -12.220;  573.480
1082.970;   14.564;  -11.610;  717.040
1083.514;   13.364;  -13.580;  597.000
1084.059;   12.335;  -12.810;  586.720
1084.603;   12.591;  -12.320;  565.840
1085.147;   13.190;  -13.190;  645.220
1085.692;   13.692;  -12.480;  716.800
1086.236;   11.787;  -13.020;  503.140
1086.780;   14.406;   -9.190;  751.440
1087.325;   13.139;  -12.480;  654.620
1087.869;   12.449;  -12.450;  610.700
1088.413;   12.723;  -12.240;  705.040
1088.957;   11.584;   -9.020;  543.400
1089.501;   13.246;  -10.320;  766.640
1090.045;   12.513;  -12.720;  726.480
1090.589;   10.233;  -13.690;  569.920
1091.133;   12.544;  -10.020;  673.340
1091.676;   12.183;  -12.330;  591.940
1092.220;   11.461;  -14.970;  600.920
1092.764;   12.007;  -12.430;  706.960
1093.307;   11.641;   -9.800;  673.780
1093.851;   10.765;  -14.970;  556.540
1094.395;   11.456;  -15.310;  683.140
1094.938;   10.479;  -10.370;  632.520
1095.482;   10.903;  -11.050;  559.800
1096.025;   12.153;  -11.840;  710.880
1096.568;   11.907;  -12.840;  779.280
1097.112;    9.422;  -14.700;  508.180
1097.655;   10.041;   -8.720;  603.000
1098.198;    9.428;  -13.610;  600.180
1098.741;    9.946;  -13.350;  612.860
1099.285;   10.373;  -11.230;  657.300
1099.828;    8.680;  -11.840;  439.400
1100.371;   10.291;  -10.840;  608.160
1100.914;    9.687;  -14.190;  682.660
1101.457;    9.855;  -11.240;  679.900
1101.999;    8.388;  -11.270;  584.680
1102.542;   10.259;  -11.480;  641.440
1103.085;    9.590;  -11.750;  658.500
1103.628;    9.756;  -11.400;  762.060
1104.170;    9.136;  -10.490;  588.280
1104.713;    9.545;  -10.600;  646.700
1105.256;    8.612;  -14.360;  557.440
1105.798;    8.106;  -13.210;  499.980
1106.341;    9.527;  -10.270;  728.900
1106.883;    8.692;  -12.200;  521.340
1107.425;    8.650;  -13.110;  668.180
1107.968;    8.567;  -12.840;  612.380
1108.510;    8.716;   -6.480;  684.960
1109.052;    7.179;  -13.940;  612.620
1109.594;    7.766;  -13.690;  554.440
1110.136;    9.037;  -11.880;  643.220
1110.679;    8.046;   -9.500;  633.080
1111.221;    7.254;  -14.160;  604.460
1111.763;    7.564;  -13.980;  559.220
1112.304;    7.119;  -13.880;  547.140
1112.846;    8.028;  -12.210;  666.240
1113.388;   10.365;  -11.390;  942.180
1113.930;    7.877;  -14.540;  694.200
1114.472;    6.628;  -12.640;  606.540
1115.013;    6.059;  -11.620;  551.280
1115.555;    6.400;  -13.640;  587.100
1116.097;    6.127;  -15.380;  579.480
1116.638;    6.587;  -12.640;  684.600
1117.180;    7.302;   -9.850;  667.740
1117.721;    6.696;  -13.690;  568.580
1118.262;    6.894;  -12.680;  677.960
1118.804;    7.148;  -12.530;  637.340
1119.345;    5.630;  -11.690;  578.400
1119.886;    7.096;  -13.380;  704.040
1120.427;    5.176;  -14.070;  589.020
1120.969;    5.601;  -13.500;  597.920
1121.510;    4.795;  -11.480;  563.060
1122.051;    6.327;  -12.830;  723.580
1122.592;    5.417;  -14.290;  655.420
1123.133;    4.738;  -12.400;  547.940
1123.673;    6.391;  -10.130;  706.480
1124.214;    5.551;  -12.930;  612.460
1124.755;    6.182;  -14.380;  639.460
1125.296;    4.863;  -14.000;  627.320
1125.836;    6.238;  -10.070;  691.500
1126.377;    4.656;  -12.640;  599.660
1126.918;    5.262;  -12.960;  614.980
1127.458;    3.983;  -13.350;  622.220
1127.999;    5.245;  -10.750;  656.980
1128.539;    6.128;  -12.350;  694.240
1129.079;    4.838;  -14.860;  632.720
1129.620;    4.041;  -13.840;  558.100
1130.160;    4.243;  -12.330;  539.480
1130.700;    4.824;  -14.530;  640.840
1131.240;    5.972;  -12.530;  643.700
1131.781;    4.058;  -14.450;  619.680
1132.321;    3.618;   -9.790;  599.120
1132.861;    3.099;  -14.860;  564.200
1133.401;    2.965;  -14.290;  593.940
1133.941;    3.829;  -11.750;  626.280
1134.481;    2.948;   -9.920;  597.580
1135.020;    3.389;  -12.290;  609.160
1135.560;    3.708;  -11.650;  674.940
1136.100;    3.276;  -16.270;  501.160
1136.640;    3.082;  -10.890;  510.480
1137.179;    3.218;  -14.180;  537.960
1137.719;    3.277;  -16.250;  605.400
1138.258;    3.386;  -14.230;  587.360
1138.798;    3.241;   -9.090;  663.780
1139.337;    2.055;  -15.130;  482.840
1139.877;    3.153;  -13.680;  642.360
1140.416;    4.946;  -11.320;  878.060
1140.955;    2.225;  -10.860;  535.380
1141.494;    2.860;  -12.920;  669.280
1142.034;    2.665;  -13.930;  583.520
1142.573;    2.904;  -11.440;  646.280
1143.112;    2.299;  -12.000;  553.480
1143.651;    2.327;  -13.670;  536.480
1144.190;    3.088;  -12.730;  691.640
1144.729;    1.999;  -14.560;  607.420
1145.267;    2.273;  -11.830;  584.900
1145.806;    2.831;  -12.230;  637.040
1146.345;    1.453;  -14.130;  635.020
1146.884;    1.710;  -11.590;  622.500
1147.422;    1.675;  -12.550;  533.060
1147.961;    3.052;  -11.180;  708.460
1148.500;    2.041;  -11.510;  669.720
1149.038;    1.886;  -11.640;  632.500
1149.577;    2.475;  -10.130;  698.640
1150.115;   -0.008;  -13.970;  452.280
1150.653;    1.285;  -14.520;  607.340
1151.192;    1.208;  -12.810;  552.920
1151.730;    1.373;   -9.100;  652.560
1152.268;    1.447;  -12.220;  589.520
1152.806;    1.116;  -14.140;  571.180
1153.344;   -0.457;  -12.350;  577.640
1153.882;    0.673;   -8.980;  600.060
1154.421;   -0.477;  -15.190;  470.620
1154.958;    0.045;  -15.210;  595.240
1155.496;    1.630;  -12.850;  645.280
1156.034;    0.684;   -9.940;  721.880
1156.572;    1.212;  -13.570;  667.060
1157.110;   -0.704;  -14.590;  473.940
1157.647;    1.133;  -13.030;  676.960
1158.185;    0.224;  -12.140;  564.320
1158.723;   -0.955;  -14.390;  509.200
1159.260;    0.076;  -14.090;  701.700
1159.798;    0.871;  -11.920;  658.160
1160.335;    0.145;  -11.110;  631.820

