
Integration time [ms]:   3.276
Averaging Nr. [scans]: 1000
Smoothing Nr. [pixels]: 0
Data measured with spectrometer [name]: 7414430SP
Wave   ;Sample   ;Dark     ;Reference
[nm]   ;[counts] ;[counts] ;[counts] 

288.544;  153.317;    7.793;  793.890
289.143;  156.957;    7.462;  681.602
289.742;  157.423;    8.602;  828.814
290.341;  143.800;    1.321;  789.841
290.940;  134.021;   -0.709;  730.702
291.538;  136.186;    0.881;  881.108
292.137;  134.797;    0.122;  792.581
292.736;  138.319;   -1.929;  975.101
293.335;  134.723;   -8.229;  735.086
293.934;  134.659;   -5.279;  781.677
294.532;  134.343;   -1.369; 1031.958
295.131;  120.923;   -7.641;  834.394
295.730;  121.701;   -8.420;  809.588
296.328;  120.134;   -5.611;  783.442
296.927;  120.258;   -5.781;  779.652
297.525;  119.234;   -6.361;  781.236
298.124;  110.209;  -11.382;  654.009
298.722;  115.735;   -7.641;  761.933
299.321;  113.390;   -6.811;  708.597
299.919;  110.854;   -6.991;  751.918
300.518;  106.577;  -10.362;  689.338
301.116;  108.763;   -9.581;  691.381
301.715;  108.869;   -4.891;  730.222
302.313;  108.195;   -8.801;  704.943
302.911;  103.782;   -8.522;  733.830
303.509;  107.551;   -6.171;  925.627
304.108;  105.831;   -7.311;  760.383
304.706;  104.611;   -8.321;  801.664
305.304;   98.805;  -10.222;  796.707
305.902;  105.354;   -6.021;  784.484
306.500;   99.828;   -4.971;  728.200
307.098;   98.160;   -7.061;  746.560
307.696;   96.620;   -8.801;  780.432
308.294;   97.662;   -6.411;  731.359
308.892;   99.670;   -2.901;  759.769
309.490;   95.113;   -5.041;  712.161
310.088;   93.489;   -5.002;  788.444
310.686;   97.725;   -2.041;  821.749
311.284;   93.510;   -2.351;  766.040
311.882;   90.940;   -4.422;  731.225
312.480;   88.054;   -4.192;  697.167
313.078;   89.311;   -1.172;  808.331
313.675;   90.201;   -2.601;  691.600
314.273;   84.931;   -1.312;  797.837
314.871;   84.890;   -3.942;  589.829
315.468;   83.241;   -2.802;  652.090
316.066;   85.752;   -0.701;  694.427
316.664;   77.938;   -4.362;  656.351
317.261;   82.273;   -2.872;  910.128
317.859;   78.417;   -2.022;  768.735
318.456;   78.443;   -0.531;  830.096
319.054;   73.683;   -3.912;  787.828
319.651;   72.763;   -4.752;  759.928
320.249;   71.843;   -2.602;  810.188
320.846;   69.432;   -0.821;  714.286
321.443;   66.354;   -4.642;  832.135
322.041;   63.705;   -5.002;  812.315
322.638;   62.120;   -3.982;  701.456
323.235;   63.238;   -3.411;  665.683
323.833;   59.294;   -7.361;  740.354
324.430;   54.670;   -8.611;  615.900
325.027;   55.748;   -4.061;  876.855
325.624;   55.562;   -4.031;  644.532
326.221;   53.486;   -7.481;  689.717
326.818;   51.969;   -5.281;  818.332
327.415;   55.570;   -7.460;  748.828
328.012;   55.891;   -5.510;  690.585
328.609;   53.308;   -7.880;  731.389
329.206;   51.676;   -8.331;  778.621
329.803;   52.157;   -5.121;  737.841
330.400;   54.720;   -4.510;  704.260
330.997;   55.635;   -6.441;  817.147
331.594;   54.906;   -8.831;  788.185
332.191;   58.986;   -7.621;  728.722
332.787;   62.036;   -4.591;  844.463
333.384;   61.900;   -7.412;  763.093
333.981;   59.727;   -8.293;  815.687
334.578;   62.558;   -7.052;  708.378
335.174;   65.134;   -3.102;  731.469
335.771;   64.717;   -5.943;  836.456
336.367;   61.345;   -7.393;  710.631
336.964;   65.247;   -4.063;  793.266
337.561;   64.248;   -3.813;  731.112
338.157;   59.639;   -4.654;  911.916
338.754;   58.872;   -7.934;  796.589
339.350;   56.499;   -4.414;  722.493
339.946;   57.951;   -4.664;  773.135
340.543;   50.737;   -6.375;  846.136
341.139;   45.179;   -9.815;  720.836
341.735;   41.781;   -4.526;  772.593
342.332;   41.743;   -4.895;  691.472
342.928;   41.406;   -4.295;  795.394
343.524;   35.100;   -5.476;  761.684
344.120;   31.100;   -5.856;  738.562
344.716;   34.550;   -2.155;  723.717
345.313;   32.371;   -6.275;  795.342
345.909;   26.869;   -8.815;  627.336
346.505;   28.953;   -5.305;  740.247
347.101;   28.933;   -2.674;  827.864
347.697;   28.780;   -4.344;  785.398
348.293;   24.060;   -9.975;  627.244
348.889;   25.086;   -5.774;  745.914
349.485;   23.681;   -5.004;  688.205
350.081;   24.903;   -4.704;  772.592
350.676;   19.849;   -6.635;  691.606
351.272;   23.447;   -4.504;  809.530
351.868;   24.273;   -3.914;  780.497
352.464;   21.631;   -9.044;  723.932
353.059;   17.329;   -8.314;  646.017
353.655;   20.915;   -7.024;  777.063
354.251;   21.116;   -5.343;  759.845
354.846;   15.637;   -8.604;  740.646
355.442;   14.117;   -6.945;  753.071
356.038;   16.195;   -7.564;  751.708
356.633;   15.803;   -5.814;  728.594
357.229;   14.399;   -7.364;  724.757
357.824;   12.658;   -8.024;  703.600
358.420;   11.548;   -9.384;  679.726
359.015;   11.743;   -5.104;  695.357
359.610;   12.742;   -6.854;  763.920
360.206;    7.683;  -10.185;  603.240
360.801;    9.916;   -7.054;  646.503
361.396;   12.397;   -5.034;  725.975
361.992;    7.634;   -8.284;  668.220
362.587;    4.452;   -8.625;  670.160
363.182;    7.122;   -7.674;  689.631
363.777;    7.524;   -5.164;  738.242
364.372;    7.415;   -8.604;  737.314
364.967;    3.320;   -9.055;  680.744
365.563;    7.781;   -6.114;  815.567
366.158;    4.452;   -5.814;  685.161
366.753;    5.316;   -7.854;  649.263
367.348;    4.022;   -7.804;  746.056
367.942;    2.769;   -7.954;  697.298
368.537;    2.718;   -4.984;  754.245
369.132;    2.696;   -8.564;  703.428
369.727;   -1.328;   -8.855;  638.079
370.322;    0.034;   -6.245;  580.186
370.917;   -1.045;   -6.425;  710.646
371.511;    2.545;   -6.294;  861.834
372.106;   -0.542;   -7.685;  776.964
372.701;   -4.469;   -7.335;  585.988
373.296;    0.821;   -4.564;  863.135
373.890;   -4.040;  -10.235;  647.840
374.485;   -5.110;   -7.885;  691.199
375.079;   -1.408;   -7.324;  738.685
375.674;   -0.497;   -3.494;  812.970
376.268;   -4.638;   -8.525;  691.759
376.863;  -11.045;  -10.086;  580.327
377.457;   -4.223;   -7.025;  662.490
378.052;   -5.983;   -3.585;  764.884
378.646;   -7.139;   -7.595;  741.167
379.240;   -7.762;   -8.335;  721.176
379.835;   -6.023;   -5.785;  636.978
380.429;   -8.489;   -4.335;  562.557
381.023;   -8.251;   -6.805;  779.205
381.617;  -10.837;   -9.195;  680.106
382.212;   -7.861;   -6.905;  685.303
382.806;   -6.864;   -3.745;  760.690
383.400;  -11.127;   -7.745;  672.281
383.994;  -11.894;   -9.765;  664.870
384.588;   -8.062;   -6.564;  697.701
385.182;   -6.752;   -5.344;  726.624
385.776;   -8.872;   -8.514;  706.875
386.370;  -12.215;   -9.555;  681.968
386.964;  -11.023;   -8.715;  684.155
387.558;   -8.812;   -6.174;  598.360
388.152;  -12.219;   -8.725;  681.959
388.745;  -10.214;   -7.965;  814.707
389.339;   -8.822;   -5.924;  747.642
389.933;   -8.124;   -5.524;  695.370
390.527;   -9.771;   -7.114;  859.029
391.120;  -15.687;  -10.725;  595.318
391.714;  -12.204;   -8.035;  711.633
392.308;   -9.529;   -3.574;  780.253
392.901;  -12.794;   -7.245;  642.460
393.495;  -14.046;   -9.285;  595.414
394.089;  -12.090;   -5.895;  760.452
394.682;  -12.694;   -4.295;  697.188
395.275;  -13.753;   -9.875;  719.927
395.869;  -15.789;   -8.485;  667.314
396.462;  -13.629;   -7.455;  616.609
397.056;   -9.961;   -5.424;  776.621
397.649;  -14.810;   -6.605;  731.575
398.242;  -12.019;   -8.224;  712.645
398.836;  -11.198;   -7.474;  766.408
399.429;  -12.189;   -7.094;  631.041
400.022;  -15.418;   -9.475;  665.902
400.615;  -12.523;   -7.145;  805.609
401.208;  -11.149;   -7.174;  691.451
401.802;  -13.332;   -5.515;  699.329
402.395;  -14.352;   -9.875;  683.502
402.988;  -16.016;   -8.845;  696.627
403.581;  -12.981;   -8.874;  646.878
404.174;  -10.120;   -5.324;  686.568
404.767;  -12.894;   -9.575;  638.583
405.360;  -16.045;  -10.965;  621.445
405.953;  -10.383;   -8.764;  759.034
406.545;   -9.464;   -7.514;  725.342
407.138;  -13.760;  -10.025;  618.350
407.731;  -12.344;  -10.034;  613.303
408.324;   -8.646;   -9.374;  660.554
408.917;   -8.907;   -6.534;  681.864
409.509;  -11.979;   -8.004;  740.396
410.102;  -12.324;   -9.875;  643.948
410.695;   -8.016;   -8.604;  665.758
411.287;   -8.602;   -6.794;  599.821
411.880;   -9.643;   -9.334;  585.421
412.472;  -12.690;  -10.254;  613.092
413.065;   -9.889;   -6.714;  629.408
413.657;   -8.090;   -7.234;  576.678
414.250;   -7.973;  -10.544;  646.681
414.842;   -9.264;   -9.744;  676.353
415.434;   -7.163;   -6.994;  570.463
416.027;   -3.713;   -5.893;  652.196
416.619;   -6.201;   -7.264;  713.400
417.211;   -6.838;  -10.374;  599.352
417.804;   -2.231;   -7.993;  628.499
418.396;   -6.271;   -7.234;  607.643
418.988;   -4.236;   -9.443;  659.238
419.580;   -8.088;  -10.724;  568.276
420.172;   -5.239;  -10.323;  536.196
420.764;   -1.017;   -8.793;  672.482
421.356;   -1.909;  -11.143;  636.898
421.948;   -3.205;   -8.293;  677.661
422.540;    1.269;   -7.893;  680.027
423.132;    1.180;   -7.082;  600.641
423.724;   -2.785;   -8.653;  561.267
424.316;    0.040;  -10.213;  621.345
424.908;    3.351;   -9.762;  591.517
425.500;    4.435;   -5.572;  647.978
426.092;    4.712;   -8.422;  648.268
426.683;    3.326;   -9.283;  684.836
427.275;    5.607;   -7.852;  641.471
427.867;    7.193;   -5.272;  668.948
428.458;    7.610;   -7.682;  732.344
429.050;    6.595;  -10.612;  680.749
429.642;    8.478;   -9.882;  743.124
430.233;    8.470;   -6.962;  569.356
430.825;   10.338;   -6.842;  724.809
431.416;    7.584;   -9.672;  698.241
432.008;   11.291;   -6.552;  651.723
432.599;   11.802;   -6.891;  656.073
433.190;    9.525;  -10.912;  637.670
433.782;    7.974;  -11.172;  590.395
434.373;   15.600;   -6.061;  884.765
434.964;   14.376;   -8.251;  602.920
435.556;   11.674;   -9.722;  634.537
436.147;   14.278;   -9.082;  758.490
436.738;   14.327;   -8.041;  701.099
437.329;   19.609;   -7.341;  721.723
437.920;   11.955;   -8.162;  666.688
438.511;   12.924;  -11.802;  564.526
439.103;   19.011;  -10.191;  623.998
439.694;   20.985;   -7.601;  681.583
440.285;   21.673;   -8.541;  764.432
440.876;   19.430;   -9.751;  845.738
441.466;   19.825;   -9.401;  575.162
442.057;   24.935;   -7.760;  665.814
442.648;   23.160;   -9.971;  746.255
443.239;   22.607;  -11.001;  620.477
443.830;   26.921;   -7.990;  704.958
444.421;   28.238;   -7.910;  655.474
445.011;   24.530;   -8.131;  693.619
445.602;   24.452;   -7.111;  743.126
446.193;   26.818;  -10.920;  488.117
446.783;   30.395;   -6.500;  640.397
447.374;   25.066;   -8.671;  692.759
447.964;   27.260;  -10.781;  713.770
448.555;   34.807;   -9.650;  822.742
449.145;   31.563;   -8.660;  662.853
449.736;   32.116;   -8.990;  803.179
450.326;   32.111;   -9.500;  713.626
450.917;   37.044;   -8.680;  675.324
451.507;   36.292;   -7.520;  600.661
452.097;   36.998;   -8.590;  746.267
452.688;   37.575;  -11.340;  742.160
453.278;   38.010;  -10.100;  566.840
453.868;   41.476;   -6.019;  793.550
454.458;   39.414;   -9.440;  651.141
455.048;   40.120;  -10.560;  711.783
455.639;   42.099;  -11.799;  567.096
456.229;   45.364;   -6.899;  710.694
456.819;   46.685;   -7.389;  751.158
457.409;   47.382;  -11.119;  773.993
457.999;   50.046;   -9.289;  737.505
458.589;   49.466;   -6.139;  686.606
459.179;   49.201;   -8.729;  717.658
459.769;   47.969;   -9.789;  627.099
460.358;   53.023;  -10.259;  797.262
460.948;   52.280;   -7.299;  689.503
461.538;   53.985;  -10.289;  660.677
462.128;   51.451;  -11.269;  664.934
462.717;   58.345;   -9.368;  710.326
463.307;   61.155;   -7.908;  705.846
463.897;   57.443;   -9.599;  656.942
464.486;   56.354;   -9.769;  837.128
465.076;   61.535;   -8.048;  733.776
465.666;   64.679;   -9.358;  652.900
466.255;   62.574;   -7.919;  785.651
466.845;   60.895;  -11.689;  666.749
467.434;   64.897;   -7.818;  725.873
468.023;   65.667;   -7.678;  658.357
468.613;   62.951;  -10.939;  713.946
469.202;   67.800;  -10.118;  646.507
469.791;   71.612;   -9.108;  737.811
470.381;   73.427;   -6.058;  742.813
470.970;   73.542;  -10.428;  711.099
471.559;   72.474;  -10.268;  733.291
472.148;   76.210;   -8.448;  675.737
472.738;   78.427;   -6.917;  765.466
473.327;   77.780;  -11.978;  637.529
473.916;   77.671;  -11.888;  737.446
474.505;   81.789;   -9.437;  751.703
475.094;   84.520;   -6.747;  806.570
475.683;   83.226;   -9.367;  797.699
476.272;   85.410;  -12.637;  730.632
476.861;   88.261;  -10.027;  706.754
477.449;   94.520;   -8.716;  728.487
478.038;   89.184;   -9.577;  692.513
478.627;   90.443;   -9.718;  714.852
479.216;   97.301;   -8.947;  769.441
479.805;   99.977;   -6.256;  783.375
480.393;  100.124;   -7.937; 1008.945
480.982;   99.112;   -7.717;  874.501
481.571;  105.479;   -9.266;  858.333
482.159;  105.996;   -7.636;  705.386
482.748;  105.622;   -9.667;  821.385
483.336;  110.172;  -10.376;  858.209
483.925;  111.555;   -7.147;  774.373
484.513;  118.397;   -7.996;  758.962
485.102;  115.776;  -10.027;  810.965
485.690;  123.752;  -10.446; 1011.050
486.278;  125.497;   -8.446;  979.329
486.867;  127.268;   -6.356;  809.662
487.455;  128.770;   -9.136;  898.229
488.043;  131.344;  -10.646;  748.361
488.631;  140.327;   -7.456; 1005.079
489.220;  144.181;   -6.636;  908.626
489.808;  146.203;  -11.036;  741.415
490.396;  154.971;  -10.246;  914.645
490.984;  163.463;   -8.556;  830.161
491.572;  177.139;   -5.886;  940.315
492.160;  186.900;   -9.486;  919.081
492.748;  199.900;  -10.976;  884.341
493.336;  227.597;   -8.776; 1019.693
493.924;  266.870;   -5.465;  958.077
494.512;  316.954;   -9.986; 1066.638
495.100;  372.142;  -10.636; 1103.280
495.687;  457.997;  -10.885; 1206.373
496.275;  559.492;   -8.126; 1150.796
496.863;  654.770;  -10.586; 1281.171
497.451;  794.474;  -11.926; 1386.805
498.038;  925.303;  -10.885; 1556.729
498.626; 1085.392;   -6.315; 1741.407
499.214; 1347.136;   -7.326; 2016.609
499.801; 1633.046;  -11.906; 2220.633
500.389; 2003.320;  -10.466; 2312.494
500.976; 2340.686;   -5.236; 2744.849
501.564; 2909.599;   -8.936; 3148.565
502.151; 3667.329;  -13.176; 3515.999
502.738; 4135.835;  -10.646; 3971.274
503.326; 4612.071;   -9.525; 4403.796
503.913; 5000.484;  -10.856; 5161.749
504.500; 5503.759;  -11.586; 5986.420
505.088; 6188.870;  -10.336; 6381.201
505.675; 7171.009;   -6.355; 6925.547
506.262; 7745.370;   -9.046; 7619.060
506.849; 8133.454;  -10.416; 8733.969
507.436; 8760.628;  -10.305; 9790.121
508.023; 9297.526;   -5.496; 9985.472
508.610; 9263.094;   -7.856;10434.618
509.197;10127.404;  -10.097;11198.435
509.784;11517.426;  -10.886;12391.194
510.371;12900.910;   -9.315;13603.713
510.958;14246.911;   -9.936;14426.586
511.545;14973.765;   -9.326;15243.775
512.132;15053.905;  -10.075;15945.876
512.719;15348.212;   -7.796;16340.369
513.305;16533.414;  -10.606;18011.766
513.892;18206.516;  -11.486;19754.971
514.479;19502.715;   -9.126;20967.805
515.066;20606.246;   -6.026;22299.793
515.652;20396.125;   -8.466;22908.660
516.239;20778.102;  -10.886;23798.875
516.825;22363.770;  -11.496;25567.275
517.412;23961.074;   -5.796;28154.959
517.998;25114.617;  -10.506;28344.111
518.585;25808.992;  -10.076;27134.219
519.171;25021.256;   -8.315;27268.576
519.758;25836.240;   -8.596;28964.129
520.344;28352.494;   -8.466;30664.494
520.930;27346.734;  -11.006;32550.605
521.516;25430.416;  -10.495;35422.895
522.103;27189.732;   -5.526;38280.004
522.689;29293.471;   -8.746;37835.117
523.275;29703.676;  -11.376;37288.613
523.861;31247.816;  -11.156;37281.395
524.447;29948.557;   -8.135;37846.949
525.033;27635.816;   -7.896;38321.949
525.619;26469.805;  -12.476;38579.285
526.205;28457.816;   -9.516;40622.875
526.791;31378.750;   -6.926;42258.836
527.377;32981.645;   -8.346;42966.902
527.963;35017.379;   -8.717;42018.949
528.549;36907.227;  -11.016;42476.828
529.135;35286.379;   -8.536;41854.852
529.721;35226.492;   -9.666;41237.711
530.306;34058.941;  -10.066;41259.445
530.892;34643.172;  -11.356;41506.047
531.478;36503.000;   -6.596;43559.613
532.063;37988.875;   -8.836;47695.563
532.649;36486.453;  -10.047;50808.324
533.235;37011.148;   -9.746;51787.500
533.820;38887.340;   -6.566;52145.035
534.406;40473.922;  -10.817;51133.488
534.991;42254.695;   -9.416;49996.805
535.576;40771.313;   -9.036;48882.852
536.162;37656.145;   -6.156;46942.285
536.747;37971.871;  -11.607;45711.746
537.333;40553.102;  -11.787;48510.180
537.918;41073.387;  -12.437;50439.891
538.503;40380.301;   -7.196;50863.711
539.088;40286.164;  -10.556;50906.922
539.673;40398.039;   -8.767;52621.965
540.259;36586.539;  -10.026;52368.094
540.844;33546.871;   -7.416;50879.109
541.429;30893.381;   -9.467;52077.777
542.014;29637.299;   -9.527;52716.695
542.599;35038.453;   -9.946;52363.281
543.184;41155.688;   -7.927;53187.137
543.769;44116.605;   -9.297;54697.605
544.354;45239.746;  -10.127;53913.914
544.938;43069.980;   -9.267;49680.164
545.523;40797.883;   -6.506;47386.277
546.108;42275.082;   -9.787;49151.949
546.693;42811.738;  -11.587;51384.637
547.278;43647.301;  -10.986;51853.254
547.862;44683.031;   -8.206;51173.750
548.447;42655.258;  -10.067;51691.395
549.031;41905.828;   -9.637;52456.703
549.616;42426.813;   -9.926;52714.516
550.201;41745.602;   -6.347;52414.598
550.785;42290.141;   -7.917;52355.059
551.370;43317.582;  -10.867;54589.453
551.954;46132.809;   -9.047;58267.348
552.538;45521.023;   -7.827;59062.176
553.123;43382.238;  -10.287;58115.285
553.707;41875.328;  -12.178;56556.285
554.291;39537.258;   -8.717;56201.668
554.876;40744.168;   -7.457;55335.762
555.460;42853.063;  -10.387;54155.703
556.044;45043.090;   -9.618;53721.484
556.628;45620.031;  -11.567;53731.016
557.212;45940.301;   -8.097;54312.531
557.796;48231.754;  -11.077;53797.773
558.380;46328.566;  -11.108;56145.984
558.964;44458.645;   -9.057;57277.930
559.548;41659.250;   -6.977;56459.641
560.132;38304.855;  -11.457;54434.543
560.716;39983.977;  -11.378;54800.617
561.300;42356.023;   -9.577;57606.945
561.884;41006.406;   -7.127;58972.445
562.467;39833.945;   -7.118;57327.570
563.051;38543.754;  -13.358;54962.434
563.635;36678.879;  -10.178;52594.473
564.219;38520.914;   -7.837;50610.410
564.802;42469.457;  -11.398;49551.180
565.386;43621.652;  -12.788;48370.953
565.969;44292.691;   -9.077;48178.871
566.553;42756.102;   -6.207;49957.305
567.136;41145.883;   -8.568;50369.594
567.720;41760.090;  -11.868;49492.004
568.303;42697.125;   -8.268;50616.352
568.887;42811.230;   -8.698;50727.148
569.470;41047.559;   -6.808;51698.379
570.053;38728.711;  -13.188;52122.078
570.637;35996.961;  -12.037;52536.438
571.220;35823.723;   -8.577;51186.098
571.803;36370.164;   -8.498;51032.762
572.386;38456.082;  -10.498;49609.887
572.969;39500.027;   -9.388;48285.926
573.552;40173.688;   -8.338;47624.285
574.135;39539.367;   -8.518;45498.641
574.718;36287.469;  -13.628;41970.434
575.301;36640.293;  -10.893;41447.137
575.884;36993.113;   -8.158;40923.836
576.467;41034.992;  -10.328;45267.723
577.050;40820.820;  -13.058;48175.543
577.633;39047.633;   -9.458;47729.328
578.216;35772.352;   -8.928;47579.793
578.799;33726.008;   -9.358;47820.996
579.381;34905.145;  -11.388;48115.551
579.964;35475.984;  -11.718;47333.766
580.547;34204.691;   -8.588;46668.969
581.129;34505.859;   -8.859;44466.141
581.712;36089.438;  -10.729;44164.922
582.294;36197.902;  -11.118;46477.855
582.877;36697.645;   -5.218;48244.254
583.459;36576.605;   -8.679;47437.895
584.042;38031.504;  -10.709;46943.219
584.624;36435.836;  -11.669;46792.227
585.206;35321.324;   -8.218;46557.250
585.789;36757.199;  -10.569;45793.773
586.371;37451.109;  -11.859;43836.391
586.953;38212.121;  -10.719;42972.492
587.536;39555.930;   -7.198;42487.211
588.118;38988.031;   -8.720;42086.414
588.700;38206.793;  -10.439;43389.930
589.282;35114.992;   -9.198;43646.039
589.864;32689.143;   -9.199;43438.109
590.446;32613.736;  -11.319;43151.926
591.028;32497.824;  -11.159;42781.867
591.610;32673.893;  -11.779;42839.098
592.192;33744.453;   -7.668;42820.402
592.774;33031.969;  -11.949;40724.277
593.356;30891.223;  -12.129;39874.789
593.937;30759.498;  -10.669;39980.648
594.519;33337.465;   -6.509;42069.633
595.101;33399.633;  -10.849;42976.031
595.683;32021.580;  -11.679;44084.441
596.264;31352.365;   -9.049;43478.797
596.846;31056.150;   -8.849;43803.672
597.427;30897.748;   -9.570;42986.934
598.009;32921.383;  -12.620;42832.219
598.591;33097.617;  -10.039;42580.086
599.172;34687.895;  -10.369;43061.805
599.753;36500.652;   -9.140;41691.469
600.335;36026.527;  -11.430;40692.520
600.916;33841.344;   -9.939;39982.422
601.498;30745.436;   -8.479;40318.617
602.079;30287.043;  -10.920;40670.609
602.660;30132.850;  -11.480;41450.898
603.241;30830.365;  -11.699;41137.738
603.823;31235.105;   -9.579;38868.797
604.404;30969.229;  -10.620;38182.785
604.985;33587.605;  -10.450;38078.047
605.566;34570.734;   -9.129;38056.633
606.147;35148.922;   -7.510;37020.418
606.728;33982.766;  -10.660;37883.359
607.309;32322.414;  -11.740;38748.273
607.890;32511.482;   -9.759;38850.230
608.471;30951.107;   -8.250;37457.918
609.051;30464.150;   -9.240;36066.457
609.632;30214.654;  -12.120;35991.074
610.213;29957.576;   -9.110;37402.641
610.794;31200.770;   -8.030;38383.363
611.374;30042.641;   -8.110;40562.387
611.955;29961.541;  -13.560;38533.727
612.536;30951.988;  -11.400;36951.789
613.116;30419.092;   -8.070;37197.891
613.697;31043.855;  -10.830;38411.125
614.277;30700.238;  -11.641;38673.938
614.858;30275.443;  -13.310;37075.863
615.438;30077.594;   -7.460;35092.906
616.019;28269.822;   -7.601;33666.301
616.599;29059.316;  -12.020;34189.023
617.179;29059.725;  -11.780;36952.047
617.760;28297.502;   -8.570;39582.574
618.340;28216.871;  -11.471;38943.977
618.920;28409.986;  -11.170;37594.156
619.500;29492.277;  -11.071;37866.938
620.080;29867.174;   -7.750;37869.043
620.660;30725.094;  -12.711;36868.617
621.241;31696.193;  -10.211;36352.309
621.821;30562.139;  -10.961;35459.520
622.401;30584.215;   -7.720;35207.414
622.980;32728.301;   -8.981;35980.422
623.560;31410.262;   -9.331;37351.328
624.140;27458.166;   -9.850;34388.582
624.720;23172.189;   -7.451;32368.764
625.300;22600.629;   -9.070;32638.629
625.880;26974.287;  -12.601;34599.035
626.459;30268.008;  -11.751;36831.738
627.039;29922.904;   -9.281;38299.098
627.619;29388.162;   -8.801;38289.574
628.198;29998.004;  -12.071;37220.695
628.778;30508.898;   -9.461;37632.563
629.357;30916.180;   -8.491;38003.012
629.937;30361.828;   -9.721;38402.039
630.516;31091.180;   -9.951;37868.801
631.096;32599.400;  -11.731;35760.410
631.675;34953.211;   -8.572;35225.219
632.254;34479.316;  -11.282;35130.289
632.834;33366.398;  -13.322;35794.570
633.413;34182.398;  -10.301;35788.922
633.992;34044.355;   -8.582;34532.863
634.571;34638.660;   -8.352;33590.113
635.151;33773.910;  -11.912;34943.863
635.730;32229.500;  -10.511;35352.523
636.309;32365.150;   -7.731;35366.605
636.888;32091.381;   -9.952;36165.637
637.467;31215.961;  -11.672;37515.902
638.046;29648.830;   -8.901;39288.695
638.625;28759.342;   -7.912;38279.699
639.204;28333.500;  -10.022;37741.598
639.782;30018.943;  -12.252;38364.551
640.361;32094.002;  -10.041;36740.621
640.940;31863.668;  -11.161;34950.082
641.519;30964.186;   -9.701;34137.398
642.097;32001.373;  -11.271;35654.258
642.676;31975.074;   -8.651;35637.957
643.255;30957.008;   -8.711;36567.074
643.833;30578.000;   -9.581;37809.434
644.412;30894.553;  -13.711;37337.293
644.990;32235.162;  -11.811;37018.531
645.569;35058.836;   -9.411;36518.469
646.147;36025.770;  -10.291;36186.430
646.726;34461.914;  -12.401;36267.688
647.304;32923.961;  -10.411;36647.625
647.882;33647.348;   -9.651;39286.742
648.461;33419.703;   -9.631;39157.703
649.039;30907.729;  -11.881;35412.883
649.617;30742.738;   -9.661;34744.918
650.195;31353.656;   -9.301;35403.098
650.773;30312.471;  -10.511;35053.797
651.352;30199.441;  -11.521;33756.816
651.930;29080.754;  -12.211;31868.773
652.508;28170.670;   -9.171;33121.551
653.086;29787.701;   -9.371;33564.793
653.663;31791.082;  -13.161;34054.668
654.241;30417.453;  -13.031;35693.309
654.819;28276.400;   -9.371;36422.906
655.397;28636.055;  -10.511;38213.484
655.975;29275.377;  -10.371;39507.625
656.553;30165.469;  -10.051;39498.223
657.130;30515.240;  -10.061;40395.480
657.708;27638.445;   -9.561;39242.020
658.286;25255.455;  -11.511;38920.020
658.863;25447.488;  -10.261;40202.898
659.441;27910.980;   -7.531;39677.938
660.018;30768.088;   -9.501;40413.355
660.596;31398.453;  -13.301;39931.414
661.173;33729.996;  -11.211;39604.531
661.750;33266.285;   -9.951;39700.070
662.328;31137.766;   -9.390;39292.809
662.905;29947.865;  -11.330;38235.648
663.482;26880.238;   -9.050;36212.305
664.060;24477.912;   -8.240;35944.945
664.637;28181.293;  -10.050;35170.785
665.214;32484.193;  -11.760;34197.523
665.791;31362.707;  -10.530;34549.520
666.368;31270.750;   -9.690;35118.578
666.945;31503.758;   -9.320;36019.418
667.522;31933.809;  -11.860;36048.438
668.099;31033.779;  -10.770;36243.914
668.676;31601.307;   -6.260;35958.875
669.253;33624.180;   -7.000;37384.730
669.830;33477.957;  -10.190;36779.629
670.407;32444.930;   -9.550;35231.289
670.984;32190.215;   -9.260;35544.270
671.560;31148.451;   -9.280;35466.867
672.137;29094.920;  -11.810;34280.863
672.714;28641.684;  -11.490;34632.863
673.290;29389.727;   -7.740;35135.422
673.867;29933.445;  -10.660;36114.480
674.443;29159.646;  -12.230;36152.859
675.020;27655.320;  -10.450;35327.238
675.596;26221.049;   -9.260;35795.176
676.173;27212.912;  -10.780;35430.355
676.749;28036.789;  -13.690;33549.516
677.326;29030.238;  -11.980;32210.012
677.902;27245.449;   -8.630;32068.871
678.478;25507.566;  -10.730;32583.891
679.054;26849.969;  -10.520;32088.928
679.631;28414.973;  -11.920;30978.848
680.207;29814.004;   -7.490;33160.887
680.783;30823.377;   -9.860;35570.363
681.359;31591.668;  -13.380;36125.184
681.935;30894.707;  -12.480;35240.922
682.511;31431.025;   -7.900;34429.961
683.087;31587.744;   -7.710;34463.680
683.663;31791.754;  -11.480;34648.898
684.239;31569.822;  -14.090;34546.457
684.815;32684.291;   -7.560;35586.375
685.390;32933.039;   -9.910;35821.895
685.966;32872.145;  -11.159;35085.871
686.542;33044.984;  -11.169;34198.230
687.118;31262.648;   -5.959;32847.707
687.693;31410.365;  -10.329;32794.027
688.269;30837.305;  -12.059;33072.367
688.844;31352.221;  -10.909;33141.664
689.420;32159.230;   -8.019;33965.742
689.995;29074.945;   -8.399;34655.523
690.571;28649.889;  -10.949;33576.742
691.146;28421.998;   -9.619;32657.219
691.722;26670.271;   -8.999;32526.979
692.297;25630.859;  -11.589;33014.617
692.872;25818.396;  -11.739;34012.254
693.448;26083.303;  -11.059;34237.434
694.023;28159.211;  -10.139;34142.672
694.598;30581.631;   -9.029;34132.031
695.173;30571.746;  -13.319;34205.250
695.748;27921.625;  -10.169;32882.488
696.323;25471.980;   -8.339;32864.906
696.898;25059.457;   -8.169;33170.004
697.473;28113.697;  -12.309;32432.984
698.048;27851.377;  -10.989;31649.303
698.623;26869.881;   -9.329;30778.141
699.198;28218.566;   -9.849;31140.119
699.773;29224.164;  -12.329;31764.299
700.348;28943.441;  -10.389;31780.816
700.922;27214.596;   -9.269;32046.375
701.497;25904.832;   -9.329;32603.574
702.072;27664.359;  -10.789;34799.871
702.646;27661.967;  -10.839;35793.172
703.221;28233.508;   -9.099;35201.590
703.795;28804.787;  -10.939;34764.527
704.370;27412.854;  -12.859;34307.367
704.944;28675.305;  -11.559;33509.887
705.519;29945.975;   -7.939;31388.584
706.093;32072.510;  -10.499;31340.104
706.668;33310.727;  -11.289;32630.281
707.242;32033.615;  -11.509;32728.779
707.816;30605.561;   -9.639;32947.238
708.390;30266.900;  -11.429;33277.855
708.965;31379.547;  -11.869;33834.336
709.539;31343.238;  -11.689;33709.273
710.113;30832.313;  -10.478;33044.313
710.687;28143.449;  -10.228;31953.992
711.261;27202.441;  -13.698;30505.949
711.835;26961.467;  -13.378;30262.369
712.409;27061.590;   -9.698;31254.447
712.983;26702.994;  -11.898;32754.986
713.557;25739.572;  -15.138;34018.824
714.131;27335.568;  -14.098;34579.625
714.704;27012.986;   -9.958;33890.262
715.278;26214.396;  -10.028;33531.102
715.852;25450.660;  -11.148;33601.660
716.425;24949.174;   -9.068;33515.117
716.999;26166.633;  -10.038;33185.555
717.573;26369.031;   -9.798;33905.996
718.146;27299.111;  -12.378;35199.293
718.720;28031.588;  -11.918;35060.551
719.293;27321.592;   -8.088;34973.230
719.867;26691.754;  -10.888;36394.449
720.440;27839.203;  -11.938;36663.008
721.013;30143.508;  -12.818;35102.426
721.587;31501.072;  -10.298;33985.266
722.160;30795.410;  -10.048;33524.965
722.733;28869.719;  -12.108;32987.043
723.306;26844.641;  -10.818;33066.301
723.880;27567.742;   -8.908;33399.500
724.453;26639.879;   -9.878;33468.297
725.026;26325.816;  -11.188;33816.637
725.599;26290.771;  -11.678;32797.996
726.172;25599.158;   -9.618;33187.434
726.745;26414.430;   -8.258;35136.613
727.318;29421.861;  -12.978;35751.730
727.891;31428.428;  -12.148;35890.430
728.463;32895.539;   -8.968;34822.090
729.036;32984.082;  -10.188;32895.086
729.609;30416.168;  -11.788;31823.225
730.182;28866.441;  -11.788;31445.283
730.754;28210.066;  -10.268;32373.223
731.327;27955.521;   -9.998;33676.820
731.900;26959.785;  -12.228;33417.000
732.472;25667.832;  -13.848;31978.498
733.045;25328.889;   -8.698;30368.777
733.617;25063.553;  -10.607;30574.215
734.190;23608.025;  -11.507;31280.975
734.762;23759.832;  -13.647;31674.412
735.334;25362.566;   -9.767;31247.291
735.907;25649.127;   -9.897;29876.211
736.479;23546.701;  -11.637;29808.488
737.051;23234.525;   -9.567;30233.547
737.623;24195.549;   -8.187;31469.086
738.195;25923.365;  -11.187;31784.225
738.768;26187.832;  -12.337;32120.523
739.340;25491.463;  -12.227;32094.342
739.912;25043.959;  -11.057;31312.680
740.484;26000.914;  -10.207;31946.238
741.056;27143.529;  -10.047;32984.059
741.628;26622.135;  -13.627;33897.715
742.199;27022.367;   -7.177;33213.016
742.771;25234.836;  -10.797;31369.113
743.343;23610.289;  -11.997;31865.473
743.915;23494.559;  -12.867;32388.631
744.487;24030.070;   -7.617;31079.568
745.058;25455.295;   -9.557;30570.107
745.630;25258.701;   -9.877;29970.127
746.201;23898.742;  -14.177;29186.766
746.773;23513.986;   -9.237;28805.723
747.344;23819.908;   -9.847;29591.223
747.916;23787.740;  -11.657;31412.201
748.487;23120.105;  -10.587;32194.898
749.059;23009.000;   -8.707;32533.719
749.630;22124.055;  -10.537;32158.518
750.201;22492.588;  -11.687;30855.395
750.773;22600.160;  -11.647;28622.555
751.344;23849.689;   -7.147;28405.732
751.915;23963.504;   -9.757;28461.551
752.486;23573.453;  -12.427;27842.850
753.057;21837.947;  -12.227;27845.008
753.628;20899.959;  -10.417;27728.107
754.199;20842.547;  -11.767;27381.086
754.770;20507.572;  -11.187;25882.203
755.341;20150.061;  -10.507;25886.184
755.912;20276.525;   -9.387;26050.861
756.483;20528.203;  -10.647;26798.779
757.054;19968.820;  -11.837;27048.238
757.625;18237.281;  -12.716;26294.838
758.195;17525.676;   -9.666;26142.076
758.766;18445.451;   -8.656;26392.234
759.337;18402.082;  -12.856;26334.594
759.907;17624.119;  -13.366;27579.652
760.478;16865.893;   -8.576;28352.770
761.048;17360.764;  -10.526;27325.088
761.619;17768.596;  -11.116;26460.428
762.189;17176.861;  -12.136;26029.826
762.760;16942.393;   -9.456;26430.145
763.330;17032.600;   -7.136;26670.902
763.900;17299.820;  -11.786;26603.021
764.471;16943.715;  -11.546;25542.740
765.041;16669.947;   -8.096;24358.459
765.611;16500.234;   -8.876;23991.297
766.181;16437.686;  -12.196;24470.236
766.751;17027.043;  -11.636;24845.975
767.321;17000.705;  -10.156;24533.633
767.891;16725.184;  -11.766;24916.492
768.461;16484.535;  -14.936;24776.771
769.031;15690.931;  -12.356;24757.988
769.601;15390.207;   -7.526;24181.088
770.171;15582.102;  -10.766;23670.387
770.741;16009.003;  -13.176;22960.045
771.311;15744.803;  -10.616;22917.523
771.880;14762.907;   -9.576;23562.941
772.450;14255.051;  -10.336;24216.500
773.020;14465.179;  -13.516;24140.398
773.589;14412.528;  -13.466;24414.857
774.159;13912.791;   -8.686;23858.717
774.729;13263.127;   -9.476;22942.135
775.298;13254.538;  -13.666;22324.033
775.867;13303.507;  -11.716;21140.313
776.437;12773.030;   -9.906;20838.092
777.006;12539.551;  -12.166;20599.510
777.576;13502.176;  -12.356;20508.809
778.145;12981.733;  -11.646;20732.947
778.714;11921.763;   -8.226;21062.465
779.283;11621.701;   -9.556;20949.664
779.853;11591.283;  -14.116;20508.623
780.422;11697.227;  -11.506;20649.082
780.991;11966.193;   -9.556;21527.520
781.560;12501.202;   -9.095;22632.658
782.129;11619.490;  -12.135;23048.277
782.698;10587.168;  -10.865;23438.555
783.267;10111.222;   -9.335;23267.734
783.836;10461.150;  -11.045;22415.133
784.404;11141.196;  -13.865;20443.152
784.973;11250.336;  -13.095;19699.150
785.542;11104.646;  -11.575;19763.828
786.111;10994.720;   -9.705;20341.408
786.679;10913.681;  -12.105;20207.967
787.248;10668.259;  -12.455;19516.465
787.817;10603.514;  -11.535;18900.363
788.385;10563.335;   -9.765;17879.121
788.954;10585.611;  -14.005;17658.301
789.522;10591.525;  -11.955;17788.879
790.090; 9813.202;  -10.135;18118.277
790.659; 8974.306;  -10.975;18338.736
791.227; 9003.077;  -13.375;18508.615
791.795; 9377.264;  -12.375;17898.254
792.364; 9607.388;  -10.725;17295.133
792.932;10003.728;   -9.715;16822.051
793.500; 9962.437;  -12.675;17040.148
794.068;10305.525;  -13.495;17179.787
794.636;10514.330;  -10.885;16664.246
795.204;10375.833;  -11.045;16524.545
795.772;10579.602;  -13.175;17274.564
796.340;10504.048;  -12.445;17891.002
796.908;10775.313;   -9.735;17648.561
797.476;11113.996;   -9.815;17064.080
798.044;10647.563;  -13.985;16672.777
798.612;10201.088;  -13.115;17023.996
799.180; 9558.814;  -10.185;16561.615
799.747; 9261.620;   -9.055;15962.773
800.315; 9587.398;  -12.385;15296.992
800.883; 9134.811;  -15.035;14801.771
801.450; 8465.316;  -10.365;14534.430
802.018; 8223.207;   -9.855;14173.248
802.585; 8234.523;  -11.905;14029.547
803.153; 8500.822;  -11.585;13836.846
803.720; 8300.310;   -9.095;13567.324
804.287; 8226.062;   -9.135;13360.622
804.855; 8442.716;  -11.604;13681.981
805.422; 8764.577;  -11.794;13536.560
805.989; 9003.387;  -10.734;13355.958
806.556; 9092.401;  -10.444;13747.896
807.124; 9634.145;  -12.764;13987.376
807.691;10257.218;  -12.964;14038.674
808.258;10215.351;  -11.134;14120.152
808.825;10155.340;   -9.854;13860.111
809.392; 9791.020;  -10.504;13268.790
809.959; 9160.876;  -13.054;12680.389
810.526; 8453.705;   -8.294;12427.308
811.093; 7739.139;   -8.394;12030.105
811.659; 7553.773;  -12.304;11653.664
812.226; 7723.637;  -13.944;11637.183
812.793; 8063.356;  -10.484;11611.521
813.360; 8184.938;  -10.144;11885.181
813.926; 8222.722;  -11.684;12770.539
814.493; 8116.643;  -13.644;12677.638
815.060; 7908.616;   -9.724;11974.336
815.626; 8032.271;   -9.854;11594.715
816.193; 8162.153;  -13.254;11579.474
816.759; 7553.258;  -13.204;11666.972
817.325; 7057.399;   -9.434;11325.530
817.892; 6833.309;  -10.134;11105.369
818.458; 6943.628;  -13.474;10843.928
819.024; 7385.752;  -11.854;10714.406
819.591; 7430.287;  -10.244;10469.165
820.157; 7133.298;  -10.704;10235.523
820.723; 7149.392;  -12.324;10847.563
821.289; 7090.490;   -9.444;11040.980
821.855; 7112.510;   -8.374;10357.100
822.421; 7417.054;  -10.234; 9978.918
822.987; 7388.293;  -13.294; 9754.177
823.553; 7042.447;  -10.884;10065.755
824.119; 6726.204;   -8.884;10036.294
824.685; 6133.652;   -6.784;10029.192
825.251; 5952.034;  -12.004;10199.230
825.816; 5591.447;  -11.474; 9820.189
826.382; 5329.607;   -9.174; 9297.248
826.948; 5659.791;   -9.214; 9381.347
827.513; 6092.865;  -10.774; 9450.726
828.079; 6116.271;  -11.924; 9472.444
828.645; 5824.612;  -10.543; 9292.643
829.210; 5674.404;  -10.533; 9065.341
829.776; 5600.361;  -10.753; 9132.620
830.341; 5761.202;  -10.173; 9092.878
830.906; 5758.518;  -10.743; 9078.557
831.472; 5454.606;  -11.113; 8534.535
832.037; 5080.610;  -10.603; 8677.874
832.602; 4979.128;  -13.323; 8628.692
833.167; 4768.231;  -10.823; 8879.031
833.733; 4578.845;  -10.113; 9189.790
834.298; 4383.535;  -13.583; 9052.608
834.863; 4558.584;  -12.703; 8895.087
835.428; 4800.787;  -10.523; 8824.266
835.993; 4773.114;   -6.963; 8845.385
836.558; 4733.566;  -10.763; 8888.563
837.123; 4844.454;   -9.903; 8966.582
837.688; 5187.742;   -9.913; 8617.860
838.253; 5239.551;  -10.283; 8590.699
838.817; 4840.137;  -12.963; 8443.797
839.382; 4687.754;  -14.243; 8799.356
839.947; 4833.680;  -10.733; 8810.595
840.511; 4890.495;   -9.383; 8796.394
841.076; 4759.234;  -12.563; 8347.231
841.641; 4618.723;  -12.953; 8224.330
842.205; 4483.691;   -7.043; 8223.349
842.770; 4253.034;   -8.163; 8622.107
843.334; 4415.580;  -12.503; 8410.386
843.898; 4595.572;  -11.693; 8337.465
844.463; 4187.048;  -10.203; 8506.283
845.027; 3891.559;   -9.533; 8280.962
845.591; 3938.870;  -13.443; 8231.141
846.156; 3987.951;  -13.143; 7969.179
846.720; 3778.126;   -9.433; 7768.278
847.284; 3686.176;  -11.033; 7630.957
847.848; 3720.350;  -10.403; 7472.395
848.412; 3576.692;  -11.553; 7437.394
848.976; 3459.290;   -8.393; 7674.592
849.540; 3391.414;   -8.713; 7836.011
850.104; 3384.961;  -12.463; 7913.669
850.668; 3497.289;  -12.973; 7694.508
851.232; 3494.352;  -10.793; 7756.887
851.796; 3524.549;  -10.662; 7926.545
852.359; 3633.647;  -13.082; 7827.844
852.923; 3622.274;  -12.192; 7641.163
853.487; 3621.275;  -11.912; 7342.501
854.050; 3471.449;  -10.892; 7042.820
854.614; 3515.598;  -13.992; 7151.338
855.177; 3599.331;  -11.732; 7105.077
855.741; 3477.669;   -8.962; 6989.675
856.304; 3326.175;   -9.442; 6596.634
856.868; 3182.263;  -14.192; 6356.272
857.431; 3126.198;  -12.702; 6468.571
857.995; 3157.549;   -9.942; 6373.210
858.558; 3238.315;   -9.112; 6324.448
859.121; 3140.568;  -12.932; 6408.327
859.684; 3048.385;  -13.442; 6347.886
860.247; 3025.663;  -10.632; 6321.264
860.810; 2973.737;  -11.272; 6301.903
861.374; 2882.320;   -9.832; 6607.881
861.937; 2790.468;  -11.762; 6408.200
862.500; 2789.834;   -9.722; 6572.639
863.062; 2797.661;  -10.512; 6387.297
863.625; 2831.466;  -11.232; 6190.836
864.188; 2890.553;  -14.112; 5807.254
864.751; 2908.260;  -11.302; 5682.413
865.314; 2779.492;  -10.112; 5547.492
865.876; 2609.429;  -12.182; 5500.150
866.439; 2462.864;  -10.722; 5415.909
867.002; 2365.034;   -9.252; 5501.567
867.564; 2419.792;   -9.572; 5413.946
868.127; 2465.874;  -13.142; 5160.325
868.689; 2569.296;  -12.902; 5133.183
869.252; 2707.367;   -9.732; 5252.382
869.814; 2647.265;   -9.432; 5297.141
870.377; 2535.867;  -11.552; 5390.919
870.939; 2499.393;   -9.052; 5599.898
871.501; 2425.694;  -10.982; 5248.336
872.063; 2318.821;  -12.292; 4854.235
872.626; 2265.028;  -14.912; 4817.074
873.188; 2172.138;  -13.112; 4987.732
873.750; 2149.336;  -13.442; 4868.651
874.312; 2142.403;   -9.402; 4779.330
874.874; 2179.926;  -11.062; 4866.348
875.436; 2174.135;  -13.931; 4718.887
875.998; 2129.458;   -9.561; 4660.005
876.560; 2127.083;  -11.321; 4462.964
877.122; 2029.545;  -12.221; 4145.042
877.683; 1797.116;  -12.191; 4056.481
878.245; 1435.157;  -12.101; 3950.740
878.807; 1166.982;   -8.971; 4058.958
879.369; 1056.058;  -12.071; 3954.677
879.930; 1083.195;  -14.621; 3941.495
880.492; 1172.208;  -10.311; 4067.014
881.053; 1277.101;  -10.901; 3859.633
881.615; 1332.433;  -14.411; 3776.071
882.176; 1319.779;  -13.761; 3734.750
882.738; 1292.696;   -9.181; 3678.489
883.299; 1314.338;  -11.791; 3405.407
883.860; 1345.139;  -13.121; 3351.106
884.422; 1310.979;  -11.211; 3394.044
884.983; 1251.545;  -10.091; 3166.443
885.544; 1225.496;   -8.461; 3189.802
886.105; 1173.680;  -12.361; 3160.360
886.666; 1123.101;  -14.141; 3093.059
887.227; 1101.708;  -11.361; 2941.957
887.788; 1050.589;  -11.401; 2974.836
888.349;  958.903;  -13.791; 2721.214
888.910;  917.447;  -13.191; 2696.493
889.471;  885.386;   -9.881; 2560.172
890.032;  894.152;   -9.881; 2558.190
890.593;  888.826;  -10.371; 2567.669
891.153;  807.685;  -13.301; 2460.307
891.714;  702.362;  -11.431; 2372.046
892.275;  658.099;  -11.291; 2309.505
892.835;  669.652;  -11.471; 2382.543
893.396;  663.979;  -11.541; 2295.502
893.956;  637.025;  -11.181; 2162.420
894.517;  594.621;  -11.741; 2125.439
895.077;  539.086;  -11.671; 2086.978
895.638;  499.559;  -11.311; 2126.316
896.198;  486.912;   -9.831; 1838.275
896.758;  473.426;   -8.421; 1892.813
897.319;  452.121;  -12.351; 1792.232
897.879;  433.865;  -13.511; 1762.751
898.439;  402.664;  -12.001; 1661.149
898.999;  381.400;  -10.180; 1781.468
899.559;  375.928;  -12.030; 1703.347
900.119;  366.408;  -15.710; 1537.525
900.679;  351.826;   -8.900; 1638.384
901.239;  331.931;   -8.340; 1527.902
901.799;  304.592;  -13.910; 1456.441
902.359;  282.411;  -13.460; 1357.140
902.919;  275.644;  -11.490; 1331.118
903.479;  276.663;  -12.110; 1317.257
904.038;  271.298;  -11.720; 1262.595
904.598;  260.688;  -13.610; 1152.034
905.158;  251.433;  -11.040; 1240.893
905.717;  235.407;  -10.900; 1233.691
906.277;  225.939;  -15.080; 1217.330
906.836;  222.893;  -13.380; 1222.408
907.396;  220.068;  -10.780; 1193.047
907.955;  211.895;   -8.500; 1182.526
908.515;  207.253;  -12.760; 1099.364
909.074;  206.689;  -11.900; 1092.863
909.633;  206.005;   -8.950; 1069.121
910.192;  203.733;   -8.770; 1196.460
910.752;  193.165;  -12.390; 1029.960
911.311;  182.948;  -13.680; 1009.780
911.870;  173.810;  -12.370;  971.460
912.429;  168.543;  -10.900; 1094.080
912.988;  165.938;  -11.690; 1081.060
913.547;  164.576;  -13.240;  940.380
914.106;  162.826;  -11.990;  999.420
914.665;  160.104;   -9.990;  984.020
915.224;  156.306;  -12.880; 1035.760
915.782;  150.886;  -12.350;  922.560
916.341;  148.748;   -9.110; 1049.840
916.900;  145.108;   -9.270;  925.260
917.458;  143.995;  -13.240;  884.220
918.017;  144.379;  -13.550;  942.600
918.576;  143.084;  -12.320;  904.440
919.134;  141.753;  -11.490;  837.980
919.693;  140.532;  -13.670;  893.060
920.251;  139.547;  -15.470;  876.500
920.809;  140.862;  -11.290;  839.580
921.368;  140.590;  -10.210;  885.360
921.926;  137.350;  -12.140;  842.940
922.484;  135.445;  -13.080;  903.360
923.042;  134.019;  -11.720;  880.340
923.601;  135.213;   -7.480;  998.680
924.159;  133.111;  -11.570;  935.560
924.717;  131.576;  -13.840;  841.080
925.275;  130.702;  -10.640;  903.240
925.833;  129.512;  -11.540;  779.320
926.391;  131.413;  -12.960;  938.380
926.949;  131.602;  -14.130;  857.680
927.506;  130.818;  -11.750;  903.500
928.064;  131.208;  -10.250;  877.580
928.622;  131.574;  -13.030;  880.100
929.180;  133.812;  -13.400;  814.180
929.737;  134.999;  -10.700;  808.540
930.295;  138.183;  -10.070;  928.480
930.853;  138.120;  -11.960;  849.100
931.410;  138.850;  -13.120;  821.120
931.968;  140.017;  -10.770;  940.660
932.525;  141.489;  -10.680;  909.380
933.082;  139.563;  -13.130;  811.440
933.640;  141.022;  -13.210;  925.900
934.197;  140.375;  -11.060;  886.360
934.754;  141.043;   -9.580;  897.780
935.312;  142.531;  -14.000;  863.340
935.869;  144.079;  -10.710; 1012.980
936.426;  141.688;   -9.860;  872.800
936.983;  141.137;   -9.710;  889.020
937.540;  142.719;  -13.990;  838.280
938.097;  146.565;  -14.040;  940.120
938.654;  149.927;  -10.310;  898.860
939.211;  149.838;  -10.560;  952.480
939.768;  150.346;  -13.900;  915.420
940.324;  153.087;  -14.760;  904.200
940.881;  157.360;  -10.370;  878.500
941.438;  160.458;   -8.260; 1021.200
941.995;  159.515;  -12.540;  992.560
942.551;  160.219;  -14.670;  875.620
943.108;  161.462;  -10.450;  937.920
943.664;  161.579;  -10.750;  869.340
944.221;  165.878;  -11.550; 1088.140
944.777;  164.819;  -14.770;  869.680
945.334;  163.081;  -12.820;  884.840
945.890;  158.059;  -10.130;  946.480
946.446;  154.446;  -13.470;  947.020
947.003;  156.698;  -12.120;  964.940
947.559;  157.259;   -9.980; 1063.040
948.115;  154.246;   -9.080; 1026.540
948.671;  151.807;  -10.830;  967.300
949.227;  151.540;  -12.440;  859.560
949.783;  150.460;  -12.910;  858.900
950.339;  154.175;  -10.270;  991.000
950.895;  155.860;  -13.630; 1023.840
951.451;  154.879;  -15.100;  925.280
952.007;  153.077;  -11.330;  998.540
952.563;  149.632;  -10.580;  937.780
953.118;  146.016;  -13.440;  904.940
953.674;  146.014;  -12.710;  935.780
954.230;  147.926;  -10.350;  949.640
954.785;  151.409;   -9.190;  936.640
955.341;  152.460;  -11.200;  998.160
955.897;  148.068;  -16.560;  834.660
956.452;  146.073;  -12.570;  953.840
957.008;  144.053;   -7.970; 1083.640
957.563;  139.040;  -11.940; 1009.540
958.118;  135.177;  -13.450;  877.700
958.674;  134.073;  -12.030;  946.780
959.229;  134.575;   -9.410; 1013.980
959.784;  134.296;  -12.000;  832.400
960.339;  135.236;  -14.780; 1001.280
960.894;  132.777;   -9.860;  963.760
961.449;  129.315;   -9.970;  859.960
962.004;  130.656;  -10.900; 1212.840
962.559;  126.966;  -13.150;  860.140
963.114;  125.952;  -13.740;  742.480
963.669;  124.243;   -9.820;  915.500
964.224;  123.494;  -13.890;  874.340
964.779;  123.958;  -12.600;  828.420
965.334;  123.971;  -10.950; 1017.860
965.888;  122.001;  -11.170;  875.360
966.443;  123.876;  -12.540;  972.380
966.998;  120.549;  -15.780;  819.460
967.552;  120.172;   -9.760;  908.380
968.107;  117.474;   -9.060;  868.300
968.661;  117.516;  -11.950;  922.440
969.216;  115.251;  -12.800;  856.280
969.770;  111.728;  -11.210;  917.200
970.324;  112.580;  -11.610;  923.140
970.879;  113.474;  -11.370;  947.180
971.433;  114.115;  -12.540;  952.720
971.987;  113.107;  -11.320;  895.340
972.541;  111.229;  -10.720;  917.100
973.095;  111.184;   -9.680; 1009.460
973.649;  107.873;  -11.440;  809.480
974.203;  106.348;  -11.210;  829.040
974.757;  105.525;  -10.240;  855.220
975.311;  105.247;  -13.720;  872.600
975.865;  104.659;  -13.770;  881.820
976.419;  102.588;  -11.690;  857.400
976.973;   99.882;   -9.510;  849.620
977.526;   98.614;  -12.620;  949.920
978.080;   95.527;  -12.010;  796.780
978.634;   95.468;  -10.170;  921.320
979.187;   95.250;   -9.020;  905.400
979.741;   97.461;   -9.820; 1018.380
980.294;   95.708;  -14.870;  789.160
980.848;   94.449;  -12.380;  717.220
981.401;   94.931;  -10.350;  816.540
981.955;   93.616;  -13.720;  844.300
982.508;   88.852;  -11.490;  746.340
983.061;   89.147;  -10.000;  915.260
983.615;   88.617;  -11.480;  798.800
984.168;   85.327;  -13.220;  770.080
984.721;   84.393;  -13.960;  880.760
985.274;   83.049;  -10.870;  867.500
985.827;   80.658;   -9.790;  834.220
986.380;   78.235;  -13.120;  721.340
986.933;   77.671;  -12.450;  864.800
987.486;   76.680;  -10.210;  861.920
988.039;   76.857;   -8.430;  863.100
988.591;   76.897;  -10.520;  893.260
989.144;   74.081;  -14.860;  737.260
989.697;   72.637;  -13.080;  758.740
990.250;   72.009;  -10.150;  858.100
990.802;   70.006;  -13.430;  755.860
991.355;   70.124;  -12.750;  974.880
991.907;   68.009;  -12.040;  864.320
992.460;   65.894;  -11.330;  753.760
993.012;   65.389;  -13.610;  749.540
993.565;   63.254;  -13.460;  711.360
994.117;   64.184;   -9.360;  950.780
994.669;   60.963;  -11.300;  701.320
995.221;   61.090;  -13.540;  791.920
995.774;   59.569;  -13.430;  787.580
996.326;   58.079;  -12.520;  740.220
996.878;   57.900;  -10.950;  838.420
997.430;   55.112;  -14.300;  699.860
997.982;   54.193;  -13.760;  750.140
998.534;   53.804;  -11.530;  739.060
999.086;   52.568;  -10.310;  738.220
999.638;   51.410;  -12.530;  661.380
1000.190;   51.100;  -11.840;  699.320
1000.741;   50.294;  -10.260;  742.700
1001.293;   49.559;   -8.860;  686.020
1001.845;   48.846;  -13.700;  676.640
1002.396;   48.752;  -12.100;  743.400
1002.948;   47.807;  -12.760;  737.400
1003.500;   45.565;  -10.380;  723.780
1004.051;   46.995;  -11.900;  907.580
1004.603;   46.036;  -12.250;  791.820
1005.154;   42.713;  -13.210;  608.980
1005.705;   42.602;  -10.950;  723.960
1006.257;   41.500;  -13.880;  707.220
1006.808;   41.052;  -12.840;  685.460
1007.359;   40.258;  -10.570;  763.240
1007.910;   39.105;   -9.620;  646.640
1008.461;   38.578;  -13.630;  732.940
1009.013;   38.098;  -17.200;  588.340
1009.564;   38.927;  -10.200;  793.520
1010.115;   35.836;  -12.570;  597.040
1010.665;   36.796;  -15.150;  602.160
1011.216;   36.926;  -14.480;  667.920
1011.767;   36.435;  -11.340;  697.920
1012.318;   36.516;   -9.780;  736.980
1012.869;   35.232;  -12.380;  679.000
1013.419;   35.213;  -15.560;  603.120
1013.970;   35.724;  -11.010;  666.640
1014.521;   34.974;  -11.610;  620.620
1015.071;   35.102;  -13.450;  670.380
1015.622;   34.693;  -13.870;  635.460
1016.172;   33.779;  -11.610;  596.820
1016.723;   32.775;  -12.120;  614.380
1017.273;   33.372;  -13.620;  604.160
1017.823;   32.991;  -14.140;  650.340
1018.374;   32.268;  -12.800;  611.760
1018.924;   32.779;  -12.340;  716.880
1019.474;   32.892;  -11.410;  718.880
1020.024;   32.071;  -14.770;  657.580
1020.574;   31.880;   -9.780;  726.160
1021.124;   32.308;   -8.560;  673.580
1021.674;   31.070;  -15.190;  559.120
1022.224;   32.176;  -13.530;  708.940
1022.774;   31.478;  -13.280;  668.820
1023.324;   32.015;  -10.690;  753.520
1023.874;   32.837;  -10.240;  875.760
1024.423;   30.518;  -12.540;  613.700
1024.973;   29.820;  -10.010;  610.760
1025.523;   30.528;  -10.550;  620.960
1026.072;   29.636;  -13.560;  606.420
1026.622;   29.294;  -15.120;  675.740
1027.172;   30.289;  -11.260;  715.660
1027.721;   29.255;  -11.410;  601.220
1028.270;   29.735;  -13.530;  663.400
1028.820;   29.163;  -13.680;  638.080
1029.369;   28.755;  -13.520;  612.700
1029.918;   28.730;  -10.980;  649.840
1030.468;   28.645;  -13.530;  564.780
1031.017;   28.893;  -13.170;  634.800
1031.566;   27.059;  -12.200;  608.900
1032.115;   27.621;   -9.960;  694.500
1032.664;   26.317;  -13.210;  596.480
1033.213;   28.272;  -12.500;  735.420
1033.762;   27.669;  -11.910;  635.620
1034.311;   27.620;   -9.640;  677.220
1034.860;   26.982;  -13.310;  691.000
1035.408;   26.649;  -11.830;  722.720
1035.957;   26.909;  -12.000;  719.540
1036.506;   24.804;  -11.690;  530.800
1037.055;   27.327;  -10.990;  844.320
1037.603;   26.409;  -15.120;  664.000
1038.152;   24.284;  -12.450;  534.760
1038.700;   24.370;  -10.560;  585.740
1039.249;   25.719;  -11.080;  681.220
1039.797;   24.699;  -12.540;  633.360
1040.345;   25.269;  -11.920;  705.420
1040.894;   24.640;  -11.410;  625.300
1041.442;   24.028;  -14.320;  632.200
1041.990;   23.529;  -16.240;  559.160
1042.538;   22.710;  -11.680;  536.180
1043.087;   23.604;  -10.760;  570.860
1043.635;   24.419;  -11.850;  670.500
1044.183;   23.534;  -15.480;  586.400
1044.731;   23.590;  -11.770;  576.000
1045.279;   23.053;  -13.090;  674.920
1045.827;   25.638;  -12.440;  892.400
1046.374;   22.557;  -13.840;  515.420
1046.922;   21.598;  -13.220;  590.580
1047.470;   23.108;  -10.230;  691.300
1048.018;   22.565;  -14.590;  647.960
1048.565;   22.910;  -12.050;  708.600
1049.113;   21.706;  -11.650;  557.000
1049.660;   21.106;  -10.510;  629.660
1050.208;   22.002;  -13.310;  675.640
1050.755;   21.339;  -15.900;  606.580
1051.303;   21.822;  -11.430;  686.820
1051.850;   21.363;   -8.480;  635.120
1052.397;   19.113;  -15.010;  473.960
1052.945;   20.495;  -13.960;  617.760
1053.492;   21.703;  -13.150;  741.840
1054.039;   21.776;   -9.630;  720.180
1054.586;   19.484;  -13.680;  557.240
1055.133;   20.912;  -14.570;  693.140
1055.680;   20.502;  -13.820;  646.620
1056.227;   19.340;  -11.730;  542.780
1056.774;   21.258;  -12.480;  794.980
1057.321;   19.658;  -13.930;  523.260
1057.868;   19.630;  -11.690;  651.320
1058.415;   19.851;   -9.520;  651.980
1058.961;   19.671;  -13.160;  678.940
1059.508;   19.224;  -12.920;  643.820
1060.055;   19.338;  -11.920;  581.780
1060.601;   19.540;  -11.500;  624.300
1061.148;   19.002;  -14.330;  616.820
1061.694;   18.191;  -16.870;  592.580
1062.241;   18.470;  -10.330;  596.320
1062.787;   18.433;  -10.620;  663.140
1063.334;   19.466;  -10.110;  808.560
1063.880;   18.815;  -13.400;  668.360
1064.426;   17.900;  -10.680;  706.820
1064.972;   18.079;   -9.920;  601.340
1065.518;   16.622;  -10.980;  566.640
1066.065;   18.021;  -14.890;  624.460
1066.611;   16.649;  -12.870;  598.800
1067.157;   17.603;  -12.950;  641.860
1067.703;   17.696;  -13.540;  668.480
1068.249;   16.956;  -13.540;  605.220
1068.794;   17.032;  -12.600;  626.880
1069.340;   16.068;  -10.620;  578.960
1069.886;   16.656;  -12.830;  590.700
1070.432;   15.483;  -14.870;  541.720
1070.977;   15.227;  -11.980;  601.080
1071.523;   15.670;   -8.200;  573.060
1072.068;   16.237;  -12.330;  582.000
1072.614;   16.033;  -16.370;  527.760
1073.160;   15.606;  -11.100;  687.040
1073.705;   15.421;  -10.480;  572.520
1074.250;   15.084;  -14.520;  559.900
1074.796;   16.265;  -11.460;  655.160
1075.341;   15.771;  -11.950;  664.100
1075.886;   14.659;  -11.460;  594.240
1076.431;   15.371;  -13.770;  649.880
1076.976;   15.149;  -12.680;  639.220
1077.521;   14.581;  -13.170;  583.080
1078.067;   14.003;  -10.860;  579.400
1078.612;   15.224;  -13.920;  661.620
1079.156;   14.841;  -13.880;  601.540
1079.701;   14.681;  -13.120;  693.260
1080.246;   15.141;   -9.940;  696.300
1080.791;   13.443;  -14.740;  625.020
1081.336;   14.854;  -13.750;  659.320
1081.880;   14.000;  -13.400;  649.680
1082.425;   13.551;  -12.220;  573.480
1082.970;   14.073;  -11.610;  717.040
1083.514;   12.882;  -13.580;  597.000
1084.059;   12.484;  -12.810;  586.720
1084.603;   12.880;  -12.320;  565.840
1085.147;   13.384;  -13.190;  645.220
1085.692;   13.652;  -12.480;  716.800
1086.236;   12.327;  -13.020;  503.140
1086.780;   14.105;   -9.190;  751.440
1087.325;   12.802;  -12.480;  654.620
1087.869;   12.379;  -12.450;  610.700
1088.413;   12.912;  -12.240;  705.040
1088.957;   11.386;   -9.020;  543.400
1089.501;   13.274;  -10.320;  766.640
1090.045;   12.782;  -12.720;  726.480
1090.589;   10.857;  -13.690;  569.920
1091.133;   12.256;  -10.020;  673.340
1091.676;   12.174;  -12.330;  591.940
1092.220;   11.791;  -14.970;  600.920
1092.764;   12.460;  -12.430;  706.960
1093.307;   11.523;   -9.800;  673.780
1093.851;   10.237;  -14.970;  556.540
1094.395;   11.810;  -15.310;  683.140
1094.938;   10.685;  -10.370;  632.520
1095.482;   10.994;  -11.050;  559.800
1096.025;   12.115;  -11.840;  710.880
1096.568;   11.941;  -12.840;  779.280
1097.112;    8.886;  -14.700;  508.180
1097.655;   10.944;   -8.720;  603.000
1098.198;    9.937;  -13.610;  600.180
1098.741;    9.335;  -13.350;  612.860
1099.285;   10.464;  -11.230;  657.300
1099.828;    8.768;  -11.840;  439.400
1100.371;    9.493;  -10.840;  608.160
1100.914;   10.104;  -14.190;  682.660
1101.457;    9.519;  -11.240;  679.900
1101.999;    9.154;  -11.270;  584.680
1102.542;    9.339;  -11.480;  641.440
1103.085;    9.794;  -11.750;  658.500
1103.628;   10.200;  -11.400;  762.060
1104.170;    9.096;  -10.490;  588.280
1104.713;    9.290;  -10.600;  646.700
1105.256;    8.479;  -14.360;  557.440
1105.798;    8.050;  -13.210;  499.980
1106.341;    9.458;  -10.270;  728.900
1106.883;    8.742;  -12.200;  521.340
1107.425;    8.751;  -13.110;  668.180
1107.968;    8.523;  -12.840;  612.380
1108.510;    8.746;   -6.480;  684.960
1109.052;    7.634;  -13.940;  612.620
1109.594;    7.451;  -13.690;  554.440
1110.136;    8.516;  -11.880;  643.220
1110.679;    7.703;   -9.500;  633.080
1111.221;    7.454;  -14.160;  604.460
1111.763;    6.811;  -13.980;  559.220
1112.304;    6.796;  -13.880;  547.140
1112.846;    7.832;  -12.210;  666.240
1113.388;    9.959;  -11.390;  942.180
1113.930;    7.203;  -14.540;  694.200
1114.472;    6.819;  -12.640;  606.540
1115.013;    5.993;  -11.620;  551.280
1115.555;    6.306;  -13.640;  587.100
1116.097;    6.095;  -15.380;  579.480
1116.638;    7.340;  -12.640;  684.600
1117.180;    7.287;   -9.850;  667.740
1117.721;    7.032;  -13.690;  568.580
1118.262;    7.116;  -12.680;  677.960
1118.804;    6.743;  -12.530;  637.340
1119.345;    5.381;  -11.690;  578.400
1119.886;    6.517;  -13.380;  704.040
1120.427;    5.760;  -14.070;  589.020
1120.969;    4.831;  -13.500;  597.920
1121.510;    4.986;  -11.480;  563.060
1122.051;    6.656;  -12.830;  723.580
1122.592;    5.709;  -14.290;  655.420
1123.133;    4.117;  -12.400;  547.940
1123.673;    5.871;  -10.130;  706.480
1124.214;    5.581;  -12.930;  612.460
1124.755;    5.258;  -14.380;  639.460
1125.296;    5.090;  -14.000;  627.320
1125.836;    6.241;  -10.070;  691.500
1126.377;    4.353;  -12.640;  599.660
1126.918;    5.126;  -12.960;  614.980
1127.458;    4.525;  -13.350;  622.220
1127.999;    4.968;  -10.750;  656.980
1128.539;    5.661;  -12.350;  694.240
1129.079;    4.791;  -14.860;  632.720
1129.620;    3.329;  -13.840;  558.100
1130.160;    4.410;  -12.330;  539.480
1130.700;    4.620;  -14.530;  640.840
1131.240;    4.477;  -12.530;  643.700
1131.781;    3.629;  -14.450;  619.680
1132.321;    3.677;   -9.790;  599.120
1132.861;    3.362;  -14.860;  564.200
1133.401;    2.661;  -14.290;  593.940
1133.941;    4.576;  -11.750;  626.280
1134.481;    3.084;   -9.920;  597.580
1135.020;    3.455;  -12.290;  609.160
1135.560;    3.641;  -11.650;  674.940
1136.100;    2.810;  -16.270;  501.160
1136.640;    2.067;  -10.890;  510.480
1137.179;    3.229;  -14.180;  537.960
1137.719;    3.198;  -16.250;  605.400
1138.258;    3.079;  -14.230;  587.360
1138.798;    3.878;   -9.090;  663.780
1139.337;    1.930;  -15.130;  482.840
1139.877;    2.763;  -13.680;  642.360
1140.416;    4.327;  -11.320;  878.060
1140.955;    1.964;  -10.860;  535.380
1141.494;    2.991;  -12.920;  669.280
1142.034;    2.275;  -13.930;  583.520
1142.573;    3.135;  -11.440;  646.280
1143.112;    1.800;  -12.000;  553.480
1143.651;    1.913;  -13.670;  536.480
1144.190;    2.809;  -12.730;  691.640
1144.729;    2.001;  -14.560;  607.420
1145.267;    1.682;  -11.830;  584.900
1145.806;    2.057;  -12.230;  637.040
1146.345;    1.428;  -14.130;  635.020
1146.884;    1.924;  -11.590;  622.500
1147.422;    0.907;  -12.550;  533.060
1147.961;    2.392;  -11.180;  708.460
1148.500;    2.834;  -11.510;  669.720
1149.038;    2.010;  -11.640;  632.500
1149.577;    1.644;  -10.130;  698.640
1150.115;   -0.294;  -13.970;  452.280
1150.653;    1.645;  -14.520;  607.340
1151.192;    0.878;  -12.810;  552.920
1151.730;    1.088;   -9.100;  652.560
1152.268;    1.107;  -12.220;  589.520
1152.806;    0.362;  -14.140;  571.180
1153.344;    0.116;  -12.350;  577.640
1153.882;    0.702;   -8.980;  600.060
1154.421;   -0.233;  -15.190;  470.620
1154.958;   -0.015;  -15.210;  595.240
1155.496;    1.552;  -12.850;  645.280
1156.034;    0.708;   -9.940;  721.880
1156.572;    1.311;  -13.570;  667.060
1157.110;    0.059;  -14.590;  473.940
1157.647;    0.764;  -13.030;  676.960
1158.185;   -0.701;  -12.140;  564.320
1158.723;   -1.128;  -14.390;  509.200
1159.260;    0.548;  -14.090;  701.700
1159.798;    0.242;  -11.920;  658.160
1160.335;    0.292;  -11.110;  631.820

