
Integration time [ms]:   3.276
Averaging Nr. [scans]: 1000
Smoothing Nr. [pixels]: 0
Data measured with spectrometer [name]: 7414430SP
Wave   ;Sample   ;Dark     ;Reference
[nm]   ;[counts] ;[counts] ;[counts] 

288.544;  152.916;    7.793;  793.890
289.143;  156.703;    7.462;  681.602
289.742;  157.528;    8.602;  828.814
290.341;  144.567;    1.321;  789.841
290.940;  134.665;   -0.709;  730.702
291.538;  135.789;    0.881;  881.108
292.137;  135.125;    0.122;  792.581
292.736;  138.260;   -1.929;  975.101
293.335;  135.119;   -8.229;  735.086
293.934;  134.720;   -5.279;  781.677
294.532;  135.145;   -1.369; 1031.958
295.131;  121.298;   -7.641;  834.394
295.730;  121.435;   -8.420;  809.588
296.328;  120.060;   -5.611;  783.442
296.927;  119.843;   -5.781;  779.652
297.525;  119.645;   -6.361;  781.236
298.124;  109.483;  -11.382;  654.009
298.722;  115.486;   -7.641;  761.933
299.321;  113.779;   -6.811;  708.597
299.919;  111.327;   -6.991;  751.918
300.518;  107.522;  -10.362;  689.338
301.116;  108.221;   -9.581;  691.381
301.715;  108.003;   -4.891;  730.222
302.313;  108.315;   -8.801;  704.943
302.911;  103.483;   -8.522;  733.830
303.509;  107.893;   -6.171;  925.627
304.108;  104.639;   -7.311;  760.383
304.706;  104.941;   -8.321;  801.664
305.304;   99.818;  -10.222;  796.707
305.902;  104.817;   -6.021;  784.484
306.500;  100.305;   -4.971;  728.200
307.098;   98.443;   -7.061;  746.560
307.696;   96.945;   -8.801;  780.432
308.294;   97.993;   -6.411;  731.359
308.892;   99.477;   -2.901;  759.769
309.490;   94.919;   -5.041;  712.161
310.088;   92.493;   -5.002;  788.444
310.686;   97.758;   -2.041;  821.749
311.284;   93.566;   -2.351;  766.040
311.882;   90.952;   -4.422;  731.225
312.480;   87.714;   -4.192;  697.167
313.078;   89.204;   -1.172;  808.331
313.675;   90.111;   -2.601;  691.600
314.273;   84.676;   -1.312;  797.837
314.871;   84.543;   -3.942;  589.829
315.468;   83.076;   -2.802;  652.090
316.066;   85.539;   -0.701;  694.427
316.664;   77.660;   -4.362;  656.351
317.261;   81.547;   -2.872;  910.128
317.859;   77.272;   -2.022;  768.735
318.456;   77.488;   -0.531;  830.096
319.054;   73.794;   -3.912;  787.828
319.651;   73.074;   -4.752;  759.928
320.249;   71.735;   -2.602;  810.188
320.846;   69.142;   -0.821;  714.286
321.443;   67.030;   -4.642;  832.135
322.041;   63.519;   -5.002;  812.315
322.638;   61.534;   -3.982;  701.456
323.235;   63.239;   -3.411;  665.683
323.833;   59.874;   -7.361;  740.354
324.430;   54.550;   -8.611;  615.900
325.027;   55.402;   -4.061;  876.855
325.624;   55.395;   -4.031;  644.532
326.221;   53.433;   -7.481;  689.717
326.818;   52.181;   -5.281;  818.332
327.415;   54.137;   -7.460;  748.828
328.012;   54.577;   -5.510;  690.585
328.609;   52.823;   -7.880;  731.389
329.206;   50.484;   -8.331;  778.621
329.803;   51.642;   -5.121;  737.841
330.400;   54.427;   -4.510;  704.260
330.997;   56.075;   -6.441;  817.147
331.594;   54.193;   -8.831;  788.185
332.191;   59.293;   -7.621;  728.722
332.787;   62.004;   -4.591;  844.463
333.384;   61.745;   -7.412;  763.093
333.981;   59.976;   -8.293;  815.687
334.578;   62.547;   -7.052;  708.378
335.174;   64.880;   -3.102;  731.469
335.771;   64.270;   -5.943;  836.456
336.367;   61.456;   -7.393;  710.631
336.964;   64.389;   -4.063;  793.266
337.561;   63.369;   -3.813;  731.112
338.157;   58.994;   -4.654;  911.916
338.754;   57.887;   -7.934;  796.589
339.350;   56.426;   -4.414;  722.493
339.946;   57.175;   -4.664;  773.135
340.543;   49.915;   -6.375;  846.136
341.139;   44.282;   -9.815;  720.836
341.735;   40.740;   -4.526;  772.593
342.332;   40.814;   -4.895;  691.472
342.928;   41.013;   -4.295;  795.394
343.524;   34.744;   -5.476;  761.684
344.120;   30.818;   -5.856;  738.562
344.716;   34.218;   -2.155;  723.717
345.313;   31.519;   -6.275;  795.342
345.909;   26.061;   -8.815;  627.336
346.505;   27.993;   -5.305;  740.247
347.101;   29.065;   -2.674;  827.864
347.697;   28.623;   -4.344;  785.398
348.293;   23.661;   -9.975;  627.244
348.889;   24.326;   -5.774;  745.914
349.485;   23.797;   -5.004;  688.205
350.081;   24.551;   -4.704;  772.592
350.676;   18.803;   -6.635;  691.606
351.272;   23.579;   -4.504;  809.530
351.868;   22.740;   -3.914;  780.497
352.464;   20.201;   -9.044;  723.932
353.059;   17.042;   -8.314;  646.017
353.655;   20.678;   -7.024;  777.063
354.251;   20.690;   -5.343;  759.845
354.846;   15.442;   -8.604;  740.646
355.442;   13.266;   -6.945;  753.071
356.038;   15.651;   -7.564;  751.708
356.633;   15.174;   -5.814;  728.594
357.229;   13.404;   -7.364;  724.757
357.824;   10.997;   -8.024;  703.600
358.420;   10.976;   -9.384;  679.726
359.015;   11.535;   -5.104;  695.357
359.610;   13.070;   -6.854;  763.920
360.206;    6.621;  -10.185;  603.240
360.801;    9.097;   -7.054;  646.503
361.396;   10.998;   -5.034;  725.975
361.992;    6.876;   -8.284;  668.220
362.587;    4.491;   -8.625;  670.160
363.182;    6.079;   -7.674;  689.631
363.777;    6.790;   -5.164;  738.242
364.372;    6.587;   -8.604;  737.314
364.967;    2.557;   -9.055;  680.744
365.563;    6.761;   -6.114;  815.567
366.158;    3.849;   -5.814;  685.161
366.753;    4.434;   -7.854;  649.263
367.348;    1.824;   -7.804;  746.056
367.942;    2.811;   -7.954;  697.298
368.537;    1.468;   -4.984;  754.245
369.132;    2.152;   -8.564;  703.428
369.727;   -1.900;   -8.855;  638.079
370.322;   -1.496;   -6.245;  580.186
370.917;   -1.522;   -6.425;  710.646
371.511;    1.260;   -6.294;  861.834
372.106;   -2.081;   -7.685;  776.964
372.701;   -4.866;   -7.335;  585.988
373.296;    1.003;   -4.564;  863.135
373.890;   -4.153;  -10.235;  647.840
374.485;   -5.909;   -7.885;  691.199
375.079;   -2.410;   -7.324;  738.685
375.674;    0.049;   -3.494;  812.970
376.268;   -5.166;   -8.525;  691.759
376.863;  -11.029;  -10.086;  580.327
377.457;   -5.066;   -7.025;  662.490
378.052;   -7.049;   -3.585;  764.884
378.646;   -7.505;   -7.595;  741.167
379.240;   -8.245;   -8.335;  721.176
379.835;   -7.330;   -5.785;  636.978
380.429;   -8.727;   -4.335;  562.557
381.023;   -9.610;   -6.805;  779.205
381.617;  -11.691;   -9.195;  680.106
382.212;   -8.265;   -6.905;  685.303
382.806;   -7.564;   -3.745;  760.690
383.400;  -12.231;   -7.745;  672.281
383.994;  -12.693;   -9.765;  664.870
384.588;   -8.289;   -6.564;  697.701
385.182;   -7.751;   -5.344;  726.624
385.776;   -9.346;   -8.514;  706.875
386.370;  -12.266;   -9.555;  681.968
386.964;  -10.971;   -8.715;  684.155
387.558;   -9.108;   -6.174;  598.360
388.152;  -12.909;   -8.725;  681.959
388.745;  -11.285;   -7.965;  814.707
389.339;   -9.609;   -5.924;  747.642
389.933;   -9.372;   -5.524;  695.370
390.527;   -9.432;   -7.114;  859.029
391.120;  -15.389;  -10.725;  595.318
391.714;  -13.066;   -8.035;  711.633
392.308;   -9.867;   -3.574;  780.253
392.901;  -13.171;   -7.245;  642.460
393.495;  -15.840;   -9.285;  595.414
394.089;  -13.354;   -5.895;  760.452
394.682;  -13.599;   -4.295;  697.188
395.275;  -14.371;   -9.875;  719.927
395.869;  -15.702;   -8.485;  667.314
396.462;  -14.113;   -7.455;  616.609
397.056;  -10.354;   -5.424;  776.621
397.649;  -15.083;   -6.605;  731.575
398.242;  -12.624;   -8.224;  712.645
398.836;  -11.963;   -7.474;  766.408
399.429;  -13.205;   -7.094;  631.041
400.022;  -16.675;   -9.475;  665.902
400.615;  -13.903;   -7.145;  805.609
401.208;  -11.812;   -7.174;  691.451
401.802;  -14.115;   -5.515;  699.329
402.395;  -15.907;   -9.875;  683.502
402.988;  -16.376;   -8.845;  696.627
403.581;  -13.187;   -8.874;  646.878
404.174;  -10.897;   -5.324;  686.568
404.767;  -14.006;   -9.575;  638.583
405.360;  -16.194;  -10.965;  621.445
405.953;  -10.884;   -8.764;  759.034
406.545;  -10.340;   -7.514;  725.342
407.138;  -14.388;  -10.025;  618.350
407.731;  -12.934;  -10.034;  613.303
408.324;   -9.832;   -9.374;  660.554
408.917;  -10.508;   -6.534;  681.864
409.509;  -12.076;   -8.004;  740.396
410.102;  -14.955;   -9.875;  643.948
410.695;   -8.456;   -8.604;  665.758
411.287;   -9.141;   -6.794;  599.821
411.880;  -10.413;   -9.334;  585.421
412.472;  -14.301;  -10.254;  613.092
413.065;  -10.135;   -6.714;  629.408
413.657;   -8.951;   -7.234;  576.678
414.250;   -7.624;  -10.544;  646.681
414.842;  -10.794;   -9.744;  676.353
415.434;   -7.920;   -6.994;  570.463
416.027;   -3.950;   -5.893;  652.196
416.619;   -6.490;   -7.264;  713.400
417.211;   -7.024;  -10.374;  599.352
417.804;   -2.221;   -7.993;  628.499
418.396;   -6.726;   -7.234;  607.643
418.988;   -4.844;   -9.443;  659.238
419.580;   -8.142;  -10.724;  568.276
420.172;   -6.224;  -10.323;  536.196
420.764;   -2.132;   -8.793;  672.482
421.356;   -3.223;  -11.143;  636.898
421.948;   -3.942;   -8.293;  677.661
422.540;    0.376;   -7.893;  680.027
423.132;    0.719;   -7.082;  600.641
423.724;   -3.632;   -8.653;  561.267
424.316;   -1.296;  -10.213;  621.345
424.908;    1.668;   -9.762;  591.517
425.500;    2.696;   -5.572;  647.978
426.092;    3.045;   -8.422;  648.268
426.683;    2.455;   -9.283;  684.836
427.275;    5.585;   -7.852;  641.471
427.867;    6.359;   -5.272;  668.948
428.458;    6.900;   -7.682;  732.344
429.050;    5.197;  -10.612;  680.749
429.642;    6.829;   -9.882;  743.124
430.233;    7.525;   -6.962;  569.356
430.825;    9.061;   -6.842;  724.809
431.416;    6.766;   -9.672;  698.241
432.008;   10.157;   -6.552;  651.723
432.599;   10.468;   -6.891;  656.073
433.190;    7.843;  -10.912;  637.670
433.782;    6.961;  -11.172;  590.395
434.373;   14.584;   -6.061;  884.765
434.964;   13.158;   -8.251;  602.920
435.556;   10.840;   -9.722;  634.537
436.147;   13.227;   -9.082;  758.490
436.738;   13.071;   -8.041;  701.099
437.329;   18.524;   -7.341;  721.723
437.920;   11.361;   -8.162;  666.688
438.511;   11.586;  -11.802;  564.526
439.103;   18.348;  -10.191;  623.998
439.694;   20.345;   -7.601;  681.583
440.285;   20.398;   -8.541;  764.432
440.876;   18.279;   -9.751;  845.738
441.466;   19.228;   -9.401;  575.162
442.057;   23.841;   -7.760;  665.814
442.648;   21.941;   -9.971;  746.255
443.239;   20.732;  -11.001;  620.477
443.830;   25.394;   -7.990;  704.958
444.421;   27.243;   -7.910;  655.474
445.011;   23.207;   -8.131;  693.619
445.602;   23.777;   -7.111;  743.126
446.193;   25.212;  -10.920;  488.117
446.783;   29.740;   -6.500;  640.397
447.374;   25.214;   -8.671;  692.759
447.964;   25.482;  -10.781;  713.770
448.555;   34.350;   -9.650;  822.742
449.145;   30.938;   -8.660;  662.853
449.736;   30.964;   -8.990;  803.179
450.326;   30.754;   -9.500;  713.626
450.917;   35.893;   -8.680;  675.324
451.507;   34.386;   -7.520;  600.661
452.097;   35.894;   -8.590;  746.267
452.688;   36.069;  -11.340;  742.160
453.278;   35.967;  -10.100;  566.840
453.868;   40.758;   -6.019;  793.550
454.458;   38.396;   -9.440;  651.141
455.048;   38.801;  -10.560;  711.783
455.639;   40.533;  -11.799;  567.096
456.229;   43.898;   -6.899;  710.694
456.819;   46.318;   -7.389;  751.158
457.409;   45.756;  -11.119;  773.993
457.999;   48.924;   -9.289;  737.505
458.589;   48.826;   -6.139;  686.606
459.179;   48.004;   -8.729;  717.658
459.769;   46.629;   -9.789;  627.099
460.358;   51.524;  -10.259;  797.262
460.948;   51.316;   -7.299;  689.503
461.538;   52.457;  -10.289;  660.677
462.128;   50.592;  -11.269;  664.934
462.717;   57.315;   -9.368;  710.326
463.307;   60.285;   -7.908;  705.846
463.897;   55.095;   -9.599;  656.942
464.486;   55.410;   -9.769;  837.128
465.076;   59.426;   -8.048;  733.776
465.666;   62.824;   -9.358;  652.900
466.255;   61.285;   -7.919;  785.651
466.845;   59.817;  -11.689;  666.749
467.434;   63.532;   -7.818;  725.873
468.023;   64.173;   -7.678;  658.357
468.613;   61.563;  -10.939;  713.946
469.202;   65.953;  -10.118;  646.507
469.791;   70.878;   -9.108;  737.811
470.381;   71.869;   -6.058;  742.813
470.970;   70.880;  -10.428;  711.099
471.559;   71.331;  -10.268;  733.291
472.148;   74.627;   -8.448;  675.737
472.738;   76.405;   -6.917;  765.466
473.327;   76.113;  -11.978;  637.529
473.916;   75.518;  -11.888;  737.446
474.505;   80.189;   -9.437;  751.703
475.094;   83.124;   -6.747;  806.570
475.683;   82.210;   -9.367;  797.699
476.272;   84.608;  -12.637;  730.632
476.861;   86.788;  -10.027;  706.754
477.449;   92.694;   -8.716;  728.487
478.038;   86.659;   -9.577;  692.513
478.627;   89.064;   -9.718;  714.852
479.216;   95.018;   -8.947;  769.441
479.805;   98.112;   -6.256;  783.375
480.393;   97.738;   -7.937; 1008.945
480.982;   97.289;   -7.717;  874.501
481.571;  103.573;   -9.266;  858.333
482.159;  104.350;   -7.636;  705.386
482.748;  104.068;   -9.667;  821.385
483.336;  108.528;  -10.376;  858.209
483.925;  109.470;   -7.147;  774.373
484.513;  116.640;   -7.996;  758.962
485.102;  113.267;  -10.027;  810.965
485.690;  121.408;  -10.446; 1011.050
486.278;  123.369;   -8.446;  979.329
486.867;  124.170;   -6.356;  809.662
487.455;  125.774;   -9.136;  898.229
488.043;  128.761;  -10.646;  748.361
488.631;  137.480;   -7.456; 1005.079
489.220;  141.943;   -6.636;  908.626
489.808;  143.278;  -11.036;  741.415
490.396;  150.803;  -10.246;  914.645
490.984;  159.772;   -8.556;  830.161
491.572;  172.325;   -5.886;  940.315
492.160;  180.899;   -9.486;  919.081
492.748;  194.398;  -10.976;  884.341
493.336;  220.034;   -8.776; 1019.693
493.924;  257.524;   -5.465;  958.077
494.512;  303.025;   -9.986; 1066.638
495.100;  355.366;  -10.636; 1103.280
495.687;  435.160;  -10.885; 1206.373
496.275;  532.186;   -8.126; 1150.796
496.863;  623.869;  -10.586; 1281.171
497.451;  755.989;  -11.926; 1386.805
498.038;  874.876;  -10.885; 1556.729
498.626; 1021.845;   -6.315; 1741.407
499.214; 1272.501;   -7.326; 2016.609
499.801; 1553.749;  -11.906; 2220.633
500.389; 1903.004;  -10.466; 2312.494
500.976; 2212.161;   -5.236; 2744.849
501.564; 2765.836;   -8.936; 3148.565
502.151; 3465.213;  -13.176; 3515.999
502.738; 3901.337;  -10.646; 3971.274
503.326; 4323.368;   -9.525; 4403.796
503.913; 4746.805;  -10.856; 5161.749
504.500; 5305.184;  -11.586; 5986.420
505.088; 5952.002;  -10.336; 6381.201
505.675; 6887.518;   -6.355; 6925.547
506.262; 7414.631;   -9.046; 7619.060
506.849; 7882.109;  -10.416; 8733.969
507.436; 8488.542;  -10.305; 9790.121
508.023; 8957.111;   -5.496; 9985.472
508.610; 8963.229;   -7.856;10434.618
509.197; 9816.046;  -10.097;11198.435
509.784;11230.559;  -10.886;12391.194
510.371;12662.926;   -9.315;13603.713
510.958;13892.054;   -9.936;14426.586
511.545;14682.900;   -9.326;15243.775
512.132;14750.875;  -10.075;15945.876
512.719;15131.056;   -7.796;16340.369
513.305;16421.463;  -10.606;18011.766
513.892;17997.891;  -11.486;19754.971
514.479;19250.359;   -9.126;20967.805
515.066;20406.824;   -6.026;22299.793
515.652;20124.313;   -8.466;22908.660
516.239;20513.301;  -10.886;23798.875
516.825;22002.014;  -11.496;25567.275
517.412;23692.545;   -5.796;28154.959
517.998;24859.316;  -10.506;28344.111
518.585;25629.193;  -10.076;27134.219
519.171;25057.717;   -8.315;27268.576
519.758;25920.434;   -8.596;28964.129
520.344;28333.637;   -8.466;30664.494
520.930;27343.740;  -11.006;32550.605
521.516;25536.086;  -10.495;35422.895
522.103;27519.459;   -5.526;38280.004
522.689;30065.848;   -8.746;37835.117
523.275;30704.201;  -11.376;37288.613
523.861;32599.576;  -11.156;37281.395
524.447;32367.875;   -8.135;37846.949
525.033;32554.871;   -7.896;38321.949
525.619;33195.105;  -12.476;38579.285
526.205;33147.262;   -9.516;40622.875
526.791;32423.945;   -6.926;42258.836
527.377;32210.852;   -8.346;42966.902
527.963;33900.879;   -8.717;42018.949
528.549;35501.402;  -11.016;42476.828
529.135;33843.777;   -8.536;41854.852
529.721;33863.027;   -9.666;41237.711
530.306;32907.277;  -10.066;41259.445
530.892;33614.250;  -11.356;41506.047
531.478;35221.645;   -6.596;43559.613
532.063;36809.051;   -8.836;47695.563
532.649;35459.570;  -10.047;50808.324
533.235;36260.305;   -9.746;51787.500
533.820;38145.637;   -6.566;52145.035
534.406;39680.535;  -10.817;51133.488
534.991;41584.488;   -9.416;49996.805
535.576;40113.094;   -9.036;48882.852
536.162;37190.551;   -6.156;46942.285
536.747;37634.695;  -11.607;45711.746
537.333;40311.270;  -11.787;48510.180
537.918;41097.750;  -12.437;50439.891
538.503;40550.137;   -7.196;50863.711
539.088;41131.363;  -10.556;50906.922
539.673;41940.656;   -8.767;52621.965
540.259;38879.785;  -10.026;52368.094
540.844;38499.664;   -7.416;50879.109
541.429;38385.426;   -9.467;52077.777
542.014;37456.383;   -9.527;52716.695
542.599;40229.773;   -9.946;52363.281
543.184;41576.234;   -7.927;53187.137
543.769;42071.359;   -9.297;54697.605
544.354;42773.648;  -10.127;53913.914
544.938;40659.301;   -9.267;49680.164
545.523;38682.406;   -6.506;47386.277
546.108;40334.164;   -9.787;49151.949
546.693;41049.313;  -11.587;51384.637
547.278;41569.027;  -10.986;51853.254
547.862;42342.973;   -8.206;51173.750
548.447;40756.961;  -10.067;51691.395
549.031;40357.648;   -9.637;52456.703
549.616;40610.102;   -9.926;52714.516
550.201;39810.805;   -6.347;52414.598
550.785;40469.652;   -7.917;52355.059
551.370;41418.074;  -10.867;54589.453
551.954;43831.305;   -9.047;58267.348
552.538;43193.734;   -7.827;59062.176
553.123;41167.910;  -10.287;58115.285
553.707;39611.660;  -12.178;56556.285
554.291;37427.602;   -8.717;56201.668
554.876;39107.078;   -7.457;55335.762
555.460;41462.859;  -10.387;54155.703
556.044;43031.285;   -9.618;53721.484
556.628;43338.785;  -11.567;53731.016
557.212;44103.660;   -8.097;54312.531
557.796;46608.719;  -11.077;53797.773
558.380;44875.477;  -11.108;56145.984
558.964;42773.613;   -9.057;57277.930
559.548;40217.238;   -6.977;56459.641
560.132;37197.625;  -11.457;54434.543
560.716;38787.891;  -11.378;54800.617
561.300;40947.344;   -9.577;57606.945
561.884;39626.461;   -7.127;58972.445
562.467;38668.215;   -7.118;57327.570
563.051;37192.492;  -13.358;54962.434
563.635;35047.195;  -10.178;52594.473
564.219;36780.910;   -7.837;50610.410
564.802;40484.512;  -11.398;49551.180
565.386;41447.520;  -12.788;48370.953
565.969;42233.430;   -9.077;48178.871
566.553;41398.594;   -6.207;49957.305
567.136;39989.848;   -8.568;50369.594
567.720;40669.488;  -11.868;49492.004
568.303;41632.586;   -8.268;50616.352
568.887;41430.668;   -8.698;50727.148
569.470;39223.055;   -6.808;51698.379
570.053;36479.445;  -13.188;52122.078
570.637;34061.387;  -12.037;52536.438
571.220;34369.789;   -8.577;51186.098
571.803;34570.875;   -8.498;51032.762
572.386;36545.020;  -10.498;49609.887
572.969;37313.973;   -9.388;48285.926
573.552;37216.297;   -8.338;47624.285
574.135;35677.723;   -8.518;45498.641
574.718;32130.748;  -13.628;41970.434
575.301;33231.320;  -10.893;41447.137
575.884;34331.891;   -8.158;40923.836
576.467;39062.395;  -10.328;45267.723
577.050;39635.934;  -13.058;48175.543
577.633;38082.875;   -9.458;47729.328
578.216;34844.121;   -8.928;47579.793
578.799;32999.852;   -9.358;47820.996
579.381;34329.805;  -11.388;48115.551
579.964;34272.582;  -11.718;47333.766
580.547;32920.094;   -8.588;46668.969
581.129;33679.262;   -8.859;44466.141
581.712;35521.035;  -10.729;44164.922
582.294;35388.926;  -11.118;46477.855
582.877;35994.473;   -5.218;48244.254
583.459;36162.922;   -8.679;47437.895
584.042;37707.832;  -10.709;46943.219
584.624;36130.609;  -11.669;46792.227
585.206;34941.785;   -8.218;46557.250
585.789;35835.844;  -10.569;45793.773
586.371;36418.684;  -11.859;43836.391
586.953;37468.551;  -10.719;42972.492
587.536;38714.664;   -7.198;42487.211
588.118;37684.289;   -8.720;42086.414
588.700;36567.043;  -10.439;43389.930
589.282;33799.223;   -9.198;43646.039
589.864;31361.102;   -9.199;43438.109
590.446;31201.566;  -11.319;43151.926
591.028;30695.271;  -11.159;42781.867
591.610;30137.207;  -11.779;42839.098
592.192;30612.912;   -7.668;42820.402
592.774;28954.574;  -11.949;40724.277
593.356;25937.578;  -12.129;39874.789
593.937;25909.734;  -10.669;39980.648
594.519;29865.727;   -6.509;42069.633
595.101;31803.869;  -10.849;42976.031
595.683;31392.801;  -11.679;44084.441
596.264;31093.504;   -9.049;43478.797
596.846;30923.428;   -8.849;43803.672
597.427;30700.398;   -9.570;42986.934
598.009;32638.539;  -12.620;42832.219
598.591;32766.322;  -10.039;42580.086
599.172;34764.047;  -10.369;43061.805
599.753;36803.977;   -9.140;41691.469
600.335;36138.656;  -11.430;40692.520
600.916;33748.168;   -9.939;39982.422
601.498;30727.512;   -8.479;40318.617
602.079;30141.373;  -10.920;40670.609
602.660;29943.086;  -11.480;41450.898
603.241;30803.924;  -11.699;41137.738
603.823;31238.643;   -9.579;38868.797
604.404;31073.277;  -10.620;38182.785
604.985;33756.531;  -10.450;38078.047
605.566;34498.227;   -9.129;38056.633
606.147;35219.688;   -7.510;37020.418
606.728;33931.852;  -10.660;37883.359
607.309;32018.305;  -11.740;38748.273
607.890;31854.492;   -9.759;38850.230
608.471;30573.143;   -8.250;37457.918
609.051;30366.861;   -9.240;36066.457
609.632;29814.289;  -12.120;35991.074
610.213;29588.020;   -9.110;37402.641
610.794;31003.715;   -8.030;38383.363
611.374;29919.922;   -8.110;40562.387
611.955;29878.471;  -13.560;38533.727
612.536;30845.592;  -11.400;36951.789
613.116;30268.242;   -8.070;37197.891
613.697;31087.662;  -10.830;38411.125
614.277;30722.732;  -11.641;38673.938
614.858;30145.053;  -13.310;37075.863
615.438;30155.152;   -7.460;35092.906
616.019;28400.893;   -7.601;33666.301
616.599;29127.553;  -12.020;34189.023
617.179;28982.258;  -11.780;36952.047
617.760;27988.275;   -8.570;39582.574
618.340;28061.418;  -11.471;38943.977
618.920;28159.748;  -11.170;37594.156
619.500;29295.701;  -11.071;37866.938
620.080;29955.783;   -7.750;37869.043
620.660;30621.309;  -12.711;36868.617
621.241;31308.576;  -10.211;36352.309
621.821;30161.191;  -10.961;35459.520
622.401;30176.768;   -7.720;35207.414
622.980;32342.076;   -8.981;35980.422
623.560;31042.965;   -9.331;37351.328
624.140;26958.541;   -9.850;34388.582
624.720;22965.180;   -7.451;32368.764
625.300;22599.961;   -9.070;32638.629
625.880;26696.197;  -12.601;34599.035
626.459;30055.936;  -11.751;36831.738
627.039;29870.920;   -9.281;38299.098
627.619;29008.701;   -8.801;38289.574
628.198;29351.223;  -12.071;37220.695
628.778;29839.357;   -9.461;37632.563
629.357;30251.727;   -8.491;38003.012
629.937;29973.936;   -9.721;38402.039
630.516;30841.088;   -9.951;37868.801
631.096;32506.699;  -11.731;35760.410
631.675;34993.375;   -8.572;35225.219
632.254;34596.633;  -11.282;35130.289
632.834;33117.496;  -13.322;35794.570
633.413;33784.348;  -10.301;35788.922
633.992;33799.902;   -8.582;34532.863
634.571;34252.219;   -8.352;33590.113
635.151;33485.625;  -11.912;34943.863
635.730;31804.889;  -10.511;35352.523
636.309;31852.568;   -7.731;35366.605
636.888;31565.695;   -9.952;36165.637
637.467;30661.459;  -11.672;37515.902
638.046;29063.943;   -8.901;39288.695
638.625;28236.393;   -7.912;38279.699
639.204;27553.600;  -10.022;37741.598
639.782;29118.018;  -12.252;38364.551
640.361;31219.729;  -10.041;36740.621
640.940;30812.537;  -11.161;34950.082
641.519;30329.492;   -9.701;34137.398
642.097;31624.225;  -11.271;35654.258
642.676;31550.342;   -8.651;35637.957
643.255;30367.283;   -8.711;36567.074
643.833;30150.463;   -9.581;37809.434
644.412;30860.045;  -13.711;37337.293
644.990;32334.477;  -11.811;37018.531
645.569;35035.602;   -9.411;36518.469
646.147;35876.520;  -10.291;36186.430
646.726;34260.223;  -12.401;36267.688
647.304;32834.500;  -10.411;36647.625
647.882;33328.930;   -9.651;39286.742
648.461;32807.813;   -9.631;39157.703
649.039;30367.770;  -11.881;35412.883
649.617;30378.174;   -9.661;34744.918
650.195;30879.475;   -9.301;35403.098
650.773;30064.309;  -10.511;35053.797
651.352;30270.676;  -11.521;33756.816
651.930;29496.346;  -12.211;31868.773
652.508;28520.305;   -9.171;33121.551
653.086;29876.359;   -9.371;33564.793
653.663;31837.615;  -13.161;34054.668
654.241;30314.354;  -13.031;35693.309
654.819;28125.527;   -9.371;36422.906
655.397;28731.652;  -10.511;38213.484
655.975;29406.510;  -10.371;39507.625
656.553;30431.238;  -10.051;39498.223
657.130;30777.455;  -10.061;40395.480
657.708;27556.791;   -9.561;39242.020
658.286;24775.572;  -11.511;38920.020
658.863;25087.146;  -10.261;40202.898
659.441;27863.436;   -7.531;39677.938
660.018;30601.986;   -9.501;40413.355
660.596;31525.373;  -13.301;39931.414
661.173;33962.766;  -11.211;39604.531
661.750;32920.488;   -9.951;39700.070
662.328;30616.967;   -9.390;39292.809
662.905;29272.422;  -11.330;38235.648
663.482;26325.922;   -9.050;36212.305
664.060;24382.334;   -8.240;35944.945
664.637;28326.248;  -10.050;35170.785
665.214;32478.344;  -11.760;34197.523
665.791;31131.912;  -10.530;34549.520
666.368;31193.578;   -9.690;35118.578
666.945;31753.369;   -9.320;36019.418
667.522;32180.842;  -11.860;36048.438
668.099;31477.492;  -10.770;36243.914
668.676;32091.389;   -6.260;35958.875
669.253;33867.477;   -7.000;37384.730
669.830;33909.539;  -10.190;36779.629
670.407;32929.945;   -9.550;35231.289
670.984;32377.564;   -9.260;35544.270
671.560;31052.279;   -9.280;35466.867
672.137;29117.555;  -11.810;34280.863
672.714;28723.367;  -11.490;34632.863
673.290;29524.936;   -7.740;35135.422
673.867;30015.629;  -10.660;36114.480
674.443;29249.414;  -12.230;36152.859
675.020;27922.488;  -10.450;35327.238
675.596;26509.908;   -9.260;35795.176
676.173;27241.275;  -10.780;35430.355
676.749;27857.068;  -13.690;33549.516
677.326;28893.855;  -11.980;32210.012
677.902;27058.857;   -8.630;32068.871
678.478;25293.125;  -10.730;32583.891
679.054;26897.172;  -10.520;32088.928
679.631;28406.068;  -11.920;30978.848
680.207;29738.514;   -7.490;33160.887
680.783;30507.143;   -9.860;35570.363
681.359;31233.453;  -13.380;36125.184
681.935;30753.643;  -12.480;35240.922
682.511;31306.266;   -7.900;34429.961
683.087;31448.963;   -7.710;34463.680
683.663;31793.404;  -11.480;34648.898
684.239;31657.424;  -14.090;34546.457
684.815;32732.561;   -7.560;35586.375
685.390;32804.836;   -9.910;35821.895
685.966;32428.781;  -11.159;35085.871
686.542;32687.092;  -11.169;34198.230
687.118;31138.762;   -5.959;32847.707
687.693;31385.424;  -10.329;32794.027
688.269;30602.309;  -12.059;33072.367
688.844;31293.145;  -10.909;33141.664
689.420;32423.080;   -8.019;33965.742
689.995;29174.578;   -8.399;34655.523
690.571;28255.916;  -10.949;33576.742
691.146;27873.160;   -9.619;32657.219
691.722;26219.998;   -8.999;32526.979
692.297;25436.824;  -11.589;33014.617
692.872;25994.758;  -11.739;34012.254
693.448;26302.588;  -11.059;34237.434
694.023;28104.680;  -10.139;34142.672
694.598;30218.854;   -9.029;34132.031
695.173;29816.887;  -13.319;34205.250
695.748;27170.906;  -10.169;32882.488
696.323;25108.826;   -8.339;32864.906
696.898;25036.246;   -8.169;33170.004
697.473;28064.885;  -12.309;32432.984
698.048;27691.154;  -10.989;31649.303
698.623;26593.729;   -9.329;30778.141
699.198;27818.563;   -9.849;31140.119
699.773;28831.957;  -12.329;31764.299
700.348;28645.262;  -10.389;31780.816
700.922;27120.832;   -9.269;32046.375
701.497;25904.162;   -9.329;32603.574
702.072;27780.711;  -10.789;34799.871
702.646;27969.084;  -10.839;35793.172
703.221;28459.301;   -9.099;35201.590
703.795;28700.848;  -10.939;34764.527
704.370;27270.619;  -12.859;34307.367
704.944;28561.443;  -11.559;33509.887
705.519;29764.184;   -7.939;31388.584
706.093;31664.410;  -10.499;31340.104
706.668;32837.875;  -11.289;32630.281
707.242;31602.791;  -11.509;32728.779
707.816;30108.141;   -9.639;32947.238
708.390;29772.164;  -11.429;33277.855
708.965;30868.404;  -11.869;33834.336
709.539;30992.043;  -11.689;33709.273
710.113;30512.771;  -10.478;33044.313
710.687;27743.814;  -10.228;31953.992
711.261;26844.082;  -13.698;30505.949
711.835;26599.277;  -13.378;30262.369
712.409;26587.967;   -9.698;31254.447
712.983;26289.311;  -11.898;32754.986
713.557;25490.264;  -15.138;34018.824
714.131;27027.939;  -14.098;34579.625
714.704;26705.154;   -9.958;33890.262
715.278;25963.070;  -10.028;33531.102
715.852;25131.260;  -11.148;33601.660
716.425;24512.887;   -9.068;33515.117
716.999;25900.609;  -10.038;33185.555
717.573;26443.693;   -9.798;33905.996
718.146;27601.039;  -12.378;35199.293
718.720;28322.162;  -11.918;35060.551
719.293;27489.961;   -8.088;34973.230
719.867;26701.170;  -10.888;36394.449
720.440;27765.617;  -11.938;36663.008
721.013;29931.064;  -12.818;35102.426
721.587;31540.379;  -10.298;33985.266
722.160;31227.359;  -10.048;33524.965
722.733;29128.092;  -12.108;32987.043
723.306;26654.373;  -10.818;33066.301
723.880;27013.027;   -8.908;33399.500
724.453;26125.348;   -9.878;33468.297
725.026;26318.715;  -11.188;33816.637
725.599;26487.564;  -11.678;32797.996
726.172;25700.824;   -9.618;33187.434
726.745;26604.266;   -8.258;35136.613
727.318;29724.033;  -12.978;35751.730
727.891;31930.457;  -12.148;35890.430
728.463;33213.414;   -8.968;34822.090
729.036;33106.148;  -10.188;32895.086
729.609;30370.980;  -11.788;31823.225
730.182;28750.576;  -11.788;31445.283
730.754;28167.598;  -10.268;32373.223
731.327;28209.881;   -9.998;33676.820
731.900;27567.059;  -12.228;33417.000
732.472;26294.275;  -13.848;31978.498
733.045;25823.703;   -8.698;30368.777
733.617;25412.408;  -10.607;30574.215
734.190;23897.498;  -11.507;31280.975
734.762;24032.357;  -13.647;31674.412
735.334;25306.262;   -9.767;31247.291
735.907;25249.254;   -9.897;29876.211
736.479;23335.848;  -11.637;29808.488
737.051;23406.234;   -9.567;30233.547
737.623;24329.705;   -8.187;31469.086
738.195;25908.410;  -11.187;31784.225
738.768;26303.275;  -12.337;32120.523
739.340;25786.324;  -12.227;32094.342
739.912;25425.543;  -11.057;31312.680
740.484;26341.143;  -10.207;31946.238
741.056;27438.123;  -10.047;32984.059
741.628;26965.984;  -13.627;33897.715
742.199;27691.906;   -7.177;33213.016
742.771;25957.150;  -10.797;31369.113
743.343;24238.744;  -11.997;31865.473
743.915;24081.014;  -12.867;32388.631
744.487;24643.430;   -7.617;31079.568
745.058;25977.523;   -9.557;30570.107
745.630;25485.721;   -9.877;29970.127
746.201;24016.406;  -14.177;29186.766
746.773;23785.523;   -9.237;28805.723
747.344;24169.848;   -9.847;29591.223
747.916;24093.932;  -11.657;31412.201
748.487;23407.568;  -10.587;32194.898
749.059;23327.674;   -8.707;32533.719
749.630;22265.313;  -10.537;32158.518
750.201;22463.438;  -11.687;30855.395
750.773;22592.178;  -11.647;28622.555
751.344;23960.484;   -7.147;28405.732
751.915;24112.633;   -9.757;28461.551
752.486;23671.762;  -12.427;27842.850
753.057;21934.396;  -12.227;27845.008
753.628;21094.279;  -10.417;27728.107
754.199;20998.924;  -11.767;27381.086
754.770;20690.945;  -11.187;25882.203
755.341;20472.104;  -10.507;25886.184
755.912;20764.049;   -9.387;26050.861
756.483;20995.168;  -10.647;26798.779
757.054;20250.002;  -11.837;27048.238
757.625;18463.143;  -12.716;26294.838
758.195;17923.234;   -9.666;26142.076
758.766;18849.184;   -8.656;26392.234
759.337;18695.582;  -12.856;26334.594
759.907;18042.105;  -13.366;27579.652
760.478;17346.701;   -8.576;28352.770
761.048;17696.293;  -10.526;27325.088
761.619;18011.471;  -11.116;26460.428
762.189;17420.277;  -12.136;26029.826
762.760;17192.676;   -9.456;26430.145
763.330;17259.330;   -7.136;26670.902
763.900;17300.307;  -11.786;26603.021
764.471;16774.111;  -11.546;25542.740
765.041;16530.053;   -8.096;24358.459
765.611;16629.053;   -8.876;23991.297
766.181;16719.754;  -12.196;24470.236
766.751;17255.221;  -11.636;24845.975
767.321;17214.961;  -10.156;24533.633
767.891;16884.953;  -11.766;24916.492
768.461;16525.695;  -14.936;24776.771
769.031;15679.765;  -12.356;24757.988
769.601;15341.541;   -7.526;24181.088
770.171;15626.693;  -10.766;23670.387
770.741;16190.710;  -13.176;22960.045
771.311;15888.934;  -10.616;22917.523
771.880;14702.883;   -9.576;23562.941
772.450;14096.517;  -10.336;24216.500
773.020;14352.269;  -13.516;24140.398
773.589;14296.672;  -13.466;24414.857
774.159;13812.172;   -8.686;23858.717
774.729;13124.704;   -9.476;22942.135
775.298;13130.126;  -13.666;22324.033
775.867;13298.134;  -11.716;21140.313
776.437;12772.362;   -9.906;20838.092
777.006;12630.408;  -12.166;20599.510
777.576;13762.366;  -12.356;20508.809
778.145;13187.331;  -11.646;20732.947
778.714;12101.551;   -8.226;21062.465
779.283;11695.637;   -9.556;20949.664
779.853;11538.909;  -14.116;20508.623
780.422;11689.161;  -11.506;20649.082
780.991;12062.803;   -9.556;21527.520
781.560;12588.267;   -9.095;22632.658
782.129;11606.156;  -12.135;23048.277
782.698;10595.988;  -10.865;23438.555
783.267;10111.655;   -9.335;23267.734
783.836;10382.611;  -11.045;22415.133
784.404;11016.763;  -13.865;20443.152
784.973;11189.011;  -13.095;19699.150
785.542;11112.040;  -11.575;19763.828
786.111;11002.159;   -9.705;20341.408
786.679;10886.295;  -12.105;20207.967
787.248;10613.416;  -12.455;19516.465
787.817;10512.785;  -11.535;18900.363
788.385;10426.095;   -9.765;17879.121
788.954;10391.639;  -14.005;17658.301
789.522;10313.430;  -11.955;17788.879
790.090; 9536.241;  -10.135;18118.277
790.659; 8806.967;  -10.975;18338.736
791.227; 8924.597;  -13.375;18508.615
791.795; 9313.682;  -12.375;17898.254
792.364; 9543.819;  -10.725;17295.133
792.932; 9917.811;   -9.715;16822.051
793.500; 9876.299;  -12.675;17040.148
794.068;10248.534;  -13.495;17179.787
794.636;10392.525;  -10.885;16664.246
795.204;10182.224;  -11.045;16524.545
795.772;10304.789;  -13.175;17274.564
796.340;10157.461;  -12.445;17891.002
796.908;10386.746;   -9.735;17648.561
797.476;10710.706;   -9.815;17064.080
798.044;10388.821;  -13.985;16672.777
798.612; 9990.674;  -13.115;17023.996
799.180; 9277.166;  -10.185;16561.615
799.747; 9030.019;   -9.055;15962.773
800.315; 9380.529;  -12.385;15296.992
800.883; 8888.729;  -15.035;14801.771
801.450; 8232.166;  -10.365;14534.430
802.018; 8050.425;   -9.855;14173.248
802.585; 8095.517;  -11.905;14029.547
803.153; 8355.544;  -11.585;13836.846
803.720; 8126.886;   -9.095;13567.324
804.287; 8012.180;   -9.135;13360.622
804.855; 8182.356;  -11.604;13681.981
805.422; 8575.811;  -11.794;13536.560
805.989; 8854.854;  -10.734;13355.958
806.556; 8918.801;  -10.444;13747.896
807.124; 9427.696;  -12.764;13987.376
807.691;10004.615;  -12.964;14038.674
808.258;10061.565;  -11.134;14120.152
808.825;10054.912;   -9.854;13860.111
809.392; 9608.897;  -10.504;13268.790
809.959; 8868.427;  -13.054;12680.389
810.526; 8175.334;   -8.294;12427.308
811.093; 7514.614;   -8.394;12030.105
811.659; 7321.518;  -12.304;11653.664
812.226; 7496.725;  -13.944;11637.183
812.793; 7882.319;  -10.484;11611.521
813.360; 8023.396;  -10.144;11885.181
813.926; 8021.854;  -11.684;12770.539
814.493; 7934.335;  -13.644;12677.638
815.060; 7818.398;   -9.724;11974.336
815.626; 7970.801;   -9.854;11594.715
816.193; 7997.153;  -13.254;11579.474
816.759; 7326.162;  -13.204;11666.972
817.325; 6863.290;   -9.434;11325.530
817.892; 6717.058;  -10.134;11105.369
818.458; 6869.502;  -13.474;10843.928
819.024; 7320.405;  -11.854;10714.406
819.591; 7375.570;  -10.244;10469.165
820.157; 7100.079;  -10.704;10235.523
820.723; 7085.154;  -12.324;10847.563
821.289; 6992.546;   -9.444;11040.980
821.855; 7004.444;   -8.374;10357.100
822.421; 7289.961;  -10.234; 9978.918
822.987; 7263.320;  -13.294; 9754.177
823.553; 6975.952;  -10.884;10065.755
824.119; 6718.393;   -8.884;10036.294
824.685; 6145.803;   -6.784;10029.192
825.251; 5976.112;  -12.004;10199.230
825.816; 5596.522;  -11.474; 9820.189
826.382; 5340.512;   -9.174; 9297.248
826.948; 5680.451;   -9.214; 9381.347
827.513; 6130.744;  -10.774; 9450.726
828.079; 6147.646;  -11.924; 9472.444
828.645; 5852.599;  -10.543; 9292.643
829.210; 5670.716;  -10.533; 9065.341
829.776; 5587.087;  -10.753; 9132.620
830.341; 5745.221;  -10.173; 9092.878
830.906; 5774.256;  -10.743; 9078.557
831.472; 5511.042;  -11.113; 8534.535
832.037; 5144.578;  -10.603; 8677.874
832.602; 5016.109;  -13.323; 8628.692
833.167; 4796.066;  -10.823; 8879.031
833.733; 4629.640;  -10.113; 9189.790
834.298; 4449.824;  -13.583; 9052.608
834.863; 4621.552;  -12.703; 8895.087
835.428; 4828.420;  -10.523; 8824.266
835.993; 4747.005;   -6.963; 8845.385
836.558; 4716.541;  -10.763; 8888.563
837.123; 4871.779;   -9.903; 8966.582
837.688; 5230.745;   -9.913; 8617.860
838.253; 5266.099;  -10.283; 8590.699
838.817; 4887.754;  -12.963; 8443.797
839.382; 4751.134;  -14.243; 8799.356
839.947; 4862.532;  -10.733; 8810.595
840.511; 4866.247;   -9.383; 8796.394
841.076; 4723.682;  -12.563; 8347.231
841.641; 4591.238;  -12.953; 8224.330
842.205; 4474.233;   -7.043; 8223.349
842.770; 4271.116;   -8.163; 8622.107
843.334; 4447.954;  -12.503; 8410.386
843.898; 4620.451;  -11.693; 8337.465
844.463; 4209.261;  -10.203; 8506.283
845.027; 3917.525;   -9.533; 8280.962
845.591; 3936.424;  -13.443; 8231.141
846.156; 3944.688;  -13.143; 7969.179
846.720; 3745.866;   -9.433; 7768.278
847.284; 3690.195;  -11.033; 7630.957
847.848; 3722.470;  -10.403; 7472.395
848.412; 3564.082;  -11.553; 7437.394
848.976; 3447.791;   -8.393; 7674.592
849.540; 3391.561;   -8.713; 7836.011
850.104; 3378.723;  -12.463; 7913.669
850.668; 3474.760;  -12.973; 7694.508
851.232; 3463.427;  -10.793; 7756.887
851.796; 3492.366;  -10.662; 7926.545
852.359; 3585.737;  -13.082; 7827.844
852.923; 3577.669;  -12.192; 7641.163
853.487; 3569.908;  -11.912; 7342.501
854.050; 3418.898;  -10.892; 7042.820
854.614; 3494.716;  -13.992; 7151.338
855.177; 3587.564;  -11.732; 7105.077
855.741; 3459.994;   -8.962; 6989.675
856.304; 3317.228;   -9.442; 6596.634
856.868; 3190.138;  -14.192; 6356.272
857.431; 3136.009;  -12.702; 6468.571
857.995; 3163.920;   -9.942; 6373.210
858.558; 3249.979;   -9.112; 6324.448
859.121; 3132.941;  -12.932; 6408.327
859.684; 2997.504;  -13.442; 6347.886
860.247; 2963.972;  -10.632; 6321.264
860.810; 2923.121;  -11.272; 6301.903
861.374; 2852.192;   -9.832; 6607.881
861.937; 2768.997;  -11.762; 6408.200
862.500; 2767.358;   -9.722; 6572.639
863.062; 2755.297;  -10.512; 6387.297
863.625; 2765.210;  -11.232; 6190.836
864.188; 2812.948;  -14.112; 5807.254
864.751; 2829.775;  -11.302; 5682.413
865.314; 2713.780;  -10.112; 5547.492
865.876; 2554.883;  -12.182; 5500.150
866.439; 2402.015;  -10.722; 5415.909
867.002; 2310.637;   -9.252; 5501.567
867.564; 2369.657;   -9.572; 5413.946
868.127; 2414.690;  -13.142; 5160.325
868.689; 2486.957;  -12.902; 5133.183
869.252; 2590.805;   -9.732; 5252.382
869.814; 2526.311;   -9.432; 5297.141
870.377; 2437.583;  -11.552; 5390.919
870.939; 2424.664;   -9.052; 5599.898
871.501; 2354.534;  -10.982; 5248.336
872.063; 2242.299;  -12.292; 4854.235
872.626; 2188.007;  -14.912; 4817.074
873.188; 2106.425;  -13.112; 4987.732
873.750; 2075.225;  -13.442; 4868.651
874.312; 2029.659;   -9.402; 4779.330
874.874; 1991.198;  -11.062; 4866.348
875.436; 1887.512;  -13.931; 4718.887
875.998; 1775.245;   -9.561; 4660.005
876.560; 1769.127;  -11.321; 4462.964
877.122; 1833.154;  -12.221; 4145.042
877.683; 1942.012;  -12.191; 4056.481
878.245; 1975.686;  -12.101; 3950.740
878.807; 2004.640;   -8.971; 4058.958
879.369; 1940.757;  -12.071; 3954.677
879.930; 1793.677;  -14.621; 3941.495
880.492; 1706.783;  -10.311; 4067.014
881.053; 1715.385;  -10.901; 3859.633
881.615; 1703.083;  -14.411; 3776.071
882.176; 1626.829;  -13.761; 3734.750
882.738; 1547.367;   -9.181; 3678.489
883.299; 1539.250;  -11.791; 3405.407
883.860; 1553.967;  -13.121; 3351.106
884.422; 1493.137;  -11.211; 3394.044
884.983; 1407.741;  -10.091; 3166.443
885.544; 1360.039;   -8.461; 3189.802
886.105; 1292.991;  -12.361; 3160.360
886.666; 1225.392;  -14.141; 3093.059
887.227; 1191.953;  -11.361; 2941.957
887.788; 1126.940;  -11.401; 2974.836
888.349; 1025.158;  -13.791; 2721.214
888.910;  978.216;  -13.191; 2696.493
889.471;  941.417;   -9.881; 2560.172
890.032;  949.355;   -9.881; 2558.190
890.593;  939.490;  -10.371; 2567.669
891.153;  848.872;  -13.301; 2460.307
891.714;  736.077;  -11.431; 2372.046
892.275;  690.854;  -11.291; 2309.505
892.835;  700.867;  -11.471; 2382.543
893.396;  688.612;  -11.541; 2295.502
893.956;  655.723;  -11.181; 2162.420
894.517;  613.498;  -11.741; 2125.439
895.077;  558.535;  -11.671; 2086.978
895.638;  517.926;  -11.311; 2126.316
896.198;  503.666;   -9.831; 1838.275
896.758;  488.031;   -8.421; 1892.813
897.319;  467.304;  -12.351; 1792.232
897.879;  447.162;  -13.511; 1762.751
898.439;  413.095;  -12.001; 1661.149
898.999;  390.121;  -10.180; 1781.468
899.559;  384.008;  -12.030; 1703.347
900.119;  374.552;  -15.710; 1537.525
900.679;  359.018;   -8.900; 1638.384
901.239;  338.611;   -8.340; 1527.902
901.799;  310.190;  -13.910; 1456.441
902.359;  288.309;  -13.460; 1357.140
902.919;  280.593;  -11.490; 1331.118
903.479;  280.973;  -12.110; 1317.257
904.038;  274.306;  -11.720; 1262.595
904.598;  266.441;  -13.610; 1152.034
905.158;  253.373;  -11.040; 1240.893
905.717;  237.839;  -10.900; 1233.691
906.277;  228.140;  -15.080; 1217.330
906.836;  225.319;  -13.380; 1222.408
907.396;  222.096;  -10.780; 1193.047
907.955;  214.212;   -8.500; 1182.526
908.515;  209.832;  -12.760; 1099.364
909.074;  208.695;  -11.900; 1092.863
909.633;  208.071;   -8.950; 1069.121
910.192;  205.946;   -8.770; 1196.460
910.752;  194.759;  -12.390; 1029.960
911.311;  184.368;  -13.680; 1009.780
911.870;  174.253;  -12.370;  971.460
912.429;  168.870;  -10.900; 1094.080
912.988;  166.083;  -11.690; 1081.060
913.547;  163.616;  -13.240;  940.380
914.106;  161.928;  -11.990;  999.420
914.665;  159.784;   -9.990;  984.020
915.224;  158.601;  -12.880; 1035.760
915.782;  155.602;  -12.350;  922.560
916.341;  155.140;   -9.110; 1049.840
916.900;  152.386;   -9.270;  925.260
917.458;  151.067;  -13.240;  884.220
918.017;  148.945;  -13.550;  942.600
918.576;  147.046;  -12.320;  904.440
919.134;  144.765;  -11.490;  837.980
919.693;  142.894;  -13.670;  893.060
920.251;  143.313;  -15.470;  876.500
920.809;  142.597;  -11.290;  839.580
921.368;  141.616;  -10.210;  885.360
921.926;  139.775;  -12.140;  842.940
922.484;  136.099;  -13.080;  903.360
923.042;  136.771;  -11.720;  880.340
923.601;  136.915;   -7.480;  998.680
924.159;  134.235;  -11.570;  935.560
924.717;  131.913;  -13.840;  841.080
925.275;  132.731;  -10.640;  903.240
925.833;  131.469;  -11.540;  779.320
926.391;  133.164;  -12.960;  938.380
926.949;  133.181;  -14.130;  857.680
927.506;  132.279;  -11.750;  903.500
928.064;  132.572;  -10.250;  877.580
928.622;  132.808;  -13.030;  880.100
929.180;  134.915;  -13.400;  814.180
929.737;  136.867;  -10.700;  808.540
930.295;  139.083;  -10.070;  928.480
930.853;  139.664;  -11.960;  849.100
931.410;  139.788;  -13.120;  821.120
931.968;  142.469;  -10.770;  940.660
932.525;  142.133;  -10.680;  909.380
933.082;  141.902;  -13.130;  811.440
933.640;  143.718;  -13.210;  925.900
934.197;  142.682;  -11.060;  886.360
934.754;  142.950;   -9.580;  897.780
935.312;  145.145;  -14.000;  863.340
935.869;  146.404;  -10.710; 1012.980
936.426;  146.136;   -9.860;  872.800
936.983;  145.070;   -9.710;  889.020
937.540;  146.296;  -13.990;  838.280
938.097;  150.492;  -14.040;  940.120
938.654;  154.467;  -10.310;  898.860
939.211;  154.552;  -10.560;  952.480
939.768;  155.012;  -13.900;  915.420
940.324;  157.320;  -14.760;  904.200
940.881;  161.381;  -10.370;  878.500
941.438;  165.048;   -8.260; 1021.200
941.995;  164.371;  -12.540;  992.560
942.551;  164.565;  -14.670;  875.620
943.108;  165.107;  -10.450;  937.920
943.664;  166.301;  -10.750;  869.340
944.221;  171.440;  -11.550; 1088.140
944.777;  170.791;  -14.770;  869.680
945.334;  168.746;  -12.820;  884.840
945.890;  164.145;  -10.130;  946.480
946.446;  160.163;  -13.470;  947.020
947.003;  162.308;  -12.120;  964.940
947.559;  163.027;   -9.980; 1063.040
948.115;  159.240;   -9.080; 1026.540
948.671;  156.968;  -10.830;  967.300
949.227;  156.785;  -12.440;  859.560
949.783;  156.746;  -12.910;  858.900
950.339;  160.858;  -10.270;  991.000
950.895;  162.065;  -13.630; 1023.840
951.451;  161.432;  -15.100;  925.280
952.007;  159.502;  -11.330;  998.540
952.563;  155.265;  -10.580;  937.780
953.118;  152.371;  -13.440;  904.940
953.674;  152.622;  -12.710;  935.780
954.230;  155.125;  -10.350;  949.640
954.785;  159.532;   -9.190;  936.640
955.341;  160.713;  -11.200;  998.160
955.897;  154.878;  -16.560;  834.660
956.452;  153.155;  -12.570;  953.840
957.008;  150.094;   -7.970; 1083.640
957.563;  146.055;  -11.940; 1009.540
958.118;  142.251;  -13.450;  877.700
958.674;  140.208;  -12.030;  946.780
959.229;  140.218;   -9.410; 1013.980
959.784;  141.478;  -12.000;  832.400
960.339;  143.077;  -14.780; 1001.280
960.894;  141.526;   -9.860;  963.760
961.449;  138.696;   -9.970;  859.960
962.004;  141.056;  -10.900; 1212.840
962.559;  140.172;  -13.150;  860.140
963.114;  138.750;  -13.740;  742.480
963.669;  136.368;   -9.820;  915.500
964.224;  130.742;  -13.890;  874.340
964.779;  124.570;  -12.600;  828.420
965.334;  117.375;  -10.950; 1017.860
965.888;  107.012;  -11.170;  875.360
966.443;   99.648;  -12.540;  972.380
966.998;   94.939;  -15.780;  819.460
967.552;   93.425;   -9.760;  908.380
968.107;   95.571;   -9.060;  868.300
968.661;   98.971;  -11.950;  922.440
969.216;   99.999;  -12.800;  856.280
969.770;  100.997;  -11.210;  917.200
970.324;  103.312;  -11.610;  923.140
970.879;  104.890;  -11.370;  947.180
971.433;  107.401;  -12.540;  952.720
971.987;  105.989;  -11.320;  895.340
972.541;  105.683;  -10.720;  917.100
973.095;  105.542;   -9.680; 1009.460
973.649;  103.002;  -11.440;  809.480
974.203;  100.741;  -11.210;  829.040
974.757;  100.996;  -10.240;  855.220
975.311;  101.556;  -13.720;  872.600
975.865;  100.918;  -13.770;  881.820
976.419;   99.154;  -11.690;  857.400
976.973;   97.640;   -9.510;  849.620
977.526;   96.095;  -12.620;  949.920
978.080;   93.758;  -12.010;  796.780
978.634;   93.736;  -10.170;  921.320
979.187;   93.772;   -9.020;  905.400
979.741;   95.561;   -9.820; 1018.380
980.294;   92.377;  -14.870;  789.160
980.848;   92.370;  -12.380;  717.220
981.401;   93.208;  -10.350;  816.540
981.955;   91.646;  -13.720;  844.300
982.508;   87.791;  -11.490;  746.340
983.061;   88.773;  -10.000;  915.260
983.615;   86.726;  -11.480;  798.800
984.168;   84.641;  -13.220;  770.080
984.721;   83.855;  -13.960;  880.760
985.274;   82.397;  -10.870;  867.500
985.827;   80.587;   -9.790;  834.220
986.380;   77.788;  -13.120;  721.340
986.933;   78.134;  -12.450;  864.800
987.486;   76.960;  -10.210;  861.920
988.039;   77.365;   -8.430;  863.100
988.591;   76.436;  -10.520;  893.260
989.144;   74.160;  -14.860;  737.260
989.697;   72.707;  -13.080;  758.740
990.250;   72.158;  -10.150;  858.100
990.802;   70.240;  -13.430;  755.860
991.355;   69.945;  -12.750;  974.880
991.907;   68.534;  -12.040;  864.320
992.460;   67.123;  -11.330;  753.760
993.012;   65.414;  -13.610;  749.540
993.565;   62.993;  -13.460;  711.360
994.117;   64.225;   -9.360;  950.780
994.669;   61.171;  -11.300;  701.320
995.221;   60.371;  -13.540;  791.920
995.774;   60.398;  -13.430;  787.580
996.326;   58.422;  -12.520;  740.220
996.878;   57.596;  -10.950;  838.420
997.430;   55.197;  -14.300;  699.860
997.982;   55.112;  -13.760;  750.140
998.534;   54.483;  -11.530;  739.060
999.086;   53.339;  -10.310;  738.220
999.638;   52.507;  -12.530;  661.380
1000.190;   51.265;  -11.840;  699.320
1000.741;   49.844;  -10.260;  742.700
1001.293;   50.036;   -8.860;  686.020
1001.845;   49.512;  -13.700;  676.640
1002.396;   49.684;  -12.100;  743.400
1002.948;   48.606;  -12.760;  737.400
1003.500;   47.118;  -10.380;  723.780
1004.051;   47.951;  -11.900;  907.580
1004.603;   46.747;  -12.250;  791.820
1005.154;   43.387;  -13.210;  608.980
1005.705;   42.106;  -10.950;  723.960
1006.257;   41.304;  -13.880;  707.220
1006.808;   40.823;  -12.840;  685.460
1007.359;   39.686;  -10.570;  763.240
1007.910;   39.295;   -9.620;  646.640
1008.461;   39.287;  -13.630;  732.940
1009.013;   37.803;  -17.200;  588.340
1009.564;   38.801;  -10.200;  793.520
1010.115;   37.578;  -12.570;  597.040
1010.665;   37.161;  -15.150;  602.160
1011.216;   37.138;  -14.480;  667.920
1011.767;   36.193;  -11.340;  697.920
1012.318;   36.238;   -9.780;  736.980
1012.869;   35.579;  -12.380;  679.000
1013.419;   35.155;  -15.560;  603.120
1013.970;   34.941;  -11.010;  666.640
1014.521;   34.324;  -11.610;  620.620
1015.071;   34.954;  -13.450;  670.380
1015.622;   34.690;  -13.870;  635.460
1016.172;   33.089;  -11.610;  596.820
1016.723;   33.547;  -12.120;  614.380
1017.273;   32.719;  -13.620;  604.160
1017.823;   33.323;  -14.140;  650.340
1018.374;   32.557;  -12.800;  611.760
1018.924;   31.712;  -12.340;  716.880
1019.474;   33.628;  -11.410;  718.880
1020.024;   31.405;  -14.770;  657.580
1020.574;   32.478;   -9.780;  726.160
1021.124;   32.109;   -8.560;  673.580
1021.674;   30.712;  -15.190;  559.120
1022.224;   32.253;  -13.530;  708.940
1022.774;   31.348;  -13.280;  668.820
1023.324;   32.417;  -10.690;  753.520
1023.874;   32.293;  -10.240;  875.760
1024.423;   30.297;  -12.540;  613.700
1024.973;   29.819;  -10.010;  610.760
1025.523;   30.008;  -10.550;  620.960
1026.072;   29.327;  -13.560;  606.420
1026.622;   28.781;  -15.120;  675.740
1027.172;   29.991;  -11.260;  715.660
1027.721;   29.335;  -11.410;  601.220
1028.270;   29.353;  -13.530;  663.400
1028.820;   29.285;  -13.680;  638.080
1029.369;   28.103;  -13.520;  612.700
1029.918;   28.412;  -10.980;  649.840
1030.468;   28.088;  -13.530;  564.780
1031.017;   28.211;  -13.170;  634.800
1031.566;   27.985;  -12.200;  608.900
1032.115;   28.110;   -9.960;  694.500
1032.664;   26.794;  -13.210;  596.480
1033.213;   27.949;  -12.500;  735.420
1033.762;   27.321;  -11.910;  635.620
1034.311;   27.021;   -9.640;  677.220
1034.860;   27.029;  -13.310;  691.000
1035.408;   27.191;  -11.830;  722.720
1035.957;   27.388;  -12.000;  719.540
1036.506;   25.285;  -11.690;  530.800
1037.055;   26.932;  -10.990;  844.320
1037.603;   25.977;  -15.120;  664.000
1038.152;   24.440;  -12.450;  534.760
1038.700;   25.332;  -10.560;  585.740
1039.249;   24.833;  -11.080;  681.220
1039.797;   25.396;  -12.540;  633.360
1040.345;   25.210;  -11.920;  705.420
1040.894;   24.986;  -11.410;  625.300
1041.442;   24.948;  -14.320;  632.200
1041.990;   23.383;  -16.240;  559.160
1042.538;   23.221;  -11.680;  536.180
1043.087;   23.390;  -10.760;  570.860
1043.635;   24.781;  -11.850;  670.500
1044.183;   22.916;  -15.480;  586.400
1044.731;   22.713;  -11.770;  576.000
1045.279;   22.390;  -13.090;  674.920
1045.827;   24.553;  -12.440;  892.400
1046.374;   22.089;  -13.840;  515.420
1046.922;   21.964;  -13.220;  590.580
1047.470;   22.562;  -10.230;  691.300
1048.018;   22.993;  -14.590;  647.960
1048.565;   23.118;  -12.050;  708.600
1049.113;   21.689;  -11.650;  557.000
1049.660;   21.157;  -10.510;  629.660
1050.208;   21.595;  -13.310;  675.640
1050.755;   20.474;  -15.900;  606.580
1051.303;   21.842;  -11.430;  686.820
1051.850;   21.412;   -8.480;  635.120
1052.397;   18.984;  -15.010;  473.960
1052.945;   20.351;  -13.960;  617.760
1053.492;   22.016;  -13.150;  741.840
1054.039;   21.481;   -9.630;  720.180
1054.586;   19.975;  -13.680;  557.240
1055.133;   20.920;  -14.570;  693.140
1055.680;   21.194;  -13.820;  646.620
1056.227;   19.195;  -11.730;  542.780
1056.774;   20.433;  -12.480;  794.980
1057.321;   18.959;  -13.930;  523.260
1057.868;   19.541;  -11.690;  651.320
1058.415;   19.590;   -9.520;  651.980
1058.961;   19.212;  -13.160;  678.940
1059.508;   18.703;  -12.920;  643.820
1060.055;   18.758;  -11.920;  581.780
1060.601;   19.906;  -11.500;  624.300
1061.148;   19.345;  -14.330;  616.820
1061.694;   18.646;  -16.870;  592.580
1062.241;   18.299;  -10.330;  596.320
1062.787;   18.539;  -10.620;  663.140
1063.334;   19.691;  -10.110;  808.560
1063.880;   19.205;  -13.400;  668.360
1064.426;   18.286;  -10.680;  706.820
1064.972;   17.791;   -9.920;  601.340
1065.518;   16.544;  -10.980;  566.640
1066.065;   17.609;  -14.890;  624.460
1066.611;   16.766;  -12.870;  598.800
1067.157;   17.332;  -12.950;  641.860
1067.703;   17.125;  -13.540;  668.480
1068.249;   17.198;  -13.540;  605.220
1068.794;   17.119;  -12.600;  626.880
1069.340;   16.165;  -10.620;  578.960
1069.886;   16.486;  -12.830;  590.700
1070.432;   15.617;  -14.870;  541.720
1070.977;   15.977;  -11.980;  601.080
1071.523;   15.992;   -8.200;  573.060
1072.068;   16.266;  -12.330;  582.000
1072.614;   15.304;  -16.370;  527.760
1073.160;   16.170;  -11.100;  687.040
1073.705;   15.060;  -10.480;  572.520
1074.250;   14.725;  -14.520;  559.900
1074.796;   16.296;  -11.460;  655.160
1075.341;   15.687;  -11.950;  664.100
1075.886;   15.010;  -11.460;  594.240
1076.431;   15.247;  -13.770;  649.880
1076.976;   14.426;  -12.680;  639.220
1077.521;   14.129;  -13.170;  583.080
1078.067;   14.431;  -10.860;  579.400
1078.612;   14.181;  -13.920;  661.620
1079.156;   14.362;  -13.880;  601.540
1079.701;   14.868;  -13.120;  693.260
1080.246;   15.044;   -9.940;  696.300
1080.791;   13.677;  -14.740;  625.020
1081.336;   14.302;  -13.750;  659.320
1081.880;   14.352;  -13.400;  649.680
1082.425;   12.934;  -12.220;  573.480
1082.970;   14.566;  -11.610;  717.040
1083.514;   13.500;  -13.580;  597.000
1084.059;   12.945;  -12.810;  586.720
1084.603;   12.693;  -12.320;  565.840
1085.147;   13.280;  -13.190;  645.220
1085.692;   13.228;  -12.480;  716.800
1086.236;   11.879;  -13.020;  503.140
1086.780;   13.874;   -9.190;  751.440
1087.325;   13.331;  -12.480;  654.620
1087.869;   12.761;  -12.450;  610.700
1088.413;   13.351;  -12.240;  705.040
1088.957;   10.825;   -9.020;  543.400
1089.501;   12.701;  -10.320;  766.640
1090.045;   12.696;  -12.720;  726.480
1090.589;   11.283;  -13.690;  569.920
1091.133;   12.223;  -10.020;  673.340
1091.676;   11.277;  -12.330;  591.940
1092.220;   11.703;  -14.970;  600.920
1092.764;   12.755;  -12.430;  706.960
1093.307;   11.798;   -9.800;  673.780
1093.851;    9.762;  -14.970;  556.540
1094.395;   11.861;  -15.310;  683.140
1094.938;   10.112;  -10.370;  632.520
1095.482;   10.754;  -11.050;  559.800
1096.025;   11.211;  -11.840;  710.880
1096.568;   10.981;  -12.840;  779.280
1097.112;    9.074;  -14.700;  508.180
1097.655;   10.605;   -8.720;  603.000
1098.198;    9.266;  -13.610;  600.180
1098.741;    9.704;  -13.350;  612.860
1099.285;   10.525;  -11.230;  657.300
1099.828;    9.140;  -11.840;  439.400
1100.371;    8.875;  -10.840;  608.160
1100.914;    9.802;  -14.190;  682.660
1101.457;    9.796;  -11.240;  679.900
1101.999;    8.379;  -11.270;  584.680
1102.542;    9.526;  -11.480;  641.440
1103.085;    8.872;  -11.750;  658.500
1103.628;   10.441;  -11.400;  762.060
1104.170;    8.982;  -10.490;  588.280
1104.713;    8.700;  -10.600;  646.700
1105.256;    8.229;  -14.360;  557.440
1105.798;    7.855;  -13.210;  499.980
1106.341;    9.888;  -10.270;  728.900
1106.883;    8.722;  -12.200;  521.340
1107.425;    8.544;  -13.110;  668.180
1107.968;    8.128;  -12.840;  612.380
1108.510;    8.777;   -6.480;  684.960
1109.052;    7.424;  -13.940;  612.620
1109.594;    7.782;  -13.690;  554.440
1110.136;    8.371;  -11.880;  643.220
1110.679;    7.562;   -9.500;  633.080
1111.221;    8.098;  -14.160;  604.460
1111.763;    7.298;  -13.980;  559.220
1112.304;    6.703;  -13.880;  547.140
1112.846;    7.879;  -12.210;  666.240
1113.388;   10.228;  -11.390;  942.180
1113.930;    7.228;  -14.540;  694.200
1114.472;    6.700;  -12.640;  606.540
1115.013;    5.728;  -11.620;  551.280
1115.555;    6.152;  -13.640;  587.100
1116.097;    5.294;  -15.380;  579.480
1116.638;    7.314;  -12.640;  684.600
1117.180;    7.100;   -9.850;  667.740
1117.721;    6.159;  -13.690;  568.580
1118.262;    6.820;  -12.680;  677.960
1118.804;    6.961;  -12.530;  637.340
1119.345;    5.161;  -11.690;  578.400
1119.886;    6.150;  -13.380;  704.040
1120.427;    5.859;  -14.070;  589.020
1120.969;    5.158;  -13.500;  597.920
1121.510;    4.952;  -11.480;  563.060
1122.051;    6.124;  -12.830;  723.580
1122.592;    4.648;  -14.290;  655.420
1123.133;    4.642;  -12.400;  547.940
1123.673;    6.139;  -10.130;  706.480
1124.214;    5.009;  -12.930;  612.460
1124.755;    5.599;  -14.380;  639.460
1125.296;    4.850;  -14.000;  627.320
1125.836;    6.019;  -10.070;  691.500
1126.377;    4.187;  -12.640;  599.660
1126.918;    4.938;  -12.960;  614.980
1127.458;    4.782;  -13.350;  622.220
1127.999;    5.634;  -10.750;  656.980
1128.539;    5.254;  -12.350;  694.240
1129.079;    4.632;  -14.860;  632.720
1129.620;    4.019;  -13.840;  558.100
1130.160;    4.236;  -12.330;  539.480
1130.700;    4.547;  -14.530;  640.840
1131.240;    4.590;  -12.530;  643.700
1131.781;    4.024;  -14.450;  619.680
1132.321;    3.330;   -9.790;  599.120
1132.861;    2.673;  -14.860;  564.200
1133.401;    2.674;  -14.290;  593.940
1133.941;    4.495;  -11.750;  626.280
1134.481;    2.846;   -9.920;  597.580
1135.020;    3.152;  -12.290;  609.160
1135.560;    3.601;  -11.650;  674.940
1136.100;    2.987;  -16.270;  501.160
1136.640;    1.993;  -10.890;  510.480
1137.179;    3.009;  -14.180;  537.960
1137.719;    3.134;  -16.250;  605.400
1138.258;    2.680;  -14.230;  587.360
1138.798;    3.124;   -9.090;  663.780
1139.337;    1.741;  -15.130;  482.840
1139.877;    2.603;  -13.680;  642.360
1140.416;    4.296;  -11.320;  878.060
1140.955;    1.940;  -10.860;  535.380
1141.494;    2.271;  -12.920;  669.280
1142.034;    2.088;  -13.930;  583.520
1142.573;    3.121;  -11.440;  646.280
1143.112;    1.609;  -12.000;  553.480
1143.651;    1.798;  -13.670;  536.480
1144.190;    2.871;  -12.730;  691.640
1144.729;    2.503;  -14.560;  607.420
1145.267;    1.230;  -11.830;  584.900
1145.806;    2.363;  -12.230;  637.040
1146.345;    1.323;  -14.130;  635.020
1146.884;    1.666;  -11.590;  622.500
1147.422;    1.020;  -12.550;  533.060
1147.961;    2.739;  -11.180;  708.460
1148.500;    2.667;  -11.510;  669.720
1149.038;    2.014;  -11.640;  632.500
1149.577;    2.137;  -10.130;  698.640
1150.115;   -0.191;  -13.970;  452.280
1150.653;    1.213;  -14.520;  607.340
1151.192;    0.919;  -12.810;  552.920
1151.730;    0.883;   -9.100;  652.560
1152.268;    0.646;  -12.220;  589.520
1152.806;    0.297;  -14.140;  571.180
1153.344;   -0.296;  -12.350;  577.640
1153.882;    1.072;   -8.980;  600.060
1154.421;   -0.267;  -15.190;  470.620
1154.958;    0.380;  -15.210;  595.240
1155.496;    1.408;  -12.850;  645.280
1156.034;    0.204;   -9.940;  721.880
1156.572;    1.212;  -13.570;  667.060
1157.110;   -0.216;  -14.590;  473.940
1157.647;    0.258;  -13.030;  676.960
1158.185;   -0.578;  -12.140;  564.320
1158.723;   -1.534;  -14.390;  509.200
1159.260;    0.539;  -14.090;  701.700
1159.798;    0.700;  -11.920;  658.160
1160.335;   -0.019;  -11.110;  631.820

