gmr_left
Integration time [ms]:   3.882
Averaging Nr. [scans]: 1000
Smoothing Nr. [pixels]: 0
Data measured with spectrometer [name]: 7414430SP
Wave   ;Sample   ;Dark     ;Reference
[nm]   ;[counts] ;[counts] ;[counts] 

288.544;  120.803;   10.292;  793.890
289.143;  123.626;    4.564;  681.602
289.742;  125.672;    6.144;  828.814
290.341;  113.969;    4.396;  789.841
290.940;  103.814;    0.938;  730.702
291.538;  104.512;   -0.684;  881.108
292.137;  104.236;   -2.845;  792.581
292.736;  107.793;   -0.144;  975.101
293.335;  103.667;   -6.352;  735.086
293.934;  103.801;   -7.642;  781.677
294.532;  105.122;   -4.992; 1031.958
295.131;   92.025;   -5.478;  834.394
295.730;   90.575;   -6.549;  809.588
296.328;   88.964;   -9.558;  783.442
296.927;   89.684;   -8.118;  779.652
297.525;   91.058;   -6.908;  781.236
298.124;   82.539;   -9.195;  654.009
298.722;   86.171;   -8.198;  761.933
299.321;   85.164;   -8.817;  708.597
299.919;   83.607;   -7.716;  751.918
300.518;   78.906;  -10.745;  689.338
301.116;   80.856;   -9.647;  691.381
301.715;   81.410;  -10.828;  730.222
302.313;   80.187;   -6.087;  704.943
302.911;   75.293;   -6.824;  733.830
303.509;   80.725;   -8.807;  925.627
304.108;   78.479;   -8.198;  760.383
304.706;   78.860;   -6.218;  801.664
305.304;   73.033;   -7.185;  796.707
305.902;   78.212;   -8.568;  784.484
306.500;   74.664;   -7.737;  728.200
307.098;   74.161;   -6.026;  746.560
307.696;   71.245;   -7.176;  780.432
308.294;   71.502;   -8.656;  731.359
308.892;   73.478;   -6.838;  759.769
309.490;   71.024;   -2.596;  712.161
310.088;   68.168;   -4.485;  788.444
310.686;   73.355;   -3.907;  821.749
311.284;   69.776;   -2.806;  766.040
311.882;   67.638;   -2.845;  731.225
312.480;   64.070;   -3.274;  697.167
313.078;   65.783;   -3.645;  808.331
313.675;   67.080;   -4.997;  691.600
314.273;   62.993;   -0.894;  797.837
314.871;   61.503;   -2.854;  589.829
315.468;   60.109;   -3.644;  652.090
316.066;   63.279;   -3.947;  694.427
316.664;   56.304;   -1.824;  656.351
317.261;   60.678;    1.565;  910.128
317.859;   56.903;   -3.955;  768.735
318.456;   58.287;   -2.886;  830.096
319.054;   54.777;   -0.995;  787.828
319.651;   53.097;   -1.765;  759.928
320.249;   52.521;   -3.685;  810.188
320.846;   50.005;   -3.736;  714.286
321.443;   49.224;   -2.065;  832.135
322.041;   46.681;   -5.635;  812.315
322.638;   44.077;   -5.985;  701.456
323.235;   47.094;   -6.677;  665.683
323.833;   45.201;   -3.497;  740.354
324.430;   40.187;   -6.756;  615.900
325.027;   41.636;   -7.647;  876.855
325.624;   42.689;   -7.598;  644.532
326.221;   39.713;   -5.848;  689.717
326.818;   39.836;   -5.777;  818.332
327.415;   42.057;   -8.769;  748.828
328.012;   41.829;   -6.299;  690.585
328.609;   40.490;   -6.639;  731.389
329.206;   38.338;   -6.358;  778.621
329.803;   37.525;   -8.698;  737.841
330.400;   39.464;   -8.379;  704.260
330.997;   39.862;   -6.178;  817.147
331.594;   37.610;   -5.646;  788.185
332.191;   40.999;   -6.928;  728.722
332.787;   42.755;   -6.057;  844.463
333.384;   41.085;   -6.445;  763.093
333.981;   38.958;   -8.002;  815.687
334.578;   39.469;   -8.443;  708.378
335.174;   42.367;   -6.053;  731.469
335.771;   43.153;   -5.791;  836.456
336.367;   39.849;   -6.570;  710.631
336.964;   40.655;   -6.741;  793.266
337.561;   41.542;   -5.710;  731.112
338.157;   39.232;   -3.928;  911.916
338.754;   36.082;   -5.577;  796.589
339.350;   33.621;   -9.667;  722.493
339.946;   37.712;   -5.269;  773.135
340.543;   30.946;   -4.485;  846.136
341.139;   25.762;   -7.584;  720.836
341.735;   24.031;   -8.553;  772.593
342.332;   22.885;   -4.984;  691.472
342.928;   24.974;   -3.475;  795.394
343.524;   18.964;   -6.653;  761.684
344.120;   15.849;   -7.173;  738.562
344.716;   19.617;   -4.385;  723.717
345.313;   16.413;   -3.565;  795.342
345.909;   12.689;   -7.495;  627.336
346.505;   14.521;   -8.276;  740.247
347.101;   16.392;   -5.697;  827.864
347.697;   17.011;   -4.767;  785.398
348.293;   10.973;   -7.226;  627.244
348.889;   12.173;   -7.547;  745.914
349.485;   11.726;   -9.147;  688.205
350.081;   12.960;   -6.568;  772.592
350.676;    7.634;   -6.516;  691.606
351.272;   12.557;   -7.378;  809.530
351.868;   12.063;   -6.759;  780.497
352.464;    9.923;   -4.798;  723.932
353.059;    5.473;   -7.977;  646.017
353.655;    9.219;   -8.769;  777.063
354.251;   10.715;   -5.920;  759.845
354.846;    5.828;   -7.647;  740.646
355.442;    3.162;   -6.956;  753.071
356.038;    4.738;   -9.928;  751.708
356.633;    5.901;   -7.698;  728.594
357.229;    4.351;   -6.307;  724.757
357.824;    2.192;   -7.647;  703.600
358.420;    0.806;  -10.047;  679.726
359.015;    2.335;   -7.458;  695.357
359.610;    4.173;   -5.748;  763.920
360.206;   -2.614;   -9.346;  603.240
360.801;    0.153;  -11.268;  646.503
361.396;    3.119;   -8.789;  725.975
361.992;   -1.465;   -6.347;  668.220
362.587;   -4.815;   -6.476;  670.160
363.182;   -2.565;   -9.457;  689.631
363.777;   -0.818;   -7.147;  738.242
364.372;   -1.262;   -5.507;  737.314
364.967;   -5.222;   -6.386;  680.744
365.563;   -1.134;   -7.858;  815.567
366.158;   -3.414;   -8.517;  685.161
366.753;   -2.307;   -8.728;  649.263
367.348;   -3.865;   -7.677;  746.056
367.942;   -4.781;  -10.387;  697.298
368.537;   -4.780;   -7.187;  754.245
369.132;   -4.932;   -8.587;  703.428
369.727;   -9.303;   -8.606;  638.079
370.322;   -8.124;  -10.426;  580.186
370.917;   -7.279;   -5.776;  710.646
371.511;   -3.797;   -6.007;  861.834
372.106;   -7.499;   -6.686;  776.964
372.701;  -10.752;   -9.335;  585.988
373.296;   -5.074;   -6.777;  863.135
373.890;   -9.811;   -7.546;  647.840
374.485;  -12.288;   -8.755;  691.199
375.079;   -7.146;   -9.797;  738.685
375.674;   -6.193;   -6.327;  812.970
376.268;   -9.872;   -9.046;  691.759
376.863;  -16.318;   -7.993;  580.327
377.457;  -10.099;   -9.206;  662.490
378.052;  -11.041;   -5.345;  764.884
378.646;  -12.117;   -5.605;  741.167
379.240;  -12.262;   -6.825;  721.176
379.835;  -12.265;  -10.476;  636.978
380.429;  -13.390;   -8.676;  562.557
381.023;  -12.759;   -4.945;  779.205
381.617;  -15.800;   -8.094;  680.106
382.212;  -12.255;  -10.646;  685.303
382.806;  -10.832;   -8.136;  760.690
383.400;  -14.434;   -7.855;  672.281
383.994;  -15.963;   -8.125;  664.870
384.588;  -11.815;   -7.637;  697.701
385.182;  -10.318;   -7.458;  726.624
385.776;  -11.658;   -6.277;  706.875
386.370;  -15.951;   -7.485;  681.968
386.964;  -14.266;   -9.416;  684.155
387.558;  -11.851;   -8.518;  598.360
388.152;  -14.372;   -7.096;  681.959
388.745;  -13.595;   -7.656;  814.707
389.339;  -11.980;   -8.927;  747.642
389.933;  -10.569;   -9.538;  695.370
390.527;  -11.245;   -5.857;  859.029
391.120;  -18.787;   -9.455;  595.318
391.714;  -15.242;   -9.746;  711.633
392.308;  -11.786;   -7.857;  780.253
392.901;  -14.733;   -9.106;  642.460
393.495;  -17.321;  -10.365;  595.414
394.089;  -15.301;   -9.696;  760.452
394.682;  -15.693;   -7.016;  697.188
395.275;  -15.402;   -8.466;  719.927
395.869;  -17.417;   -8.985;  667.314
396.462;  -16.483;  -11.496;  616.609
397.056;  -11.275;   -7.838;  776.621
397.649;  -15.626;   -6.895;  731.575
398.242;  -13.418;   -5.017;  712.645
398.836;  -12.975;   -8.787;  766.408
399.429;  -13.380;   -8.967;  631.041
400.022;  -17.062;   -8.815;  665.902
400.615;  -14.459;   -6.276;  805.609
401.208;  -12.536;   -8.407;  691.451
401.802;  -14.310;   -7.296;  699.329
402.395;  -15.244;   -7.585;  683.502
402.988;  -16.900;   -8.015;  696.627
403.581;  -13.024;   -9.577;  646.878
404.174;  -10.686;   -7.588;  686.568
404.767;  -13.759;   -7.906;  638.583
405.360;  -17.082;   -7.875;  621.445
405.953;  -10.808;   -8.127;  759.034
406.545;   -9.825;   -7.198;  725.342
407.138;  -13.620;   -8.916;  618.350
407.731;  -13.421;   -9.767;  613.303
408.324;   -9.262;  -10.659;  660.554
408.917;   -9.587;   -8.068;  681.864
409.509;  -11.552;   -9.837;  740.396
410.102;  -13.269;   -8.146;  643.948
410.695;   -7.957;   -7.969;  665.758
411.287;   -8.561;   -8.579;  599.821
411.880;   -9.491;   -6.968;  585.421
412.472;  -13.371;   -9.487;  613.092
413.065;  -10.470;  -10.338;  629.408
413.657;   -8.158;   -9.169;  576.678
414.250;   -7.335;  -10.119;  646.681
414.842;  -10.110;   -9.938;  676.353
415.434;   -7.789;  -10.409;  570.463
416.027;   -3.222;   -9.591;  652.196
416.619;   -4.813;   -7.379;  713.400
417.211;   -5.940;   -9.159;  599.352
417.804;   -1.981;   -9.191;  628.499
418.396;   -5.607;   -8.159;  607.643
418.988;   -2.905;   -6.960;  659.238
419.580;   -7.755;  -11.389;  568.276
420.172;   -5.092;  -13.460;  536.196
420.764;    0.107;  -10.701;  672.482
421.356;   -1.211;   -8.961;  636.898
421.948;   -1.965;   -9.770;  677.661
422.540;    2.431;   -8.832;  680.027
423.132;    1.944;   -8.153;  600.641
423.724;   -1.036;   -8.481;  561.267
424.316;    0.189;   -9.261;  621.345
424.908;    3.711;   -9.643;  591.517
425.500;    4.896;   -8.663;  647.978
426.092;    6.303;   -8.503;  648.268
426.683;    4.744;  -10.522;  684.836
427.275;    7.275;  -11.734;  641.471
427.867;    8.723;  -10.264;  668.948
428.458;    8.826;   -7.644;  732.344
429.050;    8.390;   -7.853;  680.749
429.642;   10.503;   -8.904;  743.124
430.233;    9.722;  -10.795;  569.356
430.825;   11.655;   -7.665;  724.809
431.416;    9.009;   -8.843;  698.241
432.008;   12.776;   -9.885;  651.723
432.599;   14.049;   -9.966;  656.073
433.190;   11.025;   -9.164;  637.670
433.782;    9.657;   -8.584;  590.395
434.373;   18.262;   -8.296;  884.765
434.964;   16.117;   -9.896;  602.920
435.556;   13.971;   -8.255;  634.537
436.147;   16.710;   -8.075;  758.490
436.738;   15.913;   -9.716;  701.099
437.329;   21.991;   -7.318;  721.723
437.920;   15.635;   -6.694;  666.688
438.511;   14.168;   -9.644;  564.526
439.103;   21.758;   -9.427;  623.998
439.694;   23.611;  -10.748;  681.583
440.285;   24.319;   -7.997;  764.432
440.876;   22.577;  -10.046;  845.738
441.466;   21.420;  -13.467;  575.162
442.057;   27.378;   -9.329;  665.814
442.648;   26.917;   -7.707;  746.255
443.239;   22.981;   -9.017;  620.477
443.830;   28.738;  -10.279;  704.958
444.421;   31.233;  -12.630;  655.474
445.011;   27.828;   -8.697;  693.619
445.602;   27.047;   -7.787;  743.126
446.193;   28.744;  -13.329;  488.117
446.783;   33.941;   -9.171;  640.397
447.374;   29.180;   -7.457;  692.759
447.964;   29.704;   -9.277;  713.770
448.555;   38.406;   -9.041;  822.742
449.145;   34.696;   -8.969;  662.853
449.736;   35.887;   -6.809;  803.179
450.326;   35.744;   -7.229;  713.626
450.917;   40.035;  -11.391;  675.324
451.507;   40.175;   -9.501;  600.661
452.097;   41.111;   -8.460;  746.267
452.688;   41.160;  -10.080;  742.160
453.278;   41.382;  -12.861;  566.840
453.868;   45.415;   -8.372;  793.550
454.458;   43.396;   -8.131;  651.141
455.048;   44.017;   -8.520;  711.783
455.639;   44.945;  -13.632;  567.096
456.229;   48.945;  -10.143;  710.694
456.819;   51.674;   -9.163;  751.158
457.409;   51.726;   -8.652;  773.993
457.999;   53.684;   -9.933;  737.505
458.589;   53.521;  -10.363;  686.606
459.179;   54.033;  -10.633;  717.658
459.769;   51.818;  -12.442;  627.099
460.358;   57.259;   -9.844;  797.262
460.948;   56.677;   -9.924;  689.503
461.538;   59.208;  -10.484;  660.677
462.128;   56.616;  -10.703;  664.934
462.717;   61.964;  -11.486;  710.326
463.307;   66.084;  -10.767;  705.846
463.897;   62.084;   -8.814;  656.942
464.486;   61.179;   -8.182;  837.128
465.076;   65.538;   -9.985;  733.776
465.666;   68.998;  -10.447;  652.900
466.255;   67.642;   -7.754;  785.651
466.845;   66.374;  -10.884;  666.749
467.434;   68.504;  -12.525;  725.873
468.023;   70.331;  -11.456;  658.357
468.613;   68.340;   -9.173;  713.946
469.202;   71.990;   -9.306;  646.507
469.791;   75.811;   -8.917;  737.811
470.381;   76.887;   -9.657;  742.813
470.970;   77.952;   -9.947;  711.099
471.559;   77.315;   -9.256;  733.291
472.148;   80.355;  -13.397;  675.737
472.738;   83.080;   -9.928;  765.466
473.327;   83.187;  -10.897;  637.529
473.916;   82.223;   -8.526;  737.446
474.505;   86.622;  -11.078;  751.703
475.094;   90.371;   -9.559;  806.570
475.683;   89.825;   -8.838;  797.699
476.272;   90.228;  -10.198;  730.632
476.861;   93.996;  -11.489;  706.754
477.449;   99.619;  -10.721;  728.487
478.038;   94.880;   -9.818;  692.513
478.627;   95.261;   -9.887;  714.852
479.216;  101.429;  -10.030;  769.441
479.805;  105.198;   -9.401;  783.375
480.393;  105.478;   -5.739; 1008.945
480.982;  104.138;   -7.838;  874.501
481.571;  110.939;   -9.111;  858.333
482.159;  111.505;  -10.601;  705.386
482.748;  111.227;   -8.500;  821.385
483.336;  115.227;   -9.241;  858.209
483.925;  116.677;  -10.440;  774.373
484.513;  123.102;  -11.063;  758.962
485.102;  120.156;   -9.540;  810.965
485.690;  128.854;   -6.742; 1011.050
486.278;  130.469;   -8.442;  979.329
486.867;  130.863;  -10.472;  809.662
487.455;  133.383;   -8.811;  898.229
488.043;  134.604;  -10.721;  748.361
488.631;  144.144;  -10.393; 1005.079
489.220;  147.803;  -10.843;  908.626
489.808;  148.909;  -10.572;  741.415
490.396;  157.102;  -10.482;  914.645
490.984;  163.048;  -11.542;  830.161
491.572;  174.225;   -8.463;  940.315
492.160;  182.184;   -8.491;  919.081
492.748;  194.685;   -9.681;  884.341
493.336;  218.683;  -10.493; 1019.693
493.924;  249.935;   -9.354;  958.077
494.512;  287.593;   -9.132; 1066.638
495.100;  328.010;   -9.001; 1103.280
495.687;  386.825;  -11.924; 1206.373
496.275;  468.095;  -11.193; 1150.796
496.863;  557.529;   -9.241; 1281.171
497.451;  667.201;  -11.341; 1386.805
498.038;  789.521;  -11.364; 1556.729
498.626;  909.705;   -8.104; 1741.407
499.214; 1125.499;   -8.842; 2016.609
499.801; 1409.661;  -10.112; 2220.633
500.389; 1638.133;  -11.953; 2312.494
500.976; 1849.751;  -10.023; 2744.849
501.564; 2146.869;   -8.662; 3148.565
502.151; 2589.181;  -10.531; 3515.999
502.738; 3082.801;  -13.853; 3971.274
503.326; 3640.575;  -10.794; 4403.796
503.913; 4247.385;   -8.663; 5161.749
504.500; 4857.737;  -10.172; 5986.420
505.088; 5825.872;  -13.472; 6381.201
505.675; 6554.190;  -10.924; 6925.547
506.262; 6838.465;   -8.551; 7619.060
506.849; 7562.003;  -10.523; 8733.969
507.436; 8554.717;  -10.834; 9790.121
508.023; 8817.507;   -9.093; 9985.472
508.610; 9156.503;  -10.073;10434.618
509.197;10423.273;   -9.500;11198.435
509.784;12462.664;  -13.242;12391.194
510.371;13402.384;  -10.964;13603.713
510.958;14326.152;   -9.772;14426.586
511.545;14988.215;   -7.842;15243.775
512.132;14960.297;  -12.184;15945.876
512.719;16499.133;   -9.733;16340.369
513.305;19063.863;   -9.172;18011.766
513.892;20065.539;   -9.581;19754.971
514.479;20883.619;  -10.253;20967.805
515.066;21198.523;   -8.183;22299.793
515.652;22007.320;   -9.253;22908.660
516.239;23333.281;   -9.412;23798.875
516.825;23826.422;  -11.153;25567.275
517.412;22081.129;  -10.263;28154.959
517.998;20522.602;   -8.802;28344.111
518.585;20317.936;  -10.401;27134.219
519.171;21875.174;  -12.744;27268.576
519.758;25038.668;  -11.793;28964.129
520.344;29396.330;   -8.912;30664.494
520.930;32935.191;  -10.901;32550.605
521.516;32984.301;  -12.034;35422.895
522.103;33949.656;  -10.473;38280.004
522.689;35305.258;   -8.311;37835.117
523.275;36670.820;  -10.691;37288.613
523.861;37478.660;  -11.193;37281.395
524.447;35255.367;  -11.484;37846.949
525.033;35635.199;   -7.702;38321.949
525.619;36182.059;  -11.241;38579.285
526.205;36470.539;  -12.152;40622.875
526.791;37576.148;  -11.423;42258.836
527.377;38335.707;   -7.981;42966.902
527.963;38052.863;   -9.450;42018.949
528.549;38428.754;  -11.351;42476.828
529.135;39553.770;  -10.202;41854.852
529.721;39123.828;   -8.672;41237.711
530.306;36686.590;   -9.111;41259.445
530.892;38933.844;  -11.252;41506.047
531.478;41896.918;  -10.432;43559.613
532.063;43475.473;  -10.721;47695.563
532.649;44951.191;   -7.450;50808.324
533.235;46073.738;  -11.811;51787.500
533.820;45191.234;   -9.383;52145.035
534.406;42570.789;   -9.400;51133.488
534.991;42875.586;   -8.861;49996.805
535.576;44508.824;  -10.612;48882.852
536.162;41947.465;   -7.322;46942.285
536.747;41598.641;   -9.360;45711.746
537.333;44149.410;  -10.450;48510.180
537.918;47315.379;  -12.610;50439.891
538.503;47454.535;  -12.132;50863.711
539.088;44085.570;  -10.831;50906.922
539.673;43788.238;  -11.220;52621.965
540.259;46215.512;  -11.481;52368.094
540.844;45975.973;  -11.462;50879.109
541.429;47099.086;   -7.869;52077.777
542.014;45597.852;  -11.859;52716.695
542.599;42738.867;  -11.061;52363.281
543.184;42471.762;  -12.300;53187.137
543.769;44165.102;   -9.369;54697.605
544.354;44887.219;  -12.020;53913.914
544.938;41123.680;  -10.350;49680.164
545.523;38111.078;  -10.841;47386.277
546.108;40561.008;   -8.579;49151.949
546.693;42886.484;   -8.818;51384.637
547.278;42880.215;  -11.331;51853.254
547.862;40248.309;  -10.292;51173.750
548.447;37395.691;   -8.349;51691.395
549.031;36092.191;  -10.838;52456.703
549.616;40132.355;  -11.681;52714.516
550.201;45224.336;  -11.140;52414.598
550.785;45133.781;   -8.649;52355.059
551.370;47197.203;  -11.889;54589.453
551.954;47987.277;  -11.239;58267.348
552.538;48869.621;   -8.850;59062.176
553.123;50643.238;  -10.829;58115.285
553.707;51035.938;   -8.887;56556.285
554.291;48102.977;  -10.430;56201.668
554.876;47832.270;   -9.799;55335.762
555.460;45220.469;  -10.018;54155.703
556.044;45314.473;   -7.307;53721.484
556.628;48372.859;  -12.229;53731.016
557.212;48872.441;   -9.820;54312.531
557.796;46887.492;   -9.109;53797.773
558.380;45239.930;   -9.707;56145.984
558.964;47975.914;  -10.980;57277.930
559.548;50691.914;  -12.010;56459.641
560.132;51033.863;   -7.928;54434.543
560.716;53609.070;  -10.247;54800.617
561.300;53017.313;  -11.250;57606.945
561.884;51023.660;  -10.568;58972.445
562.467;48853.805;   -9.727;57327.570
563.051;45513.906;  -11.847;54962.434
563.635;44972.582;  -10.747;52594.473
564.219;43598.773;  -13.108;50610.410
564.802;42640.242;  -11.417;49551.180
565.386;41779.223;  -10.457;48370.953
565.969;45182.547;   -8.959;48178.871
566.553;46331.500;  -10.328;49957.305
567.136;46079.949;  -10.257;50369.594
567.720;44544.547;  -10.186;49492.004
568.303;43650.637;  -10.027;50616.352
568.887;44649.277;  -10.397;50727.148
569.470;45900.473;   -8.185;51698.379
570.053;44006.676;  -11.596;52122.078
570.637;42522.633;  -11.378;52536.438
571.220;42553.551;   -9.138;51186.098
571.803;41825.828;   -7.675;51032.762
572.386;40825.984;   -8.976;49609.887
572.969;41475.313;  -12.477;48285.926
573.552;41155.836;   -9.767;47624.285
574.135;38848.797;   -8.175;45498.641
574.718;34210.590;  -11.096;41970.434
575.301;34233.227;  -11.966;41447.137
575.884;34255.859;  -12.836;40923.836
576.467;39836.180;   -9.116;45267.723
577.050;41468.426;  -10.536;48175.543
577.633;40089.125;  -11.027;47729.328
578.216;39343.645;   -9.946;47579.793
578.799;40114.465;   -9.645;47820.996
579.381;39401.828;   -9.446;48115.551
579.964;39062.926;  -12.217;47333.766
580.547;39184.949;  -10.586;46668.969
581.129;39083.801;   -8.374;44466.141
581.712;38271.602;  -10.434;44164.922
582.294;37476.672;  -10.896;46477.855
582.877;38672.371;   -8.906;48244.254
583.459;39036.535;   -9.994;47437.895
584.042;37960.109;  -10.084;46943.219
584.624;36237.871;  -13.534;46792.227
585.206;36579.699;  -12.716;46557.250
585.789;37363.574;  -11.614;45793.773
586.371;36860.457;  -10.203;43836.391
586.953;35190.688;  -10.314;42972.492
587.536;33851.156;   -9.776;42487.211
588.118;34224.156;   -9.821;42086.414
588.700;35393.703;  -10.073;43389.930
589.282;36990.672;  -12.395;43646.039
589.864;37316.492;  -11.514;43438.109
590.446;38067.898;  -10.803;43151.926
591.028;39181.152;  -11.043;42781.867
591.610;37888.969;  -13.244;42839.098
592.192;35244.039;  -11.095;42820.402
592.774;32991.652;  -10.823;40724.277
593.356;32675.785;  -11.052;39874.789
593.937;33876.766;  -11.664;39980.648
594.519;35200.969;  -10.454;42069.633
595.101;35282.383;  -10.322;42976.031
595.683;34192.574;  -10.042;44084.441
596.264;33795.613;  -14.334;43478.797
596.846;34804.012;  -10.863;43803.672
597.427;35148.004;   -9.901;42986.934
598.009;34541.633;  -10.911;42832.219
598.591;33604.156;  -10.483;42580.086
599.172;32813.875;   -9.663;43061.805
599.753;32915.594;  -10.631;41691.469
600.335;33357.559;   -9.371;40692.520
600.916;35659.309;  -13.992;39982.422
601.498;37067.133;   -8.352;40318.617
602.079;35412.059;   -8.411;40670.609
602.660;37704.195;  -10.841;41450.898
603.241;37679.945;  -12.963;41137.738
603.823;34478.531;  -11.523;38868.797
604.404;32119.434;  -11.881;38182.785
604.985;33353.250;  -11.721;38078.047
605.566;33912.316;   -9.293;38056.633
606.147;32667.336;  -10.940;37020.418
606.728;31604.799;  -11.840;37883.359
607.309;30532.855;  -11.781;38748.273
607.890;30399.246;  -11.262;38850.230
608.471;29658.461;  -10.111;37457.918
609.051;30088.930;   -7.709;36066.457
609.632;30523.768;  -12.409;35991.074
610.213;28667.377;  -10.811;37402.641
610.794;28168.752;  -11.630;38383.363
611.374;29440.080;   -8.030;40562.387
611.955;30682.775;  -10.809;38533.727
612.536;32329.959;  -10.531;36951.789
613.116;32892.984;  -12.820;37197.891
613.697;32755.203;  -11.419;38411.125
614.277;31589.434;   -9.768;38673.938
614.858;29870.111;  -10.251;37075.863
615.438;26841.406;  -11.981;35092.906
616.019;26596.891;   -8.978;33666.301
616.599;29130.725;  -12.219;34189.023
617.179;31734.133;  -14.170;36952.047
617.760;33584.594;   -9.211;39582.574
618.340;33764.887;   -9.018;38943.977
618.920;32317.932;   -9.249;37594.156
619.500;32911.621;  -12.728;37866.938
620.080;34599.004;  -12.939;37869.043
620.660;33278.035;  -11.586;36868.617
621.241;32489.803;  -11.538;36352.309
621.821;32532.898;  -11.398;35459.520
622.401;33729.438;  -10.179;35207.414
622.980;32857.164;  -11.587;35980.422
623.560;31735.871;  -12.888;37351.328
624.140;29889.986;  -13.149;34388.582
624.720;25533.512;   -9.928;32368.764
625.300;25237.238;  -10.869;32638.629
625.880;29184.627;   -8.617;34599.035
626.459;33168.367;  -12.138;36831.738
627.039;33889.363;  -12.267;38299.098
627.619;33755.781;   -7.476;38289.574
628.198;34547.945;  -11.347;37220.695
628.778;33350.152;  -11.678;37632.563
629.357;30996.076;  -12.438;38003.012
629.937;29558.186;   -9.576;38402.039
630.516;28520.816;  -11.096;37868.801
631.096;28384.900;  -11.828;35760.410
631.675;29077.943;  -11.565;35225.219
632.254;29839.012;  -11.845;35130.289
632.834;30980.969;  -11.545;35794.570
633.413;32420.227;  -10.887;35788.922
633.992;33766.293;  -10.175;34532.863
634.571;32494.594;   -9.704;33590.113
635.151;30325.594;  -10.815;34943.863
635.730;30570.867;  -11.617;35352.523
636.309;30836.715;  -10.836;35366.605
636.888;31726.086;   -9.755;36165.637
637.467;32618.471;  -11.684;37515.902
638.046;34880.578;  -11.987;39288.695
638.625;35220.699;  -10.455;38279.699
639.204;33501.617;  -11.234;37741.598
639.782;30246.504;  -12.023;38364.551
640.361;29717.289;  -11.506;36740.621
640.940;29966.801;  -12.316;34950.082
641.519;31070.625;  -11.616;34137.398
642.097;33825.773;   -9.266;35654.258
642.676;34093.891;  -12.936;35637.957
643.255;33467.801;   -9.966;36567.074
643.833;33229.176;   -8.916;37809.434
644.412;34605.379;  -10.936;37337.293
644.990;36406.609;  -12.176;37018.531
645.569;36050.395;  -12.246;36518.469
646.147;35214.063;  -12.107;36186.430
646.726;34954.422;  -12.937;36267.688
647.304;37969.141;  -12.547;36647.625
647.882;38050.945;  -12.597;39286.742
648.461;35566.633;   -9.427;39157.703
649.039;32946.508;   -8.937;35412.883
649.617;31854.824;  -11.067;34744.918
650.195;31808.510;  -10.657;35403.098
650.773;30912.389;  -10.097;35053.797
651.352;28716.551;  -11.887;33756.816
651.930;24906.020;  -13.557;31868.773
652.508;22450.824;  -11.767;33121.551
653.086;23115.342;  -10.777;33564.793
653.663;27426.525;  -12.067;34054.668
654.241;30451.422;  -14.918;35693.309
654.819;30747.635;  -11.788;36422.906
655.397;30356.891;  -11.268;38213.484
655.975;31611.697;  -11.738;39507.625
656.553;31255.641;  -11.018;39498.223
657.130;30001.088;  -12.848;40395.480
657.708;29170.090;  -10.098;39242.020
658.286;29222.598;  -11.678;38920.020
658.863;30238.469;  -11.498;40202.898
659.441;31264.391;  -11.008;39677.938
660.018;32356.861;  -11.048;40413.355
660.596;32158.309;  -12.058;39931.414
661.173;31885.141;  -14.158;39604.531
661.750;31630.324;  -12.298;39700.070
662.328;31316.125;  -10.699;39292.809
662.905;29764.709;  -12.119;38235.648
663.482;25999.967;  -11.829;36212.305
664.060;24927.225;  -11.009;35944.945
664.637;27791.590;  -10.369;35170.785
665.214;28685.156;  -10.459;34197.523
665.791;27290.100;  -12.599;34549.520
666.368;26784.529;  -12.919;35118.578
666.945;28459.881;  -10.699;36019.418
667.522;29029.699;  -11.359;36048.438
668.099;29336.574;  -13.529;36243.914
668.676;30230.084;  -10.229;35958.875
669.253;30060.455;   -9.279;37384.730
669.830;30175.777;  -11.370;36779.629
670.407;31555.420;  -10.950;35231.289
670.984;32164.201;  -12.850;35544.270
671.560;32136.650;   -8.440;35466.867
672.137;30521.922;  -13.520;34280.863
672.714;28934.201;  -13.620;34632.863
673.290;28674.857;  -10.450;35135.422
673.867;27613.863;  -10.960;36114.480
674.443;26674.221;  -13.300;36152.859
675.020;27132.988;  -12.370;35327.238
675.596;26924.377;  -11.250;35795.176
676.173;27526.729;  -11.080;35430.355
676.749;28152.111;  -13.220;33549.516
677.326;30884.068;  -13.000;32210.012
677.902;31533.416;  -12.701;32068.871
678.478;30812.488;  -12.801;32583.891
679.054;30107.986;   -8.601;32088.928
679.631;31445.703;  -12.631;30978.848
680.207;31543.129;   -9.451;33160.887
680.783;30322.025;  -11.701;35570.363
681.359;30180.320;  -12.701;36125.184
681.935;28747.047;  -13.271;35240.922
682.511;27398.674;  -10.791;34429.961
683.087;28526.805;  -10.791;34463.680
683.663;29373.502;   -8.121;34648.898
684.239;30746.539;  -13.261;34546.457
684.815;28968.754;  -10.581;35586.375
685.390;26415.668;   -9.961;35821.895
685.966;25466.232;  -11.182;35085.871
686.542;25299.186;  -13.512;34198.230
687.118;26198.635;  -11.472;32847.707
687.693;26306.998;  -10.152;32794.027
688.269;28013.771;  -14.442;33072.367
688.844;29370.465;  -11.852;33141.664
689.420;27580.037;  -13.942;33965.742
689.995;26133.707;   -9.702;34655.523
690.571;26077.842;  -11.312;33576.742
691.146;25868.123;  -14.332;32657.219
691.722;27682.910;  -11.192;32526.979
692.297;28959.352;  -10.962;33014.617
692.872;27546.973;  -11.082;34012.254
693.448;27065.129;  -14.732;34237.434
694.023;27192.309;  -12.363;34142.672
694.598;27411.822;  -12.393;34132.031
695.173;26814.191;  -11.023;34205.250
695.748;26999.217;  -12.743;32882.488
696.323;28628.072;  -11.103;32864.906
696.898;29644.793;   -8.123;33170.004
697.473;29155.871;  -12.603;32432.984
698.048;27875.115;  -12.553;31649.303
698.623;28604.234;  -12.573;30778.141
699.198;30463.006;  -12.743;31140.119
699.773;28277.887;  -12.843;31764.299
700.348;27572.123;  -16.683;31780.816
700.922;28298.246;  -11.403;32046.375
701.497;28820.568;  -11.253;32603.574
702.072;28465.117;  -10.044;34799.871
702.646;26917.902;  -13.054;35793.172
703.221;25931.771;  -11.414;35201.590
703.795;26876.506;  -10.644;34764.527
704.370;28072.932;  -13.484;34307.367
704.944;27952.861;  -12.144;33509.887
705.519;27393.234;  -12.024;31388.584
706.093;26540.279;  -11.234;31340.104
706.668;25029.096;   -9.874;32630.281
707.242;24825.502;  -12.404;32728.779
707.816;24520.338;  -10.644;32947.238
708.390;24727.488;  -11.174;33277.855
708.965;25814.500;  -10.324;33834.336
709.539;25581.752;  -12.014;33709.273
710.113;25549.107;  -12.295;33044.313
710.687;26264.680;  -10.965;31953.992
711.261;26733.709;  -13.685;30505.949
711.835;26016.477;  -15.335;30262.369
712.409;25744.666;  -13.785;31254.447
712.983;26914.482;  -10.525;32754.986
713.557;27881.760;  -13.175;34018.824
714.131;28407.264;  -13.245;34579.625
714.704;29494.727;  -13.175;33890.262
715.278;30209.070;  -11.545;33531.102
715.852;28756.635;  -10.975;33601.660
716.425;27956.400;  -10.075;33515.117
716.999;27684.293;  -12.185;33185.555
717.573;28657.598;   -9.685;33905.996
718.146;29714.082;  -10.516;35199.293
718.720;26228.826;  -12.106;35060.551
719.293;26049.586;  -12.386;34973.230
719.867;27842.467;  -12.456;36394.449
720.440;27179.568;  -10.686;36663.008
721.013;27514.723;  -12.596;35102.426
721.587;28125.469;  -13.956;33985.266
722.160;27882.646;   -9.806;33524.965
722.733;28491.285;  -11.676;32987.043
723.306;28382.816;  -14.276;33066.301
723.880;28391.543;  -12.126;33399.500
724.453;28869.467;  -10.156;33468.297
725.026;27586.854;  -12.956;33816.637
725.599;25963.178;  -11.676;32797.996
726.172;25572.021;  -12.337;33187.434
726.745;26968.557;  -11.277;35136.613
727.318;26116.648;  -11.927;35751.730
727.891;25037.459;  -13.607;35890.430
728.463;25168.291;  -11.327;34822.090
729.036;25145.010;  -11.917;32895.086
729.609;26172.730;  -12.697;31823.225
730.182;27243.160;  -11.787;31445.283
730.754;28078.342;  -12.957;32373.223
731.327;28557.311;  -11.017;33676.820
731.900;27135.848;  -12.797;33417.000
732.472;25210.123;  -10.677;31978.498
733.045;24640.965;  -12.797;30368.777
733.617;24884.766;  -13.908;30574.215
734.190;24666.104;  -12.258;31280.975
734.762;25599.967;  -13.438;31674.412
735.334;25444.033;  -11.758;31247.291
735.907;25439.539;  -11.158;29876.211
736.479;26399.201;  -11.258;29808.488
737.051;28198.832;  -10.918;30233.547
737.623;29502.924;  -11.038;31469.086
738.195;28741.486;  -12.188;31784.225
738.768;25844.439;  -11.378;32120.523
739.340;25325.188;  -12.598;32094.342
739.912;26228.811;  -11.568;31312.680
740.484;25982.518;   -9.348;31946.238
741.056;25299.039;  -12.628;32984.059
741.628;25675.715;  -13.349;33897.715
742.199;26002.672;  -11.309;33213.016
742.771;26601.475;  -12.699;31369.113
743.343;27994.363;  -11.919;31865.473
743.915;28060.219;  -11.679;32388.631
744.487;26714.881;  -12.249;31079.568
745.058;25409.424;  -11.119;30570.107
745.630;24413.889;   -9.439;29970.127
746.201;24206.584;  -11.949;29186.766
746.773;23602.148;  -12.639;28805.723
747.344;22880.156;  -11.039;29591.223
747.916;21973.285;  -12.549;31412.201
748.487;21319.596;  -12.659;32194.898
749.059;21689.434;  -13.059;32533.719
749.630;22368.402;  -12.080;32158.518
750.201;21503.205;  -13.100;30855.395
750.773;20402.279;  -15.310;28622.555
751.344;20466.801;  -12.240;28405.732
751.915;20641.666;  -11.960;28461.551
752.486;20793.037;  -13.200;27842.850
753.057;20273.988;  -15.230;27845.008
753.628;19631.195;  -13.130;27728.107
754.199;19672.506;  -12.720;27381.086
754.770;19693.756;  -10.680;25882.203
755.341;19845.096;  -11.010;25886.184
755.912;19080.371;  -12.990;26050.861
756.483;18124.264;  -11.110;26798.779
757.054;17891.309;  -12.190;27048.238
757.625;18031.283;  -13.981;26294.838
758.195;18429.580;  -11.041;26142.076
758.766;19665.619;  -11.861;26392.234
759.337;20143.596;  -11.461;26334.594
759.907;20251.375;  -15.001;27579.652
760.478;20001.809;   -9.681;28352.770
761.048;19488.523;  -12.421;27325.088
761.619;18766.604;  -11.761;26460.428
762.189;17559.066;  -12.391;26029.826
762.760;17386.807;  -10.201;26430.145
763.330;18492.613;  -10.811;26670.902
763.900;20598.654;  -10.261;26603.021
764.471;19846.443;  -13.061;25542.740
765.041;18845.670;  -11.051;24358.459
765.611;18830.652;  -11.032;23991.297
766.181;18570.213;  -10.532;24470.236
766.751;18081.191;  -13.502;24845.975
767.321;17906.893;  -11.392;24533.633
767.891;18179.311;  -11.522;24916.492
768.461;18998.758;  -13.672;24776.771
769.031;18743.771;  -14.652;24757.988
769.601;17657.660;  -10.182;24181.088
770.171;15794.646;  -11.752;23670.387
770.741;14933.363;  -12.272;22960.045
771.311;15036.174;  -13.112;22917.523
771.880;15133.736;  -14.122;23562.941
772.450;16397.447;  -11.782;24216.500
773.020;17493.457;  -12.642;24140.398
773.589;16226.020;  -13.043;24414.857
774.159;14248.128;  -11.783;23858.717
774.729;13821.365;  -13.473;22942.135
775.298;15238.289;  -14.523;22324.033
775.867;16230.717;  -12.013;21140.313
776.437;15402.417;  -12.113;20838.092
777.006;14000.191;  -13.543;20599.510
777.576;12524.236;  -12.523;20508.809
778.145;12564.119;  -12.173;20732.947
778.714;13680.771;  -12.153;21062.465
779.283;14159.559;  -11.833;20949.664
779.853;14577.350;  -13.483;20508.623
780.422;14924.313;  -12.933;20649.082
780.991;14189.706;  -13.173;21527.520
781.560;12842.406;  -10.224;22632.658
782.129;12808.805;  -12.684;23048.277
782.698;14137.009;  -11.284;23438.555
783.267;14937.043;  -11.684;23267.734
783.836;13957.896;  -10.974;22415.133
784.404;12913.804;  -13.534;20443.152
784.973;13018.792;  -16.734;19699.150
785.542;12929.099;  -12.594;19763.828
786.111;12484.210;  -11.644;20341.408
786.679;12969.255;  -11.384;20207.967
787.248;13612.016;  -12.014;19516.465
787.817;12591.229;  -12.804;18900.363
788.385;11430.271;  -11.994;17879.121
788.954;11479.412;  -12.564;17658.301
789.522;12520.382;  -12.225;17788.879
790.090;12545.375;  -13.775;18118.277
790.659;11693.739;  -12.485;18338.736
791.227;11455.901;  -12.295;18508.615
791.795;11591.105;  -13.415;17898.254
792.364;11195.047;  -12.995;17295.133
792.932;10888.155;   -8.365;16822.051
793.500;10990.117;  -11.925;17040.148
794.068;11041.037;  -13.245;17179.787
794.636;10834.760;  -13.815;16664.246
795.204;10309.896;  -13.375;16524.545
795.772;10419.991;  -12.125;17274.564
796.340;10874.494;  -13.855;17891.002
796.908;10991.438;  -13.456;17648.561
797.476;10416.589;  -13.116;17064.080
798.044;10112.287;  -13.226;16672.777
798.612;10819.076;  -11.236;17023.996
799.180;11633.080;  -10.476;16561.615
799.747;11658.223;  -11.746;15962.773
800.315;10771.217;  -12.366;15296.992
800.883;10024.502;  -14.616;14801.771
801.450;10006.477;  -11.996;14534.430
802.018;10514.869;  -11.206;14173.248
802.585; 9663.663;  -12.466;14029.547
803.153; 8577.336;  -12.846;13836.846
803.720; 8341.980;  -12.136;13567.324
804.287; 8591.805;  -10.966;13360.622
804.855; 9053.193;   -9.797;13681.981
805.422; 8875.486;  -13.037;13536.560
805.989; 8574.917;  -12.697;13355.958
806.556; 8769.995;  -11.737;13747.896
807.124; 9111.577;  -11.997;13987.376
807.691; 8689.660;  -13.997;14038.674
808.258; 8609.706;  -10.927;14120.152
808.825; 9127.628;  -13.727;13860.111
809.392; 9442.885;  -11.847;13268.790
809.959; 8653.456;  -14.217;12680.389
810.526; 7798.138;   -8.277;12427.308
811.093; 7683.452;   -9.647;12030.105
811.659; 7499.608;  -10.987;11653.664
812.226; 7025.141;  -13.447;11637.183
812.793; 7222.355;  -14.418;11611.521
813.360; 7678.955;  -13.908;11885.181
813.926; 7749.761;  -12.918;12770.539
814.493; 7739.740;  -14.888;12677.638
815.060; 7849.670;  -12.758;11974.336
815.626; 8105.333;  -13.478;11594.715
816.193; 8041.700;  -13.898;11579.474
816.759; 7663.057;  -13.588;11666.972
817.325; 7514.783;  -12.018;11325.530
817.892; 7017.960;  -14.068;11105.369
818.458; 6430.032;  -13.458;10843.928
819.024; 6220.485;  -11.968;10714.406
819.591; 5940.489;  -11.028;10469.165
820.157; 5696.708;  -12.088;10235.523
820.723; 5579.829;  -12.599;10847.563
821.289; 5863.519;  -10.419;11040.980
821.855; 6568.798;  -10.939;10357.100
822.421; 7068.674;  -12.539; 9978.918
822.987; 6910.976;  -13.259; 9754.177
823.553; 6358.932;  -15.369;10065.755
824.119; 6127.022;  -10.779;10036.294
824.685; 5717.314;   -9.999;10029.192
825.251; 5388.268;  -11.819;10199.230
825.816; 5186.517;  -13.369; 9820.189
826.382; 5325.203;  -12.679; 9297.248
826.948; 5460.507;  -11.199; 9381.347
827.513; 5303.180;  -11.179; 9450.726
828.079; 5301.248;  -13.489; 9472.444
828.645; 5591.355;  -12.500; 9292.643
829.210; 5782.032;  -15.120; 9065.341
829.776; 5619.154;  -12.590; 9132.620
830.341; 5471.010;  -11.540; 9092.878
830.906; 5554.238;  -12.400; 9078.557
831.472; 5469.456;  -12.720; 8534.535
832.037; 4981.737;  -11.490; 8677.874
832.602; 4535.108;  -14.380; 8628.692
833.167; 4731.396;  -12.780; 8879.031
833.733; 5018.875;  -11.100; 9189.790
834.298; 5291.113;  -12.080; 9052.608
834.863; 5186.604;  -13.910; 8895.087
835.428; 4892.398;  -13.470; 8824.266
835.993; 5163.853;  -11.760; 8845.385
836.558; 5580.600;  -12.731; 8888.563
837.123; 5612.875;  -12.431; 8966.582
837.688; 5309.671;  -11.241; 8617.860
838.253; 5001.361;  -13.681; 8590.699
838.817; 4839.024;  -12.531; 8443.797
839.382; 5085.206;  -12.671; 8799.356
839.947; 5044.875;  -11.541; 8810.595
840.511; 4861.288;  -12.021; 8796.394
841.076; 4788.602;  -13.071; 8347.231
841.641; 4617.705;  -11.411; 8224.330
842.205; 4478.162;  -13.671; 8223.349
842.770; 4516.145;  -11.291; 8622.107
843.334; 4601.858;  -12.951; 8410.386
843.898; 4607.921;  -11.221; 8337.465
844.463; 4516.089;  -11.322; 8506.283
845.027; 4248.818;  -11.412; 8280.962
845.591; 4048.154;  -11.512; 8231.141
846.156; 4269.135;  -14.042; 7969.179
846.720; 4520.018;  -12.152; 7768.278
847.284; 4510.074;  -10.922; 7630.957
847.848; 4217.915;  -10.962; 7472.395
848.412; 3896.317;  -14.612; 7437.394
848.976; 3937.425;  -11.492; 7674.592
849.540; 3985.960;   -9.172; 7836.011
850.104; 4349.397;  -11.232; 7913.669
850.668; 4661.507;  -15.182; 7694.508
851.232; 4318.646;  -15.332; 7756.887
851.796; 4115.281;  -13.703; 7926.545
852.359; 4195.629;  -11.113; 7827.844
852.923; 4049.651;  -11.843; 7641.163
853.487; 3862.098;  -11.173; 7342.501
854.050; 3677.657;  -13.443; 7042.820
854.614; 3601.404;  -13.823; 7151.338
855.177; 3739.203;  -16.393; 7105.077
855.741; 3868.887;  -11.693; 6989.675
856.304; 3867.294;  -10.843; 6596.634
856.868; 3771.849;  -13.783; 6356.272
857.431; 3560.108;  -11.953; 6468.571
857.995; 3438.630;  -13.683; 6373.210
858.558; 3402.148;  -11.433; 6324.448
859.121; 3375.032;  -12.493; 6408.327
859.684; 3455.989;  -12.384; 6347.886
860.247; 3486.222;  -14.774; 6321.264
860.810; 3306.868;  -13.154; 6301.903
861.374; 3156.693;  -11.264; 6607.881
861.937; 3089.373;  -15.424; 6408.200
862.500; 3079.101;  -12.854; 6572.639
863.062; 3043.038;  -12.344; 6387.297
863.625; 2874.103;  -13.314; 6190.836
864.188; 2483.010;  -14.724; 5807.254
864.751; 2154.185;  -13.464; 5682.413
865.314; 1915.168;  -11.684; 5547.492
865.876; 1812.889;  -11.104; 5500.150
866.439; 1908.015;  -12.344; 5415.909
867.002; 2068.732;  -13.494; 5501.567
867.564; 2265.315;  -10.935; 5413.946
868.127; 2354.667;  -12.665; 5160.325
868.689; 2328.474;  -14.515; 5133.183
869.252; 2326.331;  -13.425; 5252.382
869.814; 2344.753;  -11.595; 5297.141
870.377; 2366.240;  -12.175; 5390.919
870.939; 2317.132;  -10.265; 5599.898
871.501; 2282.860;  -12.375; 5248.336
872.063; 2275.464;  -14.355; 4854.235
872.626; 2298.476;  -14.435; 4817.074
873.188; 2232.151;  -12.415; 4987.732
873.750; 2185.428;  -14.555; 4868.651
874.312; 2204.935;  -11.185; 4779.330
874.874; 2179.230;  -12.715; 4866.348
875.436; 2090.057;  -13.196; 4718.887
875.998; 1998.570;  -11.426; 4660.005
876.560; 1940.216;   -9.786; 4462.964
877.122; 1918.121;  -12.796; 4145.042
877.683; 1829.948;  -13.226; 4056.481
878.245; 1684.673;  -12.036; 3950.740
878.807; 1566.729;  -11.536; 4058.958
879.369; 1595.005;  -10.806; 3954.677
879.930; 1735.222;  -13.946; 3941.495
880.492; 1789.873;  -11.876; 4067.014
881.053; 1641.062;  -13.216; 3859.633
881.615; 1536.757;  -12.226; 3776.071
882.176; 1483.466;  -12.946; 3734.750
882.738; 1475.514;  -10.736; 3678.489
883.299; 1439.960;  -12.057; 3405.407
883.860; 1359.071;  -12.677; 3351.106
884.422; 1310.434;  -14.097; 3394.044
884.983; 1260.463;  -13.667; 3166.443
885.544; 1204.851;  -10.717; 3189.802
886.105; 1144.385;  -14.357; 3160.360
886.666; 1083.793;  -14.287; 3093.059
887.227; 1019.288;  -14.297; 2941.957
887.788;  965.749;  -13.137; 2974.836
888.349;  903.419;  -14.637; 2721.214
888.910;  853.623;  -12.247; 2696.493
889.471;  852.028;  -10.577; 2560.172
890.032;  858.317;  -12.937; 2558.190
890.593;  862.719;  -12.487; 2567.669
891.153;  843.077;  -11.898; 2460.307
891.714;  811.324;  -14.278; 2372.046
892.275;  787.619;  -13.308; 2309.505
892.835;  724.703;  -12.058; 2382.543
893.396;  645.538;  -15.268; 2295.502
893.956;  603.145;  -13.278; 2162.420
894.517;  583.026;  -11.968; 2125.439
895.077;  583.946;  -12.798; 2086.978
895.638;  560.832;  -11.908; 2126.316
896.198;  537.999;  -13.288; 1838.275
896.758;  516.547;  -12.198; 1892.813
897.319;  492.666;  -13.048; 1792.232
897.879;  457.300;  -13.718; 1762.751
898.439;  416.248;  -14.138; 1661.149
898.999;  391.220;  -13.659; 1781.468
899.559;  378.056;  -14.699; 1703.347
900.119;  358.958;  -14.339; 1537.525
900.679;  337.054;  -11.789; 1638.384
901.239;  311.214;  -13.629; 1527.902
901.799;  289.963;  -13.679; 1456.441
902.359;  280.018;  -13.679; 1357.140
902.919;  272.963;  -14.159; 1331.118
903.479;  259.407;  -13.419; 1317.257
904.038;  243.378;  -14.899; 1262.595
904.598;  228.352;  -14.339; 1152.034
905.158;  221.475;  -13.959; 1240.893
905.717;  215.532;  -12.749; 1233.691
906.277;  211.782;  -11.889; 1217.330
906.836;  206.110;  -12.870; 1222.408
907.396;  199.988;  -11.790; 1193.047
907.955;  191.982;  -13.750; 1182.526
908.515;  182.583;  -14.760; 1099.364
909.074;  177.464;  -12.540; 1092.863
909.633;  172.713;  -12.120; 1069.121
910.192;  168.855;  -12.550; 1196.460
910.752;  163.443;  -12.760; 1029.960
911.311;  159.203;  -14.750; 1009.780
911.870;  157.471;  -13.860;  971.460
912.429;  158.405;  -13.480; 1094.080
912.988;  157.259;  -12.370; 1081.060
913.547;  154.143;  -14.670;  940.380
914.106;  152.324;  -12.800;  999.420
914.665;  151.385;  -11.370;  984.020
915.224;  148.286;  -11.430; 1035.760
915.782;  144.713;  -12.260;  922.560
916.341;  144.299;  -12.540; 1049.840
916.900;  142.104;  -12.540;  925.260
917.458;  139.523;  -13.480;  884.220
918.017;  138.961;  -12.470;  942.600
918.576;  138.754;  -13.450;  904.440
919.134;  138.107;  -12.890;  837.980
919.693;  137.630;  -15.480;  893.060
920.251;  135.323;  -14.420;  876.500
920.809;  135.152;  -12.170;  839.580
921.368;  133.601;  -13.650;  885.360
921.926;  132.952;  -12.750;  842.940
922.484;  131.989;  -14.150;  903.360
923.042;  132.041;  -15.100;  880.340
923.601;  134.291;  -10.990;  998.680
924.159;  133.426;  -12.470;  935.560
924.717;  132.746;  -15.640;  841.080
925.275;  134.124;  -12.380;  903.240
925.833;  134.512;  -12.710;  779.320
926.391;  137.505;  -11.200;  938.380
926.949;  138.100;  -16.000;  857.680
927.506;  141.919;  -12.260;  903.500
928.064;  146.141;  -11.300;  877.580
928.622;  144.380;  -13.750;  880.100
929.180;  138.694;  -15.290;  814.180
929.737;  133.270;  -14.500;  808.540
930.295;  131.806;  -10.630;  928.480
930.853;  133.622;  -14.590;  849.100
931.410;  136.214;  -14.450;  821.120
931.968;  140.871;  -14.390;  940.660
932.525;  143.761;  -13.050;  909.380
933.082;  148.529;  -15.620;  811.440
933.640;  157.183;  -15.650;  925.900
934.197;  161.409;  -13.610;  886.360
934.754;  163.875;  -13.320;  897.780
935.312;  163.940;  -13.370;  863.340
935.869;  167.793;  -12.780; 1012.980
936.426;  167.911;  -14.480;  872.800
936.983;  171.375;  -13.180;  889.020
937.540;  173.073;  -15.710;  838.280
938.097;  171.540;  -14.980;  940.120
938.654;  170.477;  -13.060;  898.860
939.211;  170.066;  -12.760;  952.480
939.768;  171.267;  -16.230;  915.420
940.324;  176.044;  -10.940;  904.200
940.881;  180.392;  -12.570;  878.500
941.438;  182.813;  -13.650; 1021.200
941.995;  178.671;  -13.300;  992.560
942.551;  177.580;  -15.800;  875.620
943.108;  175.276;  -14.180;  937.920
943.664;  171.034;  -13.890;  869.340
944.221;  169.847;  -12.640; 1088.140
944.777;  169.587;  -14.700;  869.680
945.334;  173.539;  -13.010;  884.840
945.890;  174.690;  -13.480;  946.480
946.446;  172.220;  -14.920;  947.020
947.003;  172.432;  -13.860;  964.940
947.559;  173.551;  -12.000; 1063.040
948.115;  171.234;  -10.510; 1026.540
948.671;  169.488;  -12.760;  967.300
949.227;  166.689;  -15.390;  859.560
949.783;  163.998;  -15.570;  858.900
950.339;  162.595;  -12.800;  991.000
950.895;  160.876;  -13.780; 1023.840
951.451;  156.231;  -13.810;  925.280
952.007;  155.211;  -12.390;  998.540
952.563;  153.037;  -11.980;  937.780
953.118;  149.448;  -14.070;  904.940
953.674;  149.014;  -14.140;  935.780
954.230;  149.483;  -12.680;  949.640
954.785;  151.242;  -12.770;  936.640
955.341;  152.749;  -11.450;  998.160
955.897;  146.827;  -15.350;  834.660
956.452;  146.385;  -14.200;  953.840
957.008;  146.351;  -10.820; 1083.640
957.563;  142.259;  -13.200; 1009.540
958.118;  136.975;  -14.460;  877.700
958.674;  137.341;  -13.840;  946.780
959.229;  139.869;  -10.670; 1013.980
959.784;  140.923;  -17.040;  832.400
960.339;  142.642;  -12.970; 1001.280
960.894;  141.748;  -12.700;  963.760
961.449;  141.698;  -13.790;  859.960
962.004;  145.204;  -11.760; 1212.840
962.559;  141.811;  -14.840;  860.140
963.114;  141.761;  -14.530;  742.480
963.669;  144.409;  -12.780;  915.500
964.224;  142.808;  -14.330;  874.340
964.779;  138.067;  -14.380;  828.420
965.334;  134.883;  -12.460; 1017.860
965.888;  132.273;  -13.490;  875.360
966.443;  132.794;  -14.140;  972.380
966.998;  127.608;  -16.240;  819.460
967.552;  126.397;  -12.730;  908.380
968.107;  122.912;  -14.510;  868.300
968.661;  124.339;  -11.850;  922.440
969.216;  122.132;  -14.370;  856.280
969.770;  122.662;  -13.010;  917.200
970.324;  120.430;  -12.460;  923.140
970.879;  119.282;  -11.580;  947.180
971.433;  119.124;  -13.130;  952.720
971.987;  116.536;  -12.360;  895.340
972.541;  115.691;  -14.330;  917.100
973.095;  116.249;  -13.310; 1009.460
973.649;  115.621;  -15.830;  809.480
974.203;  117.206;  -15.830;  829.040
974.757;  119.971;  -13.480;  855.220
975.311;  118.635;  -13.720;  872.600
975.865;  116.127;  -15.780;  881.820
976.419;  112.259;  -14.290;  857.400
976.973;  111.392;  -13.210;  849.620
977.526;  110.306;  -12.300;  949.920
978.080;  105.613;  -14.840;  796.780
978.634;  105.875;  -13.100;  921.320
979.187;  102.111;  -12.300;  905.400
979.741;  100.270;  -12.020; 1018.380
980.294;   93.986;  -14.590;  789.160
980.848;   89.845;  -14.390;  717.220
981.401;   91.045;  -14.280;  816.540
981.955;   91.564;  -11.920;  844.300
982.508;   87.277;  -15.790;  746.340
983.061;   87.254;  -12.070;  915.260
983.615;   85.004;  -13.260;  798.800
984.168;   83.546;  -15.540;  770.080
984.721;   82.395;  -13.230;  880.760
985.274;   82.177;  -11.820;  867.500
985.827;   80.181;  -13.510;  834.220
986.380;   76.601;  -14.840;  721.340
986.933;   75.874;  -13.970;  864.800
987.486;   75.310;  -12.450;  861.920
988.039;   74.269;  -11.170;  863.100
988.591;   71.568;  -13.070;  893.260
989.144;   68.177;  -15.530;  737.260
989.697;   66.371;  -14.300;  758.740
990.250;   66.884;  -13.310;  858.100
990.802;   65.379;  -14.490;  755.860
991.355;   67.161;  -12.980;  974.880
991.907;   65.458;  -13.715;  864.320
992.460;   63.755;  -14.450;  753.760
993.012;   62.738;  -12.590;  749.540
993.565;   59.865;  -15.180;  711.360
994.117;   62.264;  -11.630;  950.780
994.669;   58.622;  -13.760;  701.320
995.221;   57.161;  -12.710;  791.920
995.774;   56.608;  -14.620;  787.580
996.326;   55.521;  -13.150;  740.220
996.878;   57.015;  -12.880;  838.420
997.430;   55.021;  -14.580;  699.860
997.982;   54.295;  -14.030;  750.140
998.534;   54.188;  -12.190;  739.060
999.086;   52.279;  -12.990;  738.220
999.638;   50.519;  -13.180;  661.380
1000.190;   50.114;  -14.970;  699.320
1000.741;   49.632;  -12.200;  742.700
1001.293;   50.581;  -13.400;  686.020
1001.845;   50.050;  -14.490;  676.640
1002.396;   49.592;  -15.280;  743.400
1002.948;   49.250;  -12.380;  737.400
1003.500;   48.858;  -13.260;  723.780
1004.051;   49.653;  -13.730;  907.580
1004.603;   47.996;  -12.300;  791.820
1005.154;   43.455;  -15.330;  608.980
1005.705;   43.630;  -12.800;  723.960
1006.257;   43.153;  -13.900;  707.220
1006.808;   41.592;  -14.430;  685.460
1007.359;   41.112;  -12.010;  763.240
1007.910;   40.372;  -12.690;  646.640
1008.461;   40.451;  -13.610;  732.940
1009.013;   38.208;  -14.990;  588.340
1009.564;   39.903;  -11.860;  793.520
1010.115;   36.978;  -12.640;  597.040
1010.665;   37.923;  -14.570;  602.160
1011.216;   37.962;  -15.190;  667.920
1011.767;   37.774;  -13.470;  697.920
1012.318;   37.082;  -13.760;  736.980
1012.869;   35.803;  -15.950;  679.000
1013.419;   35.474;  -15.880;  603.120
1013.970;   35.838;  -14.540;  666.640
1014.521;   35.432;  -13.220;  620.620
1015.071;   36.709;  -15.020;  670.380
1015.622;   34.190;  -17.510;  635.460
1016.172;   33.725;  -14.130;  596.820
1016.723;   34.560;  -14.220;  614.380
1017.273;   33.787;  -15.370;  604.160
1017.823;   33.529;  -15.290;  650.340
1018.374;   33.687;  -13.420;  611.760
1018.924;   33.699;  -11.740;  716.880
1019.474;   33.926;  -12.250;  718.880
1020.024;   32.395;  -15.850;  657.580
1020.574;   33.031;  -13.280;  726.160
1021.124;   32.972;  -13.560;  673.580
1021.674;   31.441;  -13.790;  559.120
1022.224;   32.605;  -14.610;  708.940
1022.774;   32.311;  -13.100;  668.820
1023.324;   33.045;  -11.470;  753.520
1023.874;   33.572;  -11.990;  875.760
1024.423;   30.153;  -14.550;  613.700
1024.973;   30.737;  -14.440;  610.760
1025.523;   30.658;  -13.250;  620.960
1026.072;   30.202;  -15.200;  606.420
1026.622;   30.429;  -14.590;  675.740
1027.172;   30.295;  -11.080;  715.660
1027.721;   29.004;  -14.010;  601.220
1028.270;   29.955;  -13.690;  663.400
1028.820;   28.973;  -15.380;  638.080
1029.369;   28.967;  -14.980;  612.700
1029.918;   29.628;  -13.100;  649.840
1030.468;   28.551;  -13.680;  564.780
1031.017;   29.052;  -13.770;  634.800
1031.566;   27.309;  -14.100;  608.900
1032.115;   29.034;  -11.770;  694.500
1032.664;   28.002;  -14.940;  596.480
1033.213;   28.176;  -13.370;  735.420
1033.762;   27.400;  -13.660;  635.620
1034.311;   27.252;  -13.650;  677.220
1034.860;   28.269;  -13.820;  691.000
1035.408;   27.656;  -12.860;  722.720
1035.957;   27.333;  -13.060;  719.540
1036.506;   25.304;  -14.510;  530.800
1037.055;   28.218;  -13.470;  844.320
1037.603;   26.388;  -14.800;  664.000
1038.152;   24.993;  -14.190;  534.760
1038.700;   25.526;  -11.810;  585.740
1039.249;   25.901;  -12.850;  681.220
1039.797;   26.164;  -14.610;  633.360
1040.345;   25.192;  -15.220;  705.420
1040.894;   25.036;  -13.480;  625.300
1041.442;   25.021;  -13.310;  632.200
1041.990;   23.121;  -14.510;  559.160
1042.538;   23.164;  -15.700;  536.180
1043.087;   24.333;  -13.910;  570.860
1043.635;   25.395;  -13.620;  670.500
1044.183;   24.339;  -14.230;  586.400
1044.731;   23.734;  -13.730;  576.000
1045.279;   24.329;  -13.970;  674.920
1045.827;   26.582;  -10.750;  892.400
1046.374;   22.504;  -15.230;  515.420
1046.922;   21.675;  -15.390;  590.580
1047.470;   23.750;  -12.320;  691.300
1048.018;   23.121;  -13.230;  647.960
1048.565;   23.887;  -13.390;  708.600
1049.113;   21.810;  -15.030;  557.000
1049.660;   22.629;  -12.540;  629.660
1050.208;   23.049;  -15.040;  675.640
1050.755;   20.998;  -14.680;  606.580
1051.303;   22.269;  -13.610;  686.820
1051.850;   21.261;  -14.340;  635.120
1052.397;   20.102;  -16.330;  473.960
1052.945;   20.657;  -15.710;  617.760
1053.492;   22.583;  -12.320;  741.840
1054.039;   21.741;  -13.730;  720.180
1054.586;   20.458;  -16.140;  557.240
1055.133;   20.572;  -14.020;  693.140
1055.680;   20.862;  -13.430;  646.620
1056.227;   19.781;  -14.570;  542.780
1056.774;   22.793;  -14.400;  794.980
1057.321;   19.584;  -14.230;  523.260
1057.868;   19.977;  -14.220;  651.320
1058.415;   19.894;  -14.060;  651.980
1058.961;   20.802;  -14.640;  678.940
1059.508;   19.852;  -13.970;  643.820
1060.055;   19.195;  -15.100;  581.780
1060.601;   20.296;  -12.180;  624.300
1061.148;   19.358;  -15.010;  616.820
1061.694;   18.650;  -14.750;  592.580
1062.241;   18.920;  -14.130;  596.320
1062.787;   19.170;  -14.770;  663.140
1063.334;   21.468;  -13.130;  808.560
1063.880;   18.576;  -14.420;  668.360
1064.426;   19.158;  -13.130;  706.820
1064.972;   17.216;  -13.960;  601.340
1065.518;   17.032;  -13.680;  566.640
1066.065;   18.197;  -15.720;  624.460
1066.611;   17.413;  -13.970;  598.800
1067.157;   18.109;  -13.920;  641.860
1067.703;   18.279;  -14.760;  668.480
1068.249;   17.181;  -14.490;  605.220
1068.794;   17.223;  -14.740;  626.880
1069.340;   16.910;  -13.220;  578.960
1069.886;   17.856;  -14.930;  590.700
1070.432;   15.989;  -14.700;  541.720
1070.977;   16.660;  -14.470;  601.080
1071.523;   16.645;  -14.330;  573.060
1072.068;   16.755;  -14.960;  582.000
1072.614;   15.874;  -16.220;  527.760
1073.160;   17.026;  -11.280;  687.040
1073.705;   14.855;  -15.990;  572.520
1074.250;   15.480;  -16.550;  559.900
1074.796;   16.454;  -14.600;  655.160
1075.341;   16.146;  -13.440;  664.100
1075.886;   15.608;  -14.450;  594.240
1076.431;   15.784;  -13.160;  649.880
1076.976;   14.742;  -14.710;  639.220
1077.521;   14.938;  -14.000;  583.080
1078.067;   13.753;  -14.470;  579.400
1078.612;   15.197;  -14.530;  661.620
1079.156;   14.193;  -15.660;  601.540
1079.701;   14.872;  -16.120;  693.260
1080.246;   16.008;  -12.960;  696.300
1080.791;   15.038;  -13.700;  625.020
1081.336;   14.005;  -15.540;  659.320
1081.880;   13.979;  -14.640;  649.680
1082.425;   13.848;  -14.220;  573.480
1082.970;   16.060;  -11.890;  717.040
1083.514;   14.247;  -13.820;  597.000
1084.059;   13.022;  -14.280;  586.720
1084.603;   12.724;  -12.890;  565.840
1085.147;   13.925;  -13.590;  645.220
1085.692;   14.192;  -14.050;  716.800
1086.236;   12.014;  -14.990;  503.140
1086.780;   14.634;  -12.640;  751.440
1087.325;   13.713;  -15.550;  654.620
1087.869;   13.226;  -14.980;  610.700
1088.413;   13.422;  -13.440;  705.040
1088.957;   11.940;  -12.170;  543.400
1089.501;   14.790;  -12.730;  766.640
1090.045;   12.463;  -14.650;  726.480
1090.589;   10.963;  -14.500;  569.920
1091.133;   12.351;  -12.320;  673.340
1091.676;   12.421;  -16.130;  591.940
1092.220;   12.001;  -13.930;  600.920
1092.764;   13.057;  -12.820;  706.960
1093.307;   12.537;  -11.700;  673.780
1093.851;   11.191;  -15.600;  556.540
1094.395;   11.750;  -13.920;  683.140
1094.938;   11.117;  -16.090;  632.520
1095.482;   11.944;  -13.820;  559.800
1096.025;   13.036;  -12.720;  710.880
1096.568;   12.876;  -12.100;  779.280
1097.112;    8.584;  -15.450;  508.180
1097.655;   11.192;  -14.310;  603.000
1098.198;   10.162;  -14.740;  600.180
1098.741;    9.473;  -15.550;  612.860
1099.285;   10.833;  -12.600;  657.300
1099.828;    8.864;  -15.050;  439.400
1100.371;   10.900;  -14.800;  608.160
1100.914;   10.657;  -16.480;  682.660
1101.457;   10.168;  -12.990;  679.900
1101.999;    9.181;  -14.110;  584.680
1102.542;   10.229;  -11.450;  641.440
1103.085;    9.683;  -13.350;  658.500
1103.628;   11.454;  -13.200;  762.060
1104.170;    8.972;  -12.310;  588.280
1104.713;   10.038;  -14.320;  646.700
1105.256;    8.606;  -16.110;  557.440
1105.798;    7.660;  -15.910;  499.980
1106.341;   10.671;  -12.200;  728.900
1106.883;    8.226;  -14.910;  521.340
1107.425;    9.139;  -14.960;  668.180
1107.968;    8.290;  -13.440;  612.380
1108.510;    9.867;  -14.010;  684.960
1109.052;    8.616;  -15.430;  612.620
1109.594;    8.100;  -15.290;  554.440
1110.136;    9.076;  -13.360;  643.220
1110.679;    8.027;  -13.820;  633.080
1111.221;    8.589;  -13.690;  604.460
1111.763;    7.882;  -14.890;  559.220
1112.304;    6.585;  -14.550;  547.140
1112.846;    8.718;  -12.760;  666.240
1113.388;   12.132;  -10.780;  942.180
1113.930;    8.431;  -12.690;  694.200
1114.472;    7.332;  -15.730;  606.540
1115.013;    6.091;  -14.620;  551.280
1115.555;    6.747;  -14.950;  587.100
1116.097;    5.919;  -16.460;  579.480
1116.638;    7.003;  -13.730;  684.600
1117.180;    7.312;  -13.810;  667.740
1117.721;    7.858;  -13.280;  568.580
1118.262;    6.841;  -15.080;  677.960
1118.804;    7.024;  -14.040;  637.340
1119.345;    6.279;  -15.430;  578.400
1119.886;    7.185;  -15.240;  704.040
1120.427;    5.723;  -15.820;  589.020
1120.969;    5.775;  -14.550;  597.920
1121.510;    5.284;  -14.030;  563.060
1122.051;    6.777;  -11.990;  723.580
1122.592;    5.427;  -16.490;  655.420
1123.133;    4.565;  -15.580;  547.940
1123.673;    6.754;  -12.850;  706.480
1124.214;    6.360;  -13.630;  612.460
1124.755;    6.629;  -14.830;  639.460
1125.296;    5.310;  -13.110;  627.320
1125.836;    6.772;  -11.320;  691.500
1126.377;    5.732;  -14.330;  599.660
1126.918;    5.937;  -12.800;  614.980
1127.458;    5.216;  -13.580;  622.220
1127.999;    6.741;  -10.330;  656.980
1128.539;    6.776;  -13.390;  694.240
1129.079;    4.965;  -16.420;  632.720
1129.620;    4.363;  -15.700;  558.100
1130.160;    3.838;  -14.790;  539.480
1130.700;    5.480;  -12.910;  640.840
1131.240;    4.799;  -15.610;  643.700
1131.781;    4.566;  -12.920;  619.680
1132.321;    4.625;  -15.300;  599.120
1132.861;    4.660;  -14.760;  564.200
1133.401;    3.551;  -15.470;  593.940
1133.941;    4.270;  -13.710;  626.280
1134.481;    4.540;  -11.820;  597.580
1135.020;    3.689;  -14.810;  609.160
1135.560;    4.785;  -13.660;  674.940
1136.100;    3.191;  -13.940;  501.160
1136.640;    3.486;  -15.410;  510.480
1137.179;    3.482;  -16.920;  537.960
1137.719;    3.752;  -16.430;  605.400
1138.258;    3.115;  -16.300;  587.360
1138.798;    3.713;  -13.710;  663.780
1139.337;    2.622;  -13.840;  482.840
1139.877;    3.431;  -16.140;  642.360
1140.416;    6.011;  -11.410;  878.060
1140.955;    2.805;  -12.820;  535.380
1141.494;    3.410;  -12.310;  669.280
1142.034;    2.560;  -16.280;  583.520
1142.573;    3.291;  -13.090;  646.280
1143.112;    2.086;  -13.770;  553.480
1143.651;    2.850;  -15.830;  536.480
1144.190;    3.927;  -15.010;  691.640
1144.729;    2.487;  -13.650;  607.420
1145.267;    3.169;  -13.670;  584.900
1145.806;    3.055;  -13.630;  637.040
1146.345;    2.398;  -14.160;  635.020
1146.884;    2.458;  -11.180;  622.500
1147.422;    2.329;  -15.890;  533.060
1147.961;    4.277;  -12.760;  708.460
1148.500;    1.951;  -15.220;  669.720
1149.038;    2.807;  -13.720;  632.500
1149.577;    2.359;  -13.250;  698.640
1150.115;    0.433;  -16.790;  452.280
1150.653;    1.421;  -15.810;  607.340
1151.192;    1.454;  -14.730;  552.920
1151.730;    2.218;  -13.660;  652.560
1152.268;    1.902;  -15.120;  589.520
1152.806;    1.029;  -15.580;  571.180
1153.344;    0.405;  -16.210;  577.640
1153.882;    1.683;  -12.810;  600.060
1154.421;   -0.168;  -14.150;  470.620
1154.958;    0.808;  -15.360;  595.240
1155.496;    1.688;  -14.710;  645.280
1156.034;    1.038;  -13.640;  721.880
1156.572;    2.041;  -13.740;  667.060
1157.110;   -0.045;  -16.960;  473.940
1157.647;    1.496;  -11.940;  676.960
1158.185;    0.649;  -14.090;  564.320
1158.723;    0.045;  -13.610;  509.200
1159.260;    1.254;  -14.760;  701.700
1159.798;    1.185;  -13.700;  658.160
1160.335;    0.215;  -13.820;  631.820

