
Integration time [ms]:   3.882
Averaging Nr. [scans]: 1000
Smoothing Nr. [pixels]: 0
Data measured with spectrometer [name]: 7414430SP
Wave   ;Sample   ;Dark     ;Reference
[nm]   ;[counts] ;[counts] ;[counts] 

288.544;  130.589;   10.292;  793.890
289.143;  133.652;    4.564;  681.602
289.742;  135.130;    6.144;  828.814
290.341;  121.702;    4.396;  789.841
290.940;  112.575;    0.938;  730.702
291.538;  114.413;   -0.684;  881.108
292.137;  111.699;   -2.845;  792.581
292.736;  117.155;   -0.144;  975.101
293.335;  112.540;   -6.352;  735.086
293.934;  112.037;   -7.642;  781.677
294.532;  112.871;   -4.992; 1031.958
295.131;   98.640;   -5.478;  834.394
295.730;   98.407;   -6.549;  809.588
296.328;   96.479;   -9.558;  783.442
296.927;   97.470;   -8.118;  779.652
297.525;   98.443;   -6.908;  781.236
298.124;   88.401;   -9.195;  654.009
298.722;   92.948;   -8.198;  761.933
299.321;   91.897;   -8.817;  708.597
299.919;   88.750;   -7.716;  751.918
300.518;   85.072;  -10.745;  689.338
301.116;   86.923;   -9.647;  691.381
301.715;   87.778;  -10.828;  730.222
302.313;   86.809;   -6.087;  704.943
302.911;   80.859;   -6.824;  733.830
303.509;   86.869;   -8.807;  925.627
304.108;   84.435;   -8.198;  760.383
304.706;   84.933;   -6.218;  801.664
305.304;   78.802;   -7.185;  796.707
305.902;   83.982;   -8.568;  784.484
306.500;   79.570;   -7.737;  728.200
307.098;   79.026;   -6.026;  746.560
307.696;   77.025;   -7.176;  780.432
308.294;   77.399;   -8.656;  731.359
308.892;   78.549;   -6.838;  759.769
309.490;   75.284;   -2.596;  712.161
310.088;   73.006;   -4.485;  788.444
310.686;   78.014;   -3.907;  821.749
311.284;   73.400;   -2.806;  766.040
311.882;   71.944;   -2.845;  731.225
312.480;   67.960;   -3.274;  697.167
313.078;   70.079;   -3.645;  808.331
313.675;   71.467;   -4.997;  691.600
314.273;   66.573;   -0.894;  797.837
314.871;   65.718;   -2.854;  589.829
315.468;   63.027;   -3.644;  652.090
316.066;   67.214;   -3.947;  694.427
316.664;   59.891;   -1.824;  656.351
317.261;   63.849;    1.565;  910.128
317.859;   59.631;   -3.955;  768.735
318.456;   61.034;   -2.886;  830.096
319.054;   57.285;   -0.995;  787.828
319.651;   56.427;   -1.765;  759.928
320.249;   54.915;   -3.685;  810.188
320.846;   53.137;   -3.736;  714.286
321.443;   51.671;   -2.065;  832.135
322.041;   48.538;   -5.635;  812.315
322.638;   46.529;   -5.985;  701.456
323.235;   49.258;   -6.677;  665.683
323.833;   47.357;   -3.497;  740.354
324.430;   41.935;   -6.756;  615.900
325.027;   43.624;   -7.647;  876.855
325.624;   44.740;   -7.598;  644.532
326.221;   41.746;   -5.848;  689.717
326.818;   41.986;   -5.777;  818.332
327.415;   43.838;   -8.769;  748.828
328.012;   43.868;   -6.299;  690.585
328.609;   42.369;   -6.639;  731.389
329.206;   39.987;   -6.358;  778.621
329.803;   39.420;   -8.698;  737.841
330.400;   41.872;   -8.379;  704.260
330.997;   42.006;   -6.178;  817.147
331.594;   39.381;   -5.646;  788.185
332.191;   43.886;   -6.928;  728.722
332.787;   45.179;   -6.057;  844.463
333.384;   43.447;   -6.445;  763.093
333.981;   41.595;   -8.002;  815.687
334.578;   43.093;   -8.443;  708.378
335.174;   45.398;   -6.053;  731.469
335.771;   45.212;   -5.791;  836.456
336.367;   42.079;   -6.570;  710.631
336.964;   44.374;   -6.741;  793.266
337.561;   43.977;   -5.710;  731.112
338.157;   40.426;   -3.928;  911.916
338.754;   37.441;   -5.577;  796.589
339.350;   35.362;   -9.667;  722.493
339.946;   39.162;   -5.269;  773.135
340.543;   31.207;   -4.485;  846.136
341.139;   25.126;   -7.584;  720.836
341.735;   24.555;   -8.553;  772.593
342.332;   23.357;   -4.984;  691.472
342.928;   24.027;   -3.475;  795.394
343.524;   17.914;   -6.653;  761.684
344.120;   15.922;   -7.173;  738.562
344.716;   18.973;   -4.385;  723.717
345.313;   17.139;   -3.565;  795.342
345.909;   12.434;   -7.495;  627.336
346.505;   14.323;   -8.276;  740.247
347.101;   15.511;   -5.697;  827.864
347.697;   16.764;   -4.767;  785.398
348.293;    9.778;   -7.226;  627.244
348.889;   11.233;   -7.547;  745.914
349.485;   11.452;   -9.147;  688.205
350.081;   12.862;   -6.568;  772.592
350.676;    7.355;   -6.516;  691.606
351.272;   12.244;   -7.378;  809.530
351.868;   11.909;   -6.759;  780.497
352.464;   10.194;   -4.798;  723.932
353.059;    5.195;   -7.977;  646.017
353.655;    9.073;   -8.769;  777.063
354.251;   10.382;   -5.920;  759.845
354.846;    4.647;   -7.647;  740.646
355.442;    2.720;   -6.956;  753.071
356.038;    4.268;   -9.928;  751.708
356.633;    4.641;   -7.698;  728.594
357.229;    3.228;   -6.307;  724.757
357.824;    1.370;   -7.647;  703.600
358.420;    0.471;  -10.047;  679.726
359.015;    1.986;   -7.458;  695.357
359.610;    3.217;   -5.748;  763.920
360.206;   -3.999;   -9.346;  603.240
360.801;   -0.575;  -11.268;  646.503
361.396;    1.614;   -8.789;  725.975
361.992;   -2.400;   -6.347;  668.220
362.587;   -5.311;   -6.476;  670.160
363.182;   -2.894;   -9.457;  689.631
363.777;   -2.486;   -7.147;  738.242
364.372;   -1.687;   -5.507;  737.314
364.967;   -6.253;   -6.386;  680.744
365.563;   -2.353;   -7.858;  815.567
366.158;   -4.235;   -8.517;  685.161
366.753;   -3.980;   -8.728;  649.263
367.348;   -4.881;   -7.677;  746.056
367.942;   -5.872;  -10.387;  697.298
368.537;   -6.658;   -7.187;  754.245
369.132;   -5.362;   -8.587;  703.428
369.727;  -10.372;   -8.606;  638.079
370.322;   -9.020;  -10.426;  580.186
370.917;   -8.337;   -5.776;  710.646
371.511;   -4.644;   -6.007;  861.834
372.106;   -9.029;   -6.686;  776.964
372.701;  -12.326;   -9.335;  585.988
373.296;   -5.809;   -6.777;  863.135
373.890;  -10.823;   -7.546;  647.840
374.485;  -12.845;   -8.755;  691.199
375.079;   -9.132;   -9.797;  738.685
375.674;   -7.454;   -6.327;  812.970
376.268;  -11.324;   -9.046;  691.759
376.863;  -17.707;   -7.993;  580.327
377.457;  -11.361;   -9.206;  662.490
378.052;  -13.053;   -5.345;  764.884
378.646;  -13.172;   -5.605;  741.167
379.240;  -14.530;   -6.825;  721.176
379.835;  -13.209;  -10.476;  636.978
380.429;  -14.221;   -8.676;  562.557
381.023;  -14.690;   -4.945;  779.205
381.617;  -17.663;   -8.094;  680.106
382.212;  -13.744;  -10.646;  685.303
382.806;  -11.942;   -8.136;  760.690
383.400;  -15.877;   -7.855;  672.281
383.994;  -18.609;   -8.125;  664.870
384.588;  -13.935;   -7.637;  697.701
385.182;  -11.933;   -7.458;  726.624
385.776;  -13.392;   -6.277;  706.875
386.370;  -17.002;   -7.485;  681.968
386.964;  -15.561;   -9.416;  684.155
387.558;  -13.637;   -8.518;  598.360
388.152;  -17.089;   -7.096;  681.959
388.745;  -15.417;   -7.656;  814.707
389.339;  -14.031;   -8.927;  747.642
389.933;  -12.287;   -9.538;  695.370
390.527;  -13.239;   -5.857;  859.029
391.120;  -19.904;   -9.455;  595.318
391.714;  -16.535;   -9.746;  711.633
392.308;  -12.772;   -7.857;  780.253
392.901;  -16.309;   -9.106;  642.460
393.495;  -19.245;  -10.365;  595.414
394.089;  -16.265;   -9.696;  760.452
394.682;  -17.722;   -7.016;  697.188
395.275;  -17.206;   -8.466;  719.927
395.869;  -19.424;   -8.985;  667.314
396.462;  -17.135;  -11.496;  616.609
397.056;  -13.433;   -7.838;  776.621
397.649;  -17.926;   -6.895;  731.575
398.242;  -14.912;   -5.017;  712.645
398.836;  -14.842;   -8.787;  766.408
399.429;  -15.400;   -8.967;  631.041
400.022;  -18.721;   -8.815;  665.902
400.615;  -15.884;   -6.276;  805.609
401.208;  -14.099;   -8.407;  691.451
401.802;  -16.009;   -7.296;  699.329
402.395;  -17.732;   -7.585;  683.502
402.988;  -17.945;   -8.015;  696.627
403.581;  -14.995;   -9.577;  646.878
404.174;  -11.949;   -7.588;  686.568
404.767;  -15.243;   -7.906;  638.583
405.360;  -19.012;   -7.875;  621.445
405.953;  -11.864;   -8.127;  759.034
406.545;  -11.673;   -7.198;  725.342
407.138;  -15.037;   -8.916;  618.350
407.731;  -15.710;   -9.767;  613.303
408.324;  -10.792;  -10.659;  660.554
408.917;  -11.811;   -8.068;  681.864
409.509;  -13.163;   -9.837;  740.396
410.102;  -15.210;   -8.146;  643.948
410.695;   -9.475;   -7.969;  665.758
411.287;   -9.707;   -8.579;  599.821
411.880;  -10.910;   -6.968;  585.421
412.472;  -14.529;   -9.487;  613.092
413.065;  -11.730;  -10.338;  629.408
413.657;   -8.907;   -9.169;  576.678
414.250;   -8.060;  -10.119;  646.681
414.842;  -11.111;   -9.938;  676.353
415.434;   -8.618;  -10.409;  570.463
416.027;   -3.941;   -9.591;  652.196
416.619;   -5.864;   -7.379;  713.400
417.211;   -6.318;   -9.159;  599.352
417.804;   -2.718;   -9.191;  628.499
418.396;   -6.089;   -8.159;  607.643
418.988;   -4.488;   -6.960;  659.238
419.580;   -8.102;  -11.389;  568.276
420.172;   -5.394;  -13.460;  536.196
420.764;   -0.769;  -10.701;  672.482
421.356;   -2.096;   -8.961;  636.898
421.948;   -3.489;   -9.770;  677.661
422.540;    2.264;   -8.832;  680.027
423.132;    1.166;   -8.153;  600.641
423.724;   -1.620;   -8.481;  561.267
424.316;   -0.317;   -9.261;  621.345
424.908;    3.938;   -9.643;  591.517
425.500;    4.447;   -8.663;  647.978
426.092;    6.056;   -8.503;  648.268
426.683;    4.277;  -10.522;  684.836
427.275;    7.731;  -11.734;  641.471
427.867;    8.197;  -10.264;  668.948
428.458;    9.268;   -7.644;  732.344
429.050;    7.588;   -7.853;  680.749
429.642;    9.906;   -8.904;  743.124
430.233;   10.473;  -10.795;  569.356
430.825;   12.000;   -7.665;  724.809
431.416;    9.253;   -8.843;  698.241
432.008;   12.498;   -9.885;  651.723
432.599;   14.380;   -9.966;  656.073
433.190;   10.365;   -9.164;  637.670
433.782;    9.939;   -8.584;  590.395
434.373;   18.643;   -8.296;  884.765
434.964;   16.362;   -9.896;  602.920
435.556;   14.726;   -8.255;  634.537
436.147;   17.275;   -8.075;  758.490
436.738;   16.603;   -9.716;  701.099
437.329;   21.852;   -7.318;  721.723
437.920;   15.263;   -6.694;  666.688
438.511;   15.421;   -9.644;  564.526
439.103;   21.697;   -9.427;  623.998
439.694;   23.993;  -10.748;  681.583
440.285;   25.522;   -7.997;  764.432
440.876;   23.606;  -10.046;  845.738
441.466;   21.496;  -13.467;  575.162
442.057;   28.348;   -9.329;  665.814
442.648;   27.053;   -7.707;  746.255
443.239;   25.395;   -9.017;  620.477
443.830;   30.801;  -10.279;  704.958
444.421;   31.691;  -12.630;  655.474
445.011;   28.954;   -8.697;  693.619
445.602;   28.782;   -7.787;  743.126
446.193;   29.995;  -13.329;  488.117
446.783;   34.527;   -9.171;  640.397
447.374;   30.760;   -7.457;  692.759
447.964;   30.804;   -9.277;  713.770
448.555;   39.578;   -9.041;  822.742
449.145;   35.500;   -8.969;  662.853
449.736;   37.111;   -6.809;  803.179
450.326;   37.159;   -7.229;  713.626
450.917;   41.882;  -11.391;  675.324
451.507;   41.456;   -9.501;  600.661
452.097;   42.306;   -8.460;  746.267
452.688;   43.544;  -10.080;  742.160
453.278;   43.578;  -12.861;  566.840
453.868;   47.958;   -8.372;  793.550
454.458;   45.751;   -8.131;  651.141
455.048;   45.683;   -8.520;  711.783
455.639;   47.859;  -13.632;  567.096
456.229;   51.811;  -10.143;  710.694
456.819;   53.278;   -9.163;  751.158
457.409;   53.676;   -8.652;  773.993
457.999;   56.666;   -9.933;  737.505
458.589;   57.017;  -10.363;  686.606
459.179;   57.202;  -10.633;  717.658
459.769;   54.784;  -12.442;  627.099
460.358;   59.805;   -9.844;  797.262
460.948;   59.144;   -9.924;  689.503
461.538;   61.929;  -10.484;  660.677
462.128;   59.285;  -10.703;  664.934
462.717;   65.695;  -11.486;  710.326
463.307;   69.417;  -10.767;  705.846
463.897;   65.625;   -8.814;  656.942
464.486;   65.095;   -8.182;  837.128
465.076;   69.338;   -9.985;  733.776
465.666;   72.227;  -10.447;  652.900
466.255;   70.204;   -7.754;  785.651
466.845;   69.197;  -10.884;  666.749
467.434;   72.567;  -12.525;  725.873
468.023;   73.469;  -11.456;  658.357
468.613;   71.011;   -9.173;  713.946
469.202;   75.667;   -9.306;  646.507
469.791;   79.273;   -8.917;  737.811
470.381;   81.645;   -9.657;  742.813
470.970;   81.402;   -9.947;  711.099
471.559;   81.976;   -9.256;  733.291
472.148;   84.566;  -13.397;  675.737
472.738;   87.568;   -9.928;  765.466
473.327;   87.394;  -10.897;  637.529
473.916;   86.926;   -8.526;  737.446
474.505;   91.475;  -11.078;  751.703
475.094;   94.977;   -9.559;  806.570
475.683;   93.859;   -8.838;  797.699
476.272;   94.979;  -10.198;  730.632
476.861;   98.119;  -11.489;  706.754
477.449;  105.166;  -10.721;  728.487
478.038;   98.802;   -9.818;  692.513
478.627;   99.622;   -9.887;  714.852
479.216;  106.238;  -10.030;  769.441
479.805;  110.847;   -9.401;  783.375
480.393;  110.869;   -5.739; 1008.945
480.982;  108.888;   -7.838;  874.501
481.571;  115.703;   -9.111;  858.333
482.159;  115.996;  -10.601;  705.386
482.748;  116.896;   -8.500;  821.385
483.336;  120.921;   -9.241;  858.209
483.925;  121.499;  -10.440;  774.373
484.513;  129.612;  -11.063;  758.962
485.102;  124.992;   -9.540;  810.965
485.690;  134.191;   -6.742; 1011.050
486.278;  136.474;   -8.442;  979.329
486.867;  136.514;  -10.472;  809.662
487.455;  139.171;   -8.811;  898.229
488.043;  139.365;  -10.721;  748.361
488.631;  149.824;  -10.393; 1005.079
489.220;  153.640;  -10.843;  908.626
489.808;  153.925;  -10.572;  741.415
490.396;  163.024;  -10.482;  914.645
490.984;  168.921;  -11.542;  830.161
491.572;  180.053;   -8.463;  940.315
492.160;  187.659;   -8.491;  919.081
492.748;  199.245;   -9.681;  884.341
493.336;  220.141;  -10.493; 1019.693
493.924;  248.500;   -9.354;  958.077
494.512;  281.395;   -9.132; 1066.638
495.100;  327.087;   -9.001; 1103.280
495.687;  386.385;  -11.924; 1206.373
496.275;  464.098;  -11.193; 1150.796
496.863;  547.580;   -9.241; 1281.171
497.451;  653.013;  -11.341; 1386.805
498.038;  791.191;  -11.364; 1556.729
498.626;  917.775;   -8.104; 1741.407
499.214; 1102.203;   -8.842; 2016.609
499.801; 1371.293;  -10.112; 2220.633
500.389; 1606.658;  -11.953; 2312.494
500.976; 1813.191;  -10.023; 2744.849
501.564; 2095.886;   -8.662; 3148.565
502.151; 2471.303;  -10.531; 3515.999
502.738; 2871.192;  -13.853; 3971.274
503.326; 3444.362;  -10.794; 4403.796
503.913; 3905.659;   -8.663; 5161.749
504.500; 4472.548;  -10.172; 5986.420
505.088; 5392.867;  -13.472; 6381.201
505.675; 6029.992;  -10.924; 6925.547
506.262; 6106.446;   -8.551; 7619.060
506.849; 6689.229;  -10.523; 8733.969
507.436; 7581.523;  -10.834; 9790.121
508.023; 8073.491;   -9.093; 9985.472
508.610; 8423.827;  -10.073;10434.618
509.197; 9432.657;   -9.500;11198.435
509.784;11011.496;  -13.242;12391.194
510.371;12058.976;  -10.964;13603.713
510.958;12501.927;   -9.772;14426.586
511.545;12910.354;   -7.842;15243.775
512.132;13011.110;  -12.184;15945.876
512.719;14284.034;   -9.733;16340.369
513.305;17243.154;   -9.172;18011.766
513.892;18744.383;   -9.581;19754.971
514.479;19739.688;  -10.253;20967.805
515.066;20678.350;   -8.183;22299.793
515.652;22042.023;   -9.253;22908.660
516.239;24050.371;   -9.412;23798.875
516.825;25668.486;  -11.153;25567.275
517.412;25961.838;  -10.263;28154.959
517.998;25767.414;   -8.802;28344.111
518.585;26228.721;  -10.401;27134.219
519.171;25842.652;  -12.744;27268.576
519.758;27025.131;  -11.793;28964.129
520.344;30174.195;   -8.912;30664.494
520.930;33769.410;  -10.901;32550.605
521.516;33812.020;  -12.034;35422.895
522.103;33936.578;  -10.473;38280.004
522.689;36094.527;   -8.311;37835.117
523.275;39417.914;  -10.691;37288.613
523.861;41830.852;  -11.193;37281.395
524.447;39562.230;  -11.484;37846.949
525.033;39465.598;   -7.702;38321.949
525.619;39077.227;  -11.241;38579.285
526.205;38815.988;  -12.152;40622.875
526.791;40228.492;  -11.423;42258.836
527.377;41033.633;   -7.981;42966.902
527.963;41495.590;   -9.450;42018.949
528.549;41792.512;  -11.351;42476.828
529.135;41954.332;  -10.202;41854.852
529.721;43673.516;   -8.672;41237.711
530.306;43874.020;   -9.111;41259.445
530.892;44979.840;  -11.252;41506.047
531.478;48311.398;  -10.432;43559.613
532.063;50486.887;  -10.721;47695.563
532.649;51209.742;   -7.450;50808.324
533.235;52879.516;  -11.811;51787.500
533.820;52044.648;   -9.383;52145.035
534.406;49654.977;   -9.400;51133.488
534.991;47652.230;   -8.861;49996.805
535.576;48637.637;  -10.612;48882.852
536.162;46411.219;   -7.322;46942.285
536.747;45775.988;   -9.360;45711.746
537.333;47622.602;  -10.450;48510.180
537.918;50632.133;  -12.610;50439.891
538.503;50569.988;  -12.132;50863.711
539.088;47639.211;  -10.831;50906.922
539.673;47192.621;  -11.220;52621.965
540.259;51303.063;  -11.481;52368.094
540.844;51812.055;  -11.462;50879.109
541.429;53036.063;   -7.869;52077.777
542.014;51424.168;  -11.859;52716.695
542.599;49458.805;  -11.061;52363.281
543.184;50731.984;  -12.300;53187.137
543.769;52774.465;   -9.369;54697.605
544.354;53618.371;  -12.020;53913.914
544.938;48220.367;  -10.350;49680.164
545.523;43995.125;  -10.841;47386.277
546.108;47435.836;   -8.579;49151.949
546.693;50125.344;   -8.818;51384.637
547.278;51109.102;  -11.331;51853.254
547.862;50826.266;  -10.292;51173.750
548.447;48104.855;   -8.349;51691.395
549.031;47252.145;  -10.838;52456.703
549.616;48815.750;  -11.681;52714.516
550.201;52022.793;  -11.140;52414.598
550.785;50192.016;   -8.649;52355.059
551.370;49716.383;  -11.889;54589.453
551.954;51149.523;  -11.239;58267.348
552.538;52754.035;   -8.850;59062.176
553.123;54931.957;  -10.829;58115.285
553.707;55569.988;   -8.887;56556.285
554.291;52512.738;  -10.430;56201.668
554.876;50678.633;   -9.799;55335.762
555.460;47612.891;  -10.018;54155.703
556.044;45642.520;   -7.307;53721.484
556.628;49822.074;  -12.229;53731.016
557.212;51587.031;   -9.820;54312.531
557.796;49358.152;   -9.109;53797.773
558.380;45129.520;   -9.707;56145.984
558.964;45676.539;  -10.980;57277.930
559.548;49633.750;  -12.010;56459.641
560.132;50776.059;   -7.928;54434.543
560.716;53816.500;  -10.247;54800.617
561.300;55022.438;  -11.250;57606.945
561.884;52983.207;  -10.568;58972.445
562.467;52316.000;   -9.727;57327.570
563.051;49055.414;  -11.847;54962.434
563.635;47180.730;  -10.747;52594.473
564.219;45493.898;  -13.108;50610.410
564.802;42794.918;  -11.417;49551.180
565.386;40558.758;  -10.457;48370.953
565.969;42961.172;   -8.959;48178.871
566.553;43332.047;  -10.328;49957.305
567.136;42888.383;  -10.257;50369.594
567.720;42601.793;  -10.186;49492.004
568.303;41715.504;  -10.027;50616.352
568.887;42015.398;  -10.397;50727.148
569.470;43214.160;   -8.185;51698.379
570.053;42287.879;  -11.596;52122.078
570.637;40963.863;  -11.378;52536.438
571.220;40893.977;   -9.138;51186.098
571.803;40236.352;   -7.675;51032.762
572.386;38553.414;   -8.976;49609.887
572.969;39377.352;  -12.477;48285.926
573.552;39778.695;   -9.767;47624.285
574.135;39020.738;   -8.175;45498.641
574.718;34441.621;  -11.096;41970.434
575.301;33037.516;  -11.966;41447.137
575.884;31633.412;  -12.836;40923.836
576.467;36864.715;   -9.116;45267.723
577.050;39148.121;  -10.536;48175.543
577.633;39393.676;  -11.027;47729.328
578.216;37885.750;   -9.946;47579.793
578.799;36514.547;   -9.645;47820.996
579.381;36600.828;   -9.446;48115.551
579.964;37359.973;  -12.217;47333.766
580.547;38477.852;  -10.586;46668.969
581.129;37964.297;   -8.374;44466.141
581.712;36231.520;  -10.434;44164.922
582.294;35444.695;  -10.896;46477.855
582.877;36641.559;   -8.906;48244.254
583.459;37413.891;   -9.994;47437.895
584.042;36832.918;  -10.084;46943.219
584.624;35804.441;  -13.534;46792.227
585.206;34483.797;  -12.716;46557.250
585.789;34620.582;  -11.614;45793.773
586.371;35567.406;  -10.203;43836.391
586.953;34812.105;  -10.314;42972.492
587.536;32827.941;   -9.776;42487.211
588.118;32816.898;   -9.821;42086.414
588.700;33572.125;  -10.073;43389.930
589.282;34857.336;  -12.395;43646.039
589.864;33574.168;  -11.514;43438.109
590.446;33436.219;  -10.803;43151.926
591.028;34976.867;  -11.043;42781.867
591.610;35758.355;  -13.244;42839.098
592.192;32546.889;  -11.095;42820.402
592.774;29910.766;  -10.823;40724.277
593.356;29048.068;  -11.052;39874.789
593.937;31111.002;  -11.664;39980.648
594.519;34320.293;  -10.454;42069.633
595.101;35575.805;  -10.322;42976.031
595.683;34520.250;  -10.042;44084.441
596.264;32772.824;  -14.334;43478.797
596.846;32297.055;  -10.863;43803.672
597.427;33171.656;   -9.901;42986.934
598.009;33891.488;  -10.911;42832.219
598.591;34730.809;  -10.483;42580.086
599.172;33319.445;   -9.663;43061.805
599.753;31261.250;  -10.631;41691.469
600.335;30767.352;   -9.371;40692.520
600.916;31972.789;  -13.992;39982.422
601.498;33534.355;   -8.352;40318.617
602.079;31823.613;   -8.411;40670.609
602.660;33452.508;  -10.841;41450.898
603.241;35263.801;  -12.963;41137.738
603.823;33869.059;  -11.523;38868.797
604.404;31786.854;  -11.881;38182.785
604.985;32277.113;  -11.721;38078.047
605.566;33858.781;   -9.293;38056.633
606.147;33176.574;  -10.940;37020.418
606.728;31645.908;  -11.840;37883.359
607.309;30670.039;  -11.781;38748.273
607.890;31378.197;  -11.262;38850.230
608.471;30497.939;  -10.111;37457.918
609.051;29951.172;   -7.709;36066.457
609.632;30865.123;  -12.409;35991.074
610.213;30410.959;  -10.811;37402.641
610.794;29864.844;  -11.630;38383.363
611.374;30926.072;   -8.030;40562.387
611.955;32176.918;  -10.809;38533.727
612.536;33581.770;  -10.531;36951.789
613.116;33468.535;  -12.820;37197.891
613.697;32546.973;  -11.419;38411.125
614.277;31954.523;   -9.768;38673.938
614.858;32422.531;  -10.251;37075.863
615.438;29081.928;  -11.981;35092.906
616.019;26539.209;   -8.978;33666.301
616.599;29410.072;  -12.219;34189.023
617.179;32450.576;  -14.170;36952.047
617.760;34091.301;   -9.211;39582.574
618.340;34782.504;   -9.018;38943.977
618.920;33023.102;   -9.249;37594.156
619.500;32108.623;  -12.728;37866.938
620.080;34542.438;  -12.939;37869.043
620.660;34097.301;  -11.586;36868.617
621.241;32589.387;  -11.538;36352.309
621.821;33081.438;  -11.398;35459.520
622.401;34415.270;  -10.179;35207.414
622.980;35199.648;  -11.587;35980.422
623.560;34288.277;  -12.888;37351.328
624.140;31919.766;  -13.149;34388.582
624.720;26986.715;   -9.928;32368.764
625.300;26432.051;  -10.869;32638.629
625.880;31299.148;   -8.617;34599.035
626.459;36066.785;  -12.138;36831.738
627.039;37649.051;  -12.267;38299.098
627.619;37472.305;   -7.476;38289.574
628.198;37761.789;  -11.347;37220.695
628.778;36982.016;  -11.678;37632.563
629.357;34812.039;  -12.438;38003.012
629.937;32738.682;   -9.576;38402.039
630.516;31362.439;  -11.096;37868.801
631.096;30561.008;  -11.828;35760.410
631.675;30926.262;  -11.565;35225.219
632.254;31421.000;  -11.845;35130.289
632.834;32546.414;  -11.545;35794.570
633.413;33459.199;  -10.887;35788.922
633.992;35183.906;  -10.175;34532.863
634.571;34274.734;   -9.704;33590.113
635.151;31578.725;  -10.815;34943.863
635.730;30812.055;  -11.617;35352.523
636.309;29930.881;  -10.836;35366.605
636.888;30629.498;   -9.755;36165.637
637.467;31149.225;  -11.684;37515.902
638.046;32660.139;  -11.987;39288.695
638.625;34136.230;  -10.455;38279.699
639.204;34029.875;  -11.234;37741.598
639.782;31554.510;  -12.023;38364.551
640.361;28751.887;  -11.506;36740.621
640.940;27998.230;  -12.316;34950.082
641.519;30235.666;  -11.616;34137.398
642.097;34368.504;   -9.266;35654.258
642.676;34972.227;  -12.936;35637.957
643.255;33538.430;   -9.966;36567.074
643.833;33596.414;   -8.916;37809.434
644.412;35238.266;  -10.936;37337.293
644.990;38027.941;  -12.176;37018.531
645.569;38876.707;  -12.246;36518.469
646.147;37792.035;  -12.107;36186.430
646.726;36428.387;  -12.937;36267.688
647.304;38583.359;  -12.547;36647.625
647.882;39100.781;  -12.597;39286.742
648.461;37321.367;   -9.427;39157.703
649.039;35620.031;   -8.937;35412.883
649.617;33651.184;  -11.067;34744.918
650.195;33778.336;  -10.657;35403.098
650.773;33268.738;  -10.097;35053.797
651.352;30788.150;  -11.887;33756.816
651.930;26045.111;  -13.557;31868.773
652.508;22876.865;  -11.767;33121.551
653.086;24188.334;  -10.777;33564.793
653.663;27693.533;  -12.067;34054.668
654.241;30557.113;  -14.918;35693.309
654.819;32392.979;  -11.788;36422.906
655.397;32122.980;  -11.268;38213.484
655.975;32914.426;  -11.738;39507.625
656.553;32578.447;  -11.018;39498.223
657.130;31668.254;  -12.848;40395.480
657.708;30772.779;  -10.098;39242.020
658.286;31411.525;  -11.678;38920.020
658.863;34200.500;  -11.498;40202.898
659.441;36528.086;  -11.008;39677.938
660.018;37051.211;  -11.048;40413.355
660.596;36899.473;  -12.058;39931.414
661.173;36373.438;  -14.158;39604.531
661.750;35433.672;  -12.298;39700.070
662.328;34189.598;  -10.699;39292.809
662.905;32607.238;  -12.119;38235.648
663.482;28140.293;  -11.829;36212.305
664.060;27104.818;  -11.009;35944.945
664.637;29804.127;  -10.369;35170.785
665.214;30153.275;  -10.459;34197.523
665.791;28689.305;  -12.599;34549.520
666.368;28489.545;  -12.919;35118.578
666.945;30612.453;  -10.699;36019.418
667.522;31881.096;  -11.359;36048.438
668.099;31987.518;  -13.529;36243.914
668.676;31444.682;  -10.229;35958.875
669.253;31211.760;   -9.279;37384.730
669.830;30062.426;  -11.370;36779.629
670.407;30355.359;  -10.950;35231.289
670.984;31728.090;  -12.850;35544.270
671.560;31312.727;   -8.440;35466.867
672.137;29718.291;  -13.520;34280.863
672.714;28917.449;  -13.620;34632.863
673.290;29494.982;  -10.450;35135.422
673.867;29225.637;  -10.960;36114.480
674.443;27655.139;  -13.300;36152.859
675.020;28103.447;  -12.370;35327.238
675.596;28918.180;  -11.250;35795.176
676.173;29617.051;  -11.080;35430.355
676.749;29747.357;  -13.220;33549.516
677.326;32631.926;  -13.000;32210.012
677.902;34450.594;  -12.701;32068.871
678.478;34043.246;  -12.801;32583.891
679.054;33481.719;   -8.601;32088.928
679.631;34615.789;  -12.631;30978.848
680.207;34332.410;   -9.451;33160.887
680.783;32474.422;  -11.701;35570.363
681.359;31812.031;  -12.701;36125.184
681.935;31991.510;  -13.271;35240.922
682.511;31323.461;  -10.791;34429.961
683.087;31363.209;  -10.791;34463.680
683.663;31215.535;   -8.121;34648.898
684.239;32747.012;  -13.261;34546.457
684.815;32406.176;  -10.581;35586.375
685.390;29501.561;   -9.961;35821.895
685.966;28452.584;  -11.182;35085.871
686.542;27826.992;  -13.512;34198.230
687.118;27748.111;  -11.472;32847.707
687.693;28054.111;  -10.152;32794.027
688.269;29133.916;  -14.442;33072.367
688.844;30669.760;  -11.852;33141.664
689.420;28941.963;  -13.942;33965.742
689.995;27342.033;   -9.702;34655.523
690.571;27411.189;  -11.312;33576.742
691.146;26755.611;  -14.332;32657.219
691.722;27554.832;  -11.192;32526.979
692.297;30238.164;  -10.962;33014.617
692.872;29873.270;  -11.082;34012.254
693.448;28875.082;  -14.732;34237.434
694.023;27972.043;  -12.363;34142.672
694.598;27817.973;  -12.393;34132.031
695.173;26964.525;  -11.023;34205.250
695.748;26458.205;  -12.743;32882.488
696.323;27708.416;  -11.103;32864.906
696.898;29079.215;   -8.123;33170.004
697.473;29042.199;  -12.603;32432.984
698.048;28755.090;  -12.553;31649.303
698.623;30174.527;  -12.573;30778.141
699.198;33711.004;  -12.743;31140.119
699.773;31725.887;  -12.843;31764.299
700.348;30291.451;  -16.683;31780.816
700.922;30526.652;  -11.403;32046.375
701.497;31392.137;  -11.253;32603.574
702.072;32048.217;  -10.044;34799.871
702.646;31702.928;  -13.054;35793.172
703.221;30104.400;  -11.414;35201.590
703.795;29973.660;  -10.644;34764.527
704.370;31658.014;  -13.484;34307.367
704.944;31786.039;  -12.144;33509.887
705.519;30536.287;  -12.024;31388.584
706.093;29031.121;  -11.234;31340.104
706.668;27340.594;   -9.874;32630.281
707.242;26683.631;  -12.404;32728.779
707.816;27225.969;  -10.644;32947.238
708.390;26662.914;  -11.174;33277.855
708.965;26620.348;  -10.324;33834.336
709.539;26108.254;  -12.014;33709.273
710.113;25940.205;  -12.295;33044.313
710.687;26911.463;  -10.965;31953.992
711.261;27561.949;  -13.685;30505.949
711.835;26908.773;  -15.335;30262.369
712.409;26092.465;  -13.785;31254.447
712.983;26975.734;  -10.525;32754.986
713.557;29160.799;  -13.175;34018.824
714.131;30978.828;  -13.245;34579.625
714.704;32783.684;  -13.175;33890.262
715.278;34808.285;  -11.545;33531.102
715.852;33860.586;  -10.975;33601.660
716.425;32442.918;  -10.075;33515.117
716.999;32092.918;  -12.185;33185.555
717.573;32705.350;   -9.685;33905.996
718.146;34827.047;  -10.516;35199.293
718.720;32138.877;  -12.106;35060.551
719.293;30122.527;  -12.386;34973.230
719.867;33293.699;  -12.456;36394.449
720.440;34023.973;  -10.686;36663.008
721.013;33698.016;  -12.596;35102.426
721.587;33548.371;  -13.956;33985.266
722.160;32891.219;   -9.806;33524.965
722.733;32419.516;  -11.676;32987.043
723.306;31443.051;  -14.276;33066.301
723.880;31126.666;  -12.126;33399.500
724.453;32646.219;  -10.156;33468.297
725.026;31556.275;  -12.956;33816.637
725.599;29686.564;  -11.676;32797.996
726.172;28300.828;  -12.337;33187.434
726.745;28588.100;  -11.277;35136.613
727.318;28467.164;  -11.927;35751.730
727.891;27224.438;  -13.607;35890.430
728.463;27197.746;  -11.327;34822.090
729.036;26337.207;  -11.917;32895.086
729.609;26565.662;  -12.697;31823.225
730.182;27711.781;  -11.787;31445.283
730.754;28233.867;  -12.957;32373.223
731.327;28966.064;  -11.017;33676.820
731.900;27893.215;  -12.797;33417.000
732.472;26017.936;  -10.677;31978.498
733.045;24938.502;  -12.797;30368.777
733.617;25678.320;  -13.908;30574.215
734.190;25917.199;  -12.258;31280.975
734.762;26704.783;  -13.438;31674.412
735.334;27630.830;  -11.758;31247.291
735.907;27712.266;  -11.158;29876.211
736.479;28743.604;  -11.258;29808.488
737.051;30975.924;  -10.918;30233.547
737.623;32188.752;  -11.038;31469.086
738.195;32359.631;  -12.188;31784.225
738.768;29167.721;  -11.378;32120.523
739.340;27462.619;  -12.598;32094.342
739.912;28790.666;  -11.568;31312.680
740.484;29398.625;   -9.348;31946.238
741.056;28763.000;  -12.628;32984.059
741.628;28689.539;  -13.349;33897.715
742.199;28950.225;  -11.309;33213.016
742.771;27980.781;  -12.699;31369.113
743.343;29312.910;  -11.919;31865.473
743.915;30062.416;  -11.679;32388.631
744.487;29049.309;  -12.249;31079.568
745.058;27368.621;  -11.119;30570.107
745.630;25995.857;   -9.439;29970.127
746.201;26097.691;  -11.949;29186.766
746.773;26844.889;  -12.639;28805.723
747.344;26481.428;  -11.039;29591.223
747.916;24871.297;  -12.549;31412.201
748.487;23332.414;  -12.659;32194.898
749.059;22629.070;  -13.059;32533.719
749.630;24571.262;  -12.080;32158.518
750.201;24593.793;  -13.100;30855.395
750.773;23191.283;  -15.310;28622.555
751.344;22405.439;  -12.240;28405.732
751.915;21960.584;  -11.960;28461.551
752.486;21174.211;  -13.200;27842.850
753.057;20956.959;  -15.230;27845.008
753.628;21318.273;  -13.130;27728.107
754.199;21630.605;  -12.720;27381.086
754.770;21362.859;  -10.680;25882.203
755.341;21370.098;  -11.010;25886.184
755.912;20935.279;  -12.990;26050.861
756.483;19725.445;  -11.110;26798.779
757.054;18902.305;  -12.190;27048.238
757.625;19111.998;  -13.981;26294.838
758.195;19049.457;  -11.041;26142.076
758.766;19970.818;  -11.861;26392.234
759.337;21054.055;  -11.461;26334.594
759.907;21856.787;  -15.001;27579.652
760.478;21584.984;   -9.681;28352.770
761.048;20904.910;  -12.421;27325.088
761.619;20252.824;  -11.761;26460.428
762.189;18696.076;  -12.391;26029.826
762.760;17890.775;  -10.201;26430.145
763.330;18573.076;  -10.811;26670.902
763.900;21229.770;  -10.261;26603.021
764.471;21883.363;  -13.061;25542.740
765.041;19826.869;  -11.051;24358.459
765.611;19247.652;  -11.032;23991.297
766.181;18937.758;  -10.532;24470.236
766.751;18871.711;  -13.502;24845.975
767.321;19247.225;  -11.392;24533.633
767.891;19593.346;  -11.522;24916.492
768.461;19797.836;  -13.672;24776.771
769.031;19111.082;  -14.652;24757.988
769.601;18217.553;  -10.182;24181.088
770.171;17134.369;  -11.752;23670.387
770.741;15508.225;  -12.272;22960.045
771.311;15125.371;  -13.112;22917.523
771.880;15404.442;  -14.122;23562.941
772.450;16233.027;  -11.782;24216.500
773.020;18385.104;  -12.642;24140.398
773.589;18659.043;  -13.043;24414.857
774.159;16771.131;  -11.783;23858.717
774.729;15463.629;  -13.473;22942.135
775.298;16091.736;  -14.523;22324.033
775.867;17089.785;  -12.013;21140.313
776.437;16465.303;  -12.113;20838.092
777.006;15047.679;  -13.543;20599.510
777.576;13707.407;  -12.523;20508.809
778.145;12864.346;  -12.173;20732.947
778.714;13807.497;  -12.153;21062.465
779.283;14368.987;  -11.833;20949.664
779.853;15180.995;  -13.483;20508.623
780.422;16098.152;  -12.933;20649.082
780.991;15742.997;  -13.173;21527.520
781.560;14039.508;  -10.224;22632.658
782.129;13217.490;  -12.684;23048.277
782.698;14255.121;  -11.284;23438.555
783.267;15437.497;  -11.684;23267.734
783.836;14752.130;  -10.974;22415.133
784.404;13195.281;  -13.534;20443.152
784.973;12866.968;  -16.734;19699.150
785.542;12842.257;  -12.594;19763.828
786.111;12453.224;  -11.644;20341.408
786.679;12780.448;  -11.384;20207.967
787.248;13543.675;  -12.014;19516.465
787.817;12549.277;  -12.804;18900.363
788.385;11461.718;  -11.994;17879.121
788.954;11773.862;  -12.564;17658.301
789.522;13400.362;  -12.225;17788.879
790.090;13912.007;  -13.775;18118.277
790.659;12947.919;  -12.485;18338.736
791.227;12031.995;  -12.295;18508.615
791.795;11967.187;  -13.415;17898.254
792.364;11495.117;  -12.995;17295.133
792.932;11032.692;   -8.365;16822.051
793.500;11261.870;  -11.925;17040.148
794.068;11664.139;  -13.245;17179.787
794.636;11889.675;  -13.815;16664.246
795.204;11285.851;  -13.375;16524.545
795.772;10985.428;  -12.125;17274.564
796.340;11191.850;  -13.855;17891.002
796.908;11489.664;  -13.456;17648.561
797.476;11091.302;  -13.116;17064.080
798.044;10535.833;  -13.226;16672.777
798.612;11128.658;  -11.236;17023.996
799.180;12176.416;  -10.476;16561.615
799.747;12258.773;  -11.746;15962.773
800.315;11199.742;  -12.366;15296.992
800.883;10170.996;  -14.616;14801.771
801.450; 9659.797;  -11.996;14534.430
802.018;10309.420;  -11.206;14173.248
802.585;10302.627;  -12.466;14029.547
803.153; 9515.179;  -12.846;13836.846
803.720; 9154.488;  -12.136;13567.324
804.287; 8830.365;  -10.966;13360.622
804.855; 8865.442;   -9.797;13681.981
805.422; 8704.450;  -13.037;13536.560
805.989; 8335.113;  -12.697;13355.958
806.556; 8490.521;  -11.737;13747.896
807.124; 8902.331;  -11.997;13987.376
807.691; 8557.671;  -13.997;14038.674
808.258; 8225.644;  -10.927;14120.152
808.825; 8588.990;  -13.727;13860.111
809.392; 9132.876;  -11.847;13268.790
809.959; 8681.186;  -14.217;12680.389
810.526; 7738.850;   -8.277;12427.308
811.093; 7317.646;   -9.647;12030.105
811.659; 7249.558;  -10.987;11653.664
812.226; 6984.587;  -13.447;11637.183
812.793; 7108.936;  -14.418;11611.521
813.360; 7577.305;  -13.908;11885.181
813.926; 7695.699;  -12.918;12770.539
814.493; 7471.720;  -14.888;12677.638
815.060; 7497.234;  -12.758;11974.336
815.626; 7824.025;  -13.478;11594.715
816.193; 7927.134;  -13.898;11579.474
816.759; 7787.432;  -13.588;11666.972
817.325; 7833.742;  -12.018;11325.530
817.892; 7562.961;  -14.068;11105.369
818.458; 6703.138;  -13.458;10843.928
819.024; 6229.049;  -11.968;10714.406
819.591; 5877.488;  -11.028;10469.165
820.157; 5609.102;  -12.088;10235.523
820.723; 5546.562;  -12.599;10847.563
821.289; 5752.151;  -10.419;11040.980
821.855; 6400.368;  -10.939;10357.100
822.421; 7000.316;  -12.539; 9978.918
822.987; 6981.581;  -13.259; 9754.177
823.553; 6353.502;  -15.369;10065.755
824.119; 6026.300;  -10.779;10036.294
824.685; 5653.669;   -9.999;10029.192
825.251; 5309.323;  -11.819;10199.230
825.816; 5062.811;  -13.369; 9820.189
826.382; 5127.808;  -12.679; 9297.248
826.948; 5405.661;  -11.199; 9381.347
827.513; 5331.576;  -11.179; 9450.726
828.079; 5201.978;  -13.489; 9472.444
828.645; 5389.048;  -12.500; 9292.643
829.210; 5730.087;  -15.120; 9065.341
829.776; 5721.526;  -12.590; 9132.620
830.341; 5499.103;  -11.540; 9092.878
830.906; 5345.346;  -12.400; 9078.557
831.472; 5204.964;  -12.720; 8534.535
832.037; 4868.333;  -11.490; 8677.874
832.602; 4400.973;  -14.380; 8628.692
833.167; 4409.609;  -12.780; 8879.031
833.733; 4589.032;  -11.100; 9189.790
834.298; 4775.464;  -12.080; 9052.608
834.863; 4876.930;  -13.910; 8895.087
835.428; 4713.141;  -13.470; 8824.266
835.993; 4913.349;  -11.760; 8845.385
836.558; 5281.251;  -12.731; 8888.563
837.123; 5492.468;  -12.431; 8966.582
837.688; 5365.235;  -11.241; 8617.860
838.253; 5078.747;  -13.681; 8590.699
838.817; 4724.750;  -12.531; 8443.797
839.382; 4700.479;  -12.671; 8799.356
839.947; 4680.613;  -11.541; 8810.595
840.511; 4506.728;  -12.021; 8796.394
841.076; 4471.826;  -13.071; 8347.231
841.641; 4458.378;  -11.411; 8224.330
842.205; 4271.956;  -13.671; 8223.349
842.770; 4160.341;  -11.291; 8622.107
843.334; 4237.754;  -12.951; 8410.386
843.898; 4343.631;  -11.221; 8337.465
844.463; 4356.993;  -11.322; 8506.283
845.027; 4227.082;  -11.412; 8280.962
845.591; 3964.820;  -11.512; 8231.141
846.156; 3994.973;  -14.042; 7969.179
846.720; 4187.637;  -12.152; 7768.278
847.284; 4209.790;  -10.922; 7630.957
847.848; 4006.505;  -10.962; 7472.395
848.412; 3694.450;  -14.612; 7437.394
848.976; 3592.281;  -11.492; 7674.592
849.540; 3612.941;   -9.172; 7836.011
850.104; 3865.109;  -11.232; 7913.669
850.668; 4271.622;  -15.182; 7694.508
851.232; 4096.106;  -15.332; 7756.887
851.796; 3730.357;  -13.703; 7926.545
852.359; 3732.794;  -11.113; 7827.844
852.923; 3801.860;  -11.843; 7641.163
853.487; 3747.510;  -11.173; 7342.501
854.050; 3606.051;  -13.443; 7042.820
854.614; 3435.190;  -13.823; 7151.338
855.177; 3367.666;  -16.393; 7105.077
855.741; 3474.565;  -11.693; 6989.675
856.304; 3555.003;  -10.843; 6596.634
856.868; 3501.944;  -13.783; 6356.272
857.431; 3313.050;  -11.953; 6468.571
857.995; 3168.198;  -13.683; 6373.210
858.558; 3202.180;  -11.433; 6324.448
859.121; 3226.707;  -12.493; 6408.327
859.684; 3209.600;  -12.384; 6347.886
860.247; 3198.013;  -14.774; 6321.264
860.810; 3079.327;  -13.154; 6301.903
861.374; 2928.843;  -11.264; 6607.881
861.937; 2842.012;  -15.424; 6408.200
862.500; 2847.886;  -12.854; 6572.639
863.062; 2868.536;  -12.344; 6387.297
863.625; 2861.223;  -13.314; 6190.836
864.188; 2720.318;  -14.724; 5807.254
864.751; 2621.711;  -13.464; 5682.413
865.314; 2607.687;  -11.684; 5547.492
865.876; 2693.805;  -11.104; 5500.150
866.439; 2850.725;  -12.344; 5415.909
867.002; 2879.301;  -13.494; 5501.567
867.564; 2876.963;  -10.935; 5413.946
868.127; 2724.808;  -12.665; 5160.325
868.689; 2490.287;  -14.515; 5133.183
869.252; 2463.697;  -13.425; 5252.382
869.814; 2490.604;  -11.595; 5297.141
870.377; 2521.663;  -12.175; 5390.919
870.939; 2418.702;  -10.265; 5599.898
871.501; 2306.723;  -12.375; 5248.336
872.063; 2278.285;  -14.355; 4854.235
872.626; 2324.591;  -14.435; 4817.074
873.188; 2260.946;  -12.415; 4987.732
873.750; 2231.623;  -14.555; 4868.651
874.312; 2249.973;  -11.185; 4779.330
874.874; 2200.059;  -12.715; 4866.348
875.436; 2044.621;  -13.196; 4718.887
875.998; 1932.423;  -11.426; 4660.005
876.560; 1853.584;   -9.786; 4462.964
877.122; 1834.804;  -12.796; 4145.042
877.683; 1786.016;  -13.226; 4056.481
878.245; 1708.369;  -12.036; 3950.740
878.807; 1636.823;  -11.536; 4058.958
879.369; 1594.651;  -10.806; 3954.677
879.930; 1650.896;  -13.946; 3941.495
880.492; 1768.907;  -11.876; 4067.014
881.053; 1742.437;  -13.216; 3859.633
881.615; 1629.629;  -12.226; 3776.071
882.176; 1563.330;  -12.946; 3734.750
882.738; 1538.598;  -10.736; 3678.489
883.299; 1473.626;  -12.057; 3405.407
883.860; 1362.542;  -12.677; 3351.106
884.422; 1289.216;  -14.097; 3394.044
884.983; 1235.887;  -13.667; 3166.443
885.544; 1179.345;  -10.717; 3189.802
886.105; 1126.904;  -14.357; 3160.360
886.666; 1069.995;  -14.287; 3093.059
887.227; 1019.031;  -14.297; 2941.957
887.788;  985.270;  -13.137; 2974.836
888.349;  922.725;  -14.637; 2721.214
888.910;  855.110;  -12.247; 2696.493
889.471;  848.783;  -10.577; 2560.172
890.032;  849.235;  -12.937; 2558.190
890.593;  836.758;  -12.487; 2567.669
891.153;  815.954;  -11.898; 2460.307
891.714;  776.681;  -14.278; 2372.046
892.275;  753.859;  -13.308; 2309.505
892.835;  717.593;  -12.058; 2382.543
893.396;  636.515;  -15.268; 2295.502
893.956;  584.935;  -13.278; 2162.420
894.517;  561.735;  -11.968; 2125.439
895.077;  562.452;  -12.798; 2086.978
895.638;  550.744;  -11.908; 2126.316
896.198;  537.672;  -13.288; 1838.275
896.758;  517.702;  -12.198; 1892.813
897.319;  489.396;  -13.048; 1792.232
897.879;  459.617;  -13.718; 1762.751
898.439;  425.145;  -14.138; 1661.149
898.999;  389.555;  -13.659; 1781.468
899.559;  369.100;  -14.699; 1703.347
900.119;  353.469;  -14.339; 1537.525
900.679;  329.801;  -11.789; 1638.384
901.239;  303.367;  -13.629; 1527.902
901.799;  285.421;  -13.679; 1456.441
902.359;  276.467;  -13.679; 1357.140
902.919;  268.251;  -14.159; 1331.118
903.479;  257.331;  -13.419; 1317.257
904.038;  243.086;  -14.899; 1262.595
904.598;  228.054;  -14.339; 1152.034
905.158;  220.556;  -13.959; 1240.893
905.717;  214.864;  -12.749; 1233.691
906.277;  211.400;  -11.889; 1217.330
906.836;  206.321;  -12.870; 1222.408
907.396;  201.982;  -11.790; 1193.047
907.955;  195.515;  -13.750; 1182.526
908.515;  186.171;  -14.760; 1099.364
909.074;  179.777;  -12.540; 1092.863
909.633;  175.365;  -12.120; 1069.121
910.192;  170.832;  -12.550; 1196.460
910.752;  165.694;  -12.760; 1029.960
911.311;  160.806;  -14.750; 1009.780
911.870;  158.547;  -13.860;  971.460
912.429;  159.991;  -13.480; 1094.080
912.988;  158.920;  -12.370; 1081.060
913.547;  154.524;  -14.670;  940.380
914.106;  153.132;  -12.800;  999.420
914.665;  153.825;  -11.370;  984.020
915.224;  150.242;  -11.430; 1035.760
915.782;  147.285;  -12.260;  922.560
916.341;  146.615;  -12.540; 1049.840
916.900;  144.432;  -12.540;  925.260
917.458;  141.943;  -13.480;  884.220
918.017;  141.305;  -12.470;  942.600
918.576;  141.180;  -13.450;  904.440
919.134;  140.238;  -12.890;  837.980
919.693;  139.712;  -15.480;  893.060
920.251;  136.966;  -14.420;  876.500
920.809;  136.466;  -12.170;  839.580
921.368;  136.756;  -13.650;  885.360
921.926;  135.282;  -12.750;  842.940
922.484;  134.542;  -14.150;  903.360
923.042;  133.874;  -15.100;  880.340
923.601;  136.229;  -10.990;  998.680
924.159;  135.667;  -12.470;  935.560
924.717;  134.427;  -15.640;  841.080
925.275;  135.450;  -12.380;  903.240
925.833;  136.751;  -12.710;  779.320
926.391;  137.991;  -11.200;  938.380
926.949;  137.601;  -16.000;  857.680
927.506;  138.694;  -12.260;  903.500
928.064;  139.011;  -11.300;  877.580
928.622;  138.858;  -13.750;  880.100
929.180;  139.078;  -15.290;  814.180
929.737;  139.488;  -14.500;  808.540
930.295;  141.858;  -10.630;  928.480
930.853;  144.322;  -14.590;  849.100
931.410;  143.333;  -14.450;  821.120
931.968;  146.565;  -14.390;  940.660
932.525;  149.230;  -13.050;  909.380
933.082;  151.154;  -15.620;  811.440
933.640;  157.976;  -15.650;  925.900
934.197;  161.738;  -13.610;  886.360
934.754;  165.464;  -13.320;  897.780
935.312;  164.714;  -13.370;  863.340
935.869;  166.485;  -12.780; 1012.980
936.426;  166.425;  -14.480;  872.800
936.983;  169.221;  -13.180;  889.020
937.540;  168.975;  -15.710;  838.280
938.097;  170.374;  -14.980;  940.120
938.654;  169.672;  -13.060;  898.860
939.211;  169.439;  -12.760;  952.480
939.768;  169.287;  -16.230;  915.420
940.324;  174.506;  -10.940;  904.200
940.881;  180.129;  -12.570;  878.500
941.438;  184.610;  -13.650; 1021.200
941.995;  182.135;  -13.300;  992.560
942.551;  180.370;  -15.800;  875.620
943.108;  179.650;  -14.180;  937.920
943.664;  174.303;  -13.890;  869.340
944.221;  173.263;  -12.640; 1088.140
944.777;  170.186;  -14.700;  869.680
945.334;  171.171;  -13.010;  884.840
945.890;  171.469;  -13.480;  946.480
946.446;  169.684;  -14.920;  947.020
947.003;  168.432;  -13.860;  964.940
947.559;  171.582;  -12.000; 1063.040
948.115;  170.721;  -10.510; 1026.540
948.671;  169.337;  -12.760;  967.300
949.227;  163.921;  -15.390;  859.560
949.783;  162.902;  -15.570;  858.900
950.339;  164.157;  -12.800;  991.000
950.895;  161.361;  -13.780; 1023.840
951.451;  156.992;  -13.810;  925.280
952.007;  157.515;  -12.390;  998.540
952.563;  156.384;  -11.980;  937.780
953.118;  152.872;  -14.070;  904.940
953.674;  150.559;  -14.140;  935.780
954.230;  151.117;  -12.680;  949.640
954.785;  152.429;  -12.770;  936.640
955.341;  150.874;  -11.450;  998.160
955.897;  146.420;  -15.350;  834.660
956.452;  144.831;  -14.200;  953.840
957.008;  144.212;  -10.820; 1083.640
957.563;  141.266;  -13.200; 1009.540
958.118;  136.336;  -14.460;  877.700
958.674;  135.558;  -13.840;  946.780
959.229;  135.821;  -10.670; 1013.980
959.784;  136.967;  -17.040;  832.400
960.339;  140.385;  -12.970; 1001.280
960.894;  139.555;  -12.700;  963.760
961.449;  138.473;  -13.790;  859.960
962.004;  143.999;  -11.760; 1212.840
962.559;  142.868;  -14.840;  860.140
963.114;  141.694;  -14.530;  742.480
963.669;  145.314;  -12.780;  915.500
964.224;  145.880;  -14.330;  874.340
964.779;  142.965;  -14.380;  828.420
965.334;  137.354;  -12.460; 1017.860
965.888;  132.962;  -13.490;  875.360
966.443;  132.383;  -14.140;  972.380
966.998;  127.597;  -16.240;  819.460
967.552;  125.901;  -12.730;  908.380
968.107;  122.787;  -14.510;  868.300
968.661;  122.382;  -11.850;  922.440
969.216;  120.332;  -14.370;  856.280
969.770;  119.964;  -13.010;  917.200
970.324;  120.533;  -12.460;  923.140
970.879;  120.158;  -11.580;  947.180
971.433;  119.519;  -13.130;  952.720
971.987;  117.421;  -12.360;  895.340
972.541;  117.993;  -14.330;  917.100
973.095;  117.300;  -13.310; 1009.460
973.649;  113.864;  -15.830;  809.480
974.203;  117.180;  -15.830;  829.040
974.757;  121.861;  -13.480;  855.220
975.311;  120.595;  -13.720;  872.600
975.865;  115.511;  -15.780;  881.820
976.419;  112.550;  -14.290;  857.400
976.973;  111.229;  -13.210;  849.620
977.526;  109.630;  -12.300;  949.920
978.080;  105.812;  -14.840;  796.780
978.634;  106.934;  -13.100;  921.320
979.187;  103.493;  -12.300;  905.400
979.741;  100.565;  -12.020; 1018.380
980.294;   94.362;  -14.590;  789.160
980.848;   91.377;  -14.390;  717.220
981.401;   92.975;  -14.280;  816.540
981.955;   92.761;  -11.920;  844.300
982.508;   90.257;  -15.790;  746.340
983.061;   90.796;  -12.070;  915.260
983.615;   88.289;  -13.260;  798.800
984.168;   86.086;  -15.540;  770.080
984.721;   85.287;  -13.230;  880.760
985.274;   83.563;  -11.820;  867.500
985.827;   82.245;  -13.510;  834.220
986.380;   78.973;  -14.840;  721.340
986.933;   79.037;  -13.970;  864.800
987.486;   78.267;  -12.450;  861.920
988.039;   76.431;  -11.170;  863.100
988.591;   73.249;  -13.070;  893.260
989.144;   70.044;  -15.530;  737.260
989.697;   68.143;  -14.300;  758.740
990.250;   68.650;  -13.310;  858.100
990.802;   66.685;  -14.490;  755.860
991.355;   68.161;  -12.980;  974.880
991.907;   66.506;  -13.715;  864.320
992.460;   64.850;  -14.450;  753.760
993.012;   64.178;  -12.590;  749.540
993.565;   62.550;  -15.180;  711.360
994.117;   63.943;  -11.630;  950.780
994.669;   60.182;  -13.760;  701.320
995.221;   59.115;  -12.710;  791.920
995.774;   58.750;  -14.620;  787.580
996.326;   57.105;  -13.150;  740.220
996.878;   57.597;  -12.880;  838.420
997.430;   56.342;  -14.580;  699.860
997.982;   55.369;  -14.030;  750.140
998.534;   55.402;  -12.190;  739.060
999.086;   53.990;  -12.990;  738.220
999.638;   52.726;  -13.180;  661.380
1000.190;   51.538;  -14.970;  699.320
1000.741;   51.922;  -12.200;  742.700
1001.293;   51.899;  -13.400;  686.020
1001.845;   50.186;  -14.490;  676.640
1002.396;   51.439;  -15.280;  743.400
1002.948;   51.685;  -12.380;  737.400
1003.500;   50.044;  -13.260;  723.780
1004.051;   50.439;  -13.730;  907.580
1004.603;   48.525;  -12.300;  791.820
1005.154;   45.495;  -15.330;  608.980
1005.705;   45.337;  -12.800;  723.960
1006.257;   45.217;  -13.900;  707.220
1006.808;   43.296;  -14.430;  685.460
1007.359;   42.979;  -12.010;  763.240
1007.910;   41.683;  -12.690;  646.640
1008.461;   41.669;  -13.610;  732.940
1009.013;   39.766;  -14.990;  588.340
1009.564;   41.372;  -11.860;  793.520
1010.115;   38.786;  -12.640;  597.040
1010.665;   39.277;  -14.570;  602.160
1011.216;   38.636;  -15.190;  667.920
1011.767;   38.395;  -13.470;  697.920
1012.318;   39.000;  -13.760;  736.980
1012.869;   37.918;  -15.950;  679.000
1013.419;   37.387;  -15.880;  603.120
1013.970;   37.532;  -14.540;  666.640
1014.521;   37.153;  -13.220;  620.620
1015.071;   37.772;  -15.020;  670.380
1015.622;   35.934;  -17.510;  635.460
1016.172;   35.888;  -14.130;  596.820
1016.723;   35.818;  -14.220;  614.380
1017.273;   35.531;  -15.370;  604.160
1017.823;   35.540;  -15.290;  650.340
1018.374;   35.108;  -13.420;  611.760
1018.924;   34.995;  -11.740;  716.880
1019.474;   35.826;  -12.250;  718.880
1020.024;   33.634;  -15.850;  657.580
1020.574;   34.267;  -13.280;  726.160
1021.124;   35.081;  -13.560;  673.580
1021.674;   33.477;  -13.790;  559.120
1022.224;   34.459;  -14.610;  708.940
1022.774;   33.123;  -13.100;  668.820
1023.324;   35.018;  -11.470;  753.520
1023.874;   35.151;  -11.990;  875.760
1024.423;   32.063;  -14.550;  613.700
1024.973;   32.172;  -14.440;  610.760
1025.523;   31.752;  -13.250;  620.960
1026.072;   31.610;  -15.200;  606.420
1026.622;   30.885;  -14.590;  675.740
1027.172;   31.833;  -11.080;  715.660
1027.721;   30.700;  -14.010;  601.220
1028.270;   31.435;  -13.690;  663.400
1028.820;   30.392;  -15.380;  638.080
1029.369;   30.471;  -14.980;  612.700
1029.918;   31.166;  -13.100;  649.840
1030.468;   29.866;  -13.680;  564.780
1031.017;   30.556;  -13.770;  634.800
1031.566;   28.904;  -14.100;  608.900
1032.115;   29.960;  -11.770;  694.500
1032.664;   29.082;  -14.940;  596.480
1033.213;   29.783;  -13.370;  735.420
1033.762;   28.199;  -13.660;  635.620
1034.311;   28.906;  -13.650;  677.220
1034.860;   29.296;  -13.820;  691.000
1035.408;   29.523;  -12.860;  722.720
1035.957;   29.740;  -13.060;  719.540
1036.506;   27.158;  -14.510;  530.800
1037.055;   30.166;  -13.470;  844.320
1037.603;   27.563;  -14.800;  664.000
1038.152;   26.167;  -14.190;  534.760
1038.700;   26.483;  -11.810;  585.740
1039.249;   27.245;  -12.850;  681.220
1039.797;   26.464;  -14.610;  633.360
1040.345;   26.796;  -15.220;  705.420
1040.894;   26.445;  -13.480;  625.300
1041.442;   25.591;  -13.310;  632.200
1041.990;   25.141;  -14.510;  559.160
1042.538;   24.284;  -15.700;  536.180
1043.087;   25.349;  -13.910;  570.860
1043.635;   27.178;  -13.620;  670.500
1044.183;   25.076;  -14.230;  586.400
1044.731;   24.942;  -13.730;  576.000
1045.279;   24.869;  -13.970;  674.920
1045.827;   27.051;  -10.750;  892.400
1046.374;   23.864;  -15.230;  515.420
1046.922;   23.745;  -15.390;  590.580
1047.470;   25.100;  -12.320;  691.300
1048.018;   24.712;  -13.230;  647.960
1048.565;   24.916;  -13.390;  708.600
1049.113;   22.647;  -15.030;  557.000
1049.660;   24.199;  -12.540;  629.660
1050.208;   24.475;  -15.040;  675.640
1050.755;   22.333;  -14.680;  606.580
1051.303;   23.500;  -13.610;  686.820
1051.850;   23.195;  -14.340;  635.120
1052.397;   20.879;  -16.330;  473.960
1052.945;   21.496;  -15.710;  617.760
1053.492;   23.307;  -12.320;  741.840
1054.039;   23.291;  -13.730;  720.180
1054.586;   21.885;  -16.140;  557.240
1055.133;   22.560;  -14.020;  693.140
1055.680;   22.421;  -13.430;  646.620
1056.227;   21.658;  -14.570;  542.780
1056.774;   23.483;  -14.400;  794.980
1057.321;   20.603;  -14.230;  523.260
1057.868;   21.081;  -14.220;  651.320
1058.415;   20.600;  -14.060;  651.980
1058.961;   21.406;  -14.640;  678.940
1059.508;   21.003;  -13.970;  643.820
1060.055;   19.914;  -15.100;  581.780
1060.601;   21.053;  -12.180;  624.300
1061.148;   20.637;  -15.010;  616.820
1061.694;   19.667;  -14.750;  592.580
1062.241;   19.531;  -14.130;  596.320
1062.787;   20.504;  -14.770;  663.140
1063.334;   22.771;  -13.130;  808.560
1063.880;   19.720;  -14.420;  668.360
1064.426;   19.746;  -13.130;  706.820
1064.972;   20.052;  -13.960;  601.340
1065.518;   18.272;  -13.680;  566.640
1066.065;   18.130;  -15.720;  624.460
1066.611;   17.771;  -13.970;  598.800
1067.157;   18.677;  -13.920;  641.860
1067.703;   19.190;  -14.760;  668.480
1068.249;   18.195;  -14.490;  605.220
1068.794;   18.269;  -14.740;  626.880
1069.340;   17.262;  -13.220;  578.960
1069.886;   18.469;  -14.930;  590.700
1070.432;   16.639;  -14.700;  541.720
1070.977;   16.623;  -14.470;  601.080
1071.523;   18.202;  -14.330;  573.060
1072.068;   17.772;  -14.960;  582.000
1072.614;   16.117;  -16.220;  527.760
1073.160;   17.782;  -11.280;  687.040
1073.705;   16.179;  -15.990;  572.520
1074.250;   17.072;  -16.550;  559.900
1074.796;   16.965;  -14.600;  655.160
1075.341;   17.830;  -13.440;  664.100
1075.886;   16.751;  -14.450;  594.240
1076.431;   16.298;  -13.160;  649.880
1076.976;   15.995;  -14.710;  639.220
1077.521;   15.868;  -14.000;  583.080
1078.067;   15.808;  -14.470;  579.400
1078.612;   16.543;  -14.530;  661.620
1079.156;   16.201;  -15.660;  601.540
1079.701;   15.762;  -16.120;  693.260
1080.246;   16.170;  -12.960;  696.300
1080.791;   15.832;  -13.700;  625.020
1081.336;   15.996;  -15.540;  659.320
1081.880;   15.816;  -14.640;  649.680
1082.425;   14.664;  -14.220;  573.480
1082.970;   16.799;  -11.890;  717.040
1083.514;   14.107;  -13.820;  597.000
1084.059;   14.169;  -14.280;  586.720
1084.603;   13.712;  -12.890;  565.840
1085.147;   14.668;  -13.590;  645.220
1085.692;   15.191;  -14.050;  716.800
1086.236;   12.233;  -14.990;  503.140
1086.780;   15.735;  -12.640;  751.440
1087.325;   14.925;  -15.550;  654.620
1087.869;   14.281;  -14.980;  610.700
1088.413;   14.383;  -13.440;  705.040
1088.957;   12.267;  -12.170;  543.400
1089.501;   14.933;  -12.730;  766.640
1090.045;   14.580;  -14.650;  726.480
1090.589;   12.392;  -14.500;  569.920
1091.133;   13.539;  -12.320;  673.340
1091.676;   12.804;  -16.130;  591.940
1092.220;   12.463;  -13.930;  600.920
1092.764;   13.471;  -12.820;  706.960
1093.307;   13.368;  -11.700;  673.780
1093.851;   12.510;  -15.600;  556.540
1094.395;   12.660;  -13.920;  683.140
1094.938;   11.183;  -16.090;  632.520
1095.482;   11.729;  -13.820;  559.800
1096.025;   13.407;  -12.720;  710.880
1096.568;   13.285;  -12.100;  779.280
1097.112;    9.779;  -15.450;  508.180
1097.655;   11.998;  -14.310;  603.000
1098.198;    9.999;  -14.740;  600.180
1098.741;   10.467;  -15.550;  612.860
1099.285;   11.120;  -12.600;  657.300
1099.828;    9.894;  -15.050;  439.400
1100.371;   11.056;  -14.800;  608.160
1100.914;   11.080;  -16.480;  682.660
1101.457;   11.270;  -12.990;  679.900
1101.999;   10.015;  -14.110;  584.680
1102.542;   11.335;  -11.450;  641.440
1103.085;   10.346;  -13.350;  658.500
1103.628;   11.116;  -13.200;  762.060
1104.170;   10.197;  -12.310;  588.280
1104.713;   11.116;  -14.320;  646.700
1105.256;    9.274;  -16.110;  557.440
1105.798;    8.089;  -15.910;  499.980
1106.341;   11.447;  -12.200;  728.900
1106.883;    9.487;  -14.910;  521.340
1107.425;    9.761;  -14.960;  668.180
1107.968;    9.435;  -13.440;  612.380
1108.510;   10.670;  -14.010;  684.960
1109.052;    8.778;  -15.430;  612.620
1109.594;    8.841;  -15.290;  554.440
1110.136;    9.122;  -13.360;  643.220
1110.679;    8.542;  -13.820;  633.080
1111.221;    9.948;  -13.690;  604.460
1111.763;    7.905;  -14.890;  559.220
1112.304;    7.925;  -14.550;  547.140
1112.846;    9.170;  -12.760;  666.240
1113.388;   11.944;  -10.780;  942.180
1113.930;    8.423;  -12.690;  694.200
1114.472;    7.865;  -15.730;  606.540
1115.013;    6.636;  -14.620;  551.280
1115.555;    7.347;  -14.950;  587.100
1116.097;    6.266;  -16.460;  579.480
1116.638;    8.004;  -13.730;  684.600
1117.180;    8.480;  -13.810;  667.740
1117.721;    7.878;  -13.280;  568.580
1118.262;    7.183;  -15.080;  677.960
1118.804;    8.051;  -14.040;  637.340
1119.345;    7.112;  -15.430;  578.400
1119.886;    8.324;  -15.240;  704.040
1120.427;    6.463;  -15.820;  589.020
1120.969;    6.589;  -14.550;  597.920
1121.510;    6.330;  -14.030;  563.060
1122.051;    8.074;  -11.990;  723.580
1122.592;    6.382;  -16.490;  655.420
1123.133;    4.633;  -15.580;  547.940
1123.673;    7.343;  -12.850;  706.480
1124.214;    7.589;  -13.630;  612.460
1124.755;    6.792;  -14.830;  639.460
1125.296;    6.181;  -13.110;  627.320
1125.836;    7.564;  -11.320;  691.500
1126.377;    6.305;  -14.330;  599.660
1126.918;    6.908;  -12.800;  614.980
1127.458;    5.204;  -13.580;  622.220
1127.999;    6.589;  -10.330;  656.980
1128.539;    6.888;  -13.390;  694.240
1129.079;    5.187;  -16.420;  632.720
1129.620;    4.986;  -15.700;  558.100
1130.160;    4.531;  -14.790;  539.480
1130.700;    6.115;  -12.910;  640.840
1131.240;    5.732;  -15.610;  643.700
1131.781;    4.843;  -12.920;  619.680
1132.321;    5.420;  -15.300;  599.120
1132.861;    5.447;  -14.760;  564.200
1133.401;    4.374;  -15.470;  593.940
1133.941;    5.115;  -13.710;  626.280
1134.481;    4.663;  -11.820;  597.580
1135.020;    4.745;  -14.810;  609.160
1135.560;    5.037;  -13.660;  674.940
1136.100;    3.661;  -13.940;  501.160
1136.640;    3.573;  -15.410;  510.480
1137.179;    3.802;  -16.920;  537.960
1137.719;    4.253;  -16.430;  605.400
1138.258;    4.265;  -16.300;  587.360
1138.798;    4.603;  -13.710;  663.780
1139.337;    2.938;  -13.840;  482.840
1139.877;    3.602;  -16.140;  642.360
1140.416;    6.020;  -11.410;  878.060
1140.955;    3.017;  -12.820;  535.380
1141.494;    3.961;  -12.310;  669.280
1142.034;    2.437;  -16.280;  583.520
1142.573;    4.148;  -13.090;  646.280
1143.112;    2.728;  -13.770;  553.480
1143.651;    3.456;  -15.830;  536.480
1144.190;    4.089;  -15.010;  691.640
1144.729;    2.895;  -13.650;  607.420
1145.267;    3.277;  -13.670;  584.900
1145.806;    4.057;  -13.630;  637.040
1146.345;    3.192;  -14.160;  635.020
1146.884;    2.879;  -11.180;  622.500
1147.422;    1.598;  -15.890;  533.060
1147.961;    5.030;  -12.760;  708.460
1148.500;    3.470;  -15.220;  669.720
1149.038;    2.571;  -13.720;  632.500
1149.577;    3.124;  -13.250;  698.640
1150.115;    1.006;  -16.790;  452.280
1150.653;    1.773;  -15.810;  607.340
1151.192;    1.849;  -14.730;  552.920
1151.730;    3.085;  -13.660;  652.560
1152.268;    2.465;  -15.120;  589.520
1152.806;    1.539;  -15.580;  571.180
1153.344;    0.759;  -16.210;  577.640
1153.882;    2.335;  -12.810;  600.060
1154.421;    0.651;  -14.150;  470.620
1154.958;    0.675;  -15.360;  595.240
1155.496;    2.141;  -14.710;  645.280
1156.034;    1.615;  -13.640;  721.880
1156.572;    3.113;  -13.740;  667.060
1157.110;    0.119;  -16.960;  473.940
1157.647;    1.452;  -11.940;  676.960
1158.185;    1.405;  -14.090;  564.320
1158.723;    0.354;  -13.610;  509.200
1159.260;    1.657;  -14.760;  701.700
1159.798;    1.392;  -13.700;  658.160
1160.335;    1.003;  -13.820;  631.820

