
Integration time [ms]:   3.276
Averaging Nr. [scans]: 1000
Smoothing Nr. [pixels]: 0
Data measured with spectrometer [name]: 7414430SP
Wave   ;Sample   ;Dark     ;Reference
[nm]   ;[counts] ;[counts] ;[counts] 

288.544;  160.329;    7.793;  793.890
289.143;  162.904;    7.462;  681.602
289.742;  163.498;    8.602;  828.814
290.341;  150.077;    1.321;  789.841
290.940;  140.018;   -0.709;  730.702
291.538;  142.681;    0.881;  881.108
292.137;  141.899;    0.122;  792.581
292.736;  143.891;   -1.929;  975.101
293.335;  140.966;   -8.229;  735.086
293.934;  141.505;   -5.279;  781.677
294.532;  141.877;   -1.369; 1031.958
295.131;  129.873;   -7.641;  834.394
295.730;  129.693;   -8.420;  809.588
296.328;  125.826;   -5.611;  783.442
296.927;  124.450;   -5.781;  779.652
297.525;  126.011;   -6.361;  781.236
298.124;  118.830;  -11.382;  654.009
298.722;  122.545;   -7.641;  761.933
299.321;  119.636;   -6.811;  708.597
299.919;  116.830;   -6.991;  751.918
300.518;  112.585;  -10.362;  689.338
301.116;  114.721;   -9.581;  691.381
301.715;  115.668;   -4.891;  730.222
302.313;  114.922;   -8.801;  704.943
302.911;  108.372;   -8.522;  733.830
303.509;  113.514;   -6.171;  925.627
304.108;  111.020;   -7.311;  760.383
304.706;  111.501;   -8.321;  801.664
305.304;  105.939;  -10.222;  796.707
305.902;  109.431;   -6.021;  784.484
306.500;  105.329;   -4.971;  728.200
307.098;  104.710;   -7.061;  746.560
307.696;  103.617;   -8.801;  780.432
308.294;  102.628;   -6.411;  731.359
308.892;  104.634;   -2.901;  759.769
309.490;  101.271;   -5.041;  712.161
310.088;   99.385;   -5.002;  788.444
310.686;  103.004;   -2.041;  821.749
311.284;   98.768;   -2.351;  766.040
311.882;   96.716;   -4.422;  731.225
312.480;   94.464;   -4.192;  697.167
313.078;   94.497;   -1.172;  808.331
313.675;   95.343;   -2.601;  691.600
314.273;   90.725;   -1.312;  797.837
314.871;   89.793;   -3.942;  589.829
315.468;   87.468;   -2.802;  652.090
316.066;   90.678;   -0.701;  694.427
316.664;   84.158;   -4.362;  656.351
317.261;   88.025;   -2.872;  910.128
317.859;   82.046;   -2.022;  768.735
318.456;   83.615;   -0.531;  830.096
319.054;   79.182;   -3.912;  787.828
319.651;   78.581;   -4.752;  759.928
320.249;   77.237;   -2.602;  810.188
320.846;   74.332;   -0.821;  714.286
321.443;   71.392;   -4.642;  832.135
322.041;   69.688;   -5.002;  812.315
322.638;   67.080;   -3.982;  701.456
323.235;   67.084;   -3.411;  665.683
323.833;   64.595;   -7.361;  740.354
324.430;   59.363;   -8.611;  615.900
325.027;   60.920;   -4.061;  876.855
325.624;   60.367;   -4.031;  644.532
326.221;   57.398;   -7.481;  689.717
326.818;   56.906;   -5.281;  818.332
327.415;   59.581;   -7.460;  748.828
328.012;   58.501;   -5.510;  690.585
328.609;   57.699;   -7.880;  731.389
329.206;   56.595;   -8.331;  778.621
329.803;   54.794;   -5.121;  737.841
330.400;   57.853;   -4.510;  704.260
330.997;   59.409;   -6.441;  817.147
331.594;   57.436;   -8.831;  788.185
332.191;   62.991;   -7.621;  728.722
332.787;   66.040;   -4.591;  844.463
333.384;   65.247;   -7.412;  763.093
333.981;   64.769;   -8.293;  815.687
334.578;   67.352;   -7.052;  708.378
335.174;   70.169;   -3.102;  731.469
335.771;   69.867;   -5.943;  836.456
336.367;   67.072;   -7.393;  710.631
336.964;   70.822;   -4.063;  793.266
337.561;   69.223;   -3.813;  731.112
338.157;   64.675;   -4.654;  911.916
338.754;   62.312;   -7.934;  796.589
339.350;   62.078;   -4.414;  722.493
339.946;   63.535;   -4.664;  773.135
340.543;   55.396;   -6.375;  846.136
341.139;   48.873;   -9.815;  720.836
341.735;   46.657;   -4.526;  772.593
342.332;   46.805;   -4.895;  691.472
342.928;   45.537;   -4.295;  795.394
343.524;   38.595;   -5.476;  761.684
344.120;   35.005;   -5.856;  738.562
344.716;   38.214;   -2.155;  723.717
345.313;   35.568;   -6.275;  795.342
345.909;   31.250;   -8.815;  627.336
346.505;   32.105;   -5.305;  740.247
347.101;   32.294;   -2.674;  827.864
347.697;   32.822;   -4.344;  785.398
348.293;   27.363;   -9.975;  627.244
348.889;   27.110;   -5.774;  745.914
349.485;   27.407;   -5.004;  688.205
350.081;   28.237;   -4.704;  772.592
350.676;   23.140;   -6.635;  691.606
351.272;   27.106;   -4.504;  809.530
351.868;   26.444;   -3.914;  780.497
352.464;   23.383;   -9.044;  723.932
353.059;   20.531;   -8.314;  646.017
353.655;   23.754;   -7.024;  777.063
354.251;   24.230;   -5.343;  759.845
354.846;   19.423;   -8.604;  740.646
355.442;   17.554;   -6.945;  753.071
356.038;   19.112;   -7.564;  751.708
356.633;   19.031;   -5.814;  728.594
357.229;   16.688;   -7.364;  724.757
357.824;   14.946;   -8.024;  703.600
358.420;   13.773;   -9.384;  679.726
359.015;   14.887;   -5.104;  695.357
359.610;   15.278;   -6.854;  763.920
360.206;    9.220;  -10.185;  603.240
360.801;   11.321;   -7.054;  646.503
361.396;   14.840;   -5.034;  725.975
361.992;    9.187;   -8.284;  668.220
362.587;    7.110;   -8.625;  670.160
363.182;    8.323;   -7.674;  689.631
363.777;   10.067;   -5.164;  738.242
364.372;    9.634;   -8.604;  737.314
364.967;    6.159;   -9.055;  680.744
365.563;    9.397;   -6.114;  815.567
366.158;    6.948;   -5.814;  685.161
366.753;    6.728;   -7.854;  649.263
367.348;    5.608;   -7.804;  746.056
367.942;    4.258;   -7.954;  697.298
368.537;    4.013;   -4.984;  754.245
369.132;    4.648;   -8.564;  703.428
369.727;    0.723;   -8.855;  638.079
370.322;    1.349;   -6.245;  580.186
370.917;    1.045;   -6.425;  710.646
371.511;    4.501;   -6.294;  861.834
372.106;    1.027;   -7.685;  776.964
372.701;   -2.402;   -7.335;  585.988
373.296;    3.004;   -4.564;  863.135
373.890;   -1.821;  -10.235;  647.840
374.485;   -3.345;   -7.885;  691.199
375.079;   -0.152;   -7.324;  738.685
375.674;    1.066;   -3.494;  812.970
376.268;   -2.895;   -8.525;  691.759
376.863;   -8.671;  -10.086;  580.327
377.457;   -2.880;   -7.025;  662.490
378.052;   -4.044;   -3.585;  764.884
378.646;   -5.028;   -7.595;  741.167
379.240;   -5.580;   -8.335;  721.176
379.835;   -6.270;   -5.785;  636.978
380.429;   -6.810;   -4.335;  562.557
381.023;   -6.696;   -6.805;  779.205
381.617;   -9.556;   -9.195;  680.106
382.212;   -5.638;   -6.905;  685.303
382.806;   -5.215;   -3.745;  760.690
383.400;   -9.322;   -7.745;  672.281
383.994;  -10.556;   -9.765;  664.870
384.588;   -6.337;   -6.564;  697.701
385.182;   -5.389;   -5.344;  726.624
385.776;   -6.881;   -8.514;  706.875
386.370;  -10.331;   -9.555;  681.968
386.964;   -9.618;   -8.715;  684.155
387.558;   -7.521;   -6.174;  598.360
388.152;  -10.509;   -8.725;  681.959
388.745;   -9.060;   -7.965;  814.707
389.339;   -7.516;   -5.924;  747.642
389.933;   -6.933;   -5.524;  695.370
390.527;   -7.373;   -7.114;  859.029
391.120;  -13.873;  -10.725;  595.318
391.714;  -11.152;   -8.035;  711.633
392.308;   -7.836;   -3.574;  780.253
392.901;  -11.699;   -7.245;  642.460
393.495;  -13.947;   -9.285;  595.414
394.089;  -10.728;   -5.895;  760.452
394.682;  -12.059;   -4.295;  697.188
395.275;  -12.752;   -9.875;  719.927
395.869;  -12.817;   -8.485;  667.314
396.462;  -11.993;   -7.455;  616.609
397.056;   -8.250;   -5.424;  776.621
397.649;  -13.554;   -6.605;  731.575
398.242;  -10.402;   -8.224;  712.645
398.836;   -9.915;   -7.474;  766.408
399.429;  -11.398;   -7.094;  631.041
400.022;  -14.719;   -9.475;  665.902
400.615;  -11.771;   -7.145;  805.609
401.208;  -10.113;   -7.174;  691.451
401.802;  -12.193;   -5.515;  699.329
402.395;  -13.779;   -9.875;  683.502
402.988;  -14.051;   -8.845;  696.627
403.581;  -11.284;   -8.874;  646.878
404.174;   -8.724;   -5.324;  686.568
404.767;  -12.433;   -9.575;  638.583
405.360;  -14.359;  -10.965;  621.445
405.953;   -9.263;   -8.764;  759.034
406.545;   -8.466;   -7.514;  725.342
407.138;  -12.741;  -10.025;  618.350
407.731;  -11.739;  -10.034;  613.303
408.324;   -8.364;   -9.374;  660.554
408.917;   -8.037;   -6.534;  681.864
409.509;   -9.778;   -8.004;  740.396
410.102;  -11.374;   -9.875;  643.948
410.695;   -6.417;   -8.604;  665.758
411.287;   -7.021;   -6.794;  599.821
411.880;   -8.484;   -9.334;  585.421
412.472;  -10.793;  -10.254;  613.092
413.065;   -9.080;   -6.714;  629.408
413.657;   -6.107;   -7.234;  576.678
414.250;   -7.085;  -10.544;  646.681
414.842;   -7.842;   -9.744;  676.353
415.434;   -6.050;   -6.994;  570.463
416.027;   -2.462;   -5.893;  652.196
416.619;   -3.787;   -7.264;  713.400
417.211;   -4.341;  -10.374;  599.352
417.804;   -1.304;   -7.993;  628.499
418.396;   -4.115;   -7.234;  607.643
418.988;   -2.227;   -9.443;  659.238
419.580;   -6.086;  -10.724;  568.276
420.172;   -4.197;  -10.323;  536.196
420.764;    0.748;   -8.793;  672.482
421.356;   -0.981;  -11.143;  636.898
421.948;   -1.910;   -8.293;  677.661
422.540;    2.594;   -7.893;  680.027
423.132;    2.928;   -7.082;  600.641
423.724;   -0.240;   -8.653;  561.267
424.316;    1.475;  -10.213;  621.345
424.908;    4.329;   -9.762;  591.517
425.500;    5.600;   -5.572;  647.978
426.092;    5.511;   -8.422;  648.268
426.683;    4.635;   -9.283;  684.836
427.275;    6.949;   -7.852;  641.471
427.867;    8.740;   -5.272;  668.948
428.458;    9.660;   -7.682;  732.344
429.050;    7.594;  -10.612;  680.749
429.642;    9.866;   -9.882;  743.124
430.233;   10.610;   -6.962;  569.356
430.825;   11.948;   -6.842;  724.809
431.416;    9.408;   -9.672;  698.241
432.008;   12.562;   -6.552;  651.723
432.599;   13.818;   -6.891;  656.073
433.190;   10.286;  -10.912;  637.670
433.782;    9.985;  -11.172;  590.395
434.373;   17.464;   -6.061;  884.765
434.964;   15.622;   -8.251;  602.920
435.556;   13.888;   -9.722;  634.537
436.147;   16.581;   -9.082;  758.490
436.738;   16.107;   -8.041;  701.099
437.329;   21.424;   -7.341;  721.723
437.920;   15.546;   -8.162;  666.688
438.511;   14.899;  -11.802;  564.526
439.103;   19.833;  -10.191;  623.998
439.694;   22.964;   -7.601;  681.583
440.285;   23.656;   -8.541;  764.432
440.876;   21.595;   -9.751;  845.738
441.466;   21.365;   -9.401;  575.162
442.057;   25.983;   -7.760;  665.814
442.648;   24.935;   -9.971;  746.255
443.239;   23.563;  -11.001;  620.477
443.830;   28.500;   -7.990;  704.958
444.421;   30.483;   -7.910;  655.474
445.011;   27.112;   -8.131;  693.619
445.602;   26.324;   -7.111;  743.126
446.193;   28.230;  -10.920;  488.117
446.783;   33.048;   -6.500;  640.397
447.374;   28.312;   -8.671;  692.759
447.964;   28.647;  -10.781;  713.770
448.555;   36.625;   -9.650;  822.742
449.145;   33.333;   -8.660;  662.853
449.736;   34.450;   -8.990;  803.179
450.326;   35.104;   -9.500;  713.626
450.917;   39.722;   -8.680;  675.324
451.507;   38.789;   -7.520;  600.661
452.097;   39.550;   -8.590;  746.267
452.688;   40.536;  -11.340;  742.160
453.278;   40.184;  -10.100;  566.840
453.868;   43.977;   -6.019;  793.550
454.458;   42.847;   -9.440;  651.141
455.048;   42.510;  -10.560;  711.783
455.639;   43.570;  -11.799;  567.096
456.229;   48.042;   -6.899;  710.694
456.819;   49.500;   -7.389;  751.158
457.409;   50.298;  -11.119;  773.993
457.999;   51.789;   -9.289;  737.505
458.589;   52.986;   -6.139;  686.606
459.179;   52.230;   -8.729;  717.658
459.769;   50.699;   -9.789;  627.099
460.358;   55.267;  -10.259;  797.262
460.948;   55.948;   -7.299;  689.503
461.538;   57.312;  -10.289;  660.677
462.128;   55.339;  -11.269;  664.934
462.717;   60.759;   -9.368;  710.326
463.307;   64.961;   -7.908;  705.846
463.897;   60.370;   -9.599;  656.942
464.486;   60.428;   -9.769;  837.128
465.076;   64.836;   -8.048;  733.776
465.666;   68.504;   -9.358;  652.900
466.255;   65.588;   -7.919;  785.651
466.845;   63.819;  -11.689;  666.749
467.434;   67.550;   -7.818;  725.873
468.023;   68.480;   -7.678;  658.357
468.613;   66.966;  -10.939;  713.946
469.202;   70.588;  -10.118;  646.507
469.791;   74.962;   -9.108;  737.811
470.381;   76.719;   -6.058;  742.813
470.970;   76.544;  -10.428;  711.099
471.559;   76.439;  -10.268;  733.291
472.148;   79.076;   -8.448;  675.737
472.738;   81.821;   -6.917;  765.466
473.327;   82.024;  -11.978;  637.529
473.916;   81.563;  -11.888;  737.446
474.505;   84.461;   -9.437;  751.703
475.094;   87.832;   -6.747;  806.570
475.683;   87.771;   -9.367;  797.699
476.272;   88.902;  -12.637;  730.632
476.861;   91.561;  -10.027;  706.754
477.449;   96.953;   -8.716;  728.487
478.038;   92.085;   -9.577;  692.513
478.627;   93.825;   -9.718;  714.852
479.216;  100.685;   -8.947;  769.441
479.805;  103.423;   -6.256;  783.375
480.393;  102.792;   -7.937; 1008.945
480.982;  102.117;   -7.717;  874.501
481.571;  108.148;   -9.266;  858.333
482.159;  108.743;   -7.636;  705.386
482.748;  108.169;   -9.667;  821.385
483.336;  114.057;  -10.376;  858.209
483.925;  114.003;   -7.147;  774.373
484.513;  120.409;   -7.996;  758.962
485.102;  117.880;  -10.027;  810.965
485.690;  126.234;  -10.446; 1011.050
486.278;  127.870;   -8.446;  979.329
486.867;  128.125;   -6.356;  809.662
487.455;  131.067;   -9.136;  898.229
488.043;  132.912;  -10.646;  748.361
488.631;  140.907;   -7.456; 1005.079
489.220;  144.050;   -6.636;  908.626
489.808;  145.261;  -11.036;  741.415
490.396;  153.302;  -10.246;  914.645
490.984;  158.886;   -8.556;  830.161
491.572;  169.807;   -5.886;  940.315
492.160;  176.358;   -9.486;  919.081
492.748;  190.318;  -10.976;  884.341
493.336;  211.416;   -8.776; 1019.693
493.924;  236.955;   -5.465;  958.077
494.512;  270.585;   -9.986; 1066.638
495.100;  314.258;  -10.636; 1103.280
495.687;  369.465;  -10.885; 1206.373
496.275;  437.480;   -8.126; 1150.796
496.863;  513.916;  -10.586; 1281.171
497.451;  623.747;  -11.926; 1386.805
498.038;  729.142;  -10.885; 1556.729
498.626;  841.145;   -6.315; 1741.407
499.214;  996.329;   -7.326; 2016.609
499.801; 1191.631;  -11.906; 2220.633
500.389; 1376.978;  -10.466; 2312.494
500.976; 1626.186;   -5.236; 2744.849
501.564; 2066.487;   -8.936; 3148.565
502.151; 2579.534;  -13.176; 3515.999
502.738; 3067.559;  -10.646; 3971.274
503.326; 3486.041;   -9.525; 4403.796
503.913; 3880.289;  -10.856; 5161.749
504.500; 4388.354;  -11.586; 5986.420
505.088; 4935.203;  -10.336; 6381.201
505.675; 5155.305;   -6.355; 6925.547
506.262; 5598.647;   -9.046; 7619.060
506.849; 6016.399;  -10.416; 8733.969
507.436; 6429.102;  -10.305; 9790.121
508.023; 7068.471;   -5.496; 9985.472
508.610; 7768.809;   -7.856;10434.618
509.197; 9398.108;  -10.097;11198.435
509.784;10789.696;  -10.886;12391.194
510.371;11665.494;   -9.315;13603.713
510.958;12386.323;   -9.936;14426.586
511.545;12529.975;   -9.326;15243.775
512.132;13428.848;  -10.075;15945.876
512.719;14357.846;   -7.796;16340.369
513.305;16060.295;  -10.606;18011.766
513.892;17118.301;  -11.486;19754.971
514.479;18473.572;   -9.126;20967.805
515.066;19486.322;   -6.026;22299.793
515.652;19515.328;   -8.466;22908.660
516.239;20684.713;  -10.886;23798.875
516.825;22777.398;  -11.496;25567.275
517.412;23871.785;   -5.796;28154.959
517.998;24673.861;  -10.506;28344.111
518.585;24971.865;  -10.076;27134.219
519.171;24610.162;   -8.315;27268.576
519.758;24040.637;   -8.596;28964.129
520.344;24756.375;   -8.466;30664.494
520.930;27687.400;  -11.006;32550.605
521.516;28436.645;  -10.495;35422.895
522.103;28604.133;   -5.526;38280.004
522.689;29582.096;   -8.746;37835.117
523.275;29514.338;  -11.376;37288.613
523.861;29593.129;  -11.156;37281.395
524.447;29292.590;   -8.135;37846.949
525.033;30232.455;   -7.896;38321.949
525.619;34114.109;  -12.476;38579.285
526.205;36959.633;   -9.516;40622.875
526.791;37252.184;   -6.926;42258.836
527.377;40690.461;   -8.346;42966.902
527.963;42334.781;   -8.717;42018.949
528.549;39999.645;  -11.016;42476.828
529.135;38825.008;   -8.536;41854.852
529.721;38553.992;   -9.666;41237.711
530.306;37549.199;  -10.066;41259.445
530.892;36637.273;  -11.356;41506.047
531.478;37692.691;   -6.596;43559.613
532.063;39465.508;   -8.836;47695.563
532.649;41842.398;  -10.047;50808.324
533.235;43378.867;   -9.746;51787.500
533.820;43699.375;   -6.566;52145.035
534.406;44259.422;  -10.817;51133.488
534.991;45638.129;   -9.416;49996.805
535.576;43526.250;   -9.036;48882.852
536.162;44349.723;   -6.156;46942.285
536.747;45027.156;  -11.607;45711.746
537.333;44347.813;  -11.787;48510.180
537.918;43195.586;  -12.437;50439.891
538.503;42772.977;   -7.196;50863.711
539.088;42732.023;  -10.556;50906.922
539.673;43919.332;   -8.767;52621.965
540.259;43456.926;  -10.026;52368.094
540.844;43428.484;   -7.416;50879.109
541.429;41288.258;   -9.467;52077.777
542.014;40050.758;   -9.527;52716.695
542.599;39427.004;   -9.946;52363.281
543.184;38656.375;   -7.927;53187.137
543.769;39776.816;   -9.297;54697.605
544.354;41181.000;  -10.127;53913.914
544.938;41459.605;   -9.267;49680.164
545.523;43421.855;   -6.506;47386.277
546.108;47798.031;   -9.787;49151.949
546.693;49912.523;  -11.587;51384.637
547.278;50487.633;  -10.986;51853.254
547.862;47225.684;   -8.206;51173.750
548.447;44675.438;  -10.067;51691.395
549.031;47039.004;   -9.637;52456.703
549.616;49937.000;   -9.926;52714.516
550.201;47826.496;   -6.347;52414.598
550.785;44450.434;   -7.917;52355.059
551.370;40663.180;  -10.867;54589.453
551.954;43030.309;   -9.047;58267.348
552.538;46230.531;   -7.827;59062.176
553.123;45192.363;  -10.287;58115.285
553.707;43086.723;  -12.178;56556.285
554.291;45230.766;   -8.717;56201.668
554.876;46958.926;   -7.457;55335.762
555.460;48076.633;  -10.387;54155.703
556.044;47104.766;   -9.618;53721.484
556.628;47124.668;  -11.567;53731.016
557.212;48211.906;   -8.097;54312.531
557.796;47211.656;  -11.077;53797.773
558.380;45470.750;  -11.108;56145.984
558.964;43346.535;   -9.057;57277.930
559.548;42054.395;   -6.977;56459.641
560.132;42658.215;  -11.457;54434.543
560.716;40710.156;  -11.378;54800.617
561.300;41669.797;   -9.577;57606.945
561.884;44379.457;   -7.127;58972.445
562.467;45222.297;   -7.118;57327.570
563.051;44215.668;  -13.358;54962.434
563.635;43824.926;  -10.178;52594.473
564.219;45032.770;   -7.837;50610.410
564.802;44331.340;  -11.398;49551.180
565.386;45263.617;  -12.788;48370.953
565.969;44190.109;   -9.077;48178.871
566.553;43239.266;   -6.207;49957.305
567.136;41457.926;   -8.568;50369.594
567.720;41595.148;  -11.868;49492.004
568.303;42952.563;   -8.268;50616.352
568.887;41863.105;   -8.698;50727.148
569.470;40975.082;   -6.808;51698.379
570.053;39687.227;  -13.188;52122.078
570.637;37334.285;  -12.037;52536.438
571.220;36425.473;   -8.577;51186.098
571.803;37718.094;   -8.498;51032.762
572.386;38824.082;  -10.498;49609.887
572.969;39069.676;   -9.388;48285.926
573.552;36320.297;   -8.338;47624.285
574.135;36022.590;   -8.518;45498.641
574.718;36547.242;  -13.628;41970.434
575.301;34525.641;  -10.893;41447.137
575.884;32504.041;   -8.158;40923.836
576.467;35672.410;  -10.328;45267.723
577.050;35112.738;  -13.058;48175.543
577.633;34345.828;   -9.458;47729.328
578.216;34372.035;   -8.928;47579.793
578.799;34138.820;   -9.358;47820.996
579.381;34007.305;  -11.388;48115.551
579.964;33088.059;  -11.718;47333.766
580.547;34055.074;   -8.588;46668.969
581.129;35573.156;   -8.859;44466.141
581.712;34234.879;  -10.729;44164.922
582.294;34965.113;  -11.118;46477.855
582.877;33908.730;   -5.218;48244.254
583.459;33302.555;   -8.679;47437.895
584.042;33336.840;  -10.709;46943.219
584.624;35844.840;  -11.669;46792.227
585.206;38000.938;   -8.218;46557.250
585.789;35875.047;  -10.569;45793.773
586.371;33990.848;  -11.859;43836.391
586.953;32447.049;  -10.719;42972.492
587.536;32452.949;   -7.198;42487.211
588.118;34059.074;   -8.720;42086.414
588.700;34571.035;  -10.439;43389.930
589.282;33867.566;   -9.198;43646.039
589.864;33876.355;   -9.199;43438.109
590.446;32641.326;  -11.319;43151.926
591.028;32013.053;  -11.159;42781.867
591.610;30955.721;  -11.779;42839.098
592.192;27925.320;   -7.668;42820.402
592.774;28022.617;  -11.949;40724.277
593.356;28909.455;  -12.129;39874.789
593.937;30347.420;  -10.669;39980.648
594.519;31623.119;   -6.509;42069.633
595.101;33799.855;  -10.849;42976.031
595.683;33858.695;  -11.679;44084.441
596.264;31767.674;   -9.049;43478.797
596.846;31843.355;   -8.849;43803.672
597.427;33166.461;   -9.570;42986.934
598.009;31609.973;  -12.620;42832.219
598.591;30080.080;  -10.039;42580.086
599.172;30690.986;  -10.369;43061.805
599.753;31762.213;   -9.140;41691.469
600.335;31320.160;  -11.430;40692.520
600.916;31459.250;   -9.939;39982.422
601.498;32131.596;   -8.479;40318.617
602.079;31372.879;  -10.920;40670.609
602.660;31645.250;  -11.480;41450.898
603.241;31864.904;  -11.699;41137.738
603.823;32292.672;   -9.579;38868.797
604.404;32409.273;  -10.620;38182.785
604.985;31068.439;  -10.450;38078.047
605.566;30639.877;   -9.129;38056.633
606.147;31427.057;   -7.510;37020.418
606.728;31792.686;  -10.660;37883.359
607.309;31749.592;  -11.740;38748.273
607.890;30161.455;   -9.759;38850.230
608.471;28075.182;   -8.250;37457.918
609.051;29620.221;   -9.240;36066.457
609.632;29125.734;  -12.120;35991.074
610.213;27595.203;   -9.110;37402.641
610.794;28447.666;   -8.030;38383.363
611.374;30183.572;   -8.110;40562.387
611.955;30923.203;  -13.560;38533.727
612.536;29351.799;  -11.400;36951.789
613.116;29651.932;   -8.070;37197.891
613.697;30649.898;  -10.830;38411.125
614.277;30065.611;  -11.641;38673.938
614.858;28681.074;  -13.310;37075.863
615.438;28284.982;   -7.460;35092.906
616.019;27592.678;   -7.601;33666.301
616.599;27927.152;  -12.020;34189.023
617.179;28720.744;  -11.780;36952.047
617.760;31057.293;   -8.570;39582.574
618.340;31763.941;  -11.471;38943.977
618.920;29542.426;  -11.170;37594.156
619.500;29536.855;  -11.071;37866.938
620.080;30834.404;   -7.750;37869.043
620.660;30846.227;  -12.711;36868.617
621.241;29598.900;  -10.211;36352.309
621.821;28448.275;  -10.961;35459.520
622.401;28181.746;   -7.720;35207.414
622.980;29403.387;   -8.981;35980.422
623.560;29899.963;   -9.331;37351.328
624.140;27749.268;   -9.850;34388.582
624.720;24960.594;   -7.451;32368.764
625.300;23559.135;   -9.070;32638.629
625.880;26831.836;  -12.601;34599.035
626.459;30796.857;  -11.751;36831.738
627.039;32350.383;   -9.281;38299.098
627.619;32761.902;   -8.801;38289.574
628.198;33202.473;  -12.071;37220.695
628.778;31939.898;   -9.461;37632.563
629.357;31857.504;   -8.491;38003.012
629.937;31355.234;   -9.721;38402.039
630.516;31361.291;   -9.951;37868.801
631.096;30575.566;  -11.731;35760.410
631.675;31758.502;   -8.572;35225.219
632.254;32614.105;  -11.282;35130.289
632.834;32397.473;  -13.322;35794.570
633.413;32975.973;  -10.301;35788.922
633.992;33099.566;   -8.582;34532.863
634.571;32419.117;   -8.352;33590.113
635.151;31408.137;  -11.912;34943.863
635.730;29830.734;  -10.511;35352.523
636.309;30714.895;   -7.731;35366.605
636.888;31503.529;   -9.952;36165.637
637.467;32093.727;  -11.672;37515.902
638.046;32399.641;   -8.901;39288.695
638.625;31461.225;   -7.912;38279.699
639.204;32027.723;  -10.022;37741.598
639.782;31215.662;  -12.252;38364.551
640.361;29451.268;  -10.041;36740.621
640.940;28448.701;  -11.161;34950.082
641.519;29818.191;   -9.701;34137.398
642.097;32546.174;  -11.271;35654.258
642.676;32409.693;   -8.651;35637.957
643.255;34423.047;   -8.711;36567.074
643.833;34266.734;   -9.581;37809.434
644.412;31750.744;  -13.711;37337.293
644.990;30448.641;  -11.811;37018.531
645.569;31498.379;   -9.411;36518.469
646.147;31567.791;  -10.291;36186.430
646.726;30452.340;  -12.401;36267.688
647.304;28958.887;  -10.411;36647.625
647.882;30156.645;   -9.651;39286.742
648.461;32209.746;   -9.631;39157.703
649.039;33757.902;  -11.881;35412.883
649.617;34843.875;   -9.661;34744.918
650.195;34358.520;   -9.301;35403.098
650.773;32340.719;  -10.511;35053.797
651.352;31182.184;  -11.521;33756.816
651.930;28452.738;  -12.211;31868.773
652.508;24116.318;   -9.171;33121.551
653.086;24289.922;   -9.371;33564.793
653.663;28822.230;  -13.161;34054.668
654.241;30073.846;  -13.031;35693.309
654.819;32486.371;   -9.371;36422.906
655.397;32747.006;  -10.511;38213.484
655.975;31951.863;  -10.371;39507.625
656.553;32304.537;  -10.051;39498.223
657.130;32710.705;  -10.061;40395.480
657.708;31388.947;   -9.561;39242.020
658.286;28666.633;  -11.511;38920.020
658.863;26960.232;  -10.261;40202.898
659.441;30105.043;   -7.531;39677.938
660.018;32068.426;   -9.501;40413.355
660.596;31102.332;  -13.301;39931.414
661.173;28799.213;  -11.211;39604.531
661.750;29152.285;   -9.951;39700.070
662.328;30833.422;   -9.390;39292.809
662.905;29832.342;  -11.330;38235.648
663.482;26109.553;   -9.050;36212.305
664.060;23739.926;   -8.240;35944.945
664.637;26583.895;  -10.050;35170.785
665.214;29533.908;  -11.760;34197.523
665.791;30751.502;  -10.530;34549.520
666.368;31085.678;   -9.690;35118.578
666.945;31480.119;   -9.320;36019.418
667.522;30099.021;  -11.860;36048.438
668.099;30774.920;  -10.770;36243.914
668.676;33159.902;   -6.260;35958.875
669.253;34214.160;   -7.000;37384.730
669.830;34509.117;  -10.190;36779.629
670.407;32602.559;   -9.550;35231.289
670.984;31501.234;   -9.260;35544.270
671.560;28897.844;   -9.280;35466.867
672.137;23909.813;  -11.810;34280.863
672.714;23768.365;  -11.490;34632.863
673.290;29885.010;   -7.740;35135.422
673.867;32198.559;  -10.660;36114.480
674.443;31527.932;  -12.230;36152.859
675.020;30248.320;  -10.450;35327.238
675.596;30420.172;   -9.260;35795.176
676.173;31941.441;  -10.780;35430.355
676.749;30933.004;  -13.690;33549.516
677.326;28995.584;  -11.980;32210.012
677.902;27839.059;   -8.630;32068.871
678.478;28571.750;  -10.730;32583.891
679.054;29707.791;  -10.520;32088.928
679.631;30782.543;  -11.920;30978.848
680.207;30775.459;   -7.490;33160.887
680.783;31756.906;   -9.860;35570.363
681.359;32933.957;  -13.380;36125.184
681.935;32425.877;  -12.480;35240.922
682.511;30182.910;   -7.900;34429.961
683.087;30019.902;   -7.710;34463.680
683.663;30245.723;  -11.480;34648.898
684.239;30007.813;  -14.090;34546.457
684.815;29455.330;   -7.560;35586.375
685.390;28659.012;   -9.910;35821.895
685.966;28833.322;  -11.159;35085.871
686.542;28576.518;  -11.169;34198.230
687.118;30104.656;   -5.959;32847.707
687.693;31616.076;  -10.329;32794.027
688.269;31069.883;  -12.059;33072.367
688.844;31747.520;  -10.909;33141.664
689.420;32511.184;   -8.019;33965.742
689.995;31005.232;   -8.399;34655.523
690.571;30824.059;  -10.949;33576.742
691.146;30571.301;   -9.619;32657.219
691.722;29940.203;   -8.999;32526.979
692.297;28568.779;  -11.589;33014.617
692.872;28784.262;  -11.739;34012.254
693.448;30819.021;  -11.059;34237.434
694.023;30813.707;  -10.139;34142.672
694.598;27019.291;   -9.029;34132.031
695.173;27657.225;  -13.319;34205.250
695.748;30372.369;  -10.169;32882.488
696.323;29001.848;   -8.339;32864.906
696.898;27545.264;   -8.169;33170.004
697.473;27766.395;  -12.309;32432.984
698.048;27801.781;  -10.989;31649.303
698.623;27726.494;   -9.329;30778.141
699.198;27785.375;   -9.849;31140.119
699.773;28673.883;  -12.329;31764.299
700.348;30746.076;  -10.389;31780.816
700.922;30344.398;   -9.269;32046.375
701.497;29535.656;   -9.329;32603.574
702.072;30937.723;  -10.789;34799.871
702.646;29675.916;  -10.839;35793.172
703.221;30942.086;   -9.099;35201.590
703.795;32712.990;  -10.939;34764.527
704.370;31588.289;  -12.859;34307.367
704.944;29971.947;  -11.559;33509.887
705.519;29431.037;   -7.939;31388.584
706.093;30826.732;  -10.499;31340.104
706.668;31558.924;  -11.289;32630.281
707.242;31445.813;  -11.509;32728.779
707.816;29190.078;   -9.639;32947.238
708.390;28163.074;  -11.429;33277.855
708.965;28592.732;  -11.869;33834.336
709.539;30426.893;  -11.689;33709.273
710.113;29993.887;  -10.478;33044.313
710.687;29199.275;  -10.228;31953.992
711.261;28994.436;  -13.698;30505.949
711.835;28933.180;  -13.378;30262.369
712.409;28970.770;   -9.698;31254.447
712.983;27432.609;  -11.898;32754.986
713.557;27810.031;  -15.138;34018.824
714.131;26523.283;  -14.098;34579.625
714.704;26252.344;   -9.958;33890.262
715.278;27244.412;  -10.028;33531.102
715.852;26291.066;  -11.148;33601.660
716.425;25768.582;   -9.068;33515.117
716.999;25267.895;  -10.038;33185.555
717.573;24762.111;   -9.798;33905.996
718.146;24781.525;  -12.378;35199.293
718.720;25387.082;  -11.918;35060.551
719.293;26877.744;   -8.088;34973.230
719.867;28627.766;  -10.888;36394.449
720.440;30619.783;  -11.938;36663.008
721.013;31442.846;  -12.818;35102.426
721.587;28802.873;  -10.298;33985.266
722.160;27551.508;  -10.048;33524.965
722.733;26809.895;  -12.108;32987.043
723.306;26432.732;  -10.818;33066.301
723.880;27835.633;   -8.908;33399.500
724.453;26555.951;   -9.878;33468.297
725.026;26150.650;  -11.188;33816.637
725.599;29261.479;  -11.678;32797.996
726.172;30096.561;   -9.618;33187.434
726.745;27212.947;   -8.258;35136.613
727.318;26046.492;  -12.978;35751.730
727.891;25728.535;  -12.148;35890.430
728.463;25823.242;   -8.968;34822.090
729.036;25126.803;  -10.188;32895.086
729.609;25348.346;  -11.788;31823.225
730.182;24883.986;  -11.788;31445.283
730.754;23324.146;  -10.268;32373.223
731.327;22334.543;   -9.998;33676.820
731.900;22914.959;  -12.228;33417.000
732.472;24653.600;  -13.848;31978.498
733.045;25089.959;   -8.698;30368.777
733.617;23558.146;  -10.607;30574.215
734.190;24667.301;  -11.507;31280.975
734.762;26439.102;  -13.647;31674.412
735.334;24994.973;   -9.767;31247.291
735.907;24123.010;   -9.897;29876.211
736.479;24585.824;  -11.637;29808.488
737.051;26881.881;   -9.567;30233.547
737.623;27733.914;   -8.187;31469.086
738.195;27101.248;  -11.187;31784.225
738.768;26427.027;  -12.337;32120.523
739.340;24060.242;  -12.227;32094.342
739.912;22690.641;  -11.057;31312.680
740.484;21603.689;  -10.207;31946.238
741.056;20169.441;  -10.047;32984.059
741.628;20573.918;  -13.627;33897.715
742.199;22619.721;   -7.177;33213.016
742.771;26061.504;  -10.797;31369.113
743.343;28040.203;  -11.997;31865.473
743.915;27689.625;  -12.867;32388.631
744.487;25259.543;   -7.617;31079.568
745.058;22717.523;   -9.557;30570.107
745.630;22454.438;   -9.877;29970.127
746.201;23097.625;  -14.177;29186.766
746.773;22983.412;   -9.237;28805.723
747.344;23154.990;   -9.847;29591.223
747.916;22746.025;  -11.657;31412.201
748.487;22469.197;  -10.587;32194.898
749.059;22862.820;   -8.707;32533.719
749.630;23424.018;  -10.537;32158.518
750.201;23584.750;  -11.687;30855.395
750.773;22516.527;  -11.647;28622.555
751.344;21037.713;   -7.147;28405.732
751.915;21054.240;   -9.757;28461.551
752.486;22218.633;  -12.427;27842.850
753.057;21665.188;  -12.227;27845.008
753.628;21313.598;  -10.417;27728.107
754.199;20290.465;  -11.767;27381.086
754.770;20563.754;  -11.187;25882.203
755.341;21344.088;  -10.507;25886.184
755.912;20104.955;   -9.387;26050.861
756.483;18106.373;  -10.647;26798.779
757.054;18471.137;  -11.837;27048.238
757.625;19069.383;  -12.716;26294.838
758.195;19526.584;   -9.666;26142.076
758.766;20335.447;   -8.656;26392.234
759.337;19659.299;  -12.856;26334.594
759.907;19667.063;  -13.366;27579.652
760.478;20153.830;   -8.576;28352.770
761.048;20154.055;  -10.526;27325.088
761.619;20373.678;  -11.116;26460.428
762.189;19477.494;  -12.136;26029.826
762.760;18546.475;   -9.456;26430.145
763.330;18695.695;   -7.136;26670.902
763.900;19331.340;  -11.786;26603.021
764.471;18567.854;  -11.546;25542.740
765.041;17240.225;   -8.096;24358.459
765.611;16631.961;   -8.876;23991.297
766.181;16384.432;  -12.196;24470.236
766.751;16354.640;  -11.636;24845.975
767.321;16724.518;  -10.156;24533.633
767.891;16790.043;  -11.766;24916.492
768.461;16872.152;  -14.936;24776.771
769.031;17685.717;  -12.356;24757.988
769.601;18072.420;   -7.526;24181.088
770.171;17883.740;  -10.766;23670.387
770.741;16770.918;  -13.176;22960.045
771.311;16197.056;  -10.616;22917.523
771.880;16228.629;   -9.576;23562.941
772.450;15819.470;  -10.336;24216.500
773.020;16317.939;  -13.516;24140.398
773.589;17106.518;  -13.466;24414.857
774.159;16607.281;   -8.686;23858.717
774.729;16119.836;   -9.476;22942.135
775.298;15171.468;  -13.666;22324.033
775.867;14369.570;  -11.716;21140.313
776.437;14588.560;   -9.906;20838.092
777.006;14269.432;  -12.166;20599.510
777.576;13259.511;  -12.356;20508.809
778.145;13305.719;  -11.646;20732.947
778.714;13445.604;   -8.226;21062.465
779.283;13832.866;   -9.556;20949.664
779.853;14392.362;  -14.116;20508.623
780.422;13960.220;  -11.506;20649.082
780.991;13746.715;   -9.556;21527.520
781.560;13501.657;   -9.095;22632.658
782.129;12633.660;  -12.135;23048.277
782.698;12354.450;  -10.865;23438.555
783.267;12400.929;   -9.335;23267.734
783.836;12671.945;  -11.045;22415.133
784.404;13478.489;  -13.865;20443.152
784.973;13247.495;  -13.095;19699.150
785.542;12288.901;  -11.575;19763.828
786.111;11700.563;   -9.705;20341.408
786.679;11804.802;  -12.105;20207.967
787.248;11965.420;  -12.455;19516.465
787.817;11216.133;  -11.535;18900.363
788.385;11348.846;   -9.765;17879.121
788.954;12137.879;  -14.005;17658.301
789.522;12119.668;  -11.955;17788.879
790.090;11832.653;  -10.135;18118.277
790.659;12627.039;  -10.975;18338.736
791.227;12972.843;  -13.375;18508.615
791.795;12568.964;  -12.375;17898.254
792.364;12180.227;  -10.725;17295.133
792.932;12023.273;   -9.715;16822.051
793.500;11896.808;  -12.675;17040.148
794.068;11515.182;  -13.495;17179.787
794.636;10283.107;  -10.885;16664.246
795.204; 9272.517;  -11.045;16524.545
795.772; 9433.896;  -13.175;17274.564
796.340;10718.663;  -12.445;17891.002
796.908;10727.714;   -9.735;17648.561
797.476;10644.060;   -9.815;17064.080
798.044;10943.558;  -13.985;16672.777
798.612;10765.751;  -13.115;17023.996
799.180; 9967.001;  -10.185;16561.615
799.747; 8903.267;   -9.055;15962.773
800.315; 8012.653;  -12.385;15296.992
800.883; 8160.747;  -15.035;14801.771
801.450; 8913.251;  -10.365;14534.430
802.018; 9524.367;   -9.855;14173.248
802.585;10034.615;  -11.905;14029.547
803.153; 9745.743;  -11.585;13836.846
803.720; 8797.716;   -9.095;13567.324
804.287; 8669.434;   -9.135;13360.622
804.855; 9498.317;  -11.604;13681.981
805.422; 9768.642;  -11.794;13536.560
805.989; 9052.563;  -10.734;13355.958
806.556; 8659.955;  -10.444;13747.896
807.124; 8560.595;  -12.764;13987.376
807.691; 8992.027;  -12.964;14038.674
808.258; 9319.186;  -11.134;14120.152
808.825; 9215.189;   -9.854;13860.111
809.392; 8717.057;  -10.504;13268.790
809.959; 8176.382;  -13.054;12680.389
810.526; 7856.234;   -8.294;12427.308
811.093; 7833.244;   -8.394;12030.105
811.659; 7526.607;  -12.304;11653.664
812.226; 7108.723;  -13.944;11637.183
812.793; 7240.370;  -10.484;11611.521
813.360; 7411.806;  -10.144;11885.181
813.926; 7165.543;  -11.684;12770.539
814.493; 6644.076;  -13.644;12677.638
815.060; 6334.678;   -9.724;11974.336
815.626; 6420.762;   -9.854;11594.715
816.193; 6612.725;  -13.254;11579.474
816.759; 6548.958;  -13.204;11666.972
817.325; 6577.278;   -9.434;11325.530
817.892; 6386.580;  -10.134;11105.369
818.458; 6216.311;  -13.474;10843.928
819.024; 5917.554;  -11.854;10714.406
819.591; 5834.154;  -10.244;10469.165
820.157; 5870.918;  -10.704;10235.523
820.723; 6197.977;  -12.324;10847.563
821.289; 6746.424;   -9.444;11040.980
821.855; 6898.140;   -8.374;10357.100
822.421; 6623.852;  -10.234; 9978.918
822.987; 6434.767;  -13.294; 9754.177
823.553; 6519.013;  -10.884;10065.755
824.119; 6376.114;   -8.884;10036.294
824.685; 6150.209;   -6.784;10029.192
825.251; 5890.861;  -12.004;10199.230
825.816; 6090.468;  -11.474; 9820.189
826.382; 6239.836;   -9.174; 9297.248
826.948; 5997.063;   -9.214; 9381.347
827.513; 5580.867;  -10.774; 9450.726
828.079; 5342.807;  -11.924; 9472.444
828.645; 5241.417;  -10.543; 9292.643
829.210; 5164.418;  -10.533; 9065.341
829.776; 5083.756;  -10.753; 9132.620
830.341; 5147.016;  -10.173; 9092.878
830.906; 5311.448;  -10.743; 9078.557
831.472; 5533.470;  -11.113; 8534.535
832.037; 5276.314;  -10.603; 8677.874
832.602; 5068.969;  -13.323; 8628.692
833.167; 5227.494;  -10.823; 8879.031
833.733; 5083.008;  -10.113; 9189.790
834.298; 5018.555;  -13.583; 9052.608
834.863; 5049.132;  -12.703; 8895.087
835.428; 4900.177;  -10.523; 8824.266
835.993; 4648.264;   -6.963; 8845.385
836.558; 4483.660;  -10.763; 8888.563
837.123; 4552.114;   -9.903; 8966.582
837.688; 4510.108;   -9.913; 8617.860
838.253; 4548.621;  -10.283; 8590.699
838.817; 4785.364;  -12.963; 8443.797
839.382; 4908.452;  -14.243; 8799.356
839.947; 4740.407;  -10.733; 8810.595
840.511; 4511.610;   -9.383; 8796.394
841.076; 4569.256;  -12.563; 8347.231
841.641; 4503.552;  -12.953; 8224.330
842.205; 4117.899;   -7.043; 8223.349
842.770; 3985.793;   -8.163; 8622.107
843.334; 4107.293;  -12.503; 8410.386
843.898; 4285.969;  -11.693; 8337.465
844.463; 4271.583;  -10.203; 8506.283
845.027; 4119.769;   -9.533; 8280.962
845.591; 4121.234;  -13.443; 8231.141
846.156; 4136.500;  -13.143; 7969.179
846.720; 3928.745;   -9.433; 7768.278
847.284; 3429.578;  -11.033; 7630.957
847.848; 3166.959;  -10.403; 7472.395
848.412; 3325.013;  -11.553; 7437.394
848.976; 3665.326;   -8.393; 7674.592
849.540; 3841.534;   -8.713; 7836.011
850.104; 3815.670;  -12.463; 7913.669
850.668; 3761.357;  -12.973; 7694.508
851.232; 3630.136;  -10.793; 7756.887
851.796; 3570.074;  -10.662; 7926.545
852.359; 3665.423;  -13.082; 7827.844
852.923; 3542.582;  -12.192; 7641.163
853.487; 3416.122;  -11.912; 7342.501
854.050; 3536.504;  -10.892; 7042.820
854.614; 3504.981;  -13.992; 7151.338
855.177; 3298.492;  -11.732; 7105.077
855.741; 3163.137;   -8.962; 6989.675
856.304; 3167.518;   -9.442; 6596.634
856.868; 3088.519;  -14.192; 6356.272
857.431; 3025.178;  -12.702; 6468.571
857.995; 3219.934;   -9.942; 6373.210
858.558; 3290.330;   -9.112; 6324.448
859.121; 2946.272;  -12.932; 6408.327
859.684; 2636.864;  -13.442; 6347.886
860.247; 2723.264;  -10.632; 6321.264
860.810; 3071.112;  -11.272; 6301.903
861.374; 3235.728;   -9.832; 6607.881
861.937; 3226.641;  -11.762; 6408.200
862.500; 3223.179;   -9.722; 6572.639
863.062; 2997.860;  -10.512; 6387.297
863.625; 2716.734;  -11.232; 6190.836
864.188; 2556.352;  -14.112; 5807.254
864.751; 2432.452;  -11.302; 5682.413
865.314; 2476.862;  -10.112; 5547.492
865.876; 2721.389;  -12.182; 5500.150
866.439; 2909.906;  -10.722; 5415.909
867.002; 2886.647;   -9.252; 5501.567
867.564; 2731.764;   -9.572; 5413.946
868.127; 2558.374;  -13.142; 5160.325
868.689; 2342.866;  -12.902; 5133.183
869.252; 2133.466;   -9.732; 5252.382
869.814; 2076.763;   -9.432; 5297.141
870.377; 2234.908;  -11.552; 5390.919
870.939; 2311.776;   -9.052; 5599.898
871.501; 2241.601;  -10.982; 5248.336
872.063; 2287.055;  -12.292; 4854.235
872.626; 2306.056;  -14.912; 4817.074
873.188; 2361.532;  -13.112; 4987.732
873.750; 2416.553;  -13.442; 4868.651
874.312; 2445.514;   -9.402; 4779.330
874.874; 2497.759;  -11.062; 4866.348
875.436; 2285.542;  -13.931; 4718.887
875.998; 1713.715;   -9.561; 4660.005
876.560; 1212.902;  -11.321; 4462.964
877.122;  997.566;  -12.221; 4145.042
877.683;  976.880;  -12.191; 4056.481
878.245; 1100.225;  -12.101; 3950.740
878.807; 1276.816;   -8.971; 4058.958
879.369; 1360.764;  -12.071; 3954.677
879.930; 1352.395;  -14.621; 3941.495
880.492; 1336.162;  -10.311; 4067.014
881.053; 1286.459;  -10.901; 3859.633
881.615; 1262.682;  -14.411; 3776.071
882.176; 1268.230;  -13.761; 3734.750
882.738; 1311.558;   -9.181; 3678.489
883.299; 1308.448;  -11.791; 3405.407
883.860; 1238.311;  -13.121; 3351.106
884.422; 1147.421;  -11.211; 3394.044
884.983; 1094.449;  -10.091; 3166.443
885.544; 1077.142;   -8.461; 3189.802
886.105; 1043.406;  -12.361; 3160.360
886.666; 1002.655;  -14.141; 3093.059
887.227;  987.304;  -11.361; 2941.957
887.788;  988.056;  -11.401; 2974.836
888.349;  949.266;  -13.791; 2721.214
888.910;  875.413;  -13.191; 2696.493
889.471;  802.654;   -9.881; 2560.172
890.032;  740.758;   -9.881; 2558.190
890.593;  714.248;  -10.371; 2567.669
891.153;  709.552;  -13.301; 2460.307
891.714;  668.870;  -11.431; 2372.046
892.275;  618.534;  -11.291; 2309.505
892.835;  623.053;  -11.471; 2382.543
893.396;  620.447;  -11.541; 2295.502
893.956;  588.843;  -11.181; 2162.420
894.517;  536.542;  -11.741; 2125.439
895.077;  477.227;  -11.671; 2086.978
895.638;  436.445;  -11.311; 2126.316
896.198;  429.272;   -9.831; 1838.275
896.758;  426.309;   -8.421; 1892.813
897.319;  408.613;  -12.351; 1792.232
897.879;  382.854;  -13.511; 1762.751
898.439;  361.642;  -12.001; 1661.149
898.999;  345.941;  -10.180; 1781.468
899.559;  331.142;  -12.030; 1703.347
900.119;  327.287;  -15.710; 1537.525
900.679;  321.226;   -8.900; 1638.384
901.239;  299.690;   -8.340; 1527.902
901.799;  277.449;  -13.910; 1456.441
902.359;  263.462;  -13.460; 1357.140
902.919;  257.626;  -11.490; 1331.118
903.479;  256.035;  -12.110; 1317.257
904.038;  248.525;  -11.720; 1262.595
904.598;  234.673;  -13.610; 1152.034
905.158;  221.945;  -11.040; 1240.893
905.717;  214.143;  -10.900; 1233.691
906.277;  210.270;  -15.080; 1217.330
906.836;  206.393;  -13.380; 1222.408
907.396;  204.186;  -10.780; 1193.047
907.955;  199.074;   -8.500; 1182.526
908.515;  192.276;  -12.760; 1099.364
909.074;  187.991;  -11.900; 1092.863
909.633;  184.746;   -8.950; 1069.121
910.192;  182.010;   -8.770; 1196.460
910.752;  175.733;  -12.390; 1029.960
911.311;  171.765;  -13.680; 1009.780
911.870;  167.886;  -12.370;  971.460
912.429;  166.706;  -10.900; 1094.080
912.988;  162.917;  -11.690; 1081.060
913.547;  159.452;  -13.240;  940.380
914.106;  157.804;  -11.990;  999.420
914.665;  157.866;   -9.990;  984.020
915.224;  154.979;  -12.880; 1035.760
915.782;  154.568;  -12.350;  922.560
916.341;  154.993;   -9.110; 1049.840
916.900;  151.847;   -9.270;  925.260
917.458;  147.576;  -13.240;  884.220
918.017;  142.999;  -13.550;  942.600
918.576;  140.161;  -12.320;  904.440
919.134;  139.895;  -11.490;  837.980
919.693;  140.455;  -13.670;  893.060
920.251;  140.250;  -15.470;  876.500
920.809;  139.629;  -11.290;  839.580
921.368;  139.657;  -10.210;  885.360
921.926;  138.381;  -12.140;  842.940
922.484;  136.616;  -13.080;  903.360
923.042;  136.672;  -11.720;  880.340
923.601;  139.020;   -7.480;  998.680
924.159;  138.309;  -11.570;  935.560
924.717;  137.336;  -13.840;  841.080
925.275;  139.439;  -10.640;  903.240
925.833;  138.639;  -11.540;  779.320
926.391;  138.711;  -12.960;  938.380
926.949;  138.020;  -14.130;  857.680
927.506;  139.334;  -11.750;  903.500
928.064;  139.031;  -10.250;  877.580
928.622;  137.612;  -13.030;  880.100
929.180;  139.037;  -13.400;  814.180
929.737;  139.571;  -10.700;  808.540
930.295;  140.953;  -10.070;  928.480
930.853;  140.541;  -11.960;  849.100
931.410;  140.792;  -13.120;  821.120
931.968;  141.405;  -10.770;  940.660
932.525;  142.448;  -10.680;  909.380
933.082;  143.987;  -13.130;  811.440
933.640;  150.827;  -13.210;  925.900
934.197;  153.756;  -11.060;  886.360
934.754;  155.292;   -9.580;  897.780
935.312;  156.262;  -14.000;  863.340
935.869;  157.706;  -10.710; 1012.980
936.426;  156.466;   -9.860;  872.800
936.983;  156.029;   -9.710;  889.020
937.540;  155.332;  -13.990;  838.280
938.097;  155.025;  -14.040;  940.120
938.654;  156.002;  -10.310;  898.860
939.211;  155.570;  -10.560;  952.480
939.768;  153.246;  -13.900;  915.420
940.324;  153.827;  -14.760;  904.200
940.881;  157.133;  -10.370;  878.500
941.438;  162.486;   -8.260; 1021.200
941.995;  162.303;  -12.540;  992.560
942.551;  161.748;  -14.670;  875.620
943.108;  162.551;  -10.450;  937.920
943.664;  164.224;  -10.750;  869.340
944.221;  167.577;  -11.550; 1088.140
944.777;  169.446;  -14.770;  869.680
945.334;  172.018;  -12.820;  884.840
945.890;  174.221;  -10.130;  946.480
946.446;  172.171;  -13.470;  947.020
947.003;  172.158;  -12.120;  964.940
947.559;  174.228;   -9.980; 1063.040
948.115;  173.927;   -9.080; 1026.540
948.671;  174.763;  -10.830;  967.300
949.227;  170.150;  -12.440;  859.560
949.783;  164.807;  -12.910;  858.900
950.339;  165.266;  -10.270;  991.000
950.895;  165.438;  -13.630; 1023.840
951.451;  163.763;  -15.100;  925.280
952.007;  162.754;  -11.330;  998.540
952.563;  162.676;  -10.580;  937.780
953.118;  161.150;  -13.440;  904.940
953.674;  157.311;  -12.710;  935.780
954.230;  156.447;  -10.350;  949.640
954.785;  157.308;   -9.190;  936.640
955.341;  157.540;  -11.200;  998.160
955.897;  151.612;  -16.560;  834.660
956.452;  149.156;  -12.570;  953.840
957.008;  146.472;   -7.970; 1083.640
957.563;  145.893;  -11.940; 1009.540
958.118;  146.879;  -13.450;  877.700
958.674;  148.548;  -12.030;  946.780
959.229;  148.649;   -9.410; 1013.980
959.784;  147.284;  -12.000;  832.400
960.339;  143.189;  -14.780; 1001.280
960.894;  135.260;   -9.860;  963.760
961.449;  131.461;   -9.970;  859.960
962.004;  129.855;  -10.900; 1212.840
962.559;  123.836;  -13.150;  860.140
963.114;  122.049;  -13.740;  742.480
963.669;  125.859;   -9.820;  915.500
964.224;  127.551;  -13.890;  874.340
964.779;  127.323;  -12.600;  828.420
965.334;  125.818;  -10.950; 1017.860
965.888;  120.660;  -11.170;  875.360
966.443;  118.100;  -12.540;  972.380
966.998;  118.729;  -15.780;  819.460
967.552;  120.414;   -9.760;  908.380
968.107;  116.968;   -9.060;  868.300
968.661;  115.081;  -11.950;  922.440
969.216;  112.273;  -12.800;  856.280
969.770;  113.096;  -11.210;  917.200
970.324;  111.342;  -11.610;  923.140
970.879;  109.685;  -11.370;  947.180
971.433;  109.163;  -12.540;  952.720
971.987;  107.436;  -11.320;  895.340
972.541;  107.124;  -10.720;  917.100
973.095;  109.472;   -9.680; 1009.460
973.649;  108.142;  -11.440;  809.480
974.203;  107.121;  -11.210;  829.040
974.757;  106.515;  -10.240;  855.220
975.311;  106.303;  -13.720;  872.600
975.865;  107.345;  -13.770;  881.820
976.419;  107.174;  -11.690;  857.400
976.973;  107.011;   -9.510;  849.620
977.526;  107.380;  -12.620;  949.920
978.080;  101.738;  -12.010;  796.780
978.634;  100.640;  -10.170;  921.320
979.187;   96.530;   -9.020;  905.400
979.741;   97.417;   -9.820; 1018.380
980.294;   94.253;  -14.870;  789.160
980.848;   90.871;  -12.380;  717.220
981.401;   91.208;  -10.350;  816.540
981.955;   90.983;  -13.720;  844.300
982.508;   89.414;  -11.490;  746.340
983.061;   89.317;  -10.000;  915.260
983.615;   86.832;  -11.480;  798.800
984.168;   85.847;  -13.220;  770.080
984.721;   85.668;  -13.960;  880.760
985.274;   82.014;  -10.870;  867.500
985.827;   81.571;   -9.790;  834.220
986.380;   79.742;  -13.120;  721.340
986.933;   79.976;  -12.450;  864.800
987.486;   78.700;  -10.210;  861.920
988.039;   78.991;   -8.430;  863.100
988.591;   77.466;  -10.520;  893.260
989.144;   74.413;  -14.860;  737.260
989.697;   73.566;  -13.080;  758.740
990.250;   72.709;  -10.150;  858.100
990.802;   69.556;  -13.430;  755.860
991.355;   69.605;  -12.750;  974.880
991.907;   66.757;  -12.040;  864.320
992.460;   63.910;  -11.330;  753.760
993.012;   62.352;  -13.610;  749.540
993.565;   60.384;  -13.460;  711.360
994.117;   62.137;   -9.360;  950.780
994.669;   59.858;  -11.300;  701.320
995.221;   59.030;  -13.540;  791.920
995.774;   58.156;  -13.430;  787.580
996.326;   58.096;  -12.520;  740.220
996.878;   57.866;  -10.950;  838.420
997.430;   56.177;  -14.300;  699.860
997.982;   55.861;  -13.760;  750.140
998.534;   54.541;  -11.530;  739.060
999.086;   53.385;  -10.310;  738.220
999.638;   51.708;  -12.530;  661.380
1000.190;   50.504;  -11.840;  699.320
1000.741;   50.175;  -10.260;  742.700
1001.293;   49.926;   -8.860;  686.020
1001.845;   49.524;  -13.700;  676.640
1002.396;   49.554;  -12.100;  743.400
1002.948;   48.748;  -12.760;  737.400
1003.500;   47.740;  -10.380;  723.780
1004.051;   48.866;  -11.900;  907.580
1004.603;   46.643;  -12.250;  791.820
1005.154;   43.438;  -13.210;  608.980
1005.705;   42.775;  -10.950;  723.960
1006.257;   42.464;  -13.880;  707.220
1006.808;   41.633;  -12.840;  685.460
1007.359;   40.301;  -10.570;  763.240
1007.910;   39.718;   -9.620;  646.640
1008.461;   39.741;  -13.630;  732.940
1009.013;   38.713;  -17.200;  588.340
1009.564;   39.458;  -10.200;  793.520
1010.115;   37.642;  -12.570;  597.040
1010.665;   38.358;  -15.150;  602.160
1011.216;   37.867;  -14.480;  667.920
1011.767;   36.888;  -11.340;  697.920
1012.318;   37.406;   -9.780;  736.980
1012.869;   36.401;  -12.380;  679.000
1013.419;   36.089;  -15.560;  603.120
1013.970;   36.315;  -11.010;  666.640
1014.521;   35.042;  -11.610;  620.620
1015.071;   36.089;  -13.450;  670.380
1015.622;   35.313;  -13.870;  635.460
1016.172;   34.391;  -11.610;  596.820
1016.723;   34.106;  -12.120;  614.380
1017.273;   34.407;  -13.620;  604.160
1017.823;   33.544;  -14.140;  650.340
1018.374;   33.372;  -12.800;  611.760
1018.924;   33.636;  -12.340;  716.880
1019.474;   34.053;  -11.410;  718.880
1020.024;   32.217;  -14.770;  657.580
1020.574;   32.479;   -9.780;  726.160
1021.124;   33.575;   -8.560;  673.580
1021.674;   31.793;  -15.190;  559.120
1022.224;   32.688;  -13.530;  708.940
1022.774;   32.290;  -13.280;  668.820
1023.324;   33.200;  -10.690;  753.520
1023.874;   33.601;  -10.240;  875.760
1024.423;   31.111;  -12.540;  613.700
1024.973;   30.083;  -10.010;  610.760
1025.523;   30.374;  -10.550;  620.960
1026.072;   30.100;  -13.560;  606.420
1026.622;   29.516;  -15.120;  675.740
1027.172;   30.219;  -11.260;  715.660
1027.721;   28.933;  -11.410;  601.220
1028.270;   30.166;  -13.530;  663.400
1028.820;   29.078;  -13.680;  638.080
1029.369;   29.017;  -13.520;  612.700
1029.918;   29.848;  -10.980;  649.840
1030.468;   28.877;  -13.530;  564.780
1031.017;   29.178;  -13.170;  634.800
1031.566;   27.972;  -12.200;  608.900
1032.115;   28.786;   -9.960;  694.500
1032.664;   28.150;  -13.210;  596.480
1033.213;   28.719;  -12.500;  735.420
1033.762;   27.617;  -11.910;  635.620
1034.311;   27.610;   -9.640;  677.220
1034.860;   28.650;  -13.310;  691.000
1035.408;   27.476;  -11.830;  722.720
1035.957;   27.518;  -12.000;  719.540
1036.506;   25.780;  -11.690;  530.800
1037.055;   28.454;  -10.990;  844.320
1037.603;   26.210;  -15.120;  664.000
1038.152;   24.230;  -12.450;  534.760
1038.700;   25.866;  -10.560;  585.740
1039.249;   25.854;  -11.080;  681.220
1039.797;   25.800;  -12.540;  633.360
1040.345;   25.595;  -11.920;  705.420
1040.894;   25.296;  -11.410;  625.300
1041.442;   24.893;  -14.320;  632.200
1041.990;   23.587;  -16.240;  559.160
1042.538;   24.582;  -11.680;  536.180
1043.087;   23.834;  -10.760;  570.860
1043.635;   25.015;  -11.850;  670.500
1044.183;   24.162;  -15.480;  586.400
1044.731;   23.825;  -11.770;  576.000
1045.279;   23.612;  -13.090;  674.920
1045.827;   25.584;  -12.440;  892.400
1046.374;   22.811;  -13.840;  515.420
1046.922;   21.318;  -13.220;  590.580
1047.470;   23.684;  -10.230;  691.300
1048.018;   23.603;  -14.590;  647.960
1048.565;   24.827;  -12.050;  708.600
1049.113;   22.481;  -11.650;  557.000
1049.660;   22.393;  -10.510;  629.660
1050.208;   22.709;  -13.310;  675.640
1050.755;   22.185;  -15.900;  606.580
1051.303;   22.463;  -11.430;  686.820
1051.850;   21.615;   -8.480;  635.120
1052.397;   20.948;  -15.010;  473.960
1052.945;   21.021;  -13.960;  617.760
1053.492;   22.272;  -13.150;  741.840
1054.039;   22.471;   -9.630;  720.180
1054.586;   21.267;  -13.680;  557.240
1055.133;   21.536;  -14.570;  693.140
1055.680;   22.259;  -13.820;  646.620
1056.227;   20.587;  -11.730;  542.780
1056.774;   22.104;  -12.480;  794.980
1057.321;   19.794;  -13.930;  523.260
1057.868;   20.039;  -11.690;  651.320
1058.415;   20.071;   -9.520;  651.980
1058.961;   20.125;  -13.160;  678.940
1059.508;   20.431;  -12.920;  643.820
1060.055;   19.755;  -11.920;  581.780
1060.601;   20.518;  -11.500;  624.300
1061.148;   19.194;  -14.330;  616.820
1061.694;   19.299;  -16.870;  592.580
1062.241;   19.301;  -10.330;  596.320
1062.787;   19.647;  -10.620;  663.140
1063.334;   20.987;  -10.110;  808.560
1063.880;   19.135;  -13.400;  668.360
1064.426;   19.418;  -10.680;  706.820
1064.972;   18.267;   -9.920;  601.340
1065.518;   17.636;  -10.980;  566.640
1066.065;   19.006;  -14.890;  624.460
1066.611;   17.831;  -12.870;  598.800
1067.157;   18.569;  -12.950;  641.860
1067.703;   19.185;  -13.540;  668.480
1068.249;   18.373;  -13.540;  605.220
1068.794;   18.089;  -12.600;  626.880
1069.340;   17.240;  -10.620;  578.960
1069.886;   18.077;  -12.830;  590.700
1070.432;   16.618;  -14.870;  541.720
1070.977;   16.192;  -11.980;  601.080
1071.523;   16.553;   -8.200;  573.060
1072.068;   16.873;  -12.330;  582.000
1072.614;   16.188;  -16.370;  527.760
1073.160;   17.160;  -11.100;  687.040
1073.705;   16.269;  -10.480;  572.520
1074.250;   16.330;  -14.520;  559.900
1074.796;   17.198;  -11.460;  655.160
1075.341;   16.809;  -11.950;  664.100
1075.886;   16.519;  -11.460;  594.240
1076.431;   15.942;  -13.770;  649.880
1076.976;   15.773;  -12.680;  639.220
1077.521;   15.272;  -13.170;  583.080
1078.067;   14.923;  -10.860;  579.400
1078.612;   15.889;  -13.920;  661.620
1079.156;   16.000;  -13.880;  601.540
1079.701;   15.580;  -13.120;  693.260
1080.246;   16.601;   -9.940;  696.300
1080.791;   15.869;  -14.740;  625.020
1081.336;   15.452;  -13.750;  659.320
1081.880;   14.571;  -13.400;  649.680
1082.425;   14.414;  -12.220;  573.480
1082.970;   15.767;  -11.610;  717.040
1083.514;   14.497;  -13.580;  597.000
1084.059;   13.542;  -12.810;  586.720
1084.603;   13.749;  -12.320;  565.840
1085.147;   14.392;  -13.190;  645.220
1085.692;   14.711;  -12.480;  716.800
1086.236;   13.027;  -13.020;  503.140
1086.780;   15.307;   -9.190;  751.440
1087.325;   14.143;  -12.480;  654.620
1087.869;   13.942;  -12.450;  610.700
1088.413;   14.393;  -12.240;  705.040
1088.957;   12.345;   -9.020;  543.400
1089.501;   14.128;  -10.320;  766.640
1090.045;   13.780;  -12.720;  726.480
1090.589;   11.383;  -13.690;  569.920
1091.133;   13.055;  -10.020;  673.340
1091.676;   13.194;  -12.330;  591.940
1092.220;   12.703;  -14.970;  600.920
1092.764;   13.682;  -12.430;  706.960
1093.307;   12.505;   -9.800;  673.780
1093.851;   11.783;  -14.970;  556.540
1094.395;   12.440;  -15.310;  683.140
1094.938;   11.892;  -10.370;  632.520
1095.482;   11.733;  -11.050;  559.800
1096.025;   13.021;  -11.840;  710.880
1096.568;   13.579;  -12.840;  779.280
1097.112;    9.632;  -14.700;  508.180
1097.655;   11.818;   -8.720;  603.000
1098.198;   10.009;  -13.610;  600.180
1098.741;   10.354;  -13.350;  612.860
1099.285;   11.881;  -11.230;  657.300
1099.828;    9.696;  -11.840;  439.400
1100.371;   10.889;  -10.840;  608.160
1100.914;   11.847;  -14.190;  682.660
1101.457;   10.671;  -11.240;  679.900
1101.999;    9.718;  -11.270;  584.680
1102.542;   11.009;  -11.480;  641.440
1103.085;   10.462;  -11.750;  658.500
1103.628;   11.249;  -11.400;  762.060
1104.170;    9.073;  -10.490;  588.280
1104.713;   10.918;  -10.600;  646.700
1105.256;    9.410;  -14.360;  557.440
1105.798;    8.623;  -13.210;  499.980
1106.341;   10.675;  -10.270;  728.900
1106.883;    9.556;  -12.200;  521.340
1107.425;    9.921;  -13.110;  668.180
1107.968;    9.234;  -12.840;  612.380
1108.510;   10.262;   -6.480;  684.960
1109.052;    8.508;  -13.940;  612.620
1109.594;    8.580;  -13.690;  554.440
1110.136;    9.093;  -11.880;  643.220
1110.679;    8.407;   -9.500;  633.080
1111.221;    8.888;  -14.160;  604.460
1111.763;    8.422;  -13.980;  559.220
1112.304;    8.042;  -13.880;  547.140
1112.846;    8.951;  -12.210;  666.240
1113.388;   11.542;  -11.390;  942.180
1113.930;    8.426;  -14.540;  694.200
1114.472;    7.771;  -12.640;  606.540
1115.013;    6.632;  -11.620;  551.280
1115.555;    7.530;  -13.640;  587.100
1116.097;    7.111;  -15.380;  579.480
1116.638;    7.203;  -12.640;  684.600
1117.180;    7.772;   -9.850;  667.740
1117.721;    7.013;  -13.690;  568.580
1118.262;    7.928;  -12.680;  677.960
1118.804;    7.799;  -12.530;  637.340
1119.345;    6.771;  -11.690;  578.400
1119.886;    8.128;  -13.380;  704.040
1120.427;    7.353;  -14.070;  589.020
1120.969;    6.102;  -13.500;  597.920
1121.510;    6.161;  -11.480;  563.060
1122.051;    7.244;  -12.830;  723.580
1122.592;    5.586;  -14.290;  655.420
1123.133;    4.347;  -12.400;  547.940
1123.673;    6.842;  -10.130;  706.480
1124.214;    6.576;  -12.930;  612.460
1124.755;    7.390;  -14.380;  639.460
1125.296;    6.187;  -14.000;  627.320
1125.836;    7.509;  -10.070;  691.500
1126.377;    5.679;  -12.640;  599.660
1126.918;    5.597;  -12.960;  614.980
1127.458;    4.771;  -13.350;  622.220
1127.999;    5.761;  -10.750;  656.980
1128.539;    6.336;  -12.350;  694.240
1129.079;    5.081;  -14.860;  632.720
1129.620;    3.893;  -13.840;  558.100
1130.160;    4.678;  -12.330;  539.480
1130.700;    5.754;  -14.530;  640.840
1131.240;    6.043;  -12.530;  643.700
1131.781;    4.287;  -14.450;  619.680
1132.321;    4.887;   -9.790;  599.120
1132.861;    4.028;  -14.860;  564.200
1133.401;    3.518;  -14.290;  593.940
1133.941;    4.218;  -11.750;  626.280
1134.481;    3.961;   -9.920;  597.580
1135.020;    3.905;  -12.290;  609.160
1135.560;    3.707;  -11.650;  674.940
1136.100;    2.865;  -16.270;  501.160
1136.640;    3.474;  -10.890;  510.480
1137.179;    3.848;  -14.180;  537.960
1137.719;    4.050;  -16.250;  605.400
1138.258;    3.688;  -14.230;  587.360
1138.798;    3.829;   -9.090;  663.780
1139.337;    3.361;  -15.130;  482.840
1139.877;    4.155;  -13.680;  642.360
1140.416;    5.976;  -11.320;  878.060
1140.955;    2.839;  -10.860;  535.380
1141.494;    3.035;  -12.920;  669.280
1142.034;    2.811;  -13.930;  583.520
1142.573;    4.144;  -11.440;  646.280
1143.112;    2.907;  -12.000;  553.480
1143.651;    3.184;  -13.670;  536.480
1144.190;    4.310;  -12.730;  691.640
1144.729;    2.286;  -14.560;  607.420
1145.267;    2.802;  -11.830;  584.900
1145.806;    4.518;  -12.230;  637.040
1146.345;    2.844;  -14.130;  635.020
1146.884;    2.336;  -11.590;  622.500
1147.422;    1.980;  -12.550;  533.060
1147.961;    3.783;  -11.180;  708.460
1148.500;    2.278;  -11.510;  669.720
1149.038;    3.208;  -11.640;  632.500
1149.577;    2.482;  -10.130;  698.640
1150.115;    0.939;  -13.970;  452.280
1150.653;    2.204;  -14.520;  607.340
1151.192;    1.670;  -12.810;  552.920
1151.730;    1.976;   -9.100;  652.560
1152.268;    2.106;  -12.220;  589.520
1152.806;    1.293;  -14.140;  571.180
1153.344;    0.267;  -12.350;  577.640
1153.882;    2.032;   -8.980;  600.060
1154.421;    0.282;  -15.190;  470.620
1154.958;    1.015;  -15.210;  595.240
1155.496;    1.854;  -12.850;  645.280
1156.034;    1.283;   -9.940;  721.880
1156.572;    2.396;  -13.570;  667.060
1157.110;    0.361;  -14.590;  473.940
1157.647;    1.589;  -13.030;  676.960
1158.185;    0.693;  -12.140;  564.320
1158.723;    0.117;  -14.390;  509.200
1159.260;    0.479;  -14.090;  701.700
1159.798;    0.836;  -11.920;  658.160
1160.335;    0.055;  -11.110;  631.820

