
Integration time [ms]:   3.276
Averaging Nr. [scans]: 1000
Smoothing Nr. [pixels]: 0
Data measured with spectrometer [name]: 7414430SP
Wave   ;Sample   ;Dark     ;Reference
[nm]   ;[counts] ;[counts] ;[counts] 

288.544;  160.957;    7.793;  793.890
289.143;  163.449;    7.462;  681.602
289.742;  165.010;    8.602;  828.814
290.341;  150.440;    1.321;  789.841
290.940;  141.103;   -0.709;  730.702
291.538;  143.849;    0.881;  881.108
292.137;  142.126;    0.122;  792.581
292.736;  145.978;   -1.929;  975.101
293.335;  140.814;   -8.229;  735.086
293.934;  141.901;   -5.279;  781.677
294.532;  143.048;   -1.369; 1031.958
295.131;  129.692;   -7.641;  834.394
295.730;  129.727;   -8.420;  809.588
296.328;  125.813;   -5.611;  783.442
296.927;  125.013;   -5.781;  779.652
297.525;  126.952;   -6.361;  781.236
298.124;  119.034;  -11.382;  654.009
298.722;  123.884;   -7.641;  761.933
299.321;  120.290;   -6.811;  708.597
299.919;  117.150;   -6.991;  751.918
300.518;  114.210;  -10.362;  689.338
301.116;  115.162;   -9.581;  691.381
301.715;  115.819;   -4.891;  730.222
302.313;  114.482;   -8.801;  704.943
302.911;  109.764;   -8.522;  733.830
303.509;  114.177;   -6.171;  925.627
304.108;  112.971;   -7.311;  760.383
304.706;  111.882;   -8.321;  801.664
305.304;  106.664;  -10.222;  796.707
305.902;  110.946;   -6.021;  784.484
306.500;  105.864;   -4.971;  728.200
307.098;  105.566;   -7.061;  746.560
307.696;  103.569;   -8.801;  780.432
308.294;  104.341;   -6.411;  731.359
308.892;  105.089;   -2.901;  759.769
309.490;  102.537;   -5.041;  712.161
310.088;  100.119;   -5.002;  788.444
310.686;  104.234;   -2.041;  821.749
311.284;   99.291;   -2.351;  766.040
311.882;   97.688;   -4.422;  731.225
312.480;   94.951;   -4.192;  697.167
313.078;   95.290;   -1.172;  808.331
313.675;   96.564;   -2.601;  691.600
314.273;   91.580;   -1.312;  797.837
314.871;   90.579;   -3.942;  589.829
315.468;   87.968;   -2.802;  652.090
316.066;   91.213;   -0.701;  694.427
316.664;   84.698;   -4.362;  656.351
317.261;   88.119;   -2.872;  910.128
317.859;   84.039;   -2.022;  768.735
318.456;   83.909;   -0.531;  830.096
319.054;   80.252;   -3.912;  787.828
319.651;   79.335;   -4.752;  759.928
320.249;   77.410;   -2.602;  810.188
320.846;   74.771;   -0.821;  714.286
321.443;   73.738;   -4.642;  832.135
322.041;   69.638;   -5.002;  812.315
322.638;   67.207;   -3.982;  701.456
323.235;   67.873;   -3.411;  665.683
323.833;   64.826;   -7.361;  740.354
324.430;   60.916;   -8.611;  615.900
325.027;   61.330;   -4.061;  876.855
325.624;   61.250;   -4.031;  644.532
326.221;   58.407;   -7.481;  689.717
326.818;   58.131;   -5.281;  818.332
327.415;   60.208;   -7.460;  748.828
328.012;   60.238;   -5.510;  690.585
328.609;   59.141;   -7.880;  731.389
329.206;   57.118;   -8.331;  778.621
329.803;   56.964;   -5.121;  737.841
330.400;   59.071;   -4.510;  704.260
330.997;   60.568;   -6.441;  817.147
331.594;   57.914;   -8.831;  788.185
332.191;   63.463;   -7.621;  728.722
332.787;   67.432;   -4.591;  844.463
333.384;   67.212;   -7.412;  763.093
333.981;   65.849;   -8.293;  815.687
334.578;   68.182;   -7.052;  708.378
335.174;   70.457;   -3.102;  731.469
335.771;   70.624;   -5.943;  836.456
336.367;   67.540;   -7.393;  710.631
336.964;   71.502;   -4.063;  793.266
337.561;   69.889;   -3.813;  731.112
338.157;   66.022;   -4.654;  911.916
338.754;   63.634;   -7.934;  796.589
339.350;   63.560;   -4.414;  722.493
339.946;   64.371;   -4.664;  773.135
340.543;   55.963;   -6.375;  846.136
341.139;   50.486;   -9.815;  720.836
341.735;   48.376;   -4.526;  772.593
342.332;   48.161;   -4.895;  691.472
342.928;   46.395;   -4.295;  795.394
343.524;   40.035;   -5.476;  761.684
344.120;   36.853;   -5.856;  738.562
344.716;   39.811;   -2.155;  723.717
345.313;   36.283;   -6.275;  795.342
345.909;   31.338;   -8.815;  627.336
346.505;   32.768;   -5.305;  740.247
347.101;   33.563;   -2.674;  827.864
347.697;   33.841;   -4.344;  785.398
348.293;   28.060;   -9.975;  627.244
348.889;   29.031;   -5.774;  745.914
349.485;   28.756;   -5.004;  688.205
350.081;   28.983;   -4.704;  772.592
350.676;   24.328;   -6.635;  691.606
351.272;   29.291;   -4.504;  809.530
351.868;   27.448;   -3.914;  780.497
352.464;   24.888;   -9.044;  723.932
353.059;   21.855;   -8.314;  646.017
353.655;   24.930;   -7.024;  777.063
354.251;   26.448;   -5.343;  759.845
354.846;   20.575;   -8.604;  740.646
355.442;   18.166;   -6.945;  753.071
356.038;   19.966;   -7.564;  751.708
356.633;   20.424;   -5.814;  728.594
357.229;   17.837;   -7.364;  724.757
357.824;   17.233;   -8.024;  703.600
358.420;   15.420;   -9.384;  679.726
359.015;   15.194;   -5.104;  695.357
359.610;   17.265;   -6.854;  763.920
360.206;   10.463;  -10.185;  603.240
360.801;   13.277;   -7.054;  646.503
361.396;   16.287;   -5.034;  725.975
361.992;   11.714;   -8.284;  668.220
362.587;    9.415;   -8.625;  670.160
363.182;   10.458;   -7.674;  689.631
363.777;   11.827;   -5.164;  738.242
364.372;   10.853;   -8.604;  737.314
364.967;    7.674;   -9.055;  680.744
365.563;   11.587;   -6.114;  815.567
366.158;    8.462;   -5.814;  685.161
366.753;    8.947;   -7.854;  649.263
367.348;    7.654;   -7.804;  746.056
367.942;    6.881;   -7.954;  697.298
368.537;    6.333;   -4.984;  754.245
369.132;    6.239;   -8.564;  703.428
369.727;    1.814;   -8.855;  638.079
370.322;    3.729;   -6.245;  580.186
370.917;    3.756;   -6.425;  710.646
371.511;    6.280;   -6.294;  861.834
372.106;    2.673;   -7.685;  776.964
372.701;   -0.890;   -7.335;  585.988
373.296;    5.161;   -4.564;  863.135
373.890;   -0.240;  -10.235;  647.840
374.485;   -2.111;   -7.885;  691.199
375.079;    1.649;   -7.324;  738.685
375.674;    2.662;   -3.494;  812.970
376.268;   -1.384;   -8.525;  691.759
376.863;   -6.778;  -10.086;  580.327
377.457;   -0.128;   -7.025;  662.490
378.052;   -2.053;   -3.585;  764.884
378.646;   -3.109;   -7.595;  741.167
379.240;   -2.544;   -8.335;  721.176
379.835;   -2.582;   -5.785;  636.978
380.429;   -4.628;   -4.335;  562.557
381.023;   -5.024;   -6.805;  779.205
381.617;   -7.162;   -9.195;  680.106
382.212;   -4.101;   -6.905;  685.303
382.806;   -3.357;   -3.745;  760.690
383.400;   -7.206;   -7.745;  672.281
383.994;   -8.174;   -9.765;  664.870
384.588;   -4.109;   -6.564;  697.701
385.182;   -2.904;   -5.344;  726.624
385.776;   -5.041;   -8.514;  706.875
386.370;   -8.371;   -9.555;  681.968
386.964;   -6.612;   -8.715;  684.155
387.558;   -5.362;   -6.174;  598.360
388.152;   -8.804;   -8.725;  681.959
388.745;   -6.862;   -7.965;  814.707
389.339;   -5.700;   -5.924;  747.642
389.933;   -3.953;   -5.524;  695.370
390.527;   -5.616;   -7.114;  859.029
391.120;  -11.504;  -10.725;  595.318
391.714;   -8.856;   -8.035;  711.633
392.308;   -5.149;   -3.574;  780.253
392.901;   -9.552;   -7.245;  642.460
393.495;  -11.047;   -9.285;  595.414
394.089;   -8.795;   -5.895;  760.452
394.682;   -9.182;   -4.295;  697.188
395.275;   -9.937;   -9.875;  719.927
395.869;  -11.338;   -8.485;  667.314
396.462;   -9.548;   -7.455;  616.609
397.056;   -5.329;   -5.424;  776.621
397.649;  -10.584;   -6.605;  731.575
398.242;   -7.268;   -8.224;  712.645
398.836;   -7.238;   -7.474;  766.408
399.429;   -8.439;   -7.094;  631.041
400.022;  -11.611;   -9.475;  665.902
400.615;   -9.157;   -7.145;  805.609
401.208;   -6.666;   -7.174;  691.451
401.802;   -9.588;   -5.515;  699.329
402.395;   -9.948;   -9.875;  683.502
402.988;  -10.845;   -8.845;  696.627
403.581;   -8.489;   -8.874;  646.878
404.174;   -5.452;   -5.324;  686.568
404.767;   -9.074;   -9.575;  638.583
405.360;  -10.869;  -10.965;  621.445
405.953;   -6.575;   -8.764;  759.034
406.545;   -5.323;   -7.514;  725.342
407.138;   -9.188;  -10.025;  618.350
407.731;   -8.063;  -10.034;  613.303
408.324;   -4.766;   -9.374;  660.554
408.917;   -5.923;   -6.534;  681.864
409.509;   -6.983;   -8.004;  740.396
410.102;   -9.092;   -9.875;  643.948
410.695;   -2.780;   -8.604;  665.758
411.287;   -4.069;   -6.794;  599.821
411.880;   -5.691;   -9.334;  585.421
412.472;   -8.485;  -10.254;  613.092
413.065;   -5.595;   -6.714;  629.408
413.657;   -2.977;   -7.234;  576.678
414.250;   -3.915;  -10.544;  646.681
414.842;   -4.961;   -9.744;  676.353
415.434;   -3.441;   -6.994;  570.463
416.027;    1.762;   -5.893;  652.196
416.619;   -0.659;   -7.264;  713.400
417.211;   -0.943;  -10.374;  599.352
417.804;    2.655;   -7.993;  628.499
418.396;   -1.072;   -7.234;  607.643
418.988;    0.725;   -9.443;  659.238
419.580;   -2.368;  -10.724;  568.276
420.172;   -0.849;  -10.323;  536.196
420.764;    4.317;   -8.793;  672.482
421.356;    2.129;  -11.143;  636.898
421.948;    1.590;   -8.293;  677.661
422.540;    6.706;   -7.893;  680.027
423.132;    5.989;   -7.082;  600.641
423.724;    3.332;   -8.653;  561.267
424.316;    4.819;  -10.213;  621.345
424.908;    8.458;   -9.762;  591.517
425.500;    8.804;   -5.572;  647.978
426.092;    9.136;   -8.422;  648.268
426.683;    8.777;   -9.283;  684.836
427.275;   11.178;   -7.852;  641.471
427.867;   13.133;   -5.272;  668.948
428.458;   13.318;   -7.682;  732.344
429.050;   12.060;  -10.612;  680.749
429.642;   13.950;   -9.882;  743.124
430.233;   14.818;   -6.962;  569.356
430.825;   15.333;   -6.842;  724.809
431.416;   13.584;   -9.672;  698.241
432.008;   16.466;   -6.552;  651.723
432.599;   17.406;   -6.891;  656.073
433.190;   15.141;  -10.912;  637.670
433.782;   13.979;  -11.172;  590.395
434.373;   21.351;   -6.061;  884.765
434.964;   20.465;   -8.251;  602.920
435.556;   17.178;   -9.722;  634.537
436.147;   20.552;   -9.082;  758.490
436.738;   20.835;   -8.041;  701.099
437.329;   25.964;   -7.341;  721.723
437.920;   18.956;   -8.162;  666.688
438.511;   19.070;  -11.802;  564.526
439.103;   25.635;  -10.191;  623.998
439.694;   27.181;   -7.601;  681.583
440.285;   28.224;   -8.541;  764.432
440.876;   26.369;   -9.751;  845.738
441.466;   26.159;   -9.401;  575.162
442.057;   30.978;   -7.760;  665.814
442.648;   29.331;   -9.971;  746.255
443.239;   28.030;  -11.001;  620.477
443.830;   33.141;   -7.990;  704.958
444.421;   34.762;   -7.910;  655.474
445.011;   31.753;   -8.131;  693.619
445.602;   31.322;   -7.111;  743.126
446.193;   32.906;  -10.920;  488.117
446.783;   37.981;   -6.500;  640.397
447.374;   33.275;   -8.671;  692.759
447.964;   33.484;  -10.781;  713.770
448.555;   41.896;   -9.650;  822.742
449.145;   38.432;   -8.660;  662.853
449.736;   39.419;   -8.990;  803.179
450.326;   40.238;   -9.500;  713.626
450.917;   44.371;   -8.680;  675.324
451.507;   44.221;   -7.520;  600.661
452.097;   44.334;   -8.590;  746.267
452.688;   47.079;  -11.340;  742.160
453.278;   45.577;  -10.100;  566.840
453.868;   49.334;   -6.019;  793.550
454.458;   47.962;   -9.440;  651.141
455.048;   48.540;  -10.560;  711.783
455.639;   49.843;  -11.799;  567.096
456.229;   53.166;   -6.899;  710.694
456.819;   55.483;   -7.389;  751.158
457.409;   56.229;  -11.119;  773.993
457.999;   58.679;   -9.289;  737.505
458.589;   58.548;   -6.139;  686.606
459.179;   58.690;   -8.729;  717.658
459.769;   56.750;   -9.789;  627.099
460.358;   61.605;  -10.259;  797.262
460.948;   61.118;   -7.299;  689.503
461.538;   63.203;  -10.289;  660.677
462.128;   61.625;  -11.269;  664.934
462.717;   67.549;   -9.368;  710.326
463.307;   70.835;   -7.908;  705.846
463.897;   66.819;   -9.599;  656.942
464.486;   66.652;   -9.769;  837.128
465.076;   70.573;   -8.048;  733.776
465.666;   73.525;   -9.358;  652.900
466.255;   72.129;   -7.919;  785.651
466.845;   70.656;  -11.689;  666.749
467.434;   74.122;   -7.818;  725.873
468.023;   75.715;   -7.678;  658.357
468.613;   73.792;  -10.939;  713.946
469.202;   77.530;  -10.118;  646.507
469.791;   81.871;   -9.108;  737.811
470.381;   84.109;   -6.058;  742.813
470.970;   83.064;  -10.428;  711.099
471.559;   83.405;  -10.268;  733.291
472.148;   86.321;   -8.448;  675.737
472.738;   89.254;   -6.917;  765.466
473.327;   88.222;  -11.978;  637.529
473.916;   88.308;  -11.888;  737.446
474.505;   92.295;   -9.437;  751.703
475.094;   96.754;   -6.747;  806.570
475.683;   95.898;   -9.367;  797.699
476.272;   96.335;  -12.637;  730.632
476.861;   99.208;  -10.027;  706.754
477.449;  104.662;   -8.716;  728.487
478.038;  100.545;   -9.577;  692.513
478.627;  101.759;   -9.718;  714.852
479.216;  108.505;   -8.947;  769.441
479.805;  110.995;   -6.256;  783.375
480.393;  111.607;   -7.937; 1008.945
480.982;  110.285;   -7.717;  874.501
481.571;  116.154;   -9.266;  858.333
482.159;  117.392;   -7.636;  705.386
482.748;  117.072;   -9.667;  821.385
483.336;  122.352;  -10.376;  858.209
483.925;  122.696;   -7.147;  774.373
484.513;  130.310;   -7.996;  758.962
485.102;  127.220;  -10.027;  810.965
485.690;  135.664;  -10.446; 1011.050
486.278;  137.700;   -8.446;  979.329
486.867;  138.070;   -6.356;  809.662
487.455;  141.572;   -9.136;  898.229
488.043;  142.985;  -10.646;  748.361
488.631;  151.444;   -7.456; 1005.079
489.220;  156.463;   -6.636;  908.626
489.808;  157.151;  -11.036;  741.415
490.396;  164.933;  -10.246;  914.645
490.984;  171.834;   -8.556;  830.161
491.572;  184.083;   -5.886;  940.315
492.160;  190.931;   -9.486;  919.081
492.748;  205.590;  -10.976;  884.341
493.336;  230.099;   -8.776; 1019.693
493.924;  257.966;   -5.465;  958.077
494.512;  293.981;   -9.986; 1066.638
495.100;  342.030;  -10.636; 1103.280
495.687;  402.181;  -10.885; 1206.373
496.275;  476.033;   -8.126; 1150.796
496.863;  560.257;  -10.586; 1281.171
497.451;  679.466;  -11.926; 1386.805
498.038;  793.796;  -10.885; 1556.729
498.626;  917.046;   -6.315; 1741.407
499.214; 1086.311;   -7.326; 2016.609
499.801; 1296.890;  -11.906; 2220.633
500.389; 1498.389;  -10.466; 2312.494
500.976; 1766.301;   -5.236; 2744.849
501.564; 2252.921;   -8.936; 3148.565
502.151; 2817.232;  -13.176; 3515.999
502.738; 3354.058;  -10.646; 3971.274
503.326; 3811.298;   -9.525; 4403.796
503.913; 4250.112;  -10.856; 5161.749
504.500; 4809.847;  -11.586; 5986.420
505.088; 5407.195;  -10.336; 6381.201
505.675; 5626.344;   -6.355; 6925.547
506.262; 6111.404;   -9.046; 7619.060
506.849; 6584.672;  -10.416; 8733.969
507.436; 7018.294;  -10.305; 9790.121
508.023; 7750.558;   -5.496; 9985.472
508.610; 8506.493;   -7.856;10434.618
509.197;10280.402;  -10.097;11198.435
509.784;11824.118;  -10.886;12391.194
510.371;12779.908;   -9.315;13603.713
510.958;13555.882;   -9.936;14426.586
511.545;13643.592;   -9.326;15243.775
512.132;14631.676;  -10.075;15945.876
512.719;15707.783;   -7.796;16340.369
513.305;17583.434;  -10.606;18011.766
513.892;18738.531;  -11.486;19754.971
514.479;20179.053;   -9.126;20967.805
515.066;21291.385;   -6.026;22299.793
515.652;21399.434;   -8.466;22908.660
516.239;22658.326;  -10.886;23798.875
516.825;24914.912;  -11.496;25567.275
517.412;26188.484;   -5.796;28154.959
517.998;27077.246;  -10.506;28344.111
518.585;27426.330;  -10.076;27134.219
519.171;27137.689;   -8.315;27268.576
519.758;26612.500;   -8.596;28964.129
520.344;27432.871;   -8.466;30664.494
520.930;30775.113;  -11.006;32550.605
521.516;31856.387;  -10.495;35422.895
522.103;32282.303;   -5.526;38280.004
522.689;33863.254;   -8.746;37835.117
523.275;34893.883;  -11.376;37288.613
523.861;37121.320;  -11.156;37281.395
524.447;38997.543;   -8.135;37846.949
525.033;39091.238;   -7.896;38321.949
525.619;39908.426;  -12.476;38579.285
526.205;40292.680;   -9.516;40622.875
526.791;39374.145;   -6.926;42258.836
527.377;42756.051;   -8.346;42966.902
527.963;44600.930;   -8.717;42018.949
528.549;42320.375;  -11.016;42476.828
529.135;41198.602;   -8.536;41854.852
529.721;40821.258;   -9.666;41237.711
530.306;39768.809;  -10.066;41259.445
530.892;38841.141;  -11.356;41506.047
531.478;40082.145;   -6.596;43559.613
532.063;42131.500;   -8.836;47695.563
532.649;44761.660;  -10.047;50808.324
533.235;46301.641;   -9.746;51787.500
533.820;46802.191;   -6.566;52145.035
534.406;47509.098;  -10.817;51133.488
534.991;48992.402;   -9.416;49996.805
535.576;46481.102;   -9.036;48882.852
536.162;47486.430;   -6.156;46942.285
536.747;48412.086;  -11.607;45711.746
537.333;47828.781;  -11.787;48510.180
537.918;46694.301;  -12.437;50439.891
538.503;46433.207;   -7.196;50863.711
539.088;46856.520;  -10.556;50906.922
539.673;48501.160;   -8.767;52621.965
540.259;48424.473;  -10.026;52368.094
540.844;49189.301;   -7.416;50879.109
541.429;48402.250;   -9.467;52077.777
542.014;49512.688;   -9.527;52716.695
542.599;51556.035;   -9.946;52363.281
543.184;51163.313;   -7.927;53187.137
543.769;49972.734;   -9.297;54697.605
544.354;47547.742;  -10.127;53913.914
544.938;44766.508;   -9.267;49680.164
545.523;45267.262;   -6.506;47386.277
546.108;49191.090;   -9.787;49151.949
546.693;51252.270;  -11.587;51384.637
547.278;51708.957;  -10.986;51853.254
547.862;48507.984;   -8.206;51173.750
548.447;46120.480;  -10.067;51691.395
549.031;48648.828;   -9.637;52456.703
549.616;51704.801;   -9.926;52714.516
550.201;49568.543;   -6.347;52414.598
550.785;46258.035;   -7.917;52355.059
551.370;42407.895;  -10.867;54589.453
551.954;44913.148;   -9.047;58267.348
552.538;48207.012;   -7.827;59062.176
553.123;47029.516;  -10.287;58115.285
553.707;44802.141;  -12.178;56556.285
554.291;47015.043;   -8.717;56201.668
554.876;48751.145;   -7.457;55335.762
555.460;49934.914;  -10.387;54155.703
556.044;48833.148;   -9.618;53721.484
556.628;48780.086;  -11.567;53731.016
557.212;50136.609;   -8.097;54312.531
557.796;49156.578;  -11.077;53797.773
558.380;47218.711;  -11.108;56145.984
558.964;45016.402;   -9.057;57277.930
559.548;43673.109;   -6.977;56459.641
560.132;44387.930;  -11.457;54434.543
560.716;42476.387;  -11.378;54800.617
561.300;43468.207;   -9.577;57606.945
561.884;46257.793;   -7.127;58972.445
562.467;47219.230;   -7.118;57327.570
563.051;45984.898;  -13.358;54962.434
563.635;45514.566;  -10.178;52594.473
564.219;46729.207;   -7.837;50610.410
564.802;45941.762;  -11.398;49551.180
565.386;46911.395;  -12.788;48370.953
565.969;45754.352;   -9.077;48178.871
566.553;44807.867;   -6.207;49957.305
567.136;43014.754;   -8.568;50369.594
567.720;43204.602;  -11.868;49492.004
568.303;44683.633;   -8.268;50616.352
568.887;43445.086;   -8.698;50727.148
569.470;42518.234;   -6.808;51698.379
570.053;41237.551;  -13.188;52122.078
570.637;38916.098;  -12.037;52536.438
571.220;37854.387;   -8.577;51186.098
571.803;39050.691;   -8.498;51032.762
572.386;40068.207;  -10.498;49609.887
572.969;40284.789;   -9.388;48285.926
573.552;37567.988;   -8.338;47624.285
574.135;37242.535;   -8.518;45498.641
574.718;37925.766;  -13.628;41970.434
575.301;35844.750;  -10.893;41447.137
575.884;33763.730;   -8.158;40923.836
576.467;37060.082;  -10.328;45267.723
577.050;36408.402;  -13.058;48175.543
577.633;35665.262;   -9.458;47729.328
578.216;35595.391;   -8.928;47579.793
578.799;35253.145;   -9.358;47820.996
579.381;35246.879;  -11.388;48115.551
579.964;34408.770;  -11.718;47333.766
580.547;35462.797;   -8.588;46668.969
581.129;36989.293;   -8.859;44466.141
581.712;35501.234;  -10.729;44164.922
582.294;36139.168;  -11.118;46477.855
582.877;35209.117;   -5.218;48244.254
583.459;34632.891;   -8.679;47437.895
584.042;34539.180;  -10.709;46943.219
584.624;36874.891;  -11.669;46792.227
585.206;39296.055;   -8.218;46557.250
585.789;37152.137;  -10.569;45793.773
586.371;35075.641;  -11.859;43836.391
586.953;33422.832;  -10.719;42972.492
587.536;33332.105;   -7.198;42487.211
588.118;34991.438;   -8.720;42086.414
588.700;35631.660;  -10.439;43389.930
589.282;34920.301;   -9.198;43646.039
589.864;34976.508;   -9.199;43438.109
590.446;33783.801;  -11.319;43151.926
591.028;33140.938;  -11.159;42781.867
591.610;32018.221;  -11.779;42839.098
592.192;28827.844;   -7.668;42820.402
592.774;28944.469;  -11.949;40724.277
593.356;29791.590;  -12.129;39874.789
593.937;31258.219;  -10.669;39980.648
594.519;32482.818;   -6.509;42069.633
595.101;34827.887;  -10.849;42976.031
595.683;35050.480;  -11.679;44084.441
596.264;32869.563;   -9.049;43478.797
596.846;32957.949;   -8.849;43803.672
597.427;34296.750;   -9.570;42986.934
598.009;32578.691;  -12.620;42832.219
598.591;30908.779;  -10.039;42580.086
599.172;31535.965;  -10.369;43061.805
599.753;32611.828;   -9.140;41691.469
600.335;32181.469;  -11.430;40692.520
600.916;32215.824;   -9.939;39982.422
601.498;32994.168;   -8.479;40318.617
602.079;32369.984;  -10.920;40670.609
602.660;32663.168;  -11.480;41450.898
603.241;32861.629;  -11.699;41137.738
603.823;33203.691;   -9.579;38868.797
604.404;33205.293;  -10.620;38182.785
604.985;31852.492;  -10.450;38078.047
605.566;31357.938;   -9.129;38056.633
606.147;32287.064;   -7.510;37020.418
606.728;32653.555;  -10.660;37883.359
607.309;32646.541;  -11.740;38748.273
607.890;30993.488;   -9.759;38850.230
608.471;28769.791;   -8.250;37457.918
609.051;30287.988;   -9.240;36066.457
609.632;29857.174;  -12.120;35991.074
610.213;28413.340;   -9.110;37402.641
610.794;29276.434;   -8.030;38383.363
611.374;30929.854;   -8.110;40562.387
611.955;31706.725;  -13.560;38533.727
612.536;30186.197;  -11.400;36951.789
613.116;30462.996;   -8.070;37197.891
613.697;31290.531;  -10.830;38411.125
614.277;30623.514;  -11.641;38673.938
614.858;29305.740;  -13.310;37075.863
615.438;28992.459;   -7.460;35092.906
616.019;28234.148;   -7.601;33666.301
616.599;28614.516;  -12.020;34189.023
617.179;29291.504;  -11.780;36952.047
617.760;31618.482;   -8.570;39582.574
618.340;32348.295;  -11.471;38943.977
618.920;30136.146;  -11.170;37594.156
619.500;30123.660;  -11.071;37866.938
620.080;31474.605;   -7.750;37869.043
620.660;31495.027;  -12.711;36868.617
621.241;30123.623;  -10.211;36352.309
621.821;28901.275;  -10.961;35459.520
622.401;28727.768;   -7.720;35207.414
622.980;29960.947;   -8.981;35980.422
623.560;30504.986;   -9.331;37351.328
624.140;28224.045;   -9.850;34388.582
624.720;25323.039;   -7.451;32368.764
625.300;23854.715;   -9.070;32638.629
625.880;27164.170;  -12.601;34599.035
626.459;31270.699;  -11.751;36831.738
627.039;32875.059;   -9.281;38299.098
627.619;33308.531;   -8.801;38289.574
628.198;33822.527;  -12.071;37220.695
628.778;32785.059;   -9.461;37632.563
629.357;32731.010;   -8.491;38003.012
629.937;32170.143;   -9.721;38402.039
630.516;32134.656;   -9.951;37868.801
631.096;31228.418;  -11.731;35760.410
631.675;32238.146;   -8.572;35225.219
632.254;33146.504;  -11.282;35130.289
632.834;33021.652;  -13.322;35794.570
633.413;33622.730;  -10.301;35788.922
633.992;33741.141;   -8.582;34532.863
634.571;33009.016;   -8.352;33590.113
635.151;31953.188;  -11.912;34943.863
635.730;30329.021;  -10.511;35352.523
636.309;31153.643;   -7.731;35366.605
636.888;31878.072;   -9.952;36165.637
637.467;32558.969;  -11.672;37515.902
638.046;33064.098;   -8.901;39288.695
638.625;32053.090;   -7.912;38279.699
639.204;32710.555;  -10.022;37741.598
639.782;31935.783;  -12.252;38364.551
640.361;30030.508;  -10.041;36740.621
640.940;28851.637;  -11.161;34950.082
641.519;30072.484;   -9.701;34137.398
642.097;32857.180;  -11.271;35654.258
642.676;32793.770;   -8.651;35637.957
643.255;34947.320;   -8.711;36567.074
643.833;35002.078;   -9.581;37809.434
644.412;32526.479;  -13.711;37337.293
644.990;31069.029;  -11.811;37018.531
645.569;31878.424;   -9.411;36518.469
646.147;31902.016;  -10.291;36186.430
646.726;30864.893;  -12.401;36267.688
647.304;29322.166;  -10.411;36647.625
647.882;30504.146;   -9.651;39286.742
648.461;32638.258;   -9.631;39157.703
649.039;34185.520;  -11.881;35412.883
649.617;35190.789;   -9.661;34744.918
650.195;34776.531;   -9.301;35403.098
650.773;32783.809;  -10.511;35053.797
651.352;31727.957;  -11.521;33756.816
651.930;28937.752;  -12.211;31868.773
652.508;24318.148;   -9.171;33121.551
653.086;24435.535;   -9.371;33564.793
653.663;29023.605;  -13.161;34054.668
654.241;30268.488;  -13.031;35693.309
654.819;32793.887;   -9.371;36422.906
655.397;33131.730;  -10.511;38213.484
655.975;32287.316;  -10.371;39507.625
656.553;32697.049;  -10.051;39498.223
657.130;33108.262;  -10.061;40395.480
657.708;31753.348;   -9.561;39242.020
658.286;29067.941;  -11.511;38920.020
658.863;27253.973;  -10.261;40202.898
659.441;30379.225;   -7.531;39677.938
660.018;32435.344;   -9.501;40413.355
660.596;31444.725;  -13.301;39931.414
661.173;29021.070;  -11.211;39604.531
661.750;29324.979;   -9.951;39700.070
662.328;31130.504;   -9.390;39292.809
662.905;30046.164;  -11.330;38235.648
663.482;26272.822;   -9.050;36212.305
664.060;24002.834;   -8.240;35944.945
664.637;26930.266;  -10.050;35170.785
665.214;29841.078;  -11.760;34197.523
665.791;31034.314;  -10.530;34549.520
666.368;31490.543;   -9.690;35118.578
666.945;31891.088;   -9.320;36019.418
667.522;30356.152;  -11.860;36048.438
668.099;30935.289;  -10.770;36243.914
668.676;33486.793;   -6.260;35958.875
669.253;34604.512;   -7.000;37384.730
669.830;34828.691;  -10.190;36779.629
670.407;32826.570;   -9.550;35231.289
670.984;31589.900;   -9.260;35544.270
671.560;29026.191;   -9.280;35466.867
672.137;24138.230;  -11.810;34280.863
672.714;23889.779;  -11.490;34632.863
673.290;29983.373;   -7.740;35135.422
673.867;32481.965;  -10.660;36114.480
674.443;31780.010;  -12.230;36152.859
675.020;30471.656;  -10.450;35327.238
675.596;30469.887;   -9.260;35795.176
676.173;32032.512;  -10.780;35430.355
676.749;31116.141;  -13.690;33549.516
677.326;29116.125;  -11.980;32210.012
677.902;27923.682;   -8.630;32068.871
678.478;28638.215;  -10.730;32583.891
679.054;29799.086;  -10.520;32088.928
679.631;30871.221;  -11.920;30978.848
680.207;30865.734;   -7.490;33160.887
680.783;31812.498;   -9.860;35570.363
681.359;33049.543;  -13.380;36125.184
681.935;32539.158;  -12.480;35240.922
682.511;30185.695;   -7.900;34429.961
683.087;29953.186;   -7.710;34463.680
683.663;30201.002;  -11.480;34648.898
684.239;30005.564;  -14.090;34546.457
684.815;29571.359;   -7.560;35586.375
685.390;28716.158;   -9.910;35821.895
685.966;28821.857;  -11.159;35085.871
686.542;28499.506;  -11.169;34198.230
687.118;30059.496;   -5.959;32847.707
687.693;31777.180;  -10.329;32794.027
688.269;31179.893;  -12.059;33072.367
688.844;31749.621;  -10.909;33141.664
689.420;32568.355;   -8.019;33965.742
689.995;31034.828;   -8.399;34655.523
690.571;30882.182;  -10.949;33576.742
691.146;30748.752;   -9.619;32657.219
691.722;30188.193;   -8.999;32526.979
692.297;28833.025;  -11.589;33014.617
692.872;28911.219;  -11.739;34012.254
693.448;30769.309;  -11.059;34237.434
694.023;30727.533;  -10.139;34142.672
694.598;26967.025;   -9.029;34132.031
695.173;27618.104;  -13.319;34205.250
695.748;30386.934;  -10.169;32882.488
696.323;29052.002;   -8.339;32864.906
696.898;27562.738;   -8.169;33170.004
697.473;27785.004;  -12.309;32432.984
698.048;27796.574;  -10.989;31649.303
698.623;27717.689;   -9.329;30778.141
699.198;27716.457;   -9.849;31140.119
699.773;28642.295;  -12.329;31764.299
700.348;30835.465;  -10.389;31780.816
700.922;30477.773;   -9.269;32046.375
701.497;29561.164;   -9.329;32603.574
702.072;30861.775;  -10.789;34799.871
702.646;29491.488;  -10.839;35793.172
703.221;30795.508;   -9.099;35201.590
703.795;32657.027;  -10.939;34764.527
704.370;31641.783;  -12.859;34307.367
704.944;30064.287;  -11.559;33509.887
705.519;29480.633;   -7.939;31388.584
706.093;30840.002;  -10.499;31340.104
706.668;31444.160;  -11.289;32630.281
707.242;31364.420;  -11.509;32728.779
707.816;29158.746;   -9.639;32947.238
708.390;28044.133;  -11.429;33277.855
708.965;28388.389;  -11.869;33834.336
709.539;30108.338;  -11.689;33709.273
710.113;29670.920;  -10.478;33044.313
710.687;28911.959;  -10.228;31953.992
711.261;28736.508;  -13.698;30505.949
711.835;28671.369;  -13.378;30262.369
712.409;28720.367;   -9.698;31254.447
712.983;27182.953;  -11.898;32754.986
713.557;27470.857;  -15.138;34018.824
714.131;26303.752;  -14.098;34579.625
714.704;26184.174;   -9.958;33890.262
715.278;27335.621;  -10.028;33531.102
715.852;26542.656;  -11.148;33601.660
716.425;26001.145;   -9.068;33515.117
716.999;25330.518;  -10.038;33185.555
717.573;24700.178;   -9.798;33905.996
718.146;24681.920;  -12.378;35199.293
718.720;25242.295;  -11.918;35060.551
719.293;26792.984;   -8.088;34973.230
719.867;28516.457;  -10.888;36394.449
720.440;30388.541;  -11.938;36663.008
721.013;31247.742;  -12.818;35102.426
721.587;28678.039;  -10.298;33985.266
722.160;27407.371;  -10.048;33524.965
722.733;26703.434;  -12.108;32987.043
723.306;26421.086;  -10.818;33066.301
723.880;27785.209;   -8.908;33399.500
724.453;26420.668;   -9.878;33468.297
725.026;25842.059;  -11.188;33816.637
725.599;28769.330;  -11.678;32797.996
726.172;29713.406;   -9.618;33187.434
726.745;27019.943;   -8.258;35136.613
727.318;25773.197;  -12.978;35751.730
727.891;25393.301;  -12.148;35890.430
728.463;25450.270;   -8.968;34822.090
729.036;24793.691;  -10.188;32895.086
729.609;25077.887;  -11.788;31823.225
730.182;24730.588;  -11.788;31445.283
730.754;23173.857;  -10.268;32373.223
731.327;22086.027;   -9.998;33676.820
731.900;22567.801;  -12.228;33417.000
732.472;24260.129;  -13.848;31978.498
733.045;24749.234;   -8.698;30368.777
733.617;23230.566;  -10.607;30574.215
734.190;24210.832;  -11.507;31280.975
734.762;25941.959;  -13.647;31674.412
735.334;24578.756;   -9.767;31247.291
735.907;23821.801;   -9.897;29876.211
736.479;24354.561;  -11.637;29808.488
737.051;26608.904;   -9.567;30233.547
737.623;27458.994;   -8.187;31469.086
738.195;26808.650;  -11.187;31784.225
738.768;26210.408;  -12.337;32120.523
739.340;23936.270;  -12.227;32094.342
739.912;22570.980;  -11.057;31312.680
740.484;21468.627;  -10.207;31946.238
741.056;19975.064;  -10.047;32984.059
741.628;20269.068;  -13.627;33897.715
742.199;22219.143;   -7.177;33213.016
742.771;25557.303;  -10.797;31369.113
743.343;27569.977;  -11.997;31865.473
743.915;27273.947;  -12.867;32388.631
744.487;25010.648;   -7.617;31079.568
745.058;22638.709;   -9.557;30570.107
745.630;22345.533;   -9.877;29970.127
746.201;22864.854;  -14.177;29186.766
746.773;22636.871;   -9.237;28805.723
747.344;22844.229;   -9.847;29591.223
747.916;22504.443;  -11.657;31412.201
748.487;22209.135;  -10.587;32194.898
749.059;22592.580;   -8.707;32533.719
749.630;23154.426;  -10.537;32158.518
750.201;23292.848;  -11.687;30855.395
750.773;22270.711;  -11.647;28622.555
751.344;20800.195;   -7.147;28405.732
751.915;20735.180;   -9.757;28461.551
752.486;21839.783;  -12.427;27842.850
753.057;21339.332;  -12.227;27845.008
753.628;20977.367;  -10.417;27728.107
754.199;19954.797;  -11.767;27381.086
754.770;20177.973;  -11.187;25882.203
755.341;20940.678;  -10.507;25886.184
755.912;19743.006;   -9.387;26050.861
756.483;17759.717;  -10.647;26798.779
757.054;18126.328;  -11.837;27048.238
757.625;18764.445;  -12.716;26294.838
758.195;19263.932;   -9.666;26142.076
758.766;20133.125;   -8.656;26392.234
759.337;19527.082;  -12.856;26334.594
759.907;19584.764;  -13.366;27579.652
760.478;20127.248;   -8.576;28352.770
761.048;20098.254;  -10.526;27325.088
761.619;20322.908;  -11.116;26460.428
762.189;19444.088;  -12.136;26029.826
762.760;18407.459;   -9.456;26430.145
763.330;18463.383;   -7.136;26670.902
763.900;19109.041;  -11.786;26603.021
764.471;18350.727;  -11.546;25542.740
765.041;17002.154;   -8.096;24358.459
765.611;16387.287;   -8.876;23991.297
766.181;16152.916;  -12.196;24470.236
766.751;16162.663;  -11.636;24845.975
767.321;16523.746;  -10.156;24533.633
767.891;16576.299;  -11.766;24916.492
768.461;16630.563;  -14.936;24776.771
769.031;17400.613;  -12.356;24757.988
769.601;17788.459;   -7.526;24181.088
770.171;17643.412;  -10.766;23670.387
770.741;16526.016;  -13.176;22960.045
771.311;15897.825;  -10.616;22917.523
771.880;15859.224;   -9.576;23562.941
772.450;15436.197;  -10.336;24216.500
773.020;15962.189;  -13.516;24140.398
773.589;16727.400;  -13.466;24414.857
774.159;16272.561;   -8.686;23858.717
774.729;15823.292;   -9.476;22942.135
775.298;14945.322;  -13.666;22324.033
775.867;14155.894;  -11.716;21140.313
776.437;14339.023;   -9.906;20838.092
777.006;14061.401;  -12.166;20599.510
777.576;13069.403;  -12.356;20508.809
778.145;13103.635;  -11.646;20732.947
778.714;13223.881;   -8.226;21062.465
779.283;13575.470;   -9.556;20949.664
779.853;14138.600;  -14.116;20508.623
780.422;13717.547;  -11.506;20649.082
780.991;13507.449;   -9.556;21527.520
781.560;13298.747;   -9.095;22632.658
782.129;12421.960;  -12.135;23048.277
782.698;12119.811;  -10.865;23438.555
783.267;12170.298;   -9.335;23267.734
783.836;12430.111;  -11.045;22415.133
784.404;13184.658;  -13.865;20443.152
784.973;12975.263;  -13.095;19699.150
785.542;12085.264;  -11.575;19763.828
786.111;11533.208;   -9.705;20341.408
786.679;11574.549;  -12.105;20207.967
787.248;11704.869;  -12.455;19516.465
787.817;10976.255;  -11.535;18900.363
788.385;11135.769;   -9.765;17879.121
788.954;11916.325;  -14.005;17658.301
789.522;11906.165;  -11.955;17788.879
790.090;11614.037;  -10.135;18118.277
790.659;12358.008;  -10.975;18338.736
791.227;12722.162;  -13.375;18508.615
791.795;12335.574;  -12.375;17898.254
792.364;11953.875;  -10.725;17295.133
792.932;11816.582;   -9.715;16822.051
793.500;11697.037;  -12.675;17040.148
794.068;11315.448;  -13.495;17179.787
794.636;10087.467;  -10.885;16664.246
795.204; 9091.450;  -11.045;16524.545
795.772; 9194.740;  -13.175;17274.564
796.340;10412.336;  -12.445;17891.002
796.908;10463.031;   -9.735;17648.561
797.476;10401.010;   -9.815;17064.080
798.044;10709.346;  -13.985;16672.777
798.612;10553.234;  -13.115;17023.996
799.180; 9797.234;  -10.185;16561.615
799.747; 8767.432;   -9.055;15962.773
800.315; 7884.956;  -12.385;15296.992
800.883; 7995.092;  -15.035;14801.771
801.450; 8716.727;  -10.365;14534.430
802.018; 9335.652;   -9.855;14173.248
802.585; 9872.835;  -11.905;14029.547
803.153; 9594.187;  -11.585;13836.846
803.720; 8652.028;   -9.095;13567.324
804.287; 8493.265;   -9.135;13360.622
804.855; 9279.155;  -11.604;13681.981
805.422; 9547.244;  -11.794;13536.560
805.989; 8843.783;  -10.734;13355.958
806.556; 8471.272;  -10.444;13747.896
807.124; 8370.879;  -12.764;13987.376
807.691; 8760.900;  -12.964;14038.674
808.258; 9094.697;  -11.134;14120.152
808.825; 9013.183;   -9.854;13860.111
809.392; 8498.168;  -10.504;13268.790
809.959; 7981.193;  -13.054;12680.389
810.526; 7675.997;   -8.294;12427.308
811.093; 7647.942;   -8.394;12030.105
811.659; 7332.008;  -12.304;11653.664
812.226; 6911.508;  -13.944;11637.183
812.793; 7039.497;  -10.484;11611.521
813.360; 7209.189;  -10.144;11885.181
813.926; 6986.634;  -11.684;12770.539
814.493; 6488.596;  -13.644;12677.638
815.060; 6170.262;   -9.724;11974.336
815.626; 6229.481;   -9.854;11594.715
816.193; 6415.948;  -13.254;11579.474
816.759; 6368.369;  -13.204;11666.972
817.325; 6413.741;   -9.434;11325.530
817.892; 6232.927;  -10.134;11105.369
818.458; 6050.982;  -13.474;10843.928
819.024; 5759.705;  -11.854;10714.406
819.591; 5665.939;  -10.244;10469.165
820.157; 5689.801;  -10.704;10235.523
820.723; 5993.140;  -12.324;10847.563
821.289; 6517.207;   -9.444;11040.980
821.855; 6673.170;   -8.374;10357.100
822.421; 6408.311;  -10.234; 9978.918
822.987; 6225.834;  -13.294; 9754.177
823.553; 6313.881;  -10.884;10065.755
824.119; 6181.067;   -8.884;10036.294
824.685; 5949.962;   -6.784;10029.192
825.251; 5699.160;  -12.004;10199.230
825.816; 5904.863;  -11.474; 9820.189
826.382; 6067.423;   -9.174; 9297.248
826.948; 5843.673;   -9.214; 9381.347
827.513; 5429.713;  -10.774; 9450.726
828.079; 5184.596;  -11.924; 9472.444
828.645; 5083.765;  -10.543; 9292.643
829.210; 5020.511;  -10.533; 9065.341
829.776; 4947.114;  -10.753; 9132.620
830.341; 5000.448;  -10.173; 9092.878
830.906; 5135.187;  -10.743; 9078.557
831.472; 5338.015;  -11.113; 8534.535
832.037; 5100.157;  -10.603; 8677.874
832.602; 4899.183;  -13.323; 8628.692
833.167; 5046.150;  -10.823; 8879.031
833.733; 4900.610;  -10.113; 9189.790
834.298; 4837.596;  -13.583; 9052.608
834.863; 4882.049;  -12.703; 8895.087
835.428; 4744.083;  -10.523; 8824.266
835.993; 4503.812;   -6.963; 8845.385
836.558; 4340.304;  -10.763; 8888.563
837.123; 4398.171;   -9.903; 8966.582
837.688; 4354.319;   -9.913; 8617.860
838.253; 4396.976;  -10.283; 8590.699
838.817; 4637.056;  -12.963; 8443.797
839.382; 4747.962;  -14.243; 8799.356
839.947; 4584.049;  -10.733; 8810.595
840.511; 4362.341;   -9.383; 8796.394
841.076; 4409.596;  -12.563; 8347.231
841.641; 4351.243;  -12.953; 8224.330
842.205; 3970.532;   -7.043; 8223.349
842.770; 3837.202;   -8.163; 8622.107
843.334; 3957.904;  -12.503; 8410.386
843.898; 4138.319;  -11.693; 8337.465
844.463; 4132.072;  -10.203; 8506.283
845.027; 3976.446;   -9.533; 8280.962
845.591; 3968.529;  -13.443; 8231.141
846.156; 3984.622;  -13.143; 7969.179
846.720; 3791.527;   -9.433; 7768.278
847.284; 3303.112;  -11.033; 7630.957
847.848; 3040.752;  -10.403; 7472.395
848.412; 3189.246;  -11.553; 7437.394
848.976; 3521.207;   -8.393; 7674.592
849.540; 3703.072;   -8.713; 7836.011
850.104; 3686.480;  -12.463; 7913.669
850.668; 3629.664;  -12.973; 7694.508
851.232; 3489.871;  -10.793; 7756.887
851.796; 3427.002;  -10.662; 7926.545
852.359; 3515.817;  -13.082; 7827.844
852.923; 3405.934;  -12.192; 7641.163
853.487; 3292.817;  -11.912; 7342.501
854.050; 3406.877;  -10.892; 7042.820
854.614; 3377.351;  -13.992; 7151.338
855.177; 3177.852;  -11.732; 7105.077
855.741; 3043.110;   -8.962; 6989.675
856.304; 3044.995;   -9.442; 6596.634
856.868; 2975.667;  -14.192; 6356.272
857.431; 2917.030;  -12.702; 6468.571
857.995; 3101.243;   -9.942; 6373.210
858.558; 3172.325;   -9.112; 6324.448
859.121; 2838.243;  -12.932; 6408.327
859.684; 2537.479;  -13.442; 6347.886
860.247; 2607.190;  -10.632; 6321.264
860.810; 2932.564;  -11.272; 6301.903
861.374; 3091.066;   -9.832; 6607.881
861.937; 3085.126;  -11.762; 6408.200
862.500; 3085.343;   -9.722; 6572.639
863.062; 2882.780;  -10.512; 6387.297
863.625; 2615.384;  -11.232; 6190.836
864.188; 2449.783;  -14.112; 5807.254
864.751; 2310.853;  -11.302; 5682.413
865.314; 2339.560;  -10.112; 5547.492
865.876; 2559.807;  -12.182; 5500.150
866.439; 2744.802;  -10.722; 5415.909
867.002; 2728.174;   -9.252; 5501.567
867.564; 2579.569;   -9.572; 5413.946
868.127; 2408.963;  -13.142; 5160.325
868.689; 2199.912;  -12.902; 5133.183
869.252; 2005.583;   -9.732; 5252.382
869.814; 1945.077;   -9.432; 5297.141
870.377; 2089.978;  -11.552; 5390.919
870.939; 2162.510;   -9.052; 5599.898
871.501; 2097.671;  -10.982; 5248.336
872.063; 2137.744;  -12.292; 4854.235
872.626; 2115.012;  -14.912; 4817.074
873.188; 2059.765;  -13.112; 4987.732
873.750; 1984.083;  -13.442; 4868.651
874.312; 1926.084;   -9.402; 4779.330
874.874; 1969.690;  -11.062; 4866.348
875.436; 1992.752;  -13.931; 4718.887
875.998; 1840.502;   -9.561; 4660.005
876.560; 1651.135;  -11.321; 4462.964
877.122; 1573.841;  -12.221; 4145.042
877.683; 1548.795;  -12.191; 4056.481
878.245; 1601.789;  -12.101; 3950.740
878.807; 1714.737;   -8.971; 4058.958
879.369; 1737.397;  -12.071; 3954.677
879.930; 1653.185;  -14.621; 3941.495
880.492; 1566.194;  -10.311; 4067.014
881.053; 1459.565;  -10.901; 3859.633
881.615; 1395.548;  -14.411; 3776.071
882.176; 1377.035;  -13.761; 3734.750
882.738; 1403.605;   -9.181; 3678.489
883.299; 1383.656;  -11.791; 3405.407
883.860; 1299.321;  -13.121; 3351.106
884.422; 1192.014;  -11.211; 3394.044
884.983; 1132.893;  -10.091; 3166.443
885.544; 1107.381;   -8.461; 3189.802
886.105; 1070.050;  -12.361; 3160.360
886.666; 1022.273;  -14.141; 3093.059
887.227; 1000.851;  -11.361; 2941.957
887.788;  998.822;  -11.401; 2974.836
888.349;  953.003;  -13.791; 2721.214
888.910;  877.712;  -13.191; 2696.493
889.471;  806.027;   -9.881; 2560.172
890.032;  743.157;   -9.881; 2558.190
890.593;  713.311;  -10.371; 2567.669
891.153;  707.186;  -13.301; 2460.307
891.714;  666.475;  -11.431; 2372.046
892.275;  616.116;  -11.291; 2309.505
892.835;  618.149;  -11.471; 2382.543
893.396;  615.953;  -11.541; 2295.502
893.956;  583.779;  -11.181; 2162.420
894.517;  531.590;  -11.741; 2125.439
895.077;  472.540;  -11.671; 2086.978
895.638;  431.980;  -11.311; 2126.316
896.198;  422.737;   -9.831; 1838.275
896.758;  420.361;   -8.421; 1892.813
897.319;  401.250;  -12.351; 1792.232
897.879;  375.710;  -13.511; 1762.751
898.439;  355.962;  -12.001; 1661.149
898.999;  339.773;  -10.180; 1781.468
899.559;  325.392;  -12.030; 1703.347
900.119;  320.884;  -15.710; 1537.525
900.679;  314.518;   -8.900; 1638.384
901.239;  294.723;   -8.340; 1527.902
901.799;  272.074;  -13.910; 1456.441
902.359;  257.458;  -13.460; 1357.140
902.919;  250.803;  -11.490; 1331.118
903.479;  249.251;  -12.110; 1317.257
904.038;  243.476;  -11.720; 1262.595
904.598;  230.908;  -13.610; 1152.034
905.158;  218.009;  -11.040; 1240.893
905.717;  210.826;  -10.900; 1233.691
906.277;  206.571;  -15.080; 1217.330
906.836;  202.027;  -13.380; 1222.408
907.396;  199.988;  -10.780; 1193.047
907.955;  195.193;   -8.500; 1182.526
908.515;  188.421;  -12.760; 1099.364
909.074;  184.349;  -11.900; 1092.863
909.633;  180.670;   -8.950; 1069.121
910.192;  178.174;   -8.770; 1196.460
910.752;  171.872;  -12.390; 1029.960
911.311;  167.421;  -13.680; 1009.780
911.870;  165.128;  -12.370;  971.460
912.429;  163.090;  -10.900; 1094.080
912.988;  159.056;  -11.690; 1081.060
913.547;  155.616;  -13.240;  940.380
914.106;  154.537;  -11.990;  999.420
914.665;  153.654;   -9.990;  984.020
915.224;  151.210;  -12.880; 1035.760
915.782;  150.548;  -12.350;  922.560
916.341;  151.853;   -9.110; 1049.840
916.900;  149.246;   -9.270;  925.260
917.458;  144.826;  -13.240;  884.220
918.017;  143.184;  -13.550;  942.600
918.576;  142.874;  -12.320;  904.440
919.134;  142.111;  -11.490;  837.980
919.693;  141.395;  -13.670;  893.060
920.251;  141.306;  -15.470;  876.500
920.809;  140.586;  -11.290;  839.580
921.368;  139.718;  -10.210;  885.360
921.926;  138.178;  -12.140;  842.940
922.484;  137.370;  -13.080;  903.360
923.042;  136.030;  -11.720;  880.340
923.601;  138.691;   -7.480;  998.680
924.159;  136.877;  -11.570;  935.560
924.717;  135.649;  -13.840;  841.080
925.275;  136.962;  -10.640;  903.240
925.833;  136.481;  -11.540;  779.320
926.391;  137.286;  -12.960;  938.380
926.949;  135.413;  -14.130;  857.680
927.506;  137.643;  -11.750;  903.500
928.064;  136.412;  -10.250;  877.580
928.622;  136.238;  -13.030;  880.100
929.180;  136.237;  -13.400;  814.180
929.737;  137.619;  -10.700;  808.540
930.295;  137.956;  -10.070;  928.480
930.853;  138.501;  -11.960;  849.100
931.410;  139.380;  -13.120;  821.120
931.968;  140.170;  -10.770;  940.660
932.525;  139.817;  -10.680;  909.380
933.082;  141.238;  -13.130;  811.440
933.640;  148.732;  -13.210;  925.900
934.197;  151.241;  -11.060;  886.360
934.754;  154.001;   -9.580;  897.780
935.312;  154.353;  -14.000;  863.340
935.869;  155.210;  -10.710; 1012.980
936.426;  153.268;   -9.860;  872.800
936.983;  153.074;   -9.710;  889.020
937.540;  153.416;  -13.990;  838.280
938.097;  153.001;  -14.040;  940.120
938.654;  152.992;  -10.310;  898.860
939.211;  152.918;  -10.560;  952.480
939.768;  150.067;  -13.900;  915.420
940.324;  150.723;  -14.760;  904.200
940.881;  155.148;  -10.370;  878.500
941.438;  159.841;   -8.260; 1021.200
941.995;  159.348;  -12.540;  992.560
942.551;  158.573;  -14.670;  875.620
943.108;  158.791;  -10.450;  937.920
943.664;  160.420;  -10.750;  869.340
944.221;  165.185;  -11.550; 1088.140
944.777;  166.737;  -14.770;  869.680
945.334;  169.159;  -12.820;  884.840
945.890;  171.291;  -10.130;  946.480
946.446;  169.771;  -13.470;  947.020
947.003;  169.902;  -12.120;  964.940
947.559;  172.404;   -9.980; 1063.040
948.115;  171.240;   -9.080; 1026.540
948.671;  172.772;  -10.830;  967.300
949.227;  167.038;  -12.440;  859.560
949.783;  162.833;  -12.910;  858.900
950.339;  162.662;  -10.270;  991.000
950.895;  162.203;  -13.630; 1023.840
951.451;  160.085;  -15.100;  925.280
952.007;  160.353;  -11.330;  998.540
952.563;  159.280;  -10.580;  937.780
953.118;  158.649;  -13.440;  904.940
953.674;  154.391;  -12.710;  935.780
954.230;  154.034;  -10.350;  949.640
954.785;  155.776;   -9.190;  936.640
955.341;  154.565;  -11.200;  998.160
955.897;  149.299;  -16.560;  834.660
956.452;  145.815;  -12.570;  953.840
957.008;  143.987;   -7.970; 1083.640
957.563;  142.836;  -11.940; 1009.540
958.118;  144.129;  -13.450;  877.700
958.674;  145.373;  -12.030;  946.780
959.229;  145.094;   -9.410; 1013.980
959.784;  144.250;  -12.000;  832.400
960.339;  141.090;  -14.780; 1001.280
960.894;  133.323;   -9.860;  963.760
961.449;  128.059;   -9.970;  859.960
962.004;  126.862;  -10.900; 1212.840
962.559;  121.643;  -13.150;  860.140
963.114;  119.416;  -13.740;  742.480
963.669;  122.281;   -9.820;  915.500
964.224;  124.738;  -13.890;  874.340
964.779;  125.188;  -12.600;  828.420
965.334;  123.733;  -10.950; 1017.860
965.888;  118.449;  -11.170;  875.360
966.443;  116.189;  -12.540;  972.380
966.998;  116.078;  -15.780;  819.460
967.552;  118.015;   -9.760;  908.380
968.107;  114.184;   -9.060;  868.300
968.661;  112.600;  -11.950;  922.440
969.216;  109.569;  -12.800;  856.280
969.770;  109.928;  -11.210;  917.200
970.324;  109.263;  -11.610;  923.140
970.879;  107.513;  -11.370;  947.180
971.433;  106.283;  -12.540;  952.720
971.987;  105.182;  -11.320;  895.340
972.541;  104.482;  -10.720;  917.100
973.095;  106.994;   -9.680; 1009.460
973.649;  106.294;  -11.440;  809.480
974.203;  105.381;  -11.210;  829.040
974.757;  104.769;  -10.240;  855.220
975.311;  103.654;  -13.720;  872.600
975.865;  104.152;  -13.770;  881.820
976.419;  104.322;  -11.690;  857.400
976.973;  104.771;   -9.510;  849.620
977.526;  104.279;  -12.620;  949.920
978.080;  100.646;  -12.010;  796.780
978.634;   98.736;  -10.170;  921.320
979.187;   94.606;   -9.020;  905.400
979.741;   95.729;   -9.820; 1018.380
980.294;   91.910;  -14.870;  789.160
980.848;   89.411;  -12.380;  717.220
981.401;   89.945;  -10.350;  816.540
981.955;   90.167;  -13.720;  844.300
982.508;   87.224;  -11.490;  746.340
983.061;   87.809;  -10.000;  915.260
983.615;   84.742;  -11.480;  798.800
984.168;   83.918;  -13.220;  770.080
984.721;   83.206;  -13.960;  880.760
985.274;   81.154;  -10.870;  867.500
985.827;   78.381;   -9.790;  834.220
986.380;   77.824;  -13.120;  721.340
986.933;   77.616;  -12.450;  864.800
987.486;   77.589;  -10.210;  861.920
988.039;   77.296;   -8.430;  863.100
988.591;   75.508;  -10.520;  893.260
989.144;   72.580;  -14.860;  737.260
989.697;   72.084;  -13.080;  758.740
990.250;   71.475;  -10.150;  858.100
990.802;   68.208;  -13.430;  755.860
991.355;   67.880;  -12.750;  974.880
991.907;   64.784;  -12.040;  864.320
992.460;   61.687;  -11.330;  753.760
993.012;   60.512;  -13.610;  749.540
993.565;   58.697;  -13.460;  711.360
994.117;   60.962;   -9.360;  950.780
994.669;   58.100;  -11.300;  701.320
995.221;   57.951;  -13.540;  791.920
995.774;   56.968;  -13.430;  787.580
996.326;   56.773;  -12.520;  740.220
996.878;   57.316;  -10.950;  838.420
997.430;   54.983;  -14.300;  699.860
997.982;   53.638;  -13.760;  750.140
998.534;   53.105;  -11.530;  739.060
999.086;   50.915;  -10.310;  738.220
999.638;   50.631;  -12.530;  661.380
1000.190;   49.491;  -11.840;  699.320
1000.741;   48.543;  -10.260;  742.700
1001.293;   48.906;   -8.860;  686.020
1001.845;   47.751;  -13.700;  676.640
1002.396;   48.478;  -12.100;  743.400
1002.948;   48.639;  -12.760;  737.400
1003.500;   46.319;  -10.380;  723.780
1004.051;   47.618;  -11.900;  907.580
1004.603;   46.228;  -12.250;  791.820
1005.154;   42.853;  -13.210;  608.980
1005.705;   42.028;  -10.950;  723.960
1006.257;   41.440;  -13.880;  707.220
1006.808;   40.761;  -12.840;  685.460
1007.359;   39.937;  -10.570;  763.240
1007.910;   38.431;   -9.620;  646.640
1008.461;   38.650;  -13.630;  732.940
1009.013;   37.648;  -17.200;  588.340
1009.564;   38.788;  -10.200;  793.520
1010.115;   37.008;  -12.570;  597.040
1010.665;   36.536;  -15.150;  602.160
1011.216;   36.943;  -14.480;  667.920
1011.767;   36.162;  -11.340;  697.920
1012.318;   36.743;   -9.780;  736.980
1012.869;   35.327;  -12.380;  679.000
1013.419;   34.838;  -15.560;  603.120
1013.970;   34.843;  -11.010;  666.640
1014.521;   34.306;  -11.610;  620.620
1015.071;   34.438;  -13.450;  670.380
1015.622;   34.395;  -13.870;  635.460
1016.172;   33.227;  -11.610;  596.820
1016.723;   33.468;  -12.120;  614.380
1017.273;   33.477;  -13.620;  604.160
1017.823;   33.051;  -14.140;  650.340
1018.374;   33.375;  -12.800;  611.760
1018.924;   32.155;  -12.340;  716.880
1019.474;   32.694;  -11.410;  718.880
1020.024;   32.026;  -14.770;  657.580
1020.574;   31.998;   -9.780;  726.160
1021.124;   32.776;   -8.560;  673.580
1021.674;   30.460;  -15.190;  559.120
1022.224;   32.423;  -13.530;  708.940
1022.774;   31.369;  -13.280;  668.820
1023.324;   32.118;  -10.690;  753.520
1023.874;   33.279;  -10.240;  875.760
1024.423;   30.930;  -12.540;  613.700
1024.973;   30.279;  -10.010;  610.760
1025.523;   29.389;  -10.550;  620.960
1026.072;   29.291;  -13.560;  606.420
1026.622;   28.912;  -15.120;  675.740
1027.172;   29.501;  -11.260;  715.660
1027.721;   28.561;  -11.410;  601.220
1028.270;   28.784;  -13.530;  663.400
1028.820;   28.929;  -13.680;  638.080
1029.369;   29.039;  -13.520;  612.700
1029.918;   28.597;  -10.980;  649.840
1030.468;   27.640;  -13.530;  564.780
1031.017;   28.035;  -13.170;  634.800
1031.566;   26.798;  -12.200;  608.900
1032.115;   27.910;   -9.960;  694.500
1032.664;   26.410;  -13.210;  596.480
1033.213;   27.825;  -12.500;  735.420
1033.762;   27.035;  -11.910;  635.620
1034.311;   26.824;   -9.640;  677.220
1034.860;   27.114;  -13.310;  691.000
1035.408;   27.173;  -11.830;  722.720
1035.957;   27.269;  -12.000;  719.540
1036.506;   24.984;  -11.690;  530.800
1037.055;   27.966;  -10.990;  844.320
1037.603;   25.533;  -15.120;  664.000
1038.152;   23.878;  -12.450;  534.760
1038.700;   24.880;  -10.560;  585.740
1039.249;   25.255;  -11.080;  681.220
1039.797;   24.899;  -12.540;  633.360
1040.345;   24.957;  -11.920;  705.420
1040.894;   24.519;  -11.410;  625.300
1041.442;   24.655;  -14.320;  632.200
1041.990;   23.664;  -16.240;  559.160
1042.538;   23.182;  -11.680;  536.180
1043.087;   23.447;  -10.760;  570.860
1043.635;   24.196;  -11.850;  670.500
1044.183;   23.197;  -15.480;  586.400
1044.731;   22.846;  -11.770;  576.000
1045.279;   22.986;  -13.090;  674.920
1045.827;   25.200;  -12.440;  892.400
1046.374;   22.093;  -13.840;  515.420
1046.922;   21.786;  -13.220;  590.580
1047.470;   23.033;  -10.230;  691.300
1048.018;   23.042;  -14.590;  647.960
1048.565;   23.431;  -12.050;  708.600
1049.113;   21.454;  -11.650;  557.000
1049.660;   21.771;  -10.510;  629.660
1050.208;   22.125;  -13.310;  675.640
1050.755;   21.609;  -15.900;  606.580
1051.303;   21.921;  -11.430;  686.820
1051.850;   21.180;   -8.480;  635.120
1052.397;   19.542;  -15.010;  473.960
1052.945;   20.391;  -13.960;  617.760
1053.492;   21.703;  -13.150;  741.840
1054.039;   21.456;   -9.630;  720.180
1054.586;   20.082;  -13.680;  557.240
1055.133;   21.317;  -14.570;  693.140
1055.680;   21.079;  -13.820;  646.620
1056.227;   20.028;  -11.730;  542.780
1056.774;   21.956;  -12.480;  794.980
1057.321;   19.215;  -13.930;  523.260
1057.868;   19.708;  -11.690;  651.320
1058.415;   19.088;   -9.520;  651.980
1058.961;   19.931;  -13.160;  678.940
1059.508;   19.544;  -12.920;  643.820
1060.055;   19.528;  -11.920;  581.780
1060.601;   20.426;  -11.500;  624.300
1061.148;   19.372;  -14.330;  616.820
1061.694;   18.558;  -16.870;  592.580
1062.241;   19.271;  -10.330;  596.320
1062.787;   19.222;  -10.620;  663.140
1063.334;   21.111;  -10.110;  808.560
1063.880;   19.058;  -13.400;  668.360
1064.426;   18.584;  -10.680;  706.820
1064.972;   17.699;   -9.920;  601.340
1065.518;   16.612;  -10.980;  566.640
1066.065;   18.531;  -14.890;  624.460
1066.611;   17.182;  -12.870;  598.800
1067.157;   18.307;  -12.950;  641.860
1067.703;   17.992;  -13.540;  668.480
1068.249;   17.913;  -13.540;  605.220
1068.794;   17.746;  -12.600;  626.880
1069.340;   16.557;  -10.620;  578.960
1069.886;   16.415;  -12.830;  590.700
1070.432;   16.309;  -14.870;  541.720
1070.977;   15.491;  -11.980;  601.080
1071.523;   16.629;   -8.200;  573.060
1072.068;   16.017;  -12.330;  582.000
1072.614;   15.890;  -16.370;  527.760
1073.160;   17.033;  -11.100;  687.040
1073.705;   15.381;  -10.480;  572.520
1074.250;   16.134;  -14.520;  559.900
1074.796;   16.183;  -11.460;  655.160
1075.341;   16.954;  -11.950;  664.100
1075.886;   15.456;  -11.460;  594.240
1076.431;   16.081;  -13.770;  649.880
1076.976;   15.203;  -12.680;  639.220
1077.521;   14.493;  -13.170;  583.080
1078.067;   14.538;  -10.860;  579.400
1078.612;   15.174;  -13.920;  661.620
1079.156;   14.750;  -13.880;  601.540
1079.701;   15.160;  -13.120;  693.260
1080.246;   15.544;   -9.940;  696.300
1080.791;   14.882;  -14.740;  625.020
1081.336;   15.196;  -13.750;  659.320
1081.880;   14.633;  -13.400;  649.680
1082.425;   13.804;  -12.220;  573.480
1082.970;   15.343;  -11.610;  717.040
1083.514;   13.867;  -13.580;  597.000
1084.059;   13.367;  -12.810;  586.720
1084.603;   12.714;  -12.320;  565.840
1085.147;   14.121;  -13.190;  645.220
1085.692;   14.737;  -12.480;  716.800
1086.236;   11.845;  -13.020;  503.140
1086.780;   14.275;   -9.190;  751.440
1087.325;   13.520;  -12.480;  654.620
1087.869;   13.217;  -12.450;  610.700
1088.413;   13.617;  -12.240;  705.040
1088.957;   11.998;   -9.020;  543.400
1089.501;   13.816;  -10.320;  766.640
1090.045;   12.774;  -12.720;  726.480
1090.589;   10.286;  -13.690;  569.920
1091.133;   12.314;  -10.020;  673.340
1091.676;   12.131;  -12.330;  591.940
1092.220;   12.727;  -14.970;  600.920
1092.764;   13.103;  -12.430;  706.960
1093.307;   12.591;   -9.800;  673.780
1093.851;   11.064;  -14.970;  556.540
1094.395;   12.303;  -15.310;  683.140
1094.938;   11.108;  -10.370;  632.520
1095.482;   11.215;  -11.050;  559.800
1096.025;   11.688;  -11.840;  710.880
1096.568;   11.696;  -12.840;  779.280
1097.112;    8.647;  -14.700;  508.180
1097.655;   11.501;   -8.720;  603.000
1098.198;    9.668;  -13.610;  600.180
1098.741;    9.917;  -13.350;  612.860
1099.285;   11.200;  -11.230;  657.300
1099.828;    8.785;  -11.840;  439.400
1100.371;   11.065;  -10.840;  608.160
1100.914;   10.485;  -14.190;  682.660
1101.457;   10.740;  -11.240;  679.900
1101.999;    8.762;  -11.270;  584.680
1102.542;   10.357;  -11.480;  641.440
1103.085;   10.193;  -11.750;  658.500
1103.628;   10.496;  -11.400;  762.060
1104.170;    9.934;  -10.490;  588.280
1104.713;    9.654;  -10.600;  646.700
1105.256;    9.245;  -14.360;  557.440
1105.798;    8.492;  -13.210;  499.980
1106.341;   10.609;  -10.270;  728.900
1106.883;    8.914;  -12.200;  521.340
1107.425;    9.332;  -13.110;  668.180
1107.968;    8.828;  -12.840;  612.380
1108.510;    9.399;   -6.480;  684.960
1109.052;    7.717;  -13.940;  612.620
1109.594;    8.034;  -13.690;  554.440
1110.136;    8.607;  -11.880;  643.220
1110.679;    8.273;   -9.500;  633.080
1111.221;    8.658;  -14.160;  604.460
1111.763;    7.492;  -13.980;  559.220
1112.304;    7.699;  -13.880;  547.140
1112.846;    8.090;  -12.210;  666.240
1113.388;   11.258;  -11.390;  942.180
1113.930;    8.492;  -14.540;  694.200
1114.472;    7.439;  -12.640;  606.540
1115.013;    6.922;  -11.620;  551.280
1115.555;    6.719;  -13.640;  587.100
1116.097;    6.700;  -15.380;  579.480
1116.638;    7.460;  -12.640;  684.600
1117.180;    7.094;   -9.850;  667.740
1117.721;    6.871;  -13.690;  568.580
1118.262;    7.910;  -12.680;  677.960
1118.804;    7.652;  -12.530;  637.340
1119.345;    6.239;  -11.690;  578.400
1119.886;    7.646;  -13.380;  704.040
1120.427;    6.258;  -14.070;  589.020
1120.969;    5.674;  -13.500;  597.920
1121.510;    5.545;  -11.480;  563.060
1122.051;    6.315;  -12.830;  723.580
1122.592;    6.015;  -14.290;  655.420
1123.133;    4.895;  -12.400;  547.940
1123.673;    6.674;  -10.130;  706.480
1124.214;    6.009;  -12.930;  612.460
1124.755;    6.739;  -14.380;  639.460
1125.296;    6.105;  -14.000;  627.320
1125.836;    7.492;  -10.070;  691.500
1126.377;    5.100;  -12.640;  599.660
1126.918;    5.903;  -12.960;  614.980
1127.458;    4.404;  -13.350;  622.220
1127.999;    5.738;  -10.750;  656.980
1128.539;    5.815;  -12.350;  694.240
1129.079;    4.756;  -14.860;  632.720
1129.620;    4.216;  -13.840;  558.100
1130.160;    4.631;  -12.330;  539.480
1130.700;    5.273;  -14.530;  640.840
1131.240;    5.095;  -12.530;  643.700
1131.781;    4.249;  -14.450;  619.680
1132.321;    4.519;   -9.790;  599.120
1132.861;    3.256;  -14.860;  564.200
1133.401;    3.794;  -14.290;  593.940
1133.941;    4.250;  -11.750;  626.280
1134.481;    3.260;   -9.920;  597.580
1135.020;    2.785;  -12.290;  609.160
1135.560;    3.924;  -11.650;  674.940
1136.100;    3.097;  -16.270;  501.160
1136.640;    3.367;  -10.890;  510.480
1137.179;    2.984;  -14.180;  537.960
1137.719;    3.866;  -16.250;  605.400
1138.258;    3.784;  -14.230;  587.360
1138.798;    3.613;   -9.090;  663.780
1139.337;    2.805;  -15.130;  482.840
1139.877;    3.967;  -13.680;  642.360
1140.416;    4.917;  -11.320;  878.060
1140.955;    2.099;  -10.860;  535.380
1141.494;    2.751;  -12.920;  669.280
1142.034;    2.107;  -13.930;  583.520
1142.573;    3.210;  -11.440;  646.280
1143.112;    2.930;  -12.000;  553.480
1143.651;    3.169;  -13.670;  536.480
1144.190;    3.209;  -12.730;  691.640
1144.729;    1.786;  -14.560;  607.420
1145.267;    2.422;  -11.830;  584.900
1145.806;    3.320;  -12.230;  637.040
1146.345;    2.377;  -14.130;  635.020
1146.884;    1.792;  -11.590;  622.500
1147.422;    1.577;  -12.550;  533.060
1147.961;    3.622;  -11.180;  708.460
1148.500;    2.983;  -11.510;  669.720
1149.038;    2.657;  -11.640;  632.500
1149.577;    2.472;  -10.130;  698.640
1150.115;    0.092;  -13.970;  452.280
1150.653;    2.026;  -14.520;  607.340
1151.192;    1.600;  -12.810;  552.920
1151.730;    1.686;   -9.100;  652.560
1152.268;    1.401;  -12.220;  589.520
1152.806;    0.993;  -14.140;  571.180
1153.344;    0.341;  -12.350;  577.640
1153.882;    1.327;   -8.980;  600.060
1154.421;   -0.150;  -15.190;  470.620
1154.958;    0.450;  -15.210;  595.240
1155.496;    1.197;  -12.850;  645.280
1156.034;    1.310;   -9.940;  721.880
1156.572;    2.543;  -13.570;  667.060
1157.110;    0.398;  -14.590;  473.940
1157.647;    1.880;  -13.030;  676.960
1158.185;    0.018;  -12.140;  564.320
1158.723;   -0.477;  -14.390;  509.200
1159.260;    0.624;  -14.090;  701.700
1159.798;    0.848;  -11.920;  658.160
1160.335;    0.024;  -11.110;  631.820

