
Integration time [ms]:   3.276
Averaging Nr. [scans]: 1000
Smoothing Nr. [pixels]: 0
Data measured with spectrometer [name]: 7414430SP
Wave   ;Sample   ;Dark     ;Reference
[nm]   ;[counts] ;[counts] ;[counts] 

288.544;  160.717;    7.793;  793.890
289.143;  164.195;    7.462;  681.602
289.742;  163.994;    8.602;  828.814
290.341;  150.788;    1.321;  789.841
290.940;  141.495;   -0.709;  730.702
291.538;  142.750;    0.881;  881.108
292.137;  142.316;    0.122;  792.581
292.736;  144.485;   -1.929;  975.101
293.335;  141.073;   -8.229;  735.086
293.934;  141.907;   -5.279;  781.677
294.532;  142.334;   -1.369; 1031.958
295.131;  128.695;   -7.641;  834.394
295.730;  128.489;   -8.420;  809.588
296.328;  125.152;   -5.611;  783.442
296.927;  124.708;   -5.781;  779.652
297.525;  126.336;   -6.361;  781.236
298.124;  118.885;  -11.382;  654.009
298.722;  123.110;   -7.641;  761.933
299.321;  119.276;   -6.811;  708.597
299.919;  116.133;   -6.991;  751.918
300.518;  113.466;  -10.362;  689.338
301.116;  114.582;   -9.581;  691.381
301.715;  115.338;   -4.891;  730.222
302.313;  114.504;   -8.801;  704.943
302.911;  109.042;   -8.522;  733.830
303.509;  114.161;   -6.171;  925.627
304.108;  112.394;   -7.311;  760.383
304.706;  111.536;   -8.321;  801.664
305.304;  106.144;  -10.222;  796.707
305.902;  110.229;   -6.021;  784.484
306.500;  106.554;   -4.971;  728.200
307.098;  105.964;   -7.061;  746.560
307.696;  103.333;   -8.801;  780.432
308.294;  103.610;   -6.411;  731.359
308.892;  105.318;   -2.901;  759.769
309.490;  101.766;   -5.041;  712.161
310.088;  100.012;   -5.002;  788.444
310.686;  104.173;   -2.041;  821.749
311.284;   99.590;   -2.351;  766.040
311.882;   97.262;   -4.422;  731.225
312.480;   94.386;   -4.192;  697.167
313.078;   95.943;   -1.172;  808.331
313.675;   96.650;   -2.601;  691.600
314.273;   90.907;   -1.312;  797.837
314.871;   90.781;   -3.942;  589.829
315.468;   87.376;   -2.802;  652.090
316.066;   91.138;   -0.701;  694.427
316.664;   83.868;   -4.362;  656.351
317.261;   87.951;   -2.872;  910.128
317.859;   83.689;   -2.022;  768.735
318.456;   83.470;   -0.531;  830.096
319.054;   79.554;   -3.912;  787.828
319.651;   78.164;   -4.752;  759.928
320.249;   77.305;   -2.602;  810.188
320.846;   74.865;   -0.821;  714.286
321.443;   73.196;   -4.642;  832.135
322.041;   70.488;   -5.002;  812.315
322.638;   67.958;   -3.982;  701.456
323.235;   69.010;   -3.411;  665.683
323.833;   65.329;   -7.361;  740.354
324.430;   60.811;   -8.611;  615.900
325.027;   61.685;   -4.061;  876.855
325.624;   60.664;   -4.031;  644.532
326.221;   57.511;   -7.481;  689.717
326.818;   57.884;   -5.281;  818.332
327.415;   60.803;   -7.460;  748.828
328.012;   59.914;   -5.510;  690.585
328.609;   58.818;   -7.880;  731.389
329.206;   56.776;   -8.331;  778.621
329.803;   56.713;   -5.121;  737.841
330.400;   58.372;   -4.510;  704.260
330.997;   60.075;   -6.441;  817.147
331.594;   58.833;   -8.831;  788.185
332.191;   64.163;   -7.621;  728.722
332.787;   67.191;   -4.591;  844.463
333.384;   66.537;   -7.412;  763.093
333.981;   66.358;   -8.293;  815.687
334.578;   68.797;   -7.052;  708.378
335.174;   71.242;   -3.102;  731.469
335.771;   69.986;   -5.943;  836.456
336.367;   67.754;   -7.393;  710.631
336.964;   72.302;   -4.063;  793.266
337.561;   70.560;   -3.813;  731.112
338.157;   65.693;   -4.654;  911.916
338.754;   63.952;   -7.934;  796.589
339.350;   63.031;   -4.414;  722.493
339.946;   65.179;   -4.664;  773.135
340.543;   56.200;   -6.375;  846.136
341.139;   49.970;   -9.815;  720.836
341.735;   48.213;   -4.526;  772.593
342.332;   47.632;   -4.895;  691.472
342.928;   46.746;   -4.295;  795.394
343.524;   39.724;   -5.476;  761.684
344.120;   36.479;   -5.856;  738.562
344.716;   40.157;   -2.155;  723.717
345.313;   36.979;   -6.275;  795.342
345.909;   32.314;   -8.815;  627.336
346.505;   33.637;   -5.305;  740.247
347.101;   33.723;   -2.674;  827.864
347.697;   34.394;   -4.344;  785.398
348.293;   28.862;   -9.975;  627.244
348.889;   29.544;   -5.774;  745.914
349.485;   28.820;   -5.004;  688.205
350.081;   29.226;   -4.704;  772.592
350.676;   24.992;   -6.635;  691.606
351.272;   28.864;   -4.504;  809.530
351.868;   28.052;   -3.914;  780.497
352.464;   25.998;   -9.044;  723.932
353.059;   22.255;   -8.314;  646.017
353.655;   25.269;   -7.024;  777.063
354.251;   26.249;   -5.343;  759.845
354.846;   20.232;   -8.604;  740.646
355.442;   18.883;   -6.945;  753.071
356.038;   20.377;   -7.564;  751.708
356.633;   20.826;   -5.814;  728.594
357.229;   18.266;   -7.364;  724.757
357.824;   16.727;   -8.024;  703.600
358.420;   16.243;   -9.384;  679.726
359.015;   16.154;   -5.104;  695.357
359.610;   16.903;   -6.854;  763.920
360.206;   11.252;  -10.185;  603.240
360.801;   14.531;   -7.054;  646.503
361.396;   16.582;   -5.034;  725.975
361.992;   11.169;   -8.284;  668.220
362.587;    8.498;   -8.625;  670.160
363.182;   10.952;   -7.674;  689.631
363.777;   11.478;   -5.164;  738.242
364.372;   11.515;   -8.604;  737.314
364.967;    7.361;   -9.055;  680.744
365.563;   11.039;   -6.114;  815.567
366.158;    8.952;   -5.814;  685.161
366.753;    8.731;   -7.854;  649.263
367.348;    7.239;   -7.804;  746.056
367.942;    6.785;   -7.954;  697.298
368.537;    6.386;   -4.984;  754.245
369.132;    5.968;   -8.564;  703.428
369.727;    2.097;   -8.855;  638.079
370.322;    4.428;   -6.245;  580.186
370.917;    3.525;   -6.425;  710.646
371.511;    6.084;   -6.294;  861.834
372.106;    2.715;   -7.685;  776.964
372.701;   -0.383;   -7.335;  585.988
373.296;    5.513;   -4.564;  863.135
373.890;    0.166;  -10.235;  647.840
374.485;   -1.679;   -7.885;  691.199
375.079;    2.428;   -7.324;  738.685
375.674;    3.227;   -3.494;  812.970
376.268;   -1.569;   -8.525;  691.759
376.863;   -7.110;  -10.086;  580.327
377.457;   -0.658;   -7.025;  662.490
378.052;   -1.901;   -3.585;  764.884
378.646;   -2.613;   -7.595;  741.167
379.240;   -3.134;   -8.335;  721.176
379.835;   -1.835;   -5.785;  636.978
380.429;   -3.695;   -4.335;  562.557
381.023;   -5.176;   -6.805;  779.205
381.617;   -7.251;   -9.195;  680.106
382.212;   -3.856;   -6.905;  685.303
382.806;   -3.055;   -3.745;  760.690
383.400;   -6.776;   -7.745;  672.281
383.994;   -8.105;   -9.765;  664.870
384.588;   -4.123;   -6.564;  697.701
385.182;   -2.801;   -5.344;  726.624
385.776;   -5.325;   -8.514;  706.875
386.370;   -7.911;   -9.555;  681.968
386.964;   -6.502;   -8.715;  684.155
387.558;   -5.243;   -6.174;  598.360
388.152;   -8.521;   -8.725;  681.959
388.745;   -6.371;   -7.965;  814.707
389.339;   -4.901;   -5.924;  747.642
389.933;   -4.146;   -5.524;  695.370
390.527;   -5.428;   -7.114;  859.029
391.120;  -11.683;  -10.725;  595.318
391.714;   -8.945;   -8.035;  711.633
392.308;   -5.589;   -3.574;  780.253
392.901;   -8.850;   -7.245;  642.460
393.495;  -11.118;   -9.285;  595.414
394.089;   -8.350;   -5.895;  760.452
394.682;   -8.727;   -4.295;  697.188
395.275;   -9.922;   -9.875;  719.927
395.869;  -10.911;   -8.485;  667.314
396.462;   -9.141;   -7.455;  616.609
397.056;   -5.688;   -5.424;  776.621
397.649;   -9.525;   -6.605;  731.575
398.242;   -8.021;   -8.224;  712.645
398.836;   -6.732;   -7.474;  766.408
399.429;   -7.611;   -7.094;  631.041
400.022;  -12.204;   -9.475;  665.902
400.615;   -8.717;   -7.145;  805.609
401.208;   -6.358;   -7.174;  691.451
401.802;   -8.980;   -5.515;  699.329
402.395;  -10.670;   -9.875;  683.502
402.988;  -11.627;   -8.845;  696.627
403.581;   -7.965;   -8.874;  646.878
404.174;   -6.077;   -5.324;  686.568
404.767;   -8.318;   -9.575;  638.583
405.360;  -11.631;  -10.965;  621.445
405.953;   -6.075;   -8.764;  759.034
406.545;   -5.231;   -7.514;  725.342
407.138;   -9.531;  -10.025;  618.350
407.731;   -8.572;  -10.034;  613.303
408.324;   -4.268;   -9.374;  660.554
408.917;   -4.994;   -6.534;  681.864
409.509;   -6.797;   -8.004;  740.396
410.102;   -9.219;   -9.875;  643.948
410.695;   -2.475;   -8.604;  665.758
411.287;   -4.388;   -6.794;  599.821
411.880;   -5.557;   -9.334;  585.421
412.472;   -8.470;  -10.254;  613.092
413.065;   -5.317;   -6.714;  629.408
413.657;   -3.464;   -7.234;  576.678
414.250;   -3.586;  -10.544;  646.681
414.842;   -4.700;   -9.744;  676.353
415.434;   -2.726;   -6.994;  570.463
416.027;    1.232;   -5.893;  652.196
416.619;   -0.855;   -7.264;  713.400
417.211;   -1.080;  -10.374;  599.352
417.804;    3.102;   -7.993;  628.499
418.396;   -1.680;   -7.234;  607.643
418.988;    0.757;   -9.443;  659.238
419.580;   -2.701;  -10.724;  568.276
420.172;   -0.055;  -10.323;  536.196
420.764;    3.777;   -8.793;  672.482
421.356;    3.295;  -11.143;  636.898
421.948;    1.267;   -8.293;  677.661
422.540;    7.205;   -7.893;  680.027
423.132;    5.640;   -7.082;  600.641
423.724;    2.715;   -8.653;  561.267
424.316;    4.983;  -10.213;  621.345
424.908;    8.562;   -9.762;  591.517
425.500;    8.817;   -5.572;  647.978
426.092;    9.148;   -8.422;  648.268
426.683;    8.411;   -9.283;  684.836
427.275;   11.005;   -7.852;  641.471
427.867;   12.475;   -5.272;  668.948
428.458;   13.608;   -7.682;  732.344
429.050;   12.042;  -10.612;  680.749
429.642;   14.068;   -9.882;  743.124
430.233;   15.036;   -6.962;  569.356
430.825;   16.329;   -6.842;  724.809
431.416;   13.025;   -9.672;  698.241
432.008;   16.927;   -6.552;  651.723
432.599;   17.684;   -6.891;  656.073
433.190;   15.664;  -10.912;  637.670
433.782;   13.807;  -11.172;  590.395
434.373;   21.411;   -6.061;  884.765
434.964;   21.198;   -8.251;  602.920
435.556;   17.944;   -9.722;  634.537
436.147;   20.231;   -9.082;  758.490
436.738;   20.495;   -8.041;  701.099
437.329;   26.695;   -7.341;  721.723
437.920;   19.695;   -8.162;  666.688
438.511;   18.457;  -11.802;  564.526
439.103;   26.080;  -10.191;  623.998
439.694;   27.845;   -7.601;  681.583
440.285;   27.844;   -8.541;  764.432
440.876;   27.183;   -9.751;  845.738
441.466;   26.398;   -9.401;  575.162
442.057;   31.129;   -7.760;  665.814
442.648;   29.240;   -9.971;  746.255
443.239;   28.383;  -11.001;  620.477
443.830;   33.406;   -7.990;  704.958
444.421;   36.141;   -7.910;  655.474
445.011;   31.355;   -8.131;  693.619
445.602;   31.307;   -7.111;  743.126
446.193;   33.910;  -10.920;  488.117
446.783;   38.483;   -6.500;  640.397
447.374;   32.980;   -8.671;  692.759
447.964;   34.057;  -10.781;  713.770
448.555;   42.600;   -9.650;  822.742
449.145;   39.004;   -8.660;  662.853
449.736;   39.281;   -8.990;  803.179
450.326;   40.200;   -9.500;  713.626
450.917;   45.395;   -8.680;  675.324
451.507;   43.556;   -7.520;  600.661
452.097;   44.810;   -8.590;  746.267
452.688;   45.507;  -11.340;  742.160
453.278;   45.811;  -10.100;  566.840
453.868;   50.194;   -6.019;  793.550
454.458;   47.839;   -9.440;  651.141
455.048;   48.045;  -10.560;  711.783
455.639;   49.848;  -11.799;  567.096
456.229;   53.268;   -6.899;  710.694
456.819;   55.907;   -7.389;  751.158
457.409;   55.618;  -11.119;  773.993
457.999;   59.428;   -9.289;  737.505
458.589;   58.275;   -6.139;  686.606
459.179;   58.782;   -8.729;  717.658
459.769;   57.205;   -9.789;  627.099
460.358;   61.969;  -10.259;  797.262
460.948;   60.652;   -7.299;  689.503
461.538;   63.130;  -10.289;  660.677
462.128;   61.191;  -11.269;  664.934
462.717;   68.317;   -9.368;  710.326
463.307;   71.329;   -7.908;  705.846
463.897;   66.927;   -9.599;  656.942
464.486;   66.537;   -9.769;  837.128
465.076;   71.671;   -8.048;  733.776
465.666;   74.524;   -9.358;  652.900
466.255;   72.398;   -7.919;  785.651
466.845;   71.944;  -11.689;  666.749
467.434;   74.819;   -7.818;  725.873
468.023;   75.862;   -7.678;  658.357
468.613;   73.525;  -10.939;  713.946
469.202;   77.547;  -10.118;  646.507
469.791;   82.221;   -9.108;  737.811
470.381;   84.357;   -6.058;  742.813
470.970;   84.127;  -10.428;  711.099
471.559;   83.769;  -10.268;  733.291
472.148;   86.589;   -8.448;  675.737
472.738;   89.396;   -6.917;  765.466
473.327;   88.390;  -11.978;  637.529
473.916;   88.377;  -11.888;  737.446
474.505;   93.273;   -9.437;  751.703
475.094;   96.589;   -6.747;  806.570
475.683;   95.371;   -9.367;  797.699
476.272;   96.433;  -12.637;  730.632
476.861;   99.431;  -10.027;  706.754
477.449;  105.189;   -8.716;  728.487
478.038;   99.641;   -9.577;  692.513
478.627;  101.944;   -9.718;  714.852
479.216;  108.350;   -8.947;  769.441
479.805;  111.020;   -6.256;  783.375
480.393;  111.733;   -7.937; 1008.945
480.982;  110.494;   -7.717;  874.501
481.571;  117.184;   -9.266;  858.333
482.159;  117.409;   -7.636;  705.386
482.748;  118.035;   -9.667;  821.385
483.336;  121.929;  -10.376;  858.209
483.925;  123.004;   -7.147;  774.373
484.513;  130.778;   -7.996;  758.962
485.102;  127.457;  -10.027;  810.965
485.690;  136.502;  -10.446; 1011.050
486.278;  138.714;   -8.446;  979.329
486.867;  139.720;   -6.356;  809.662
487.455;  140.686;   -9.136;  898.229
488.043;  143.346;  -10.646;  748.361
488.631;  152.052;   -7.456; 1005.079
489.220;  156.179;   -6.636;  908.626
489.808;  156.963;  -11.036;  741.415
490.396;  165.141;  -10.246;  914.645
490.984;  172.111;   -8.556;  830.161
491.572;  183.893;   -5.886;  940.315
492.160;  191.179;   -9.486;  919.081
492.748;  205.672;  -10.976;  884.341
493.336;  230.546;   -8.776; 1019.693
493.924;  259.017;   -5.465;  958.077
494.512;  293.237;   -9.986; 1066.638
495.100;  342.641;  -10.636; 1103.280
495.687;  406.434;  -10.885; 1206.373
496.275;  471.642;   -8.126; 1150.796
496.863;  545.262;  -10.586; 1281.171
497.451;  664.344;  -11.926; 1386.805
498.038;  777.006;  -10.885; 1556.729
498.626;  892.690;   -6.315; 1741.407
499.214; 1065.654;   -7.326; 2016.609
499.801; 1275.314;  -11.906; 2220.633
500.389; 1512.275;  -10.466; 2312.494
500.976; 1812.152;   -5.236; 2744.849
501.564; 2285.496;   -8.936; 3148.565
502.151; 2802.157;  -13.176; 3515.999
502.738; 3295.540;  -10.646; 3971.274
503.326; 3730.316;   -9.525; 4403.796
503.913; 4151.986;  -10.856; 5161.749
504.500; 4675.953;  -11.586; 5986.420
505.088; 5117.423;  -10.336; 6381.201
505.675; 5523.903;   -6.355; 6925.547
506.262; 6008.439;   -9.046; 7619.060
506.849; 6401.053;  -10.416; 8733.969
507.436; 6855.499;  -10.305; 9790.121
508.023; 7389.156;   -5.496; 9985.472
508.610; 8255.747;   -7.856;10434.618
509.197;10043.517;  -10.097;11198.435
509.784;11731.604;  -10.886;12391.194
510.371;12772.760;   -9.315;13603.713
510.958;13593.551;   -9.936;14426.586
511.545;13968.606;   -9.326;15243.775
512.132;14890.148;  -10.075;15945.876
512.719;15413.098;   -7.796;16340.369
513.305;16724.912;  -10.606;18011.766
513.892;18081.977;  -11.486;19754.971
514.479;19940.127;   -9.126;20967.805
515.066;21198.674;   -6.026;22299.793
515.652;21453.969;   -8.466;22908.660
516.239;22877.871;  -10.886;23798.875
516.825;25068.461;  -11.496;25567.275
517.412;26341.381;   -5.796;28154.959
517.998;27917.596;  -10.506;28344.111
518.585;28384.646;  -10.076;27134.219
519.171;27556.016;   -8.315;27268.576
519.758;27244.520;   -8.596;28964.129
520.344;28226.342;   -8.466;30664.494
520.930;31647.209;  -11.006;32550.605
521.516;32210.791;  -10.495;35422.895
522.103;31591.164;   -5.526;38280.004
522.689;32478.891;   -8.746;37835.117
523.275;34826.340;  -11.376;37288.613
523.861;37053.961;  -11.156;37281.395
524.447;39616.090;   -8.135;37846.949
525.033;40342.609;   -7.896;38321.949
525.619;39772.715;  -12.476;38579.285
526.205;40182.176;   -9.516;40622.875
526.791;39569.219;   -6.926;42258.836
527.377;41894.969;   -8.346;42966.902
527.963;43770.094;   -8.717;42018.949
528.549;42023.777;  -11.016;42476.828
529.135;41576.219;   -8.536;41854.852
529.721;40741.172;   -9.666;41237.711
530.306;39040.547;  -10.066;41259.445
530.892;39405.086;  -11.356;41506.047
531.478;40276.148;   -6.596;43559.613
532.063;40867.223;   -8.836;47695.563
532.649;44128.492;  -10.047;50808.324
533.235;46479.855;   -9.746;51787.500
533.820;45655.313;   -6.566;52145.035
534.406;44806.254;  -10.817;51133.488
534.991;47394.801;   -9.416;49996.805
535.576;48083.813;   -9.036;48882.852
536.162;49031.438;   -6.156;46942.285
536.747;49275.957;  -11.607;45711.746
537.333;48669.852;  -11.787;48510.180
537.918;47654.777;  -12.437;50439.891
538.503;47361.555;   -7.196;50863.711
539.088;46210.688;  -10.556;50906.922
539.673;46717.094;   -8.767;52621.965
540.259;47953.516;  -10.026;52368.094
540.844;49709.832;   -7.416;50879.109
541.429;48550.477;   -9.467;52077.777
542.014;48936.730;   -9.527;52716.695
542.599;51335.980;   -9.946;52363.281
543.184;53169.852;   -7.927;53187.137
543.769;52192.008;   -9.297;54697.605
544.354;48606.602;  -10.127;53913.914
544.938;45333.621;   -9.267;49680.164
545.523;47086.578;   -6.506;47386.277
546.108;52416.387;   -9.787;49151.949
546.693;53196.559;  -11.587;51384.637
547.278;53555.477;  -10.986;51853.254
547.862;49284.938;   -8.206;51173.750
548.447;46058.145;  -10.067;51691.395
549.031;48498.094;   -9.637;52456.703
549.616;50983.469;   -9.926;52714.516
550.201;48351.957;   -6.347;52414.598
550.785;45558.289;   -7.917;52355.059
551.370;43314.199;  -10.867;54589.453
551.954;44784.609;   -9.047;58267.348
552.538;48400.113;   -7.827;59062.176
553.123;48128.973;  -10.287;58115.285
553.707;44181.738;  -12.178;56556.285
554.291;45797.219;   -8.717;56201.668
554.876;48167.824;   -7.457;55335.762
555.460;49444.246;  -10.387;54155.703
556.044;50049.996;   -9.618;53721.484
556.628;49465.984;  -11.567;53731.016
557.212;49015.180;   -8.097;54312.531
557.796;49026.688;  -11.077;53797.773
558.380;47304.820;  -11.108;56145.984
558.964;45010.172;   -9.057;57277.930
559.548;44377.895;   -6.977;56459.641
560.132;44733.855;  -11.457;54434.543
560.716;42729.434;  -11.378;54800.617
561.300;43782.555;   -9.577;57606.945
561.884;46493.098;   -7.127;58972.445
562.467;46912.918;   -7.118;57327.570
563.051;47082.457;  -13.358;54962.434
563.635;45588.313;  -10.178;52594.473
564.219;45722.484;   -7.837;50610.410
564.802;45503.777;  -11.398;49551.180
565.386;46816.930;  -12.788;48370.953
565.969;46391.066;   -9.077;48178.871
566.553;45640.352;   -6.207;49957.305
567.136;43229.777;   -8.568;50369.594
567.720;42512.914;  -11.868;49492.004
568.303;43682.250;   -8.268;50616.352
568.887;42631.730;   -8.698;50727.148
569.470;41330.285;   -6.808;51698.379
570.053;40170.703;  -13.188;52122.078
570.637;37907.191;  -12.037;52536.438
571.220;37082.789;   -8.577;51186.098
571.803;38598.352;   -8.498;51032.762
572.386;40676.648;  -10.498;49609.887
572.969;41657.418;   -9.388;48285.926
573.552;37827.176;   -8.338;47624.285
574.135;36578.457;   -8.518;45498.641
574.718;35415.105;  -13.628;41970.434
575.301;33827.648;  -10.893;41447.137
575.884;32240.189;   -8.158;40923.836
576.467;36140.410;  -10.328;45267.723
577.050;35452.773;  -13.058;48175.543
577.633;33894.734;   -9.458;47729.328
578.216;34462.250;   -8.928;47579.793
578.799;35247.234;   -9.358;47820.996
579.381;35539.320;  -11.388;48115.551
579.964;33977.992;  -11.718;47333.766
580.547;34594.152;   -8.588;46668.969
581.129;35973.766;   -8.859;44466.141
581.712;35283.188;  -10.729;44164.922
582.294;36435.965;  -11.118;46477.855
582.877;34370.332;   -5.218;48244.254
583.459;34072.664;   -8.679;47437.895
584.042;35322.727;  -10.709;46943.219
584.624;38508.133;  -11.669;46792.227
585.206;38585.250;   -8.218;46557.250
585.789;36615.430;  -10.569;45793.773
586.371;35680.867;  -11.859;43836.391
586.953;34303.484;  -10.719;42972.492
587.536;35210.527;   -7.198;42487.211
588.118;37018.203;   -8.720;42086.414
588.700;36662.020;  -10.439;43389.930
589.282;35862.078;   -9.198;43646.039
589.864;35538.543;   -9.199;43438.109
590.446;33414.730;  -11.319;43151.926
591.028;32112.516;  -11.159;42781.867
591.610;31510.789;  -11.779;42839.098
592.192;28910.445;   -7.668;42820.402
592.774;30011.355;  -11.949;40724.277
593.356;31364.793;  -12.129;39874.789
593.937;31354.512;  -10.669;39980.648
594.519;32797.090;   -6.509;42069.633
595.101;34764.867;  -10.849;42976.031
595.683;33677.789;  -11.679;44084.441
596.264;31422.260;   -9.049;43478.797
596.846;31865.883;   -8.849;43803.672
597.427;32989.574;   -9.570;42986.934
598.009;32691.039;  -12.620;42832.219
598.591;32220.508;  -10.039;42580.086
599.172;32232.953;  -10.369;43061.805
599.753;31935.082;   -9.140;41691.469
600.335;31762.461;  -11.430;40692.520
600.916;32732.254;   -9.939;39982.422
601.498;32223.467;   -8.479;40318.617
602.079;30903.500;  -10.920;40670.609
602.660;32254.129;  -11.480;41450.898
603.241;33096.309;  -11.699;41137.738
603.823;33459.664;   -9.579;38868.797
604.404;33511.230;  -10.620;38182.785
604.985;31937.938;  -10.450;38078.047
605.566;31047.633;   -9.129;38056.633
606.147;31071.008;   -7.510;37020.418
606.728;32267.611;  -10.660;37883.359
607.309;32866.746;  -11.740;38748.273
607.890;31562.756;   -9.759;38850.230
608.471;30011.857;   -8.250;37457.918
609.051;31555.080;   -9.240;36066.457
609.632;30150.902;  -12.120;35991.074
610.213;28165.756;   -9.110;37402.641
610.794;28907.637;   -8.030;38383.363
611.374;31425.867;   -8.110;40562.387
611.955;32144.264;  -13.560;38533.727
612.536;30216.270;  -11.400;36951.789
613.116;29792.262;   -8.070;37197.891
613.697;31436.664;  -10.830;38411.125
614.277;31780.547;  -11.641;38673.938
614.858;30529.160;  -13.310;37075.863
615.438;29485.902;   -7.460;35092.906
616.019;28686.461;   -7.601;33666.301
616.599;29235.127;  -12.020;34189.023
617.179;30726.410;  -11.780;36952.047
617.760;33076.902;   -8.570;39582.574
618.340;33097.270;  -11.471;38943.977
618.920;30709.479;  -11.170;37594.156
619.500;31912.010;  -11.071;37866.938
620.080;32512.449;   -7.750;37869.043
620.660;31713.441;  -12.711;36868.617
621.241;31117.938;  -10.211;36352.309
621.821;29923.775;  -10.961;35459.520
622.401;28490.371;   -7.720;35207.414
622.980;29505.160;   -8.981;35980.422
623.560;29990.213;   -9.331;37351.328
624.140;28545.514;   -9.850;34388.582
624.720;26047.869;   -7.451;32368.764
625.300;24748.240;   -9.070;32638.629
625.880;28477.736;  -12.601;34599.035
626.459;31410.848;  -11.751;36831.738
627.039;32192.363;   -9.281;38299.098
627.619;33397.750;   -8.801;38289.574
628.198;33389.535;  -12.071;37220.695
628.778;31452.680;   -9.461;37632.563
629.357;31929.719;   -8.491;38003.012
629.937;32097.473;   -9.721;38402.039
630.516;32010.016;   -9.951;37868.801
631.096;31564.313;  -11.731;35760.410
631.675;33297.051;   -8.572;35225.219
632.254;33596.023;  -11.282;35130.289
632.834;33116.570;  -13.322;35794.570
633.413;33396.102;  -10.301;35788.922
633.992;32999.035;   -8.582;34532.863
634.571;33281.738;   -8.352;33590.113
635.151;32464.082;  -11.912;34943.863
635.730;31303.580;  -10.511;35352.523
636.309;33083.480;   -7.731;35366.605
636.888;33059.965;   -9.952;36165.637
637.467;32271.043;  -11.672;37515.902
638.046;31571.072;   -8.901;39288.695
638.625;31788.645;   -7.912;38279.699
639.204;32445.943;  -10.022;37741.598
639.782;31216.219;  -12.252;38364.551
640.361;29363.617;  -10.041;36740.621
640.940;27920.959;  -11.161;34950.082
641.519;29371.387;   -9.701;34137.398
642.097;32437.199;  -11.271;35654.258
642.676;33511.277;   -8.651;35637.957
643.255;35086.910;   -8.711;36567.074
643.833;33484.543;   -9.581;37809.434
644.412;30327.563;  -13.711;37337.293
644.990;30368.582;  -11.811;37018.531
645.569;32372.857;   -9.411;36518.469
646.147;31922.656;  -10.291;36186.430
646.726;30630.662;  -12.401;36267.688
647.304;29914.410;  -10.411;36647.625
647.882;30333.041;   -9.651;39286.742
648.461;31748.414;   -9.631;39157.703
649.039;34392.035;  -11.881;35412.883
649.617;35683.059;   -9.661;34744.918
650.195;34235.621;   -9.301;35403.098
650.773;32372.104;  -10.511;35053.797
651.352;30844.426;  -11.521;33756.816
651.930;27965.082;  -12.211;31868.773
652.508;24775.520;   -9.171;33121.551
653.086;25733.189;   -9.371;33564.793
653.663;30597.486;  -13.161;34054.668
654.241;32610.682;  -13.031;35693.309
654.819;34475.926;   -9.371;36422.906
655.397;34890.352;  -10.511;38213.484
655.975;33143.059;  -10.371;39507.625
656.553;31902.473;  -10.051;39498.223
657.130;31435.016;  -10.061;40395.480
657.708;29699.471;   -9.561;39242.020
658.286;26347.316;  -11.511;38920.020
658.863;26257.914;  -10.261;40202.898
659.441;30309.859;   -7.531;39677.938
660.018;32385.678;   -9.501;40413.355
660.596;31155.709;  -13.301;39931.414
661.173;29309.643;  -11.211;39604.531
661.750;30484.211;   -9.951;39700.070
662.328;30945.301;   -9.390;39292.809
662.905;29902.611;  -11.330;38235.648
663.482;26936.203;   -9.050;36212.305
664.060;24578.461;   -8.240;35944.945
664.637;26334.963;  -10.050;35170.785
665.214;29655.248;  -11.760;34197.523
665.791;30944.779;  -10.530;34549.520
666.368;30021.904;   -9.690;35118.578
666.945;30707.916;   -9.320;36019.418
667.522;30328.939;  -11.860;36048.438
668.099;31340.824;  -10.770;36243.914
668.676;32376.279;   -6.260;35958.875
669.253;34412.855;   -7.000;37384.730
669.830;35711.988;  -10.190;36779.629
670.407;33080.586;   -9.550;35231.289
670.984;32496.682;   -9.260;35544.270
671.560;29443.414;   -9.280;35466.867
672.137;23974.574;  -11.810;34280.863
672.714;25015.592;  -11.490;34632.863
673.290;31010.555;   -7.740;35135.422
673.867;31849.039;  -10.660;36114.480
674.443;31483.168;  -12.230;36152.859
675.020;30828.996;  -10.450;35327.238
675.596;31361.949;   -9.260;35795.176
676.173;31471.508;  -10.780;35430.355
676.749;29945.391;  -13.690;33549.516
677.326;29035.750;  -11.980;32210.012
677.902;28411.205;   -8.630;32068.871
678.478;29407.863;  -10.730;32583.891
679.054;30273.730;  -10.520;32088.928
679.631;30790.762;  -11.920;30978.848
680.207;30839.813;   -7.490;33160.887
680.783;32265.924;   -9.860;35570.363
681.359;32982.727;  -13.380;36125.184
681.935;32541.361;  -12.480;35240.922
682.511;31039.275;   -7.900;34429.961
683.087;30429.539;   -7.710;34463.680
683.663;30173.279;  -11.480;34648.898
684.239;29609.646;  -14.090;34546.457
684.815;28918.787;   -7.560;35586.375
685.390;29162.387;   -9.910;35821.895
685.966;30169.209;  -11.159;35085.871
686.542;30759.186;  -11.169;34198.230
687.118;32017.152;   -5.959;32847.707
687.693;31426.330;  -10.329;32794.027
688.269;31209.438;  -12.059;33072.367
688.844;32715.373;  -10.909;33141.664
689.420;32161.258;   -8.019;33965.742
689.995;30574.635;   -8.399;34655.523
690.571;31365.863;  -10.949;33576.742
691.146;31092.219;   -9.619;32657.219
691.722;29702.305;   -8.999;32526.979
692.297;28416.580;  -11.589;33014.617
692.872;28696.479;  -11.739;34012.254
693.448;31707.545;  -11.059;34237.434
694.023;31947.227;  -10.139;34142.672
694.598;28282.209;   -9.029;34132.031
695.173;29118.340;  -13.319;34205.250
695.748;30794.307;  -10.169;32882.488
696.323;29033.920;   -8.339;32864.906
696.898;27728.439;   -8.169;33170.004
697.473;27637.117;  -12.309;32432.984
698.048;27374.350;  -10.989;31649.303
698.623;27196.650;   -9.329;30778.141
699.198;28261.311;   -9.849;31140.119
699.773;29061.764;  -12.329;31764.299
700.348;30609.205;  -10.389;31780.816
700.922;30175.256;   -9.269;32046.375
701.497;30343.092;   -9.329;32603.574
702.072;31661.063;  -10.789;34799.871
702.646;30649.705;  -10.839;35793.172
703.221;31060.295;   -9.099;35201.590
703.795;32838.160;  -10.939;34764.527
704.370;30555.260;  -12.859;34307.367
704.944;28663.035;  -11.559;33509.887
705.519;29027.715;   -7.939;31388.584
706.093;30796.082;  -10.499;31340.104
706.668;32563.195;  -11.289;32630.281
707.242;32442.604;  -11.509;32728.779
707.816;29690.615;   -9.639;32947.238
708.390;28873.643;  -11.429;33277.855
708.965;29463.037;  -11.869;33834.336
709.539;31413.957;  -11.689;33709.273
710.113;31275.852;  -10.478;33044.313
710.687;29912.344;  -10.228;31953.992
711.261;28690.102;  -13.698;30505.949
711.835;28953.625;  -13.378;30262.369
712.409;28709.314;   -9.698;31254.447
712.983;27198.773;  -11.898;32754.986
713.557;28899.453;  -15.138;34018.824
714.131;27927.781;  -14.098;34579.625
714.704;27983.633;   -9.958;33890.262
715.278;29356.748;  -10.028;33531.102
715.852;27935.064;  -11.148;33601.660
716.425;27044.404;   -9.068;33515.117
716.999;26379.096;  -10.038;33185.555
717.573;25866.076;   -9.798;33905.996
718.146;25222.209;  -12.378;35199.293
718.720;25166.166;  -11.918;35060.551
719.293;25950.215;   -8.088;34973.230
719.867;28542.947;  -10.888;36394.449
720.440;31177.570;  -11.938;36663.008
721.013;31503.473;  -12.818;35102.426
721.587;28790.648;  -10.298;33985.266
722.160;27459.561;  -10.048;33524.965
722.733;26537.592;  -12.108;32987.043
723.306;26140.102;  -10.818;33066.301
723.880;27339.689;   -8.908;33399.500
724.453;26153.551;   -9.878;33468.297
725.026;26578.471;  -11.188;33816.637
725.599;30393.877;  -11.678;32797.996
726.172;30324.605;   -9.618;33187.434
726.745;26896.666;   -8.258;35136.613
727.318;25977.916;  -12.978;35751.730
727.891;25851.637;  -12.148;35890.430
728.463;25705.332;   -8.968;34822.090
729.036;25130.484;  -10.188;32895.086
729.609;25344.270;  -11.788;31823.225
730.182;24147.600;  -11.788;31445.283
730.754;22331.855;  -10.268;32373.223
731.327;21935.908;   -9.998;33676.820
731.900;23357.961;  -12.228;33417.000
732.472;24591.557;  -13.848;31978.498
733.045;24517.711;   -8.698;30368.777
733.617;22942.721;  -10.607;30574.215
734.190;24123.355;  -11.507;31280.975
734.762;25421.066;  -13.647;31674.412
735.334;25191.418;   -9.767;31247.291
735.907;25102.105;   -9.897;29876.211
736.479;25010.771;  -11.637;29808.488
737.051;26982.670;   -9.567;30233.547
737.623;27519.371;   -8.187;31469.086
738.195;26505.250;  -11.187;31784.225
738.768;25177.148;  -12.337;32120.523
739.340;22937.275;  -12.227;32094.342
739.912;21989.266;  -11.057;31312.680
740.484;21399.830;  -10.207;31946.238
741.056;20637.311;  -10.047;32984.059
741.628;21575.750;  -13.627;33897.715
742.199;23483.498;   -7.177;33213.016
742.771;26435.510;  -10.797;31369.113
743.343;27985.975;  -11.997;31865.473
743.915;27444.721;  -12.867;32388.631
744.487;24520.746;   -7.617;31079.568
745.058;21331.791;   -9.557;30570.107
745.630;21489.232;   -9.877;29970.127
746.201;22954.830;  -14.177;29186.766
746.773;23495.361;   -9.237;28805.723
747.344;22830.891;   -9.847;29591.223
747.916;21634.223;  -11.657;31412.201
748.487;22007.000;  -10.587;32194.898
749.059;23105.582;   -8.707;32533.719
749.630;23569.852;  -10.537;32158.518
750.201;22959.252;  -11.687;30855.395
750.773;21500.855;  -11.647;28622.555
751.344;20530.070;   -7.147;28405.732
751.915;21602.057;   -9.757;28461.551
752.486;22974.068;  -12.427;27842.850
753.057;22519.307;  -12.227;27845.008
753.628;22591.932;  -10.417;27728.107
754.199;21547.104;  -11.767;27381.086
754.770;21432.004;  -11.187;25882.203
755.341;21544.045;  -10.507;25886.184
755.912;20154.301;   -9.387;26050.861
756.483;18376.191;  -10.647;26798.779
757.054;18788.270;  -11.837;27048.238
757.625;18993.113;  -12.716;26294.838
758.195;19157.359;   -9.666;26142.076
758.766;19809.746;   -8.656;26392.234
759.337;19237.855;  -12.856;26334.594
759.907;19228.744;  -13.366;27579.652
760.478;19088.912;   -8.576;28352.770
761.048;19384.988;  -10.526;27325.088
761.619;19478.082;  -11.116;26460.428
762.189;18166.137;  -12.136;26029.826
762.760;17756.721;   -9.456;26430.145
763.330;18303.887;   -7.136;26670.902
763.900;18646.021;  -11.786;26603.021
764.471;17871.469;  -11.546;25542.740
765.041;16738.408;   -8.096;24358.459
765.611;16178.096;   -8.876;23991.297
766.181;16130.050;  -12.196;24470.236
766.751;15956.046;  -11.636;24845.975
767.321;16354.396;  -10.156;24533.633
767.891;16274.160;  -11.766;24916.492
768.461;16606.510;  -14.936;24776.771
769.031;17705.223;  -12.356;24757.988
769.601;18247.135;   -7.526;24181.088
770.171;17914.893;  -10.766;23670.387
770.741;16860.965;  -13.176;22960.045
771.311;16459.201;  -10.616;22917.523
771.880;16627.012;   -9.576;23562.941
772.450;16234.310;  -10.336;24216.500
773.020;16158.234;  -13.516;24140.398
773.589;16892.717;  -13.466;24414.857
774.159;16527.979;   -8.686;23858.717
774.729;15749.118;   -9.476;22942.135
775.298;14316.965;  -13.666;22324.033
775.867;13841.320;  -11.716;21140.313
776.437;14152.550;   -9.906;20838.092
777.006;13388.709;  -12.166;20599.510
777.576;12648.705;  -12.356;20508.809
778.145;12746.651;  -11.646;20732.947
778.714;12969.570;   -8.226;21062.465
779.283;13578.909;   -9.556;20949.664
779.853;14180.215;  -14.116;20508.623
780.422;13785.548;  -11.506;20649.082
780.991;13424.304;   -9.556;21527.520
781.560;13129.141;   -9.095;22632.658
782.129;12609.096;  -12.135;23048.277
782.698;12556.492;  -10.865;23438.555
783.267;12494.981;   -9.335;23267.734
783.836;12621.557;  -11.045;22415.133
784.404;13355.435;  -13.865;20443.152
784.973;12901.841;  -13.095;19699.150
785.542;11715.590;  -11.575;19763.828
786.111;11057.988;   -9.705;20341.408
786.679;11525.053;  -12.105;20207.967
787.248;11803.108;  -12.455;19516.465
787.817;11183.022;  -11.535;18900.363
788.385;11294.253;   -9.765;17879.121
788.954;11763.545;  -14.005;17658.301
789.522;11422.248;  -11.955;17788.879
790.090;11369.840;  -10.135;18118.277
790.659;12399.124;  -10.975;18338.736
791.227;12588.871;  -13.375;18508.615
791.795;11949.338;  -12.375;17898.254
792.364;11397.918;  -10.725;17295.133
792.932;11346.469;   -9.715;16822.051
793.500;11361.479;  -12.675;17040.148
794.068;10978.174;  -13.495;17179.787
794.636; 9863.012;  -10.885;16664.246
795.204; 8891.636;  -11.045;16524.545
795.772; 9407.096;  -13.175;17274.564
796.340;10743.455;  -12.445;17891.002
796.908;10613.660;   -9.735;17648.561
797.476;10564.485;   -9.815;17064.080
798.044;10976.740;  -13.985;16672.777
798.612;10758.730;  -13.115;17023.996
799.180; 9780.631;  -10.185;16561.615
799.747; 8664.770;   -9.055;15962.773
800.315; 7850.974;  -12.385;15296.992
800.883; 8103.397;  -15.035;14801.771
801.450; 8804.464;  -10.365;14534.430
802.018; 9209.723;   -9.855;14173.248
802.585; 9620.165;  -11.905;14029.547
803.153; 9298.275;  -11.585;13836.846
803.720; 8531.347;   -9.095;13567.324
804.287; 8650.325;   -9.135;13360.622
804.855; 9263.526;  -11.604;13681.981
805.422; 9353.126;  -11.794;13536.560
805.989; 8859.576;  -10.734;13355.958
806.556; 8324.109;  -10.444;13747.896
807.124; 8167.352;  -12.764;13987.376
807.691; 8716.018;  -12.964;14038.674
808.258; 9043.089;  -11.134;14120.152
808.825; 8991.616;   -9.854;13860.111
809.392; 8534.594;  -10.504;13268.790
809.959; 7995.633;  -13.054;12680.389
810.526; 7708.832;   -8.294;12427.308
811.093; 7544.074;   -8.394;12030.105
811.659; 7064.971;  -12.304;11653.664
812.226; 6822.877;  -13.944;11637.183
812.793; 7289.528;  -10.484;11611.521
813.360; 7547.202;  -10.144;11885.181
813.926; 7075.810;  -11.684;12770.539
814.493; 6402.299;  -13.644;12677.638
815.060; 6167.272;   -9.724;11974.336
815.626; 6369.743;   -9.854;11594.715
816.193; 6430.293;  -13.254;11579.474
816.759; 6320.751;  -13.204;11666.972
817.325; 6244.648;   -9.434;11325.530
817.892; 6088.756;  -10.134;11105.369
818.458; 6043.081;  -13.474;10843.928
819.024; 5832.396;  -11.854;10714.406
819.591; 5904.867;  -10.244;10469.165
820.157; 6063.685;  -10.704;10235.523
820.723; 6393.971;  -12.324;10847.563
821.289; 6831.546;   -9.444;11040.980
821.855; 6853.465;   -8.374;10357.100
822.421; 6532.036;  -10.234; 9978.918
822.987; 6354.143;  -13.294; 9754.177
823.553; 6409.898;  -10.884;10065.755
824.119; 6119.472;   -8.884;10036.294
824.685; 5908.269;   -6.784;10029.192
825.251; 5805.916;  -12.004;10199.230
825.816; 6031.588;  -11.474; 9820.189
826.382; 6008.047;   -9.174; 9297.248
826.948; 5630.749;   -9.214; 9381.347
827.513; 5214.036;  -10.774; 9450.726
828.079; 5074.990;  -11.924; 9472.444
828.645; 5050.243;  -10.543; 9292.643
829.210; 5055.383;  -10.533; 9065.341
829.776; 5067.638;  -10.753; 9132.620
830.341; 5116.031;  -10.173; 9092.878
830.906; 5294.307;  -10.743; 9078.557
831.472; 5376.993;  -11.113; 8534.535
832.037; 4967.786;  -10.603; 8677.874
832.602; 4743.850;  -13.323; 8628.692
833.167; 4973.291;  -10.823; 8879.031
833.733; 4937.146;  -10.113; 9189.790
834.298; 4812.132;  -13.583; 9052.608
834.863; 4745.714;  -12.703; 8895.087
835.428; 4590.761;  -10.523; 8824.266
835.993; 4438.307;   -6.963; 8845.385
836.558; 4427.990;  -10.763; 8888.563
837.123; 4548.241;   -9.903; 8966.582
837.688; 4446.091;   -9.913; 8617.860
838.253; 4403.827;  -10.283; 8590.699
838.817; 4615.821;  -12.963; 8443.797
839.382; 4798.411;  -14.243; 8799.356
839.947; 4574.478;  -10.733; 8810.595
840.511; 4437.550;   -9.383; 8796.394
841.076; 4498.820;  -12.563; 8347.231
841.641; 4366.378;  -12.953; 8224.330
842.205; 4048.170;   -7.043; 8223.349
842.770; 3961.931;   -8.163; 8622.107
843.334; 4055.055;  -12.503; 8410.386
843.898; 4140.585;  -11.693; 8337.465
844.463; 4091.031;  -10.203; 8506.283
845.027; 3962.293;   -9.533; 8280.962
845.591; 3982.021;  -13.443; 8231.141
846.156; 3939.582;  -13.143; 7969.179
846.720; 3718.577;   -9.433; 7768.278
847.284; 3313.091;  -11.033; 7630.957
847.848; 3114.003;  -10.403; 7472.395
848.412; 3250.327;  -11.553; 7437.394
848.976; 3534.499;   -8.393; 7674.592
849.540; 3662.997;   -8.713; 7836.011
850.104; 3636.732;  -12.463; 7913.669
850.668; 3661.809;  -12.973; 7694.508
851.232; 3618.092;  -10.793; 7756.887
851.796; 3537.121;  -10.662; 7926.545
852.359; 3585.456;  -13.082; 7827.844
852.923; 3401.719;  -12.192; 7641.163
853.487; 3252.672;  -11.912; 7342.501
854.050; 3367.579;  -10.892; 7042.820
854.614; 3332.839;  -13.992; 7151.338
855.177; 3164.630;  -11.732; 7105.077
855.741; 3089.182;   -8.962; 6989.675
856.304; 3079.330;   -9.442; 6596.634
856.868; 2938.172;  -14.192; 6356.272
857.431; 2793.360;  -12.702; 6468.571
857.995; 2876.295;   -9.942; 6373.210
858.558; 2915.882;   -9.112; 6324.448
859.121; 2653.330;  -12.932; 6408.327
859.684; 2417.886;  -13.442; 6347.886
860.247; 2657.597;  -10.632; 6321.264
860.810; 3061.987;  -11.272; 6301.903
861.374; 3166.673;   -9.832; 6607.881
861.937; 3156.376;  -11.762; 6408.200
862.500; 3103.298;   -9.722; 6572.639
863.062; 2812.854;  -10.512; 6387.297
863.625; 2575.544;  -11.232; 6190.836
864.188; 2482.454;  -14.112; 5807.254
864.751; 2415.662;  -11.302; 5682.413
865.314; 2544.510;  -10.112; 5547.492
865.876; 2738.865;  -12.182; 5500.150
866.439; 2795.361;  -10.722; 5415.909
867.002; 2688.177;   -9.252; 5501.567
867.564; 2552.965;   -9.572; 5413.946
868.127; 2416.069;  -13.142; 5160.325
868.689; 2154.497;  -12.902; 5133.183
869.252; 1945.362;   -9.732; 5252.382
869.814; 1922.943;   -9.432; 5297.141
870.377; 2073.934;  -11.552; 5390.919
870.939; 2121.967;   -9.052; 5599.898
871.501; 2042.659;  -10.982; 5248.336
872.063; 2072.137;  -12.292; 4854.235
872.626; 2038.020;  -14.912; 4817.074
873.188; 2012.520;  -13.112; 4987.732
873.750; 1966.612;  -13.442; 4868.651
874.312; 1971.120;   -9.402; 4779.330
874.874; 2072.433;  -11.062; 4866.348
875.436; 2021.342;  -13.931; 4718.887
875.998; 1773.675;   -9.561; 4660.005
876.560; 1592.173;  -11.321; 4462.964
877.122; 1576.386;  -12.221; 4145.042
877.683; 1550.880;  -12.191; 4056.481
878.245; 1612.627;  -12.101; 3950.740
878.807; 1751.242;   -8.971; 4058.958
879.369; 1782.406;  -12.071; 3954.677
879.930; 1711.928;  -14.621; 3941.495
880.492; 1578.067;  -10.311; 4067.014
881.053; 1434.458;  -10.901; 3859.633
881.615; 1384.856;  -14.411; 3776.071
882.176; 1396.359;  -13.761; 3734.750
882.738; 1420.349;   -9.181; 3678.489
883.299; 1391.825;  -11.791; 3405.407
883.860; 1305.106;  -13.121; 3351.106
884.422; 1201.614;  -11.211; 3394.044
884.983; 1144.871;  -10.091; 3166.443
885.544; 1129.840;   -8.461; 3189.802
886.105; 1089.121;  -12.361; 3160.360
886.666; 1030.666;  -14.141; 3093.059
887.227; 1010.065;  -11.361; 2941.957
887.788; 1019.560;  -11.401; 2974.836
888.349;  978.620;  -13.791; 2721.214
888.910;  891.334;  -13.191; 2696.493
889.471;  795.628;   -9.881; 2560.172
890.032;  720.383;   -9.881; 2558.190
890.593;  703.925;  -10.371; 2567.669
891.153;  706.735;  -13.301; 2460.307
891.714;  650.884;  -11.431; 2372.046
892.275;  598.854;  -11.291; 2309.505
892.835;  597.303;  -11.471; 2382.543
893.396;  590.807;  -11.541; 2295.502
893.956;  566.969;  -11.181; 2162.420
894.517;  531.841;  -11.741; 2125.439
895.077;  478.632;  -11.671; 2086.978
895.638;  435.003;  -11.311; 2126.316
896.198;  420.640;   -9.831; 1838.275
896.758;  417.446;   -8.421; 1892.813
897.319;  406.281;  -12.351; 1792.232
897.879;  386.162;  -13.511; 1762.751
898.439;  364.203;  -12.001; 1661.149
898.999;  344.717;  -10.180; 1781.468
899.559;  330.458;  -12.030; 1703.347
900.119;  325.026;  -15.710; 1537.525
900.679;  314.376;   -8.900; 1638.384
901.239;  289.998;   -8.340; 1527.902
901.799;  270.932;  -13.910; 1456.441
902.359;  259.592;  -13.460; 1357.140
902.919;  254.756;  -11.490; 1331.118
903.479;  251.946;  -12.110; 1317.257
904.038;  244.824;  -11.720; 1262.595
904.598;  230.525;  -13.610; 1152.034
905.158;  218.851;  -11.040; 1240.893
905.717;  210.558;  -10.900; 1233.691
906.277;  206.750;  -15.080; 1217.330
906.836;  202.924;  -13.380; 1222.408
907.396;  200.615;  -10.780; 1193.047
907.955;  194.352;   -8.500; 1182.526
908.515;  187.401;  -12.760; 1099.364
909.074;  183.061;  -11.900; 1092.863
909.633;  181.316;   -8.950; 1069.121
910.192;  178.380;   -8.770; 1196.460
910.752;  172.207;  -12.390; 1029.960
911.311;  168.268;  -13.680; 1009.780
911.870;  165.336;  -12.370;  971.460
912.429;  161.559;  -10.900; 1094.080
912.988;  158.752;  -11.690; 1081.060
913.547;  155.746;  -13.240;  940.380
914.106;  155.132;  -11.990;  999.420
914.665;  154.946;   -9.990;  984.020
915.224;  152.230;  -12.880; 1035.760
915.782;  151.584;  -12.350;  922.560
916.341;  151.502;   -9.110; 1049.840
916.900;  150.047;   -9.270;  925.260
917.458;  147.238;  -13.240;  884.220
918.017;  144.402;  -13.550;  942.600
918.576;  144.673;  -12.320;  904.440
919.134;  143.643;  -11.490;  837.980
919.693;  143.043;  -13.670;  893.060
920.251;  141.540;  -15.470;  876.500
920.809;  140.741;  -11.290;  839.580
921.368;  139.764;  -10.210;  885.360
921.926;  138.823;  -12.140;  842.940
922.484;  137.649;  -13.080;  903.360
923.042;  138.260;  -11.720;  880.340
923.601;  139.897;   -7.480;  998.680
924.159;  138.209;  -11.570;  935.560
924.717;  137.069;  -13.840;  841.080
925.275;  139.413;  -10.640;  903.240
925.833;  138.251;  -11.540;  779.320
926.391;  138.312;  -12.960;  938.380
926.949;  137.521;  -14.130;  857.680
927.506;  138.195;  -11.750;  903.500
928.064;  137.915;  -10.250;  877.580
928.622;  136.479;  -13.030;  880.100
929.180;  137.476;  -13.400;  814.180
929.737;  138.543;  -10.700;  808.540
930.295;  139.529;  -10.070;  928.480
930.853;  139.135;  -11.960;  849.100
931.410;  139.692;  -13.120;  821.120
931.968;  139.368;  -10.770;  940.660
932.525;  141.282;  -10.680;  909.380
933.082;  143.085;  -13.130;  811.440
933.640;  149.020;  -13.210;  925.900
934.197;  151.604;  -11.060;  886.360
934.754;  153.193;   -9.580;  897.780
935.312;  153.259;  -14.000;  863.340
935.869;  156.175;  -10.710; 1012.980
936.426;  154.899;   -9.860;  872.800
936.983;  155.162;   -9.710;  889.020
937.540;  152.985;  -13.990;  838.280
938.097;  152.149;  -14.040;  940.120
938.654;  153.442;  -10.310;  898.860
939.211;  154.069;  -10.560;  952.480
939.768;  151.307;  -13.900;  915.420
940.324;  153.260;  -14.760;  904.200
940.881;  155.765;  -10.370;  878.500
941.438;  160.964;   -8.260; 1021.200
941.995;  161.329;  -12.540;  992.560
942.551;  160.959;  -14.670;  875.620
943.108;  161.946;  -10.450;  937.920
943.664;  162.808;  -10.750;  869.340
944.221;  166.844;  -11.550; 1088.140
944.777;  168.314;  -14.770;  869.680
945.334;  169.262;  -12.820;  884.840
945.890;  170.501;  -10.130;  946.480
946.446;  167.533;  -13.470;  947.020
947.003;  168.709;  -12.120;  964.940
947.559;  170.428;   -9.980; 1063.040
948.115;  169.038;   -9.080; 1026.540
948.671;  166.975;  -10.830;  967.300
949.227;  162.552;  -12.440;  859.560
949.783;  158.949;  -12.910;  858.900
950.339;  161.015;  -10.270;  991.000
950.895;  161.473;  -13.630; 1023.840
951.451;  160.451;  -15.100;  925.280
952.007;  159.773;  -11.330;  998.540
952.563;  158.273;  -10.580;  937.780
953.118;  155.083;  -13.440;  904.940
953.674;  151.964;  -12.710;  935.780
954.230;  152.126;  -10.350;  949.640
954.785;  154.191;   -9.190;  936.640
955.341;  153.955;  -11.200;  998.160
955.897;  150.546;  -16.560;  834.660
956.452;  148.846;  -12.570;  953.840
957.008;  146.823;   -7.970; 1083.640
957.563;  145.793;  -11.940; 1009.540
958.118;  145.692;  -13.450;  877.700
958.674;  145.918;  -12.030;  946.780
959.229;  145.112;   -9.410; 1013.980
959.784;  143.570;  -12.000;  832.400
960.339;  139.794;  -14.780; 1001.280
960.894;  134.265;   -9.860;  963.760
961.449;  128.501;   -9.970;  859.960
962.004;  128.006;  -10.900; 1212.840
962.559;  122.497;  -13.150;  860.140
963.114;  120.328;  -13.740;  742.480
963.669;  123.165;   -9.820;  915.500
964.224;  123.689;  -13.890;  874.340
964.779;  123.677;  -12.600;  828.420
965.334;  123.945;  -10.950; 1017.860
965.888;  118.866;  -11.170;  875.360
966.443;  118.428;  -12.540;  972.380
966.998;  119.105;  -15.780;  819.460
967.552;  119.266;   -9.760;  908.380
968.107;  115.105;   -9.060;  868.300
968.661;  113.008;  -11.950;  922.440
969.216;  111.999;  -12.800;  856.280
969.770;  112.206;  -11.210;  917.200
970.324;  110.483;  -11.610;  923.140
970.879;  108.100;  -11.370;  947.180
971.433;  107.882;  -12.540;  952.720
971.987;  106.171;  -11.320;  895.340
972.541;  104.971;  -10.720;  917.100
973.095;  106.842;   -9.680; 1009.460
973.649;  105.652;  -11.440;  809.480
974.203;  105.213;  -11.210;  829.040
974.757;  104.801;  -10.240;  855.220
975.311;  104.596;  -13.720;  872.600
975.865;  104.890;  -13.770;  881.820
976.419;  105.477;  -11.690;  857.400
976.973;  105.142;   -9.510;  849.620
977.526;  104.999;  -12.620;  949.920
978.080;  101.116;  -12.010;  796.780
978.634;   99.956;  -10.170;  921.320
979.187;   95.531;   -9.020;  905.400
979.741;   96.135;   -9.820; 1018.380
980.294;   92.234;  -14.870;  789.160
980.848;   89.552;  -12.380;  717.220
981.401;   88.878;  -10.350;  816.540
981.955;   88.190;  -13.720;  844.300
982.508;   86.024;  -11.490;  746.340
983.061;   86.902;  -10.000;  915.260
983.615;   84.957;  -11.480;  798.800
984.168;   83.817;  -13.220;  770.080
984.721;   83.514;  -13.960;  880.760
985.274;   81.439;  -10.870;  867.500
985.827;   80.444;   -9.790;  834.220
986.380;   78.605;  -13.120;  721.340
986.933;   79.518;  -12.450;  864.800
987.486;   79.227;  -10.210;  861.920
988.039;   78.278;   -8.430;  863.100
988.591;   76.185;  -10.520;  893.260
989.144;   72.533;  -14.860;  737.260
989.697;   71.376;  -13.080;  758.740
990.250;   70.702;  -10.150;  858.100
990.802;   67.375;  -13.430;  755.860
991.355;   67.385;  -12.750;  974.880
991.907;   64.708;  -12.040;  864.320
992.460;   62.031;  -11.330;  753.760
993.012;   60.652;  -13.610;  749.540
993.565;   59.284;  -13.460;  711.360
994.117;   61.259;   -9.360;  950.780
994.669;   58.789;  -11.300;  701.320
995.221;   57.809;  -13.540;  791.920
995.774;   57.570;  -13.430;  787.580
996.326;   56.606;  -12.520;  740.220
996.878;   57.099;  -10.950;  838.420
997.430;   54.911;  -14.300;  699.860
997.982;   54.656;  -13.760;  750.140
998.534;   53.606;  -11.530;  739.060
999.086;   52.202;  -10.310;  738.220
999.638;   50.942;  -12.530;  661.380
1000.190;   49.664;  -11.840;  699.320
1000.741;   49.632;  -10.260;  742.700
1001.293;   49.311;   -8.860;  686.020
1001.845;   48.325;  -13.700;  676.640
1002.396;   49.190;  -12.100;  743.400
1002.948;   48.343;  -12.760;  737.400
1003.500;   46.974;  -10.380;  723.780
1004.051;   47.391;  -11.900;  907.580
1004.603;   45.697;  -12.250;  791.820
1005.154;   42.344;  -13.210;  608.980
1005.705;   41.697;  -10.950;  723.960
1006.257;   41.921;  -13.880;  707.220
1006.808;   41.560;  -12.840;  685.460
1007.359;   41.608;  -10.570;  763.240
1007.910;   39.344;   -9.620;  646.640
1008.461;   38.920;  -13.630;  732.940
1009.013;   38.265;  -17.200;  588.340
1009.564;   38.968;  -10.200;  793.520
1010.115;   37.549;  -12.570;  597.040
1010.665;   37.080;  -15.150;  602.160
1011.216;   37.366;  -14.480;  667.920
1011.767;   37.835;  -11.340;  697.920
1012.318;   37.169;   -9.780;  736.980
1012.869;   36.005;  -12.380;  679.000
1013.419;   35.728;  -15.560;  603.120
1013.970;   35.864;  -11.010;  666.640
1014.521;   34.797;  -11.610;  620.620
1015.071;   34.961;  -13.450;  670.380
1015.622;   34.384;  -13.870;  635.460
1016.172;   34.660;  -11.610;  596.820
1016.723;   34.395;  -12.120;  614.380
1017.273;   33.899;  -13.620;  604.160
1017.823;   33.771;  -14.140;  650.340
1018.374;   33.129;  -12.800;  611.760
1018.924;   33.027;  -12.340;  716.880
1019.474;   32.796;  -11.410;  718.880
1020.024;   32.126;  -14.770;  657.580
1020.574;   32.711;   -9.780;  726.160
1021.124;   32.954;   -8.560;  673.580
1021.674;   31.331;  -15.190;  559.120
1022.224;   32.640;  -13.530;  708.940
1022.774;   32.006;  -13.280;  668.820
1023.324;   32.327;  -10.690;  753.520
1023.874;   33.663;  -10.240;  875.760
1024.423;   30.972;  -12.540;  613.700
1024.973;   30.142;  -10.010;  610.760
1025.523;   29.450;  -10.550;  620.960
1026.072;   29.650;  -13.560;  606.420
1026.622;   29.049;  -15.120;  675.740
1027.172;   30.276;  -11.260;  715.660
1027.721;   29.245;  -11.410;  601.220
1028.270;   30.144;  -13.530;  663.400
1028.820;   29.209;  -13.680;  638.080
1029.369;   28.986;  -13.520;  612.700
1029.918;   29.088;  -10.980;  649.840
1030.468;   28.323;  -13.530;  564.780
1031.017;   28.859;  -13.170;  634.800
1031.566;   27.818;  -12.200;  608.900
1032.115;   28.712;   -9.960;  694.500
1032.664;   27.205;  -13.210;  596.480
1033.213;   28.715;  -12.500;  735.420
1033.762;   27.396;  -11.910;  635.620
1034.311;   28.064;   -9.640;  677.220
1034.860;   28.067;  -13.310;  691.000
1035.408;   27.085;  -11.830;  722.720
1035.957;   27.768;  -12.000;  719.540
1036.506;   24.761;  -11.690;  530.800
1037.055;   28.896;  -10.990;  844.320
1037.603;   25.810;  -15.120;  664.000
1038.152;   25.207;  -12.450;  534.760
1038.700;   25.828;  -10.560;  585.740
1039.249;   25.173;  -11.080;  681.220
1039.797;   25.734;  -12.540;  633.360
1040.345;   25.368;  -11.920;  705.420
1040.894;   25.360;  -11.410;  625.300
1041.442;   24.370;  -14.320;  632.200
1041.990;   23.975;  -16.240;  559.160
1042.538;   23.345;  -11.680;  536.180
1043.087;   24.080;  -10.760;  570.860
1043.635;   24.771;  -11.850;  670.500
1044.183;   23.588;  -15.480;  586.400
1044.731;   23.377;  -11.770;  576.000
1045.279;   23.856;  -13.090;  674.920
1045.827;   25.383;  -12.440;  892.400
1046.374;   21.826;  -13.840;  515.420
1046.922;   22.219;  -13.220;  590.580
1047.470;   23.308;  -10.230;  691.300
1048.018;   23.247;  -14.590;  647.960
1048.565;   24.151;  -12.050;  708.600
1049.113;   22.724;  -11.650;  557.000
1049.660;   22.067;  -10.510;  629.660
1050.208;   21.641;  -13.310;  675.640
1050.755;   22.051;  -15.900;  606.580
1051.303;   22.406;  -11.430;  686.820
1051.850;   22.066;   -8.480;  635.120
1052.397;   20.045;  -15.010;  473.960
1052.945;   20.922;  -13.960;  617.760
1053.492;   22.933;  -13.150;  741.840
1054.039;   22.316;   -9.630;  720.180
1054.586;   20.700;  -13.680;  557.240
1055.133;   21.449;  -14.570;  693.140
1055.680;   21.827;  -13.820;  646.620
1056.227;   20.772;  -11.730;  542.780
1056.774;   22.128;  -12.480;  794.980
1057.321;   19.732;  -13.930;  523.260
1057.868;   20.006;  -11.690;  651.320
1058.415;   19.606;   -9.520;  651.980
1058.961;   20.348;  -13.160;  678.940
1059.508;   20.308;  -12.920;  643.820
1060.055;   19.926;  -11.920;  581.780
1060.601;   20.077;  -11.500;  624.300
1061.148;   19.765;  -14.330;  616.820
1061.694;   18.927;  -16.870;  592.580
1062.241;   19.327;  -10.330;  596.320
1062.787;   19.576;  -10.620;  663.140
1063.334;   20.802;  -10.110;  808.560
1063.880;   19.572;  -13.400;  668.360
1064.426;   18.981;  -10.680;  706.820
1064.972;   18.639;   -9.920;  601.340
1065.518;   17.680;  -10.980;  566.640
1066.065;   18.694;  -14.890;  624.460
1066.611;   18.363;  -12.870;  598.800
1067.157;   18.767;  -12.950;  641.860
1067.703;   17.856;  -13.540;  668.480
1068.249;   18.393;  -13.540;  605.220
1068.794;   18.160;  -12.600;  626.880
1069.340;   16.996;  -10.620;  578.960
1069.886;   17.367;  -12.830;  590.700
1070.432;   15.781;  -14.870;  541.720
1070.977;   16.523;  -11.980;  601.080
1071.523;   16.905;   -8.200;  573.060
1072.068;   16.881;  -12.330;  582.000
1072.614;   16.428;  -16.370;  527.760
1073.160;   17.402;  -11.100;  687.040
1073.705;   15.542;  -10.480;  572.520
1074.250;   16.057;  -14.520;  559.900
1074.796;   17.128;  -11.460;  655.160
1075.341;   17.500;  -11.950;  664.100
1075.886;   16.348;  -11.460;  594.240
1076.431;   15.624;  -13.770;  649.880
1076.976;   16.120;  -12.680;  639.220
1077.521;   14.813;  -13.170;  583.080
1078.067;   15.220;  -10.860;  579.400
1078.612;   15.005;  -13.920;  661.620
1079.156;   15.090;  -13.880;  601.540
1079.701;   15.411;  -13.120;  693.260
1080.246;   16.481;   -9.940;  696.300
1080.791;   15.526;  -14.740;  625.020
1081.336;   15.257;  -13.750;  659.320
1081.880;   15.137;  -13.400;  649.680
1082.425;   14.638;  -12.220;  573.480
1082.970;   15.578;  -11.610;  717.040
1083.514;   14.327;  -13.580;  597.000
1084.059;   14.247;  -12.810;  586.720
1084.603;   13.302;  -12.320;  565.840
1085.147;   14.444;  -13.190;  645.220
1085.692;   14.342;  -12.480;  716.800
1086.236;   13.166;  -13.020;  503.140
1086.780;   14.659;   -9.190;  751.440
1087.325;   14.107;  -12.480;  654.620
1087.869;   13.924;  -12.450;  610.700
1088.413;   14.139;  -12.240;  705.040
1088.957;   11.981;   -9.020;  543.400
1089.501;   14.318;  -10.320;  766.640
1090.045;   14.059;  -12.720;  726.480
1090.589;   11.218;  -13.690;  569.920
1091.133;   12.392;  -10.020;  673.340
1091.676;   12.514;  -12.330;  591.940
1092.220;   12.301;  -14.970;  600.920
1092.764;   14.119;  -12.430;  706.960
1093.307;   13.163;   -9.800;  673.780
1093.851;   11.907;  -14.970;  556.540
1094.395;   12.571;  -15.310;  683.140
1094.938;   11.708;  -10.370;  632.520
1095.482;   11.937;  -11.050;  559.800
1096.025;   12.318;  -11.840;  710.880
1096.568;   12.993;  -12.840;  779.280
1097.112;   10.194;  -14.700;  508.180
1097.655;   12.112;   -8.720;  603.000
1098.198;   10.555;  -13.610;  600.180
1098.741;   10.544;  -13.350;  612.860
1099.285;   11.502;  -11.230;  657.300
1099.828;    9.493;  -11.840;  439.400
1100.371;   11.033;  -10.840;  608.160
1100.914;   10.849;  -14.190;  682.660
1101.457;   10.911;  -11.240;  679.900
1101.999;    9.431;  -11.270;  584.680
1102.542;   10.662;  -11.480;  641.440
1103.085;   10.471;  -11.750;  658.500
1103.628;   11.404;  -11.400;  762.060
1104.170;    9.742;  -10.490;  588.280
1104.713;   10.380;  -10.600;  646.700
1105.256;    9.252;  -14.360;  557.440
1105.798;    9.281;  -13.210;  499.980
1106.341;   10.487;  -10.270;  728.900
1106.883;    9.474;  -12.200;  521.340
1107.425;    9.423;  -13.110;  668.180
1107.968;    9.110;  -12.840;  612.380
1108.510;   10.008;   -6.480;  684.960
1109.052;    8.108;  -13.940;  612.620
1109.594;    8.551;  -13.690;  554.440
1110.136;    9.421;  -11.880;  643.220
1110.679;    8.653;   -9.500;  633.080
1111.221;    9.011;  -14.160;  604.460
1111.763;    7.809;  -13.980;  559.220
1112.304;    8.166;  -13.880;  547.140
1112.846;    8.984;  -12.210;  666.240
1113.388;   12.049;  -11.390;  942.180
1113.930;    7.805;  -14.540;  694.200
1114.472;    7.866;  -12.640;  606.540
1115.013;    6.215;  -11.620;  551.280
1115.555;    6.628;  -13.640;  587.100
1116.097;    7.015;  -15.380;  579.480
1116.638;    7.984;  -12.640;  684.600
1117.180;    7.809;   -9.850;  667.740
1117.721;    6.708;  -13.690;  568.580
1118.262;    8.108;  -12.680;  677.960
1118.804;    7.957;  -12.530;  637.340
1119.345;    6.427;  -11.690;  578.400
1119.886;    8.330;  -13.380;  704.040
1120.427;    6.743;  -14.070;  589.020
1120.969;    6.870;  -13.500;  597.920
1121.510;    6.026;  -11.480;  563.060
1122.051;    7.008;  -12.830;  723.580
1122.592;    6.050;  -14.290;  655.420
1123.133;    5.299;  -12.400;  547.940
1123.673;    7.219;  -10.130;  706.480
1124.214;    7.068;  -12.930;  612.460
1124.755;    7.022;  -14.380;  639.460
1125.296;    6.299;  -14.000;  627.320
1125.836;    6.982;  -10.070;  691.500
1126.377;    5.495;  -12.640;  599.660
1126.918;    6.461;  -12.960;  614.980
1127.458;    5.656;  -13.350;  622.220
1127.999;    6.020;  -10.750;  656.980
1128.539;    5.980;  -12.350;  694.240
1129.079;    4.806;  -14.860;  632.720
1129.620;    4.304;  -13.840;  558.100
1130.160;    4.847;  -12.330;  539.480
1130.700;    5.667;  -14.530;  640.840
1131.240;    5.914;  -12.530;  643.700
1131.781;    4.527;  -14.450;  619.680
1132.321;    5.235;   -9.790;  599.120
1132.861;    3.988;  -14.860;  564.200
1133.401;    3.545;  -14.290;  593.940
1133.941;    5.146;  -11.750;  626.280
1134.481;    4.221;   -9.920;  597.580
1135.020;    3.504;  -12.290;  609.160
1135.560;    4.280;  -11.650;  674.940
1136.100;    3.535;  -16.270;  501.160
1136.640;    3.858;  -10.890;  510.480
1137.179;    3.707;  -14.180;  537.960
1137.719;    4.209;  -16.250;  605.400
1138.258;    3.894;  -14.230;  587.360
1138.798;    4.447;   -9.090;  663.780
1139.337;    2.767;  -15.130;  482.840
1139.877;    4.004;  -13.680;  642.360
1140.416;    6.078;  -11.320;  878.060
1140.955;    2.907;  -10.860;  535.380
1141.494;    3.979;  -12.920;  669.280
1142.034;    2.992;  -13.930;  583.520
1142.573;    3.614;  -11.440;  646.280
1143.112;    2.711;  -12.000;  553.480
1143.651;    2.967;  -13.670;  536.480
1144.190;    3.327;  -12.730;  691.640
1144.729;    3.133;  -14.560;  607.420
1145.267;    3.369;  -11.830;  584.900
1145.806;    3.262;  -12.230;  637.040
1146.345;    2.590;  -14.130;  635.020
1146.884;    2.618;  -11.590;  622.500
1147.422;    1.817;  -12.550;  533.060
1147.961;    3.463;  -11.180;  708.460
1148.500;    3.151;  -11.510;  669.720
1149.038;    3.364;  -11.640;  632.500
1149.577;    3.071;  -10.130;  698.640
1150.115;    0.831;  -13.970;  452.280
1150.653;    2.033;  -14.520;  607.340
1151.192;    2.441;  -12.810;  552.920
1151.730;    1.829;   -9.100;  652.560
1152.268;    1.112;  -12.220;  589.520
1152.806;    1.321;  -14.140;  571.180
1153.344;    0.868;  -12.350;  577.640
1153.882;    2.045;   -8.980;  600.060
1154.421;    0.130;  -15.190;  470.620
1154.958;    0.149;  -15.210;  595.240
1155.496;    2.362;  -12.850;  645.280
1156.034;    1.506;   -9.940;  721.880
1156.572;    2.065;  -13.570;  667.060
1157.110;    0.281;  -14.590;  473.940
1157.647;    2.966;  -13.030;  676.960
1158.185;    0.980;  -12.140;  564.320
1158.723;   -0.674;  -14.390;  509.200
1159.260;    0.370;  -14.090;  701.700
1159.798;    1.270;  -11.920;  658.160
1160.335;    1.218;  -11.110;  631.820

