
Integration time [ms]:   3.276
Averaging Nr. [scans]: 1000
Smoothing Nr. [pixels]: 0
Data measured with spectrometer [name]: 7414430SP
Wave   ;Sample   ;Dark     ;Reference
[nm]   ;[counts] ;[counts] ;[counts] 

288.544;  156.581;    7.793;  793.890
289.143;  160.341;    7.462;  681.602
289.742;  160.601;    8.602;  828.814
290.341;  146.711;    1.321;  789.841
290.940;  136.606;   -0.709;  730.702
291.538;  138.400;    0.881;  881.108
292.137;  138.178;    0.122;  792.581
292.736;  140.515;   -1.929;  975.101
293.335;  137.613;   -8.229;  735.086
293.934;  137.149;   -5.279;  781.677
294.532;  136.783;   -1.369; 1031.958
295.131;  123.007;   -7.641;  834.394
295.730;  123.844;   -8.420;  809.588
296.328;  122.188;   -5.611;  783.442
296.927;  121.820;   -5.781;  779.652
297.525;  122.194;   -6.361;  781.236
298.124;  112.509;  -11.382;  654.009
298.722;  117.212;   -7.641;  761.933
299.321;  114.412;   -6.811;  708.597
299.919;  112.415;   -6.991;  751.918
300.518;  109.389;  -10.362;  689.338
301.116;  109.476;   -9.581;  691.381
301.715;  109.881;   -4.891;  730.222
302.313;  109.590;   -8.801;  704.943
302.911;  105.381;   -8.522;  733.830
303.509;  110.431;   -6.171;  925.627
304.108;  107.417;   -7.311;  760.383
304.706;  106.462;   -8.321;  801.664
305.304;  101.705;  -10.222;  796.707
305.902;  106.784;   -6.021;  784.484
306.500;  101.765;   -4.971;  728.200
307.098;   99.480;   -7.061;  746.560
307.696;   98.522;   -8.801;  780.432
308.294;   99.099;   -6.411;  731.359
308.892;  100.712;   -2.901;  759.769
309.490;   96.195;   -5.041;  712.161
310.088;   94.044;   -5.002;  788.444
310.686;   99.038;   -2.041;  821.749
311.284;   95.309;   -2.351;  766.040
311.882;   91.772;   -4.422;  731.225
312.480;   89.259;   -4.192;  697.167
313.078;   90.972;   -1.172;  808.331
313.675;   92.118;   -2.601;  691.600
314.273;   86.338;   -1.312;  797.837
314.871;   85.059;   -3.942;  589.829
315.468;   84.249;   -2.802;  652.090
316.066;   86.802;   -0.701;  694.427
316.664;   79.140;   -4.362;  656.351
317.261;   83.092;   -2.872;  910.128
317.859;   79.218;   -2.022;  768.735
318.456;   79.310;   -0.531;  830.096
319.054;   74.446;   -3.912;  787.828
319.651;   73.184;   -4.752;  759.928
320.249;   72.960;   -2.602;  810.188
320.846;   71.600;   -0.821;  714.286
321.443;   67.371;   -4.642;  832.135
322.041;   64.672;   -5.002;  812.315
322.638;   62.658;   -3.982;  701.456
323.235;   63.964;   -3.411;  665.683
323.833;   61.127;   -7.361;  740.354
324.430;   55.026;   -8.611;  615.900
325.027;   56.317;   -4.061;  876.855
325.624;   56.244;   -4.031;  644.532
326.221;   53.520;   -7.481;  689.717
326.818;   52.826;   -5.281;  818.332
327.415;   55.653;   -7.460;  748.828
328.012;   55.625;   -5.510;  690.585
328.609;   53.469;   -7.880;  731.389
329.206;   51.154;   -8.331;  778.621
329.803;   51.083;   -5.121;  737.841
330.400;   54.546;   -4.510;  704.260
330.997;   56.016;   -6.441;  817.147
331.594;   54.933;   -8.831;  788.185
332.191;   59.266;   -7.621;  728.722
332.787;   63.456;   -4.591;  844.463
333.384;   62.501;   -7.412;  763.093
333.981;   60.895;   -8.293;  815.687
334.578;   64.271;   -7.052;  708.378
335.174;   65.779;   -3.102;  731.469
335.771;   64.816;   -5.943;  836.456
336.367;   63.214;   -7.393;  710.631
336.964;   66.416;   -4.063;  793.266
337.561;   64.894;   -3.813;  731.112
338.157;   60.249;   -4.654;  911.916
338.754;   59.521;   -7.934;  796.589
339.350;   57.043;   -4.414;  722.493
339.946;   58.587;   -4.664;  773.135
340.543;   51.288;   -6.375;  846.136
341.139;   44.931;   -9.815;  720.836
341.735;   41.660;   -4.526;  772.593
342.332;   41.141;   -4.895;  691.472
342.928;   41.547;   -4.295;  795.394
343.524;   35.061;   -5.476;  761.684
344.120;   30.998;   -5.856;  738.562
344.716;   34.710;   -2.155;  723.717
345.313;   31.601;   -6.275;  795.342
345.909;   26.338;   -8.815;  627.336
346.505;   27.607;   -5.305;  740.247
347.101;   28.961;   -2.674;  827.864
347.697;   28.306;   -4.344;  785.398
348.293;   23.027;   -9.975;  627.244
348.889;   24.413;   -5.774;  745.914
349.485;   23.981;   -5.004;  688.205
350.081;   24.836;   -4.704;  772.592
350.676;   19.177;   -6.635;  691.606
351.272;   23.781;   -4.504;  809.530
351.868;   22.983;   -3.914;  780.497
352.464;   20.746;   -9.044;  723.932
353.059;   16.671;   -8.314;  646.017
353.655;   20.164;   -7.024;  777.063
354.251;   20.568;   -5.343;  759.845
354.846;   15.817;   -8.604;  740.646
355.442;   13.908;   -6.945;  753.071
356.038;   15.212;   -7.564;  751.708
356.633;   15.656;   -5.814;  728.594
357.229;   12.983;   -7.364;  724.757
357.824;   11.615;   -8.024;  703.600
358.420;   10.783;   -9.384;  679.726
359.015;   11.247;   -5.104;  695.357
359.610;   12.046;   -6.854;  763.920
360.206;    6.351;  -10.185;  603.240
360.801;    9.250;   -7.054;  646.503
361.396;   11.284;   -5.034;  725.975
361.992;    7.377;   -8.284;  668.220
362.587;    4.095;   -8.625;  670.160
363.182;    6.158;   -7.674;  689.631
363.777;    6.673;   -5.164;  738.242
364.372;    6.637;   -8.604;  737.314
364.967;    1.112;   -9.055;  680.744
365.563;    6.916;   -6.114;  815.567
366.158;    4.505;   -5.814;  685.161
366.753;    4.055;   -7.854;  649.263
367.348;    1.636;   -7.804;  746.056
367.942;    2.647;   -7.954;  697.298
368.537;    1.361;   -4.984;  754.245
369.132;    1.020;   -8.564;  703.428
369.727;   -2.409;   -8.855;  638.079
370.322;   -0.457;   -6.245;  580.186
370.917;   -1.595;   -6.425;  710.646
371.511;    1.098;   -6.294;  861.834
372.106;   -2.696;   -7.685;  776.964
372.701;   -4.660;   -7.335;  585.988
373.296;   -0.116;   -4.564;  863.135
373.890;   -4.720;  -10.235;  647.840
374.485;   -6.820;   -7.885;  691.199
375.079;   -2.709;   -7.324;  738.685
375.674;   -1.207;   -3.494;  812.970
376.268;   -5.897;   -8.525;  691.759
376.863;  -11.719;  -10.086;  580.327
377.457;   -5.567;   -7.025;  662.490
378.052;   -7.318;   -3.585;  764.884
378.646;   -7.952;   -7.595;  741.167
379.240;   -8.031;   -8.335;  721.176
379.835;   -8.264;   -5.785;  636.978
380.429;  -10.102;   -4.335;  562.557
381.023;   -9.337;   -6.805;  779.205
381.617;  -12.072;   -9.195;  680.106
382.212;   -8.676;   -6.905;  685.303
382.806;   -7.973;   -3.745;  760.690
383.400;  -12.087;   -7.745;  672.281
383.994;  -13.786;   -9.765;  664.870
384.588;   -9.417;   -6.564;  697.701
385.182;   -7.110;   -5.344;  726.624
385.776;   -9.691;   -8.514;  706.875
386.370;  -13.198;   -9.555;  681.968
386.964;  -11.609;   -8.715;  684.155
387.558;  -10.485;   -6.174;  598.360
388.152;  -13.486;   -8.725;  681.959
388.745;  -11.460;   -7.965;  814.707
389.339;   -9.594;   -5.924;  747.642
389.933;   -8.641;   -5.524;  695.370
390.527;  -10.504;   -7.114;  859.029
391.120;  -16.490;  -10.725;  595.318
391.714;  -14.073;   -8.035;  711.633
392.308;   -9.668;   -3.574;  780.253
392.901;  -13.988;   -7.245;  642.460
393.495;  -15.572;   -9.285;  595.414
394.089;  -13.755;   -5.895;  760.452
394.682;  -14.386;   -4.295;  697.188
395.275;  -14.752;   -9.875;  719.927
395.869;  -16.508;   -8.485;  667.314
396.462;  -14.100;   -7.455;  616.609
397.056;  -10.761;   -5.424;  776.621
397.649;  -15.913;   -6.605;  731.575
398.242;  -13.696;   -8.224;  712.645
398.836;  -11.695;   -7.474;  766.408
399.429;  -12.387;   -7.094;  631.041
400.022;  -17.330;   -9.475;  665.902
400.615;  -14.220;   -7.145;  805.609
401.208;  -12.217;   -7.174;  691.451
401.802;  -14.698;   -5.515;  699.329
402.395;  -15.561;   -9.875;  683.502
402.988;  -17.115;   -8.845;  696.627
403.581;  -13.288;   -8.874;  646.878
404.174;  -10.897;   -5.324;  686.568
404.767;  -14.697;   -9.575;  638.583
405.360;  -17.319;  -10.965;  621.445
405.953;  -10.767;   -8.764;  759.034
406.545;  -10.862;   -7.514;  725.342
407.138;  -14.460;  -10.025;  618.350
407.731;  -13.486;  -10.034;  613.303
408.324;   -9.532;   -9.374;  660.554
408.917;  -10.556;   -6.534;  681.864
409.509;  -12.580;   -8.004;  740.396
410.102;  -15.011;   -9.875;  643.948
410.695;   -8.361;   -8.604;  665.758
411.287;   -9.988;   -6.794;  599.821
411.880;  -10.975;   -9.334;  585.421
412.472;  -14.101;  -10.254;  613.092
413.065;  -10.964;   -6.714;  629.408
413.657;   -9.194;   -7.234;  576.678
414.250;   -9.381;  -10.544;  646.681
414.842;  -10.900;   -9.744;  676.353
415.434;   -8.854;   -6.994;  570.463
416.027;   -4.625;   -5.893;  652.196
416.619;   -7.366;   -7.264;  713.400
417.211;   -7.175;  -10.374;  599.352
417.804;   -3.081;   -7.993;  628.499
418.396;   -7.421;   -7.234;  607.643
418.988;   -5.918;   -9.443;  659.238
419.580;   -9.613;  -10.724;  568.276
420.172;   -6.457;  -10.323;  536.196
420.764;   -2.250;   -8.793;  672.482
421.356;   -3.485;  -11.143;  636.898
421.948;   -4.723;   -8.293;  677.661
422.540;   -0.039;   -7.893;  680.027
423.132;   -0.349;   -7.082;  600.641
423.724;   -3.861;   -8.653;  561.267
424.316;   -1.410;  -10.213;  621.345
424.908;    2.023;   -9.762;  591.517
425.500;    2.143;   -5.572;  647.978
426.092;    3.357;   -8.422;  648.268
426.683;    2.118;   -9.283;  684.836
427.275;    4.555;   -7.852;  641.471
427.867;    6.381;   -5.272;  668.948
428.458;    6.544;   -7.682;  732.344
429.050;    4.190;  -10.612;  680.749
429.642;    7.506;   -9.882;  743.124
430.233;    7.467;   -6.962;  569.356
430.825;    8.884;   -6.842;  724.809
431.416;    6.236;   -9.672;  698.241
432.008;   10.318;   -6.552;  651.723
432.599;    9.981;   -6.891;  656.073
433.190;    7.136;  -10.912;  637.670
433.782;    6.690;  -11.172;  590.395
434.373;   14.458;   -6.061;  884.765
434.964;   13.344;   -8.251;  602.920
435.556;   10.444;   -9.722;  634.537
436.147;   12.872;   -9.082;  758.490
436.738;   13.480;   -8.041;  701.099
437.329;   19.089;   -7.341;  721.723
437.920;   10.635;   -8.162;  666.688
438.511;   11.285;  -11.802;  564.526
439.103;   18.307;  -10.191;  623.998
439.694;   19.746;   -7.601;  681.583
440.285;   20.508;   -8.541;  764.432
440.876;   18.368;   -9.751;  845.738
441.466;   19.004;   -9.401;  575.162
442.057;   23.735;   -7.760;  665.814
442.648;   21.474;   -9.971;  746.255
443.239;   20.542;  -11.001;  620.477
443.830;   24.860;   -7.990;  704.958
444.421;   26.499;   -7.910;  655.474
445.011;   23.275;   -8.131;  693.619
445.602;   22.694;   -7.111;  743.126
446.193;   24.611;  -10.920;  488.117
446.783;   29.487;   -6.500;  640.397
447.374;   24.879;   -8.671;  692.759
447.964;   24.631;  -10.781;  713.770
448.555;   33.976;   -9.650;  822.742
449.145;   30.824;   -8.660;  662.853
449.736;   31.890;   -8.990;  803.179
450.326;   31.011;   -9.500;  713.626
450.917;   35.966;   -8.680;  675.324
451.507;   35.087;   -7.520;  600.661
452.097;   35.536;   -8.590;  746.267
452.688;   36.907;  -11.340;  742.160
453.278;   36.762;  -10.100;  566.840
453.868;   40.957;   -6.019;  793.550
454.458;   37.817;   -9.440;  651.141
455.048;   38.861;  -10.560;  711.783
455.639;   41.041;  -11.799;  567.096
456.229;   44.429;   -6.899;  710.694
456.819;   46.074;   -7.389;  751.158
457.409;   46.088;  -11.119;  773.993
457.999;   48.966;   -9.289;  737.505
458.589;   48.525;   -6.139;  686.606
459.179;   48.209;   -8.729;  717.658
459.769;   46.707;   -9.789;  627.099
460.358;   51.233;  -10.259;  797.262
460.948;   51.213;   -7.299;  689.503
461.538;   53.325;  -10.289;  660.677
462.128;   50.964;  -11.269;  664.934
462.717;   57.570;   -9.368;  710.326
463.307;   60.771;   -7.908;  705.846
463.897;   55.824;   -9.599;  656.942
464.486;   55.131;   -9.769;  837.128
465.076;   60.308;   -8.048;  733.776
465.666;   64.577;   -9.358;  652.900
466.255;   61.476;   -7.919;  785.651
466.845;   60.909;  -11.689;  666.749
467.434;   63.686;   -7.818;  725.873
468.023;   64.169;   -7.678;  658.357
468.613;   61.854;  -10.939;  713.946
469.202;   66.382;  -10.118;  646.507
469.791;   70.648;   -9.108;  737.811
470.381;   72.141;   -6.058;  742.813
470.970;   71.776;  -10.428;  711.099
471.559;   71.249;  -10.268;  733.291
472.148;   75.151;   -8.448;  675.737
472.738;   77.525;   -6.917;  765.466
473.327;   77.249;  -11.978;  637.529
473.916;   76.258;  -11.888;  737.446
474.505;   80.558;   -9.437;  751.703
475.094;   83.777;   -6.747;  806.570
475.683;   83.005;   -9.367;  797.699
476.272;   83.974;  -12.637;  730.632
476.861;   87.043;  -10.027;  706.754
477.449;   93.105;   -8.716;  728.487
478.038;   87.255;   -9.577;  692.513
478.627;   88.761;   -9.718;  714.852
479.216;   95.561;   -8.947;  769.441
479.805;   99.102;   -6.256;  783.375
480.393;   98.645;   -7.937; 1008.945
480.982;   97.972;   -7.717;  874.501
481.571;  104.305;   -9.266;  858.333
482.159;  104.689;   -7.636;  705.386
482.748;  104.718;   -9.667;  821.385
483.336;  109.013;  -10.376;  858.209
483.925;  109.323;   -7.147;  774.373
484.513;  117.430;   -7.996;  758.962
485.102;  112.835;  -10.027;  810.965
485.690;  121.909;  -10.446; 1011.050
486.278;  123.406;   -8.446;  979.329
486.867;  124.224;   -6.356;  809.662
487.455;  126.611;   -9.136;  898.229
488.043;  128.669;  -10.646;  748.361
488.631;  137.616;   -7.456; 1005.079
489.220;  141.097;   -6.636;  908.626
489.808;  141.672;  -11.036;  741.415
490.396;  150.149;  -10.246;  914.645
490.984;  156.996;   -8.556;  830.161
491.572;  169.072;   -5.886;  940.315
492.160;  178.038;   -9.486;  919.081
492.748;  187.708;  -10.976;  884.341
493.336;  211.572;   -8.776; 1019.693
493.924;  244.784;   -5.465;  958.077
494.512;  283.105;   -9.986; 1066.638
495.100;  331.324;  -10.636; 1103.280
495.687;  400.965;  -10.885; 1206.373
496.275;  488.969;   -8.126; 1150.796
496.863;  575.384;  -10.586; 1281.171
497.451;  693.786;  -11.926; 1386.805
498.038;  810.002;  -10.885; 1556.729
498.626;  943.480;   -6.315; 1741.407
499.214; 1165.974;   -7.326; 2016.609
499.801; 1416.188;  -11.906; 2220.633
500.389; 1743.110;  -10.466; 2312.494
500.976; 2045.788;   -5.236; 2744.849
501.564; 2539.900;   -8.936; 3148.565
502.151; 3216.434;  -13.176; 3515.999
502.738; 3607.314;  -10.646; 3971.274
503.326; 4052.543;   -9.525; 4403.796
503.913; 4524.183;  -10.856; 5161.749
504.500; 4948.751;  -11.586; 5986.420
505.088; 5509.026;  -10.336; 6381.201
505.675; 6428.264;   -6.355; 6925.547
506.262; 7082.142;   -9.046; 7619.060
506.849; 7473.693;  -10.416; 8733.969
507.436; 7973.026;  -10.305; 9790.121
508.023; 8382.664;   -5.496; 9985.472
508.610; 8421.545;   -7.856;10434.618
509.197; 9379.093;  -10.097;11198.435
509.784;10735.516;  -10.886;12391.194
510.371;12156.975;   -9.315;13603.713
510.958;13298.556;   -9.936;14426.586
511.545;13766.443;   -9.326;15243.775
512.132;13942.345;  -10.075;15945.876
512.719;14404.409;   -7.796;16340.369
513.305;15593.846;  -10.606;18011.766
513.892;17185.438;  -11.486;19754.971
514.479;18452.285;   -9.126;20967.805
515.066;19821.523;   -6.026;22299.793
515.652;20019.064;   -8.466;22908.660
516.239;20511.268;  -10.886;23798.875
516.825;21940.387;  -11.496;25567.275
517.412;23451.469;   -5.796;28154.959
517.998;24709.723;  -10.506;28344.111
518.585;25474.152;  -10.076;27134.219
519.171;24946.885;   -8.315;27268.576
519.758;25510.389;   -8.596;28964.129
520.344;27938.930;   -8.466;30664.494
520.930;26973.764;  -11.006;32550.605
521.516;25322.188;  -10.495;35422.895
522.103;26875.086;   -5.526;38280.004
522.689;28932.918;   -8.746;37835.117
523.275;29848.383;  -11.376;37288.613
523.861;31475.953;  -11.156;37281.395
524.447;30668.105;   -8.135;37846.949
525.033;29256.080;   -7.896;38321.949
525.619;27462.213;  -12.476;38579.285
526.205;27030.840;   -9.516;40622.875
526.791;29412.967;   -6.926;42258.836
527.377;31929.430;   -8.346;42966.902
527.963;34881.770;   -8.717;42018.949
528.549;37075.387;  -11.016;42476.828
529.135;35734.258;   -8.536;41854.852
529.721;35565.074;   -9.666;41237.711
530.306;34561.605;  -10.066;41259.445
530.892;35392.414;  -11.356;41506.047
531.478;37452.523;   -6.596;43559.613
532.063;39223.492;   -8.836;47695.563
532.649;37433.211;  -10.047;50808.324
533.235;37117.191;   -9.746;51787.500
533.820;39367.859;   -6.566;52145.035
534.406;40995.023;  -10.817;51133.488
534.991;42658.172;   -9.416;49996.805
535.576;41250.566;   -9.036;48882.852
536.162;38606.078;   -6.156;46942.285
536.747;38891.594;  -11.607;45711.746
537.333;41438.500;  -11.787;48510.180
537.918;41867.586;  -12.437;50439.891
538.503;40871.563;   -7.196;50863.711
539.088;40634.125;  -10.556;50906.922
539.673;40736.273;   -8.767;52621.965
540.259;36468.730;  -10.026;52368.094
540.844;33097.496;   -7.416;50879.109
541.429;31218.566;   -9.467;52077.777
542.014;32000.873;   -9.527;52716.695
542.599;38282.953;   -9.946;52363.281
543.184;43279.156;   -7.927;53187.137
543.769;45001.887;   -9.297;54697.605
544.354;45621.500;  -10.127;53913.914
544.938;43536.656;   -9.267;49680.164
545.523;41416.340;   -6.506;47386.277
546.108;42975.555;   -9.787;49151.949
546.693;43734.746;  -11.587;51384.637
547.278;44350.352;  -10.986;51853.254
547.862;44860.637;   -8.206;51173.750
548.447;42831.551;  -10.067;51691.395
549.031;42467.633;   -9.637;52456.703
549.616;42958.910;   -9.926;52714.516
550.201;42166.504;   -6.347;52414.598
550.785;43064.824;   -7.917;52355.059
551.370;44123.559;  -10.867;54589.453
551.954;46480.164;   -9.047;58267.348
552.538;45841.305;   -7.827;59062.176
553.123;43818.227;  -10.287;58115.285
553.707;42920.883;  -12.178;56556.285
554.291;40389.520;   -8.717;56201.668
554.876;41274.941;   -7.457;55335.762
555.460;43307.188;  -10.387;54155.703
556.044;45036.926;   -9.618;53721.484
556.628;45868.887;  -11.567;53731.016
557.212;46327.820;   -8.097;54312.531
557.796;47665.816;  -11.077;53797.773
558.380;45513.777;  -11.108;56145.984
558.964;43992.773;   -9.057;57277.930
559.548;41648.297;   -6.977;56459.641
560.132;38433.000;  -11.457;54434.543
560.716;39882.656;  -11.378;54800.617
561.300;42160.750;   -9.577;57606.945
561.884;40991.098;   -7.127;58972.445
562.467;39279.668;   -7.118;57327.570
563.051;37936.813;  -13.358;54962.434
563.635;36317.480;  -10.178;52594.473
564.219;38119.715;   -7.837;50610.410
564.802;41601.188;  -11.398;49551.180
565.386;42069.328;  -12.788;48370.953
565.969;43338.785;   -9.077;48178.871
566.553;41889.949;   -6.207;49957.305
567.136;40081.379;   -8.568;50369.594
567.720;41020.934;  -11.868;49492.004
568.303;42151.902;   -8.268;50616.352
568.887;41784.758;   -8.698;50727.148
569.470;39885.594;   -6.808;51698.379
570.053;37799.348;  -13.188;52122.078
570.637;35445.172;  -12.037;52536.438
571.220;35192.316;   -8.577;51186.098
571.803;35494.176;   -8.498;51032.762
572.386;37529.484;  -10.498;49609.887
572.969;38302.754;   -9.388;48285.926
573.552;38677.324;   -8.338;47624.285
574.135;38065.570;   -8.518;45498.641
574.718;35449.238;  -13.628;41970.434
575.301;35910.664;  -10.893;41447.137
575.884;36372.094;   -8.158;40923.836
576.467;39996.391;  -10.328;45267.723
577.050;39616.199;  -13.058;48175.543
577.633;38331.430;   -9.458;47729.328
578.216;35112.129;   -8.928;47579.793
578.799;32627.156;   -9.358;47820.996
579.381;33860.707;  -11.388;48115.551
579.964;34559.082;  -11.718;47333.766
580.547;33484.352;   -8.588;46668.969
581.129;33846.016;   -8.859;44466.141
581.712;35432.484;  -10.729;44164.922
582.294;35247.180;  -11.118;46477.855
582.877;36014.203;   -5.218;48244.254
583.459;36063.801;   -8.679;47437.895
584.042;37190.004;  -10.709;46943.219
584.624;35255.934;  -11.669;46792.227
585.206;34133.320;   -8.218;46557.250
585.789;35582.758;  -10.569;45793.773
586.371;36095.824;  -11.859;43836.391
586.953;36702.559;  -10.719;42972.492
587.536;38145.176;   -7.198;42487.211
588.118;37597.945;   -8.720;42086.414
588.700;36719.758;  -10.439;43389.930
589.282;33999.402;   -9.198;43646.039
589.864;31872.137;   -9.199;43438.109
590.446;31884.582;  -11.319;43151.926
591.028;31520.992;  -11.159;42781.867
591.610;31915.162;  -11.779;42839.098
592.192;33014.047;   -7.668;42820.402
592.774;32112.926;  -11.949;40724.277
593.356;30069.441;  -12.129;39874.789
593.937;29810.982;  -10.669;39980.648
594.519;32482.777;   -6.509;42069.633
595.101;32702.322;  -10.849;42976.031
595.683;31535.354;  -11.679;44084.441
596.264;30688.209;   -9.049;43478.797
596.846;30245.816;   -8.849;43803.672
597.427;30308.748;   -9.570;42986.934
598.009;32132.469;  -12.620;42832.219
598.591;32165.498;  -10.039;42580.086
599.172;34017.148;  -10.369;43061.805
599.753;36168.203;   -9.140;41691.469
600.335;35560.723;  -11.430;40692.520
600.916;33208.906;   -9.939;39982.422
601.498;30256.367;   -8.479;40318.617
602.079;29930.453;  -10.920;40670.609
602.660;29649.254;  -11.480;41450.898
603.241;30342.410;  -11.699;41137.738
603.823;30644.510;   -9.579;38868.797
604.404;30236.807;  -10.620;38182.785
604.985;33008.648;  -10.450;38078.047
605.566;34038.031;   -9.129;38056.633
606.147;34799.105;   -7.510;37020.418
606.728;33594.953;  -10.660;37883.359
607.309;31965.492;  -11.740;38748.273
607.890;32114.520;   -9.759;38850.230
608.471;30729.313;   -8.250;37457.918
609.051;30724.035;   -9.240;36066.457
609.632;30780.691;  -12.120;35991.074
610.213;30433.111;   -9.110;37402.641
610.794;31539.752;   -8.030;38383.363
611.374;30123.830;   -8.110;40562.387
611.955;29810.357;  -13.560;38533.727
612.536;30852.623;  -11.400;36951.789
613.116;30409.637;   -8.070;37197.891
613.697;31167.863;  -10.830;38411.125
614.277;30892.145;  -11.641;38673.938
614.858;30320.701;  -13.310;37075.863
615.438;30352.051;   -7.460;35092.906
616.019;28559.834;   -7.601;33666.301
616.599;29278.066;  -12.020;34189.023
617.179;29068.791;  -11.780;36952.047
617.760;28156.076;   -8.570;39582.574
618.340;28636.283;  -11.471;38943.977
618.920;29244.086;  -11.170;37594.156
619.500;30120.320;  -11.071;37866.938
620.080;30457.980;   -7.750;37869.043
620.660;30689.023;  -12.711;36868.617
621.241;31635.996;  -10.211;36352.309
621.821;31213.023;  -10.961;35459.520
622.401;31423.965;   -7.720;35207.414
622.980;33432.070;   -8.981;35980.422
623.560;32182.281;   -9.331;37351.328
624.140;27924.271;   -9.850;34388.582
624.720;23797.326;   -7.451;32368.764
625.300;23336.133;   -9.070;32638.629
625.880;27672.148;  -12.601;34599.035
626.459;30771.416;  -11.751;36831.738
627.039;30669.443;   -9.281;38299.098
627.619;29886.559;   -8.801;38289.574
628.198;30226.678;  -12.071;37220.695
628.778;31167.939;   -9.461;37632.563
629.357;31924.869;   -8.491;38003.012
629.937;31333.146;   -9.721;38402.039
630.516;31775.633;   -9.951;37868.801
631.096;32846.547;  -11.731;35760.410
631.675;35104.918;   -8.572;35225.219
632.254;35066.254;  -11.282;35130.289
632.834;34023.051;  -13.322;35794.570
633.413;34963.887;  -10.301;35788.922
633.992;34835.914;   -8.582;34532.863
634.571;35737.566;   -8.352;33590.113
635.151;34976.602;  -11.912;34943.863
635.730;32784.457;  -10.511;35352.523
636.309;32617.650;   -7.731;35366.605
636.888;32197.646;   -9.952;36165.637
637.467;31485.223;  -11.672;37515.902
638.046;29965.178;   -8.901;39288.695
638.625;29242.605;   -7.912;38279.699
639.204;28671.721;  -10.022;37741.598
639.782;29966.914;  -12.252;38364.551
640.361;32176.699;  -10.041;36740.621
640.940;32273.131;  -11.161;34950.082
641.519;31481.471;   -9.701;34137.398
642.097;32455.713;  -11.271;35654.258
642.676;32617.090;   -8.651;35637.957
643.255;31733.709;   -8.711;36567.074
643.833;31116.332;   -9.581;37809.434
644.412;31610.908;  -13.711;37337.293
644.990;32959.422;  -11.811;37018.531
645.569;35881.617;   -9.411;36518.469
646.147;36527.758;  -10.291;36186.430
646.726;34663.996;  -12.401;36267.688
647.304;33062.898;  -10.411;36647.625
647.882;33771.254;   -9.651;39286.742
648.461;33770.613;   -9.631;39157.703
649.039;31304.641;  -11.881;35412.883
649.617;31073.535;   -9.661;34744.918
650.195;31746.750;   -9.301;35403.098
650.773;30964.666;  -10.511;35053.797
651.352;30746.887;  -11.521;33756.816
651.930;29393.385;  -12.211;31868.773
652.508;28273.568;   -9.171;33121.551
653.086;29688.264;   -9.371;33564.793
653.663;31989.246;  -13.161;34054.668
654.241;30926.813;  -13.031;35693.309
654.819;29008.158;   -9.371;36422.906
655.397;29572.387;  -10.511;38213.484
655.975;29942.336;  -10.371;39507.625
656.553;30630.230;  -10.051;39498.223
657.130;31284.434;  -10.061;40395.480
657.708;28285.559;   -9.561;39242.020
658.286;25687.527;  -11.511;38920.020
658.863;26007.744;  -10.261;40202.898
659.441;28694.070;   -7.531;39677.938
660.018;31508.590;   -9.501;40413.355
660.596;32103.631;  -13.301;39931.414
661.173;34743.801;  -11.211;39604.531
661.750;34144.488;   -9.951;39700.070
662.328;31461.271;   -9.390;39292.809
662.905;30128.678;  -11.330;38235.648
663.482;27348.400;   -9.050;36212.305
664.060;24859.121;   -8.240;35944.945
664.637;28704.859;  -10.050;35170.785
665.214;33513.156;  -11.760;34197.523
665.791;32593.516;  -10.530;34549.520
666.368;32177.801;   -9.690;35118.578
666.945;32183.625;   -9.320;36019.418
667.522;32843.004;  -11.860;36048.438
668.099;31852.031;  -10.770;36243.914
668.676;31943.145;   -6.260;35958.875
669.253;34230.516;   -7.000;37384.730
669.830;34483.059;  -10.190;36779.629
670.407;33339.719;   -9.550;35231.289
670.984;32849.941;   -9.260;35544.270
671.560;31430.094;   -9.280;35466.867
672.137;29736.148;  -11.810;34280.863
672.714;29713.816;  -11.490;34632.863
673.290;30392.082;   -7.740;35135.422
673.867;30825.121;  -10.660;36114.480
674.443;30237.020;  -12.230;36152.859
675.020;28692.766;  -10.450;35327.238
675.596;27168.348;   -9.260;35795.176
676.173;28024.244;  -10.780;35430.355
676.749;28806.857;  -13.690;33549.516
677.326;29876.975;  -11.980;32210.012
677.902;28172.768;   -8.630;32068.871
678.478;26396.855;  -10.730;32583.891
679.054;27814.109;  -10.520;32088.928
679.631;29280.514;  -11.920;30978.848
680.207;30517.746;   -7.490;33160.887
680.783;31806.951;   -9.860;35570.363
681.359;32342.969;  -13.380;36125.184
681.935;30933.768;  -12.480;35240.922
682.511;31427.146;   -7.900;34429.961
683.087;32061.004;   -7.710;34463.680
683.663;32660.531;  -11.480;34648.898
684.239;32183.934;  -14.090;34546.457
684.815;33059.484;   -7.560;35586.375
685.390;33262.352;   -9.910;35821.895
685.966;33114.656;  -11.159;35085.871
686.542;33634.266;  -11.169;34198.230
687.118;31957.031;   -5.959;32847.707
687.693;31965.100;  -10.329;32794.027
688.269;31486.086;  -12.059;33072.367
688.844;31981.293;  -10.909;33141.664
689.420;33080.141;   -8.019;33965.742
689.995;30141.365;   -8.399;34655.523
690.571;29634.641;  -10.949;33576.742
691.146;28952.332;   -9.619;32657.219
691.722;26871.287;   -8.999;32526.979
692.297;25711.912;  -11.589;33014.617
692.872;26232.533;  -11.739;34012.254
693.448;26514.152;  -11.059;34237.434
694.023;28467.674;  -10.139;34142.672
694.598;30802.000;   -9.029;34132.031
695.173;30740.643;  -13.319;34205.250
695.748;28122.920;  -10.169;32882.488
696.323;25578.338;   -8.339;32864.906
696.898;25044.551;   -8.169;33170.004
697.473;28255.578;  -12.309;32432.984
698.048;28245.172;  -10.989;31649.303
698.623;27146.393;   -9.329;30778.141
699.198;28700.404;   -9.849;31140.119
699.773;30058.904;  -12.329;31764.299
700.348;29896.535;  -10.389;31780.816
700.922;28041.963;   -9.269;32046.375
701.497;26298.354;   -9.329;32603.574
702.072;27912.941;  -10.789;34799.871
702.646;27662.846;  -10.839;35793.172
703.221;28176.350;   -9.099;35201.590
703.795;28879.088;  -10.939;34764.527
704.370;27632.199;  -12.859;34307.367
704.944;29000.189;  -11.559;33509.887
705.519;30153.258;   -7.939;31388.584
706.093;32132.971;  -10.499;31340.104
706.668;33055.977;  -11.289;32630.281
707.242;32079.379;  -11.509;32728.779
707.816;30748.553;   -9.639;32947.238
708.390;30256.242;  -11.429;33277.855
708.965;31312.721;  -11.869;33834.336
709.539;31328.975;  -11.689;33709.273
710.113;30896.303;  -10.478;33044.313
710.687;28337.361;  -10.228;31953.992
711.261;27595.982;  -13.698;30505.949
711.835;27343.418;  -13.378;30262.369
712.409;26921.479;   -9.698;31254.447
712.983;26531.223;  -11.898;32754.986
713.557;25436.832;  -15.138;34018.824
714.131;26804.404;  -14.098;34579.625
714.704;26835.164;   -9.958;33890.262
715.278;25998.342;  -10.028;33531.102
715.852;25049.145;  -11.148;33601.660
716.425;24614.904;   -9.068;33515.117
716.999;26229.035;  -10.038;33185.555
717.573;26818.992;   -9.798;33905.996
718.146;27677.271;  -12.378;35199.293
718.720;28079.695;  -11.918;35060.551
719.293;27064.172;   -8.088;34973.230
719.867;26155.701;  -10.888;36394.449
720.440;27089.957;  -11.938;36663.008
721.013;29230.057;  -12.818;35102.426
721.587;30717.164;  -10.298;33985.266
722.160;30374.084;  -10.048;33524.965
722.733;28500.736;  -12.108;32987.043
723.306;26546.551;  -10.818;33066.301
723.880;27196.002;   -8.908;33399.500
724.453;26251.820;   -9.878;33468.297
725.026;25726.348;  -11.188;33816.637
725.599;26015.275;  -11.678;32797.996
726.172;25766.180;   -9.618;33187.434
726.745;26672.076;   -8.258;35136.613
727.318;29291.176;  -12.978;35751.730
727.891;31221.049;  -12.148;35890.430
728.463;32697.934;   -8.968;34822.090
729.036;33067.816;  -10.188;32895.086
729.609;30734.863;  -11.788;31823.225
730.182;28822.457;  -11.788;31445.283
730.754;27925.123;  -10.268;32373.223
731.327;27616.635;   -9.998;33676.820
731.900;26632.611;  -12.228;33417.000
732.472;25636.418;  -13.848;31978.498
733.045;25510.441;   -8.698;30368.777
733.617;25017.381;  -10.607;30574.215
734.190;23613.123;  -11.507;31280.975
734.762;23982.416;  -13.647;31674.412
735.334;25540.592;   -9.767;31247.291
735.907;26036.398;   -9.897;29876.211
736.479;23937.789;  -11.637;29808.488
737.051;23050.900;   -9.567;30233.547
737.623;23941.447;   -8.187;31469.086
738.195;25927.777;  -11.187;31784.225
738.768;26258.893;  -12.337;32120.523
739.340;25581.348;  -12.227;32094.342
739.912;25047.965;  -11.057;31312.680
740.484;25902.547;  -10.207;31946.238
741.056;27129.428;  -10.047;32984.059
741.628;26748.330;  -13.627;33897.715
742.199;27219.721;   -7.177;33213.016
742.771;25526.770;  -10.797;31369.113
743.343;24004.068;  -11.997;31865.473
743.915;24211.887;  -12.867;32388.631
744.487;24761.920;   -7.617;31079.568
745.058;26138.541;   -9.557;30570.107
745.630;26071.631;   -9.877;29970.127
746.201;24888.895;  -14.177;29186.766
746.773;24386.264;   -9.237;28805.723
747.344;24413.066;   -9.847;29591.223
747.916;24468.410;  -11.657;31412.201
748.487;24118.170;  -10.587;32194.898
749.059;24024.387;   -8.707;32533.719
749.630;23199.684;  -10.537;32158.518
750.201;23556.479;  -11.687;30855.395
750.773;23652.979;  -11.647;28622.555
751.344;24841.125;   -7.147;28405.732
751.915;24725.936;   -9.757;28461.551
752.486;24337.527;  -12.427;27842.850
753.057;22780.605;  -12.227;27845.008
753.628;22318.951;  -10.417;27728.107
754.199;22462.439;  -11.767;27381.086
754.770;21872.229;  -11.187;25882.203
755.341;21268.098;  -10.507;25886.184
755.912;21403.777;   -9.387;26050.861
756.483;21748.865;  -10.647;26798.779
757.054;21503.074;  -11.837;27048.238
757.625;19809.984;  -12.716;26294.838
758.195;19079.031;   -9.666;26142.076
758.766;20034.311;   -8.656;26392.234
759.337;19901.500;  -12.856;26334.594
759.907;19132.131;  -13.366;27579.652
760.478;18192.547;   -8.576;28352.770
761.048;18852.625;  -10.526;27325.088
761.619;19520.133;  -11.116;26460.428
762.189;19080.541;  -12.136;26029.826
762.760;19054.432;   -9.456;26430.145
763.330;19249.385;   -7.136;26670.902
763.900;19359.873;  -11.786;26603.021
764.471;18712.139;  -11.546;25542.740
765.041;18370.699;   -8.096;24358.459
765.611;18337.398;   -8.876;23991.297
766.181;18293.436;  -12.196;24470.236
766.751;18939.902;  -11.636;24845.975
767.321;19041.018;  -10.156;24533.633
767.891;18825.645;  -11.766;24916.492
768.461;18512.572;  -14.936;24776.771
769.031;17702.922;  -12.356;24757.988
769.601;17461.500;   -7.526;24181.088
770.171;17734.492;  -10.766;23670.387
770.741;18160.791;  -13.176;22960.045
771.311;17733.619;  -10.616;22917.523
771.880;16583.199;   -9.576;23562.941
772.450;16086.427;  -10.336;24216.500
773.020;16250.938;  -13.516;24140.398
773.589;16110.845;  -13.466;24414.857
774.159;15583.551;   -8.686;23858.717
774.729;14954.585;   -9.476;22942.135
775.298;14843.954;  -13.666;22324.033
775.867;14764.838;  -11.716;21140.313
776.437;14208.938;   -9.906;20838.092
777.006;14040.531;  -12.166;20599.510
777.576;15199.688;  -12.356;20508.809
778.145;14568.366;  -11.646;20732.947
778.714;13236.226;   -8.226;21062.465
779.283;12768.533;   -9.556;20949.664
779.853;12580.557;  -14.116;20508.623
780.422;12800.140;  -11.506;20649.082
780.991;13166.471;   -9.556;21527.520
781.560;13766.117;   -9.095;22632.658
782.129;12749.287;  -12.135;23048.277
782.698;11454.426;  -10.865;23438.555
783.267;10841.444;   -9.335;23267.734
783.836;11168.157;  -11.045;22415.133
784.404;11844.477;  -13.865;20443.152
784.973;11997.992;  -13.095;19699.150
785.542;11861.311;  -11.575;19763.828
786.111;11675.514;   -9.705;20341.408
786.679;11544.790;  -12.105;20207.967
787.248;11294.404;  -12.455;19516.465
787.817;11170.636;  -11.535;18900.363
788.385;11018.323;   -9.765;17879.121
788.954;10859.893;  -14.005;17658.301
789.522;10719.388;  -11.955;17788.879
790.090; 9945.022;  -10.135;18118.277
790.659; 9111.256;  -10.975;18338.736
791.227; 9095.680;  -13.375;18508.615
791.795; 9401.476;  -12.375;17898.254
792.364; 9559.040;  -10.725;17295.133
792.932; 9866.813;   -9.715;16822.051
793.500; 9692.736;  -12.675;17040.148
794.068; 9925.182;  -13.495;17179.787
794.636;10002.165;  -10.885;16664.246
795.204; 9737.402;  -11.045;16524.545
795.772; 9791.899;  -13.175;17274.564
796.340; 9618.609;  -12.445;17891.002
796.908; 9834.248;   -9.735;17648.561
797.476;10221.938;   -9.815;17064.080
798.044; 9940.115;  -13.985;16672.777
798.612; 9540.238;  -13.115;17023.996
799.180; 8891.607;  -10.185;16561.615
799.747; 8579.229;   -9.055;15962.773
800.315; 8781.942;  -12.385;15296.992
800.883; 8283.971;  -15.035;14801.771
801.450; 7643.451;  -10.365;14534.430
802.018; 7374.209;   -9.855;14173.248
802.585; 7304.751;  -11.905;14029.547
803.153; 7493.007;  -11.585;13836.846
803.720; 7333.923;   -9.095;13567.324
804.287; 7282.787;   -9.135;13360.622
804.855; 7499.042;  -11.604;13681.981
805.422; 7850.629;  -11.794;13536.560
805.989; 8096.558;  -10.734;13355.958
806.556; 8089.092;  -10.444;13747.896
807.124; 8418.849;  -12.764;13987.376
807.691; 8944.863;  -12.964;14038.674
808.258; 9019.429;  -11.134;14120.152
808.825; 9052.144;   -9.854;13860.111
809.392; 8764.496;  -10.504;13268.790
809.959; 8154.979;  -13.054;12680.389
810.526; 7462.159;   -8.294;12427.308
811.093; 6800.920;   -8.394;12030.105
811.659; 6584.001;  -12.304;11653.664
812.226; 6759.192;  -13.944;11637.183
812.793; 7156.620;  -10.484;11611.521
813.360; 7315.649;  -10.144;11885.181
813.926; 7351.367;  -11.684;12770.539
814.493; 7275.859;  -13.644;12677.638
815.060; 7143.588;   -9.724;11974.336
815.626; 7323.938;   -9.854;11594.715
816.193; 7461.063;  -13.254;11579.474
816.759; 6885.250;  -13.204;11666.972
817.325; 6438.729;   -9.434;11325.530
817.892; 6286.486;  -10.134;11105.369
818.458; 6445.705;  -13.474;10843.928
819.024; 6942.211;  -11.854;10714.406
819.591; 7078.626;  -10.244;10469.165
820.157; 6841.382;  -10.704;10235.523
820.723; 6830.629;  -12.324;10847.563
821.289; 6768.462;   -9.444;11040.980
821.855; 6839.190;   -8.374;10357.100
822.421; 7185.365;  -10.234; 9978.918
822.987; 7150.762;  -13.294; 9754.177
823.553; 6775.920;  -10.884;10065.755
824.119; 6488.846;   -8.884;10036.294
824.685; 5975.920;   -6.784;10029.192
825.251; 5871.287;  -12.004;10199.230
825.816; 5612.076;  -11.474; 9820.189
826.382; 5383.941;   -9.174; 9297.248
826.948; 5666.458;   -9.214; 9381.347
827.513; 6095.028;  -10.774; 9450.726
828.079; 6201.730;  -11.924; 9472.444
828.645; 6004.912;  -10.543; 9292.643
829.210; 5872.467;  -10.533; 9065.341
829.776; 5766.210;  -10.753; 9132.620
830.341; 5921.352;  -10.173; 9092.878
830.906; 5935.831;  -10.743; 9078.557
831.472; 5650.828;  -11.113; 8534.535
832.037; 5249.615;  -10.603; 8677.874
832.602; 5128.609;  -13.323; 8628.692
833.167; 4902.961;  -10.823; 8879.031
833.733; 4752.833;  -10.113; 9189.790
834.298; 4602.852;  -13.583; 9052.608
834.863; 4782.988;  -12.703; 8895.087
835.428; 5026.031;  -10.523; 8824.266
835.993; 4977.269;   -6.963; 8845.385
836.558; 4928.980;  -10.763; 8888.563
837.123; 5034.262;   -9.903; 8966.582
837.688; 5379.517;   -9.913; 8617.860
838.253; 5420.611;  -10.283; 8590.699
838.817; 5047.808;  -12.963; 8443.797
839.382; 4911.131;  -14.243; 8799.356
839.947; 5058.862;  -10.733; 8810.595
840.511; 5098.587;   -9.383; 8796.394
841.076; 4937.194;  -12.563; 8347.231
841.641; 4748.612;  -12.953; 8224.330
842.205; 4603.440;   -7.043; 8223.349
842.770; 4385.626;   -8.163; 8622.107
843.334; 4517.432;  -12.503; 8410.386
843.898; 4660.035;  -11.693; 8337.465
844.463; 4236.056;  -10.203; 8506.283
845.027; 3927.241;   -9.533; 8280.962
845.591; 3960.589;  -13.443; 8231.141
846.156; 4043.416;  -13.143; 7969.179
846.720; 3879.848;   -9.433; 7768.278
847.284; 3768.566;  -11.033; 7630.957
847.848; 3760.833;  -10.403; 7472.395
848.412; 3605.703;  -11.553; 7437.394
848.976; 3522.863;   -8.393; 7674.592
849.540; 3484.902;   -8.713; 7836.011
850.104; 3475.201;  -12.463; 7913.669
850.668; 3555.523;  -12.973; 7694.508
851.232; 3528.218;  -10.793; 7756.887
851.796; 3534.190;  -10.662; 7926.545
852.359; 3618.860;  -13.082; 7827.844
852.923; 3591.259;  -12.192; 7641.163
853.487; 3599.019;  -11.912; 7342.501
854.050; 3461.582;  -10.892; 7042.820
854.614; 3498.420;  -13.992; 7151.338
855.177; 3574.643;  -11.732; 7105.077
855.741; 3460.269;   -8.962; 6989.675
856.304; 3318.337;   -9.442; 6596.634
856.868; 3188.578;  -14.192; 6356.272
857.431; 3128.899;  -12.702; 6468.571
857.995; 3127.993;   -9.942; 6373.210
858.558; 3217.413;   -9.112; 6324.448
859.121; 3138.425;  -12.932; 6408.327
859.684; 3040.733;  -13.442; 6347.886
860.247; 3015.105;  -10.632; 6321.264
860.810; 2964.690;  -11.272; 6301.903
861.374; 2876.934;   -9.832; 6607.881
861.937; 2785.705;  -11.762; 6408.200
862.500; 2783.426;   -9.722; 6572.639
863.062; 2779.100;  -10.512; 6387.297
863.625; 2787.445;  -11.232; 6190.836
864.188; 2836.730;  -14.112; 5807.254
864.751; 2858.065;  -11.302; 5682.413
865.314; 2735.151;  -10.112; 5547.492
865.876; 2549.774;  -12.182; 5500.150
866.439; 2387.523;  -10.722; 5415.909
867.002; 2293.794;   -9.252; 5501.567
867.564; 2355.160;   -9.572; 5413.946
868.127; 2405.915;  -13.142; 5160.325
868.689; 2505.706;  -12.902; 5133.183
869.252; 2637.874;   -9.732; 5252.382
869.814; 2576.727;   -9.432; 5297.141
870.377; 2465.880;  -11.552; 5390.919
870.939; 2451.354;   -9.052; 5599.898
871.501; 2410.479;  -10.982; 5248.336
872.063; 2309.297;  -12.292; 4854.235
872.626; 2248.637;  -14.912; 4817.074
873.188; 2146.757;  -13.112; 4987.732
873.750; 2115.846;  -13.442; 4868.651
874.312; 2091.599;   -9.402; 4779.330
874.874; 2061.435;  -11.062; 4866.348
875.436; 1986.929;  -13.931; 4718.887
875.998; 1941.136;   -9.561; 4660.005
876.560; 2046.570;  -11.321; 4462.964
877.122; 2195.290;  -12.221; 4145.042
877.683; 2258.969;  -12.191; 4056.481
878.245; 2017.054;  -12.101; 3950.740
878.807; 1644.328;   -8.971; 4058.958
879.369; 1260.837;  -12.071; 3954.677
879.930; 1036.129;  -14.621; 3941.495
880.492; 1026.733;  -10.311; 4067.014
881.053; 1133.398;  -10.901; 3859.633
881.615; 1220.336;  -14.411; 3776.071
882.176; 1236.216;  -13.761; 3734.750
882.738; 1222.091;   -9.181; 3678.489
883.299; 1250.478;  -11.791; 3405.407
883.860; 1298.952;  -13.121; 3351.106
884.422; 1282.355;  -11.211; 3394.044
884.983; 1229.268;  -10.091; 3166.443
885.544; 1206.139;   -8.461; 3189.802
886.105; 1159.337;  -12.361; 3160.360
886.666; 1107.994;  -14.141; 3093.059
887.227; 1086.398;  -11.361; 2941.957
887.788; 1042.484;  -11.401; 2974.836
888.349;  957.994;  -13.791; 2721.214
888.910;  918.958;  -13.191; 2696.493
889.471;  885.509;   -9.881; 2560.172
890.032;  894.203;   -9.881; 2558.190
890.593;  891.707;  -10.371; 2567.669
891.153;  809.181;  -13.301; 2460.307
891.714;  702.803;  -11.431; 2372.046
892.275;  654.373;  -11.291; 2309.505
892.835;  664.361;  -11.471; 2382.543
893.396;  661.346;  -11.541; 2295.502
893.956;  638.674;  -11.181; 2162.420
894.517;  600.074;  -11.741; 2125.439
895.077;  545.153;  -11.671; 2086.978
895.638;  505.378;  -11.311; 2126.316
896.198;  493.857;   -9.831; 1838.275
896.758;  480.939;   -8.421; 1892.813
897.319;  456.275;  -12.351; 1792.232
897.879;  439.127;  -13.511; 1762.751
898.439;  405.992;  -12.001; 1661.149
898.999;  385.615;  -10.180; 1781.468
899.559;  380.022;  -12.030; 1703.347
900.119;  372.192;  -15.710; 1537.525
900.679;  356.612;   -8.900; 1638.384
901.239;  335.703;   -8.340; 1527.902
901.799;  306.720;  -13.910; 1456.441
902.359;  284.060;  -13.460; 1357.140
902.919;  276.363;  -11.490; 1331.118
903.479;  276.924;  -12.110; 1317.257
904.038;  271.589;  -11.720; 1262.595
904.598;  263.131;  -13.610; 1152.034
905.158;  252.793;  -11.040; 1240.893
905.717;  236.847;  -10.900; 1233.691
906.277;  227.117;  -15.080; 1217.330
906.836;  224.071;  -13.380; 1222.408
907.396;  221.322;  -10.780; 1193.047
907.955;  213.483;   -8.500; 1182.526
908.515;  208.675;  -12.760; 1099.364
909.074;  208.322;  -11.900; 1092.863
909.633;  206.929;   -8.950; 1069.121
910.192;  204.829;   -8.770; 1196.460
910.752;  194.778;  -12.390; 1029.960
911.311;  185.013;  -13.680; 1009.780
911.870;  175.748;  -12.370;  971.460
912.429;  169.990;  -10.900; 1094.080
912.988;  167.364;  -11.690; 1081.060
913.547;  164.458;  -13.240;  940.380
914.106;  162.057;  -11.990;  999.420
914.665;  158.399;   -9.990;  984.020
915.224;  153.504;  -12.880; 1035.760
915.782;  150.339;  -12.350;  922.560
916.341;  149.616;   -9.110; 1049.840
916.900;  147.793;   -9.270;  925.260
917.458;  146.990;  -13.240;  884.220
918.017;  146.532;  -13.550;  942.600
918.576;  145.791;  -12.320;  904.440
919.134;  143.754;  -11.490;  837.980
919.693;  142.350;  -13.670;  893.060
920.251;  141.455;  -15.470;  876.500
920.809;  141.203;  -11.290;  839.580
921.368;  141.693;  -10.210;  885.360
921.926;  138.766;  -12.140;  842.940
922.484;  136.447;  -13.080;  903.360
923.042;  135.495;  -11.720;  880.340
923.601;  136.588;   -7.480;  998.680
924.159;  134.281;  -11.570;  935.560
924.717;  132.342;  -13.840;  841.080
925.275;  132.899;  -10.640;  903.240
925.833;  130.284;  -11.540;  779.320
926.391;  132.949;  -12.960;  938.380
926.949;  132.787;  -14.130;  857.680
927.506;  132.736;  -11.750;  903.500
928.064;  131.290;  -10.250;  877.580
928.622;  132.539;  -13.030;  880.100
929.180;  135.163;  -13.400;  814.180
929.737;  136.767;  -10.700;  808.540
930.295;  140.194;  -10.070;  928.480
930.853;  139.464;  -11.960;  849.100
931.410;  139.942;  -13.120;  821.120
931.968;  142.306;  -10.770;  940.660
932.525;  141.902;  -10.680;  909.380
933.082;  141.739;  -13.130;  811.440
933.640;  143.037;  -13.210;  925.900
934.197;  141.745;  -11.060;  886.360
934.754;  141.826;   -9.580;  897.780
935.312;  143.538;  -14.000;  863.340
935.869;  144.554;  -10.710; 1012.980
936.426;  143.278;   -9.860;  872.800
936.983;  143.393;   -9.710;  889.020
937.540;  144.395;  -13.990;  838.280
938.097;  148.843;  -14.040;  940.120
938.654;  151.583;  -10.310;  898.860
939.211;  152.794;  -10.560;  952.480
939.768;  152.226;  -13.900;  915.420
940.324;  155.789;  -14.760;  904.200
940.881;  158.744;  -10.370;  878.500
941.438;  162.869;   -8.260; 1021.200
941.995;  161.933;  -12.540;  992.560
942.551;  161.075;  -14.670;  875.620
943.108;  163.119;  -10.450;  937.920
943.664;  162.883;  -10.750;  869.340
944.221;  168.276;  -11.550; 1088.140
944.777;  166.758;  -14.770;  869.680
945.334;  164.931;  -12.820;  884.840
945.890;  158.965;  -10.130;  946.480
946.446;  155.823;  -13.470;  947.020
947.003;  157.029;  -12.120;  964.940
947.559;  158.019;   -9.980; 1063.040
948.115;  155.005;   -9.080; 1026.540
948.671;  151.862;  -10.830;  967.300
949.227;  151.593;  -12.440;  859.560
949.783;  151.471;  -12.910;  858.900
950.339;  155.867;  -10.270;  991.000
950.895;  156.630;  -13.630; 1023.840
951.451;  155.853;  -15.100;  925.280
952.007;  153.821;  -11.330;  998.540
952.563;  150.894;  -10.580;  937.780
953.118;  147.508;  -13.440;  904.940
953.674;  146.797;  -12.710;  935.780
954.230;  148.964;  -10.350;  949.640
954.785;  153.297;   -9.190;  936.640
955.341;  154.162;  -11.200;  998.160
955.897;  149.456;  -16.560;  834.660
956.452;  147.707;  -12.570;  953.840
957.008;  144.925;   -7.970; 1083.640
957.563;  141.508;  -11.940; 1009.540
958.118;  137.219;  -13.450;  877.700
958.674;  135.487;  -12.030;  946.780
959.229;  136.698;   -9.410; 1013.980
959.784;  135.676;  -12.000;  832.400
960.339;  137.350;  -14.780; 1001.280
960.894;  134.655;   -9.860;  963.760
961.449;  130.042;   -9.970;  859.960
962.004;  130.814;  -10.900; 1212.840
962.559;  128.533;  -13.150;  860.140
963.114;  127.685;  -13.740;  742.480
963.669;  126.118;   -9.820;  915.500
964.224;  124.672;  -13.890;  874.340
964.779;  124.732;  -12.600;  828.420
965.334;  125.825;  -10.950; 1017.860
965.888;  124.832;  -11.170;  875.360
966.443;  123.672;  -12.540;  972.380
966.998;  121.631;  -15.780;  819.460
967.552;  120.391;   -9.760;  908.380
968.107;  117.956;   -9.060;  868.300
968.661;  118.032;  -11.950;  922.440
969.216;  115.441;  -12.800;  856.280
969.770;  113.162;  -11.210;  917.200
970.324;  112.244;  -11.610;  923.140
970.879;  113.716;  -11.370;  947.180
971.433;  114.838;  -12.540;  952.720
971.987;  114.539;  -11.320;  895.340
972.541;  112.617;  -10.720;  917.100
973.095;  111.987;   -9.680; 1009.460
973.649;  109.204;  -11.440;  809.480
974.203;  106.926;  -11.210;  829.040
974.757;  106.422;  -10.240;  855.220
975.311;  105.865;  -13.720;  872.600
975.865;  106.092;  -13.770;  881.820
976.419;  102.197;  -11.690;  857.400
976.973;  100.213;   -9.510;  849.620
977.526;   99.257;  -12.620;  949.920
978.080;   97.238;  -12.010;  796.780
978.634;   96.466;  -10.170;  921.320
979.187;   95.536;   -9.020;  905.400
979.741;   98.047;   -9.820; 1018.380
980.294;   94.516;  -14.870;  789.160
980.848;   94.529;  -12.380;  717.220
981.401;   93.484;  -10.350;  816.540
981.955;   92.656;  -13.720;  844.300
982.508;   89.762;  -11.490;  746.340
983.061;   89.443;  -10.000;  915.260
983.615;   87.016;  -11.480;  798.800
984.168;   85.453;  -13.220;  770.080
984.721;   84.731;  -13.960;  880.760
985.274;   82.743;  -10.870;  867.500
985.827;   81.139;   -9.790;  834.220
986.380;   78.577;  -13.120;  721.340
986.933;   78.633;  -12.450;  864.800
987.486;   77.509;  -10.210;  861.920
988.039;   78.110;   -8.430;  863.100
988.591;   76.735;  -10.520;  893.260
989.144;   74.558;  -14.860;  737.260
989.697;   73.319;  -13.080;  758.740
990.250;   72.897;  -10.150;  858.100
990.802;   70.255;  -13.430;  755.860
991.355;   70.577;  -12.750;  974.880
991.907;   68.377;  -12.040;  864.320
992.460;   66.176;  -11.330;  753.760
993.012;   66.291;  -13.610;  749.540
993.565;   63.549;  -13.460;  711.360
994.117;   65.252;   -9.360;  950.780
994.669;   62.133;  -11.300;  701.320
995.221;   61.245;  -13.540;  791.920
995.774;   60.380;  -13.430;  787.580
996.326;   58.675;  -12.520;  740.220
996.878;   58.584;  -10.950;  838.420
997.430;   54.777;  -14.300;  699.860
997.982;   54.716;  -13.760;  750.140
998.534;   54.570;  -11.530;  739.060
999.086;   53.560;  -10.310;  738.220
999.638;   51.778;  -12.530;  661.380
1000.190;   50.833;  -11.840;  699.320
1000.741;   50.562;  -10.260;  742.700
1001.293;   51.009;   -8.860;  686.020
1001.845;   49.719;  -13.700;  676.640
1002.396;   49.644;  -12.100;  743.400
1002.948;   47.507;  -12.760;  737.400
1003.500;   46.468;  -10.380;  723.780
1004.051;   46.936;  -11.900;  907.580
1004.603;   46.409;  -12.250;  791.820
1005.154;   43.150;  -13.210;  608.980
1005.705;   42.960;  -10.950;  723.960
1006.257;   41.596;  -13.880;  707.220
1006.808;   41.022;  -12.840;  685.460
1007.359;   40.990;  -10.570;  763.240
1007.910;   39.782;   -9.620;  646.640
1008.461;   39.106;  -13.630;  732.940
1009.013;   38.417;  -17.200;  588.340
1009.564;   39.775;  -10.200;  793.520
1010.115;   37.339;  -12.570;  597.040
1010.665;   36.202;  -15.150;  602.160
1011.216;   36.865;  -14.480;  667.920
1011.767;   36.210;  -11.340;  697.920
1012.318;   36.607;   -9.780;  736.980
1012.869;   36.140;  -12.380;  679.000
1013.419;   35.109;  -15.560;  603.120
1013.970;   35.900;  -11.010;  666.640
1014.521;   35.396;  -11.610;  620.620
1015.071;   35.230;  -13.450;  670.380
1015.622;   34.489;  -13.870;  635.460
1016.172;   34.364;  -11.610;  596.820
1016.723;   33.986;  -12.120;  614.380
1017.273;   33.152;  -13.620;  604.160
1017.823;   34.010;  -14.140;  650.340
1018.374;   33.077;  -12.800;  611.760
1018.924;   32.872;  -12.340;  716.880
1019.474;   33.330;  -11.410;  718.880
1020.024;   31.932;  -14.770;  657.580
1020.574;   33.322;   -9.780;  726.160
1021.124;   32.939;   -8.560;  673.580
1021.674;   31.407;  -15.190;  559.120
1022.224;   32.335;  -13.530;  708.940
1022.774;   32.233;  -13.280;  668.820
1023.324;   32.848;  -10.690;  753.520
1023.874;   32.627;  -10.240;  875.760
1024.423;   31.471;  -12.540;  613.700
1024.973;   30.083;  -10.010;  610.760
1025.523;   29.961;  -10.550;  620.960
1026.072;   29.737;  -13.560;  606.420
1026.622;   30.304;  -15.120;  675.740
1027.172;   30.861;  -11.260;  715.660
1027.721;   29.451;  -11.410;  601.220
1028.270;   29.916;  -13.530;  663.400
1028.820;   29.214;  -13.680;  638.080
1029.369;   28.737;  -13.520;  612.700
1029.918;   28.340;  -10.980;  649.840
1030.468;   28.475;  -13.530;  564.780
1031.017;   28.408;  -13.170;  634.800
1031.566;   27.956;  -12.200;  608.900
1032.115;   27.907;   -9.960;  694.500
1032.664;   27.050;  -13.210;  596.480
1033.213;   28.185;  -12.500;  735.420
1033.762;   26.967;  -11.910;  635.620
1034.311;   27.327;   -9.640;  677.220
1034.860;   27.398;  -13.310;  691.000
1035.408;   27.641;  -11.830;  722.720
1035.957;   27.902;  -12.000;  719.540
1036.506;   26.136;  -11.690;  530.800
1037.055;   28.223;  -10.990;  844.320
1037.603;   26.358;  -15.120;  664.000
1038.152;   24.762;  -12.450;  534.760
1038.700;   25.437;  -10.560;  585.740
1039.249;   25.462;  -11.080;  681.220
1039.797;   25.380;  -12.540;  633.360
1040.345;   25.750;  -11.920;  705.420
1040.894;   25.173;  -11.410;  625.300
1041.442;   24.422;  -14.320;  632.200
1041.990;   24.384;  -16.240;  559.160
1042.538;   23.653;  -11.680;  536.180
1043.087;   23.689;  -10.760;  570.860
1043.635;   24.668;  -11.850;  670.500
1044.183;   23.572;  -15.480;  586.400
1044.731;   23.788;  -11.770;  576.000
1045.279;   23.245;  -13.090;  674.920
1045.827;   25.486;  -12.440;  892.400
1046.374;   23.055;  -13.840;  515.420
1046.922;   22.587;  -13.220;  590.580
1047.470;   23.092;  -10.230;  691.300
1048.018;   22.917;  -14.590;  647.960
1048.565;   24.046;  -12.050;  708.600
1049.113;   22.160;  -11.650;  557.000
1049.660;   21.962;  -10.510;  629.660
1050.208;   22.304;  -13.310;  675.640
1050.755;   21.640;  -15.900;  606.580
1051.303;   22.190;  -11.430;  686.820
1051.850;   21.360;   -8.480;  635.120
1052.397;   19.705;  -15.010;  473.960
1052.945;   20.867;  -13.960;  617.760
1053.492;   22.258;  -13.150;  741.840
1054.039;   22.114;   -9.630;  720.180
1054.586;   20.642;  -13.680;  557.240
1055.133;   21.315;  -14.570;  693.140
1055.680;   21.146;  -13.820;  646.620
1056.227;   20.461;  -11.730;  542.780
1056.774;   21.657;  -12.480;  794.980
1057.321;   19.325;  -13.930;  523.260
1057.868;   19.778;  -11.690;  651.320
1058.415;   19.707;   -9.520;  651.980
1058.961;   19.342;  -13.160;  678.940
1059.508;   19.452;  -12.920;  643.820
1060.055;   19.308;  -11.920;  581.780
1060.601;   19.875;  -11.500;  624.300
1061.148;   19.070;  -14.330;  616.820
1061.694;   18.917;  -16.870;  592.580
1062.241;   18.416;  -10.330;  596.320
1062.787;   19.222;  -10.620;  663.140
1063.334;   20.130;  -10.110;  808.560
1063.880;   18.420;  -13.400;  668.360
1064.426;   18.807;  -10.680;  706.820
1064.972;   17.857;   -9.920;  601.340
1065.518;   17.866;  -10.980;  566.640
1066.065;   18.339;  -14.890;  624.460
1066.611;   17.785;  -12.870;  598.800
1067.157;   17.981;  -12.950;  641.860
1067.703;   17.764;  -13.540;  668.480
1068.249;   17.013;  -13.540;  605.220
1068.794;   16.730;  -12.600;  626.880
1069.340;   16.193;  -10.620;  578.960
1069.886;   16.939;  -12.830;  590.700
1070.432;   15.446;  -14.870;  541.720
1070.977;   16.159;  -11.980;  601.080
1071.523;   16.252;   -8.200;  573.060
1072.068;   16.253;  -12.330;  582.000
1072.614;   16.095;  -16.370;  527.760
1073.160;   16.496;  -11.100;  687.040
1073.705;   15.039;  -10.480;  572.520
1074.250;   15.565;  -14.520;  559.900
1074.796;   16.204;  -11.460;  655.160
1075.341;   15.715;  -11.950;  664.100
1075.886;   15.484;  -11.460;  594.240
1076.431;   15.405;  -13.770;  649.880
1076.976;   14.809;  -12.680;  639.220
1077.521;   15.210;  -13.170;  583.080
1078.067;   13.934;  -10.860;  579.400
1078.612;   15.682;  -13.920;  661.620
1079.156;   14.361;  -13.880;  601.540
1079.701;   15.233;  -13.120;  693.260
1080.246;   15.806;   -9.940;  696.300
1080.791;   13.531;  -14.740;  625.020
1081.336;   14.871;  -13.750;  659.320
1081.880;   13.960;  -13.400;  649.680
1082.425;   13.914;  -12.220;  573.480
1082.970;   15.048;  -11.610;  717.040
1083.514;   13.331;  -13.580;  597.000
1084.059;   12.803;  -12.810;  586.720
1084.603;   12.754;  -12.320;  565.840
1085.147;   13.924;  -13.190;  645.220
1085.692;   14.292;  -12.480;  716.800
1086.236;   12.116;  -13.020;  503.140
1086.780;   14.480;   -9.190;  751.440
1087.325;   13.420;  -12.480;  654.620
1087.869;   13.447;  -12.450;  610.700
1088.413;   13.233;  -12.240;  705.040
1088.957;   11.786;   -9.020;  543.400
1089.501;   12.680;  -10.320;  766.640
1090.045;   12.817;  -12.720;  726.480
1090.589;   11.095;  -13.690;  569.920
1091.133;   12.619;  -10.020;  673.340
1091.676;   11.997;  -12.330;  591.940
1092.220;   12.216;  -14.970;  600.920
1092.764;   12.150;  -12.430;  706.960
1093.307;   12.068;   -9.800;  673.780
1093.851;   10.368;  -14.970;  556.540
1094.395;   11.613;  -15.310;  683.140
1094.938;   10.491;  -10.370;  632.520
1095.482;   11.025;  -11.050;  559.800
1096.025;   11.489;  -11.840;  710.880
1096.568;   12.120;  -12.840;  779.280
1097.112;   10.473;  -14.700;  508.180
1097.655;   11.093;   -8.720;  603.000
1098.198;    9.916;  -13.610;  600.180
1098.741;    8.960;  -13.350;  612.860
1099.285;   10.514;  -11.230;  657.300
1099.828;    9.031;  -11.840;  439.400
1100.371;    9.705;  -10.840;  608.160
1100.914;    9.868;  -14.190;  682.660
1101.457;    9.443;  -11.240;  679.900
1101.999;    8.680;  -11.270;  584.680
1102.542;    9.665;  -11.480;  641.440
1103.085;    9.653;  -11.750;  658.500
1103.628;    9.918;  -11.400;  762.060
1104.170;    9.083;  -10.490;  588.280
1104.713;    9.941;  -10.600;  646.700
1105.256;    8.195;  -14.360;  557.440
1105.798;    7.980;  -13.210;  499.980
1106.341;    9.393;  -10.270;  728.900
1106.883;    8.273;  -12.200;  521.340
1107.425;    9.011;  -13.110;  668.180
1107.968;    8.272;  -12.840;  612.380
1108.510;    9.165;   -6.480;  684.960
1109.052;    7.440;  -13.940;  612.620
1109.594;    8.010;  -13.690;  554.440
1110.136;    8.646;  -11.880;  643.220
1110.679;    7.895;   -9.500;  633.080
1111.221;    8.085;  -14.160;  604.460
1111.763;    8.011;  -13.980;  559.220
1112.304;    7.159;  -13.880;  547.140
1112.846;    7.120;  -12.210;  666.240
1113.388;    9.978;  -11.390;  942.180
1113.930;    7.405;  -14.540;  694.200
1114.472;    6.757;  -12.640;  606.540
1115.013;    6.138;  -11.620;  551.280
1115.555;    6.192;  -13.640;  587.100
1116.097;    5.444;  -15.380;  579.480
1116.638;    6.958;  -12.640;  684.600
1117.180;    7.819;   -9.850;  667.740
1117.721;    6.545;  -13.690;  568.580
1118.262;    7.162;  -12.680;  677.960
1118.804;    6.776;  -12.530;  637.340
1119.345;    5.161;  -11.690;  578.400
1119.886;    6.559;  -13.380;  704.040
1120.427;    5.362;  -14.070;  589.020
1120.969;    5.345;  -13.500;  597.920
1121.510;    5.074;  -11.480;  563.060
1122.051;    5.765;  -12.830;  723.580
1122.592;    5.375;  -14.290;  655.420
1123.133;    4.509;  -12.400;  547.940
1123.673;    6.073;  -10.130;  706.480
1124.214;    5.724;  -12.930;  612.460
1124.755;    5.897;  -14.380;  639.460
1125.296;    5.305;  -14.000;  627.320
1125.836;    5.778;  -10.070;  691.500
1126.377;    4.811;  -12.640;  599.660
1126.918;    5.416;  -12.960;  614.980
1127.458;    4.105;  -13.350;  622.220
1127.999;    5.565;  -10.750;  656.980
1128.539;    4.928;  -12.350;  694.240
1129.079;    5.165;  -14.860;  632.720
1129.620;    4.037;  -13.840;  558.100
1130.160;    4.262;  -12.330;  539.480
1130.700;    4.023;  -14.530;  640.840
1131.240;    4.728;  -12.530;  643.700
1131.781;    4.347;  -14.450;  619.680
1132.321;    4.078;   -9.790;  599.120
1132.861;    2.692;  -14.860;  564.200
1133.401;    3.023;  -14.290;  593.940
1133.941;    3.239;  -11.750;  626.280
1134.481;    3.298;   -9.920;  597.580
1135.020;    3.417;  -12.290;  609.160
1135.560;    3.832;  -11.650;  674.940
1136.100;    2.775;  -16.270;  501.160
1136.640;    2.354;  -10.890;  510.480
1137.179;    2.926;  -14.180;  537.960
1137.719;    2.786;  -16.250;  605.400
1138.258;    2.608;  -14.230;  587.360
1138.798;    3.487;   -9.090;  663.780
1139.337;    1.509;  -15.130;  482.840
1139.877;    3.100;  -13.680;  642.360
1140.416;    4.870;  -11.320;  878.060
1140.955;    2.754;  -10.860;  535.380
1141.494;    2.390;  -12.920;  669.280
1142.034;    1.330;  -13.930;  583.520
1142.573;    2.848;  -11.440;  646.280
1143.112;    1.709;  -12.000;  553.480
1143.651;    2.073;  -13.670;  536.480
1144.190;    2.333;  -12.730;  691.640
1144.729;    2.042;  -14.560;  607.420
1145.267;    1.880;  -11.830;  584.900
1145.806;    2.735;  -12.230;  637.040
1146.345;    1.582;  -14.130;  635.020
1146.884;    1.978;  -11.590;  622.500
1147.422;    1.211;  -12.550;  533.060
1147.961;    2.989;  -11.180;  708.460
1148.500;    2.261;  -11.510;  669.720
1149.038;    2.432;  -11.640;  632.500
1149.577;    2.093;  -10.130;  698.640
1150.115;   -0.240;  -13.970;  452.280
1150.653;    1.397;  -14.520;  607.340
1151.192;    1.483;  -12.810;  552.920
1151.730;    1.224;   -9.100;  652.560
1152.268;    0.623;  -12.220;  589.520
1152.806;    0.379;  -14.140;  571.180
1153.344;    0.284;  -12.350;  577.640
1153.882;    0.864;   -8.980;  600.060
1154.421;   -0.632;  -15.190;  470.620
1154.958;    0.069;  -15.210;  595.240
1155.496;    1.805;  -12.850;  645.280
1156.034;    0.697;   -9.940;  721.880
1156.572;    1.005;  -13.570;  667.060
1157.110;   -0.933;  -14.590;  473.940
1157.647;    1.618;  -13.030;  676.960
1158.185;   -0.364;  -12.140;  564.320
1158.723;   -1.208;  -14.390;  509.200
1159.260;    0.268;  -14.090;  701.700
1159.798;    0.679;  -11.920;  658.160
1160.335;    0.367;  -11.110;  631.820

