
Integration time [ms]:   3.276
Averaging Nr. [scans]: 1000
Smoothing Nr. [pixels]: 0
Data measured with spectrometer [name]: 7414430SP
Wave   ;Sample   ;Dark     ;Reference
[nm]   ;[counts] ;[counts] ;[counts] 

288.544;  156.529;    7.793;  793.890
289.143;  159.830;    7.462;  681.602
289.742;  160.877;    8.602;  828.814
290.341;  148.738;    1.321;  789.841
290.940;  138.215;   -0.709;  730.702
291.538;  138.367;    0.881;  881.108
292.137;  137.935;    0.122;  792.581
292.736;  141.087;   -1.929;  975.101
293.335;  137.834;   -8.229;  735.086
293.934;  138.204;   -5.279;  781.677
294.532;  136.941;   -1.369; 1031.958
295.131;  123.176;   -7.641;  834.394
295.730;  123.549;   -8.420;  809.588
296.328;  122.208;   -5.611;  783.442
296.927;  121.586;   -5.781;  779.652
297.525;  122.199;   -6.361;  781.236
298.124;  112.591;  -11.382;  654.009
298.722;  117.213;   -7.641;  761.933
299.321;  115.231;   -6.811;  708.597
299.919;  112.535;   -6.991;  751.918
300.518;  109.281;  -10.362;  689.338
301.116;  109.911;   -9.581;  691.381
301.715;  110.145;   -4.891;  730.222
302.313;  109.982;   -8.801;  704.943
302.911;  105.314;   -8.522;  733.830
303.509;  110.507;   -6.171;  925.627
304.108;  107.611;   -7.311;  760.383
304.706;  106.649;   -8.321;  801.664
305.304;  101.499;  -10.222;  796.707
305.902;  106.198;   -6.021;  784.484
306.500;  101.876;   -4.971;  728.200
307.098;  100.531;   -7.061;  746.560
307.696;   98.560;   -8.801;  780.432
308.294;   99.198;   -6.411;  731.359
308.892;  101.141;   -2.901;  759.769
309.490;   96.382;   -5.041;  712.161
310.088;   94.496;   -5.002;  788.444
310.686;   98.934;   -2.041;  821.749
311.284;   95.375;   -2.351;  766.040
311.882;   92.901;   -4.422;  731.225
312.480;   88.861;   -4.192;  697.167
313.078;   90.636;   -1.172;  808.331
313.675;   91.705;   -2.601;  691.600
314.273;   87.094;   -1.312;  797.837
314.871;   85.426;   -3.942;  589.829
315.468;   83.116;   -2.802;  652.090
316.066;   86.811;   -0.701;  694.427
316.664;   80.122;   -4.362;  656.351
317.261;   83.655;   -2.872;  910.128
317.859;   78.839;   -2.022;  768.735
318.456;   79.688;   -0.531;  830.096
319.054;   74.639;   -3.912;  787.828
319.651;   73.804;   -4.752;  759.928
320.249;   73.096;   -2.602;  810.188
320.846;   70.386;   -0.821;  714.286
321.443;   67.166;   -4.642;  832.135
322.041;   64.539;   -5.002;  812.315
322.638;   63.254;   -3.982;  701.456
323.235;   63.698;   -3.411;  665.683
323.833;   60.378;   -7.361;  740.354
324.430;   55.301;   -8.611;  615.900
325.027;   56.331;   -4.061;  876.855
325.624;   57.124;   -4.031;  644.532
326.221;   54.170;   -7.481;  689.717
326.818;   52.830;   -5.281;  818.332
327.415;   56.145;   -7.460;  748.828
328.012;   55.739;   -5.510;  690.585
328.609;   54.240;   -7.880;  731.389
329.206;   51.769;   -8.331;  778.621
329.803;   51.015;   -5.121;  737.841
330.400;   54.038;   -4.510;  704.260
330.997;   57.058;   -6.441;  817.147
331.594;   54.543;   -8.831;  788.185
332.191;   59.411;   -7.621;  728.722
332.787;   63.365;   -4.591;  844.463
333.384;   63.720;   -7.412;  763.093
333.981;   60.634;   -8.293;  815.687
334.578;   63.370;   -7.052;  708.378
335.174;   67.048;   -3.102;  731.469
335.771;   65.440;   -5.943;  836.456
336.367;   63.197;   -7.393;  710.631
336.964;   66.204;   -4.063;  793.266
337.561;   64.945;   -3.813;  731.112
338.157;   60.443;   -4.654;  911.916
338.754;   58.757;   -7.934;  796.589
339.350;   57.024;   -4.414;  722.493
339.946;   57.991;   -4.664;  773.135
340.543;   50.608;   -6.375;  846.136
341.139;   45.395;   -9.815;  720.836
341.735;   41.689;   -4.526;  772.593
342.332;   40.473;   -4.895;  691.472
342.928;   41.151;   -4.295;  795.394
343.524;   35.035;   -5.476;  761.684
344.120;   30.643;   -5.856;  738.562
344.716;   34.773;   -2.155;  723.717
345.313;   31.763;   -6.275;  795.342
345.909;   26.015;   -8.815;  627.336
346.505;   28.521;   -5.305;  740.247
347.101;   28.619;   -2.674;  827.864
347.697;   28.595;   -4.344;  785.398
348.293;   23.824;   -9.975;  627.244
348.889;   24.100;   -5.774;  745.914
349.485;   24.194;   -5.004;  688.205
350.081;   24.714;   -4.704;  772.592
350.676;   18.110;   -6.635;  691.606
351.272;   23.559;   -4.504;  809.530
351.868;   22.623;   -3.914;  780.497
352.464;   21.583;   -9.044;  723.932
353.059;   17.535;   -8.314;  646.017
353.655;   19.404;   -7.024;  777.063
354.251;   21.339;   -5.343;  759.845
354.846;   15.777;   -8.604;  740.646
355.442;   13.723;   -6.945;  753.071
356.038;   15.080;   -7.564;  751.708
356.633;   15.382;   -5.814;  728.594
357.229;   13.311;   -7.364;  724.757
357.824;   11.665;   -8.024;  703.600
358.420;   10.750;   -9.384;  679.726
359.015;   10.717;   -5.104;  695.357
359.610;   12.608;   -6.854;  763.920
360.206;    6.158;  -10.185;  603.240
360.801;    8.737;   -7.054;  646.503
361.396;   11.606;   -5.034;  725.975
361.992;    6.321;   -8.284;  668.220
362.587;    4.214;   -8.625;  670.160
363.182;    4.807;   -7.674;  689.631
363.777;    6.958;   -5.164;  738.242
364.372;    6.290;   -8.604;  737.314
364.967;    2.278;   -9.055;  680.744
365.563;    6.650;   -6.114;  815.567
366.158;    3.955;   -5.814;  685.161
366.753;    3.925;   -7.854;  649.263
367.348;    2.457;   -7.804;  746.056
367.942;    2.616;   -7.954;  697.298
368.537;    1.597;   -4.984;  754.245
369.132;    2.109;   -8.564;  703.428
369.727;   -2.430;   -8.855;  638.079
370.322;   -1.006;   -6.245;  580.186
370.917;   -1.820;   -6.425;  710.646
371.511;    0.706;   -6.294;  861.834
372.106;   -2.998;   -7.685;  776.964
372.701;   -5.286;   -7.335;  585.988
373.296;    0.168;   -4.564;  863.135
373.890;   -4.941;  -10.235;  647.840
374.485;   -6.491;   -7.885;  691.199
375.079;   -2.687;   -7.324;  738.685
375.674;   -1.161;   -3.494;  812.970
376.268;   -6.614;   -8.525;  691.759
376.863;  -10.997;  -10.086;  580.327
377.457;   -5.314;   -7.025;  662.490
378.052;   -7.595;   -3.585;  764.884
378.646;   -7.610;   -7.595;  741.167
379.240;   -8.651;   -8.335;  721.176
379.835;   -8.127;   -5.785;  636.978
380.429;  -10.164;   -4.335;  562.557
381.023;  -10.114;   -6.805;  779.205
381.617;  -12.842;   -9.195;  680.106
382.212;   -8.801;   -6.905;  685.303
382.806;   -7.934;   -3.745;  760.690
383.400;  -11.488;   -7.745;  672.281
383.994;  -12.484;   -9.765;  664.870
384.588;   -9.750;   -6.564;  697.701
385.182;   -8.376;   -5.344;  726.624
385.776;   -9.377;   -8.514;  706.875
386.370;  -12.746;   -9.555;  681.968
386.964;  -12.031;   -8.715;  684.155
387.558;   -9.680;   -6.174;  598.360
388.152;  -13.493;   -8.725;  681.959
388.745;  -11.320;   -7.965;  814.707
389.339;   -9.513;   -5.924;  747.642
389.933;   -9.188;   -5.524;  695.370
390.527;  -10.544;   -7.114;  859.029
391.120;  -16.881;  -10.725;  595.318
391.714;  -13.809;   -8.035;  711.633
392.308;  -10.668;   -3.574;  780.253
392.901;  -14.382;   -7.245;  642.460
393.495;  -16.587;   -9.285;  595.414
394.089;  -13.487;   -5.895;  760.452
394.682;  -14.673;   -4.295;  697.188
395.275;  -14.723;   -9.875;  719.927
395.869;  -15.895;   -8.485;  667.314
396.462;  -14.977;   -7.455;  616.609
397.056;  -11.666;   -5.424;  776.621
397.649;  -15.845;   -6.605;  731.575
398.242;  -13.384;   -8.224;  712.645
398.836;  -13.136;   -7.474;  766.408
399.429;  -14.311;   -7.094;  631.041
400.022;  -17.224;   -9.475;  665.902
400.615;  -15.008;   -7.145;  805.609
401.208;  -12.821;   -7.174;  691.451
401.802;  -14.888;   -5.515;  699.329
402.395;  -16.139;   -9.875;  683.502
402.988;  -17.723;   -8.845;  696.627
403.581;  -13.783;   -8.874;  646.878
404.174;  -11.943;   -5.324;  686.568
404.767;  -14.536;   -9.575;  638.583
405.360;  -16.855;  -10.965;  621.445
405.953;  -12.423;   -8.764;  759.034
406.545;  -11.803;   -7.514;  725.342
407.138;  -15.216;  -10.025;  618.350
407.731;  -13.977;  -10.034;  613.303
408.324;  -10.242;   -9.374;  660.554
408.917;  -10.701;   -6.534;  681.864
409.509;  -12.799;   -8.004;  740.396
410.102;  -15.386;   -9.875;  643.948
410.695;   -8.848;   -8.604;  665.758
411.287;  -10.498;   -6.794;  599.821
411.880;  -11.186;   -9.334;  585.421
412.472;  -14.492;  -10.254;  613.092
413.065;  -11.273;   -6.714;  629.408
413.657;  -10.006;   -7.234;  576.678
414.250;   -9.288;  -10.544;  646.681
414.842;  -11.655;   -9.744;  676.353
415.434;   -9.810;   -6.994;  570.463
416.027;   -5.091;   -5.893;  652.196
416.619;   -7.084;   -7.264;  713.400
417.211;   -7.567;  -10.374;  599.352
417.804;   -4.247;   -7.993;  628.499
418.396;   -8.482;   -7.234;  607.643
418.988;   -5.443;   -9.443;  659.238
419.580;   -9.208;  -10.724;  568.276
420.172;   -6.831;  -10.323;  536.196
420.764;   -2.871;   -8.793;  672.482
421.356;   -4.139;  -11.143;  636.898
421.948;   -5.118;   -8.293;  677.661
422.540;    0.189;   -7.893;  680.027
423.132;   -0.873;   -7.082;  600.641
423.724;   -4.652;   -8.653;  561.267
424.316;   -1.667;  -10.213;  621.345
424.908;    1.196;   -9.762;  591.517
425.500;    2.270;   -5.572;  647.978
426.092;    2.742;   -8.422;  648.268
426.683;    1.745;   -9.283;  684.836
427.275;    4.208;   -7.852;  641.471
427.867;    5.306;   -5.272;  668.948
428.458;    6.442;   -7.682;  732.344
429.050;    4.100;  -10.612;  680.749
429.642;    7.040;   -9.882;  743.124
430.233;    7.104;   -6.962;  569.356
430.825;    7.530;   -6.842;  724.809
431.416;    5.855;   -9.672;  698.241
432.008;    9.616;   -6.552;  651.723
432.599;   10.197;   -6.891;  656.073
433.190;    7.711;  -10.912;  637.670
433.782;    6.610;  -11.172;  590.395
434.373;   13.924;   -6.061;  884.765
434.964;   12.933;   -8.251;  602.920
435.556;   10.196;   -9.722;  634.537
436.147;   12.933;   -9.082;  758.490
436.738;   13.145;   -8.041;  701.099
437.329;   17.945;   -7.341;  721.723
437.920;   10.596;   -8.162;  666.688
438.511;   10.756;  -11.802;  564.526
439.103;   16.991;  -10.191;  623.998
439.694;   19.061;   -7.601;  681.583
440.285;   19.812;   -8.541;  764.432
440.876;   18.150;   -9.751;  845.738
441.466;   17.620;   -9.401;  575.162
442.057;   22.804;   -7.760;  665.814
442.648;   21.945;   -9.971;  746.255
443.239;   19.952;  -11.001;  620.477
443.830;   24.128;   -7.990;  704.958
444.421;   26.614;   -7.910;  655.474
445.011;   23.050;   -8.131;  693.619
445.602;   22.389;   -7.111;  743.126
446.193;   24.468;  -10.920;  488.117
446.783;   28.904;   -6.500;  640.397
447.374;   25.106;   -8.671;  692.759
447.964;   24.643;  -10.781;  713.770
448.555;   33.430;   -9.650;  822.742
449.145;   29.762;   -8.660;  662.853
449.736;   30.518;   -8.990;  803.179
450.326;   30.317;   -9.500;  713.626
450.917;   35.416;   -8.680;  675.324
451.507;   34.282;   -7.520;  600.661
452.097;   34.555;   -8.590;  746.267
452.688;   36.080;  -11.340;  742.160
453.278;   35.853;  -10.100;  566.840
453.868;   40.067;   -6.019;  793.550
454.458;   38.584;   -9.440;  651.141
455.048;   38.578;  -10.560;  711.783
455.639;   40.537;  -11.799;  567.096
456.229;   43.462;   -6.899;  710.694
456.819;   45.380;   -7.389;  751.158
457.409;   45.800;  -11.119;  773.993
457.999;   47.908;   -9.289;  737.505
458.589;   48.308;   -6.139;  686.606
459.179;   47.685;   -8.729;  717.658
459.769;   46.274;   -9.789;  627.099
460.358;   50.960;  -10.259;  797.262
460.948;   50.795;   -7.299;  689.503
461.538;   52.692;  -10.289;  660.677
462.128;   50.110;  -11.269;  664.934
462.717;   57.106;   -9.368;  710.326
463.307;   60.221;   -7.908;  705.846
463.897;   56.152;   -9.599;  656.942
464.486;   54.855;   -9.769;  837.128
465.076;   58.913;   -8.048;  733.776
465.666;   62.753;   -9.358;  652.900
466.255;   60.469;   -7.919;  785.651
466.845;   60.002;  -11.689;  666.749
467.434;   62.984;   -7.818;  725.873
468.023;   63.093;   -7.678;  658.357
468.613;   61.274;  -10.939;  713.946
469.202;   65.771;  -10.118;  646.507
469.791;   70.081;   -9.108;  737.811
470.381;   71.403;   -6.058;  742.813
470.970;   71.505;  -10.428;  711.099
471.559;   70.964;  -10.268;  733.291
472.148;   74.491;   -8.448;  675.737
472.738;   76.056;   -6.917;  765.466
473.327;   76.456;  -11.978;  637.529
473.916;   75.430;  -11.888;  737.446
474.505;   80.339;   -9.437;  751.703
475.094;   83.251;   -6.747;  806.570
475.683;   82.429;   -9.367;  797.699
476.272;   83.344;  -12.637;  730.632
476.861;   85.386;  -10.027;  706.754
477.449;   92.242;   -8.716;  728.487
478.038;   85.906;   -9.577;  692.513
478.627;   87.753;   -9.718;  714.852
479.216;   93.831;   -8.947;  769.441
479.805;   96.727;   -6.256;  783.375
480.393;   96.907;   -7.937; 1008.945
480.982;   96.004;   -7.717;  874.501
481.571;  103.107;   -9.266;  858.333
482.159;  102.843;   -7.636;  705.386
482.748;  103.985;   -9.667;  821.385
483.336;  107.861;  -10.376;  858.209
483.925;  109.007;   -7.147;  774.373
484.513;  115.337;   -7.996;  758.962
485.102;  111.802;  -10.027;  810.965
485.690;  120.444;  -10.446; 1011.050
486.278;  121.563;   -8.446;  979.329
486.867;  122.452;   -6.356;  809.662
487.455;  125.493;   -9.136;  898.229
488.043;  126.146;  -10.646;  748.361
488.631;  135.151;   -7.456; 1005.079
489.220;  138.896;   -6.636;  908.626
489.808;  139.589;  -11.036;  741.415
490.396;  147.619;  -10.246;  914.645
490.984;  153.768;   -8.556;  830.161
491.572;  166.030;   -5.886;  940.315
492.160;  172.833;   -9.486;  919.081
492.748;  183.700;  -10.976;  884.341
493.336;  206.366;   -8.776; 1019.693
493.924;  236.832;   -5.465;  958.077
494.512;  273.987;   -9.986; 1066.638
495.100;  317.733;  -10.636; 1103.280
495.687;  386.693;  -10.885; 1206.373
496.275;  471.660;   -8.126; 1150.796
496.863;  550.851;  -10.586; 1281.171
497.451;  661.209;  -11.926; 1386.805
498.038;  766.912;  -10.885; 1556.729
498.626;  896.378;   -6.315; 1741.407
499.214; 1110.594;   -7.326; 2016.609
499.801; 1352.882;  -11.906; 2220.633
500.389; 1668.377;  -10.466; 2312.494
500.976; 1953.333;   -5.236; 2744.849
501.564; 2428.327;   -8.936; 3148.565
502.151; 3076.753;  -13.176; 3515.999
502.738; 3473.118;  -10.646; 3971.274
503.326; 3850.735;   -9.525; 4403.796
503.913; 4275.550;  -10.856; 5161.749
504.500; 4783.660;  -11.586; 5986.420
505.088; 5375.927;  -10.336; 6381.201
505.675; 6240.801;   -6.355; 6925.547
506.262; 6778.891;   -9.046; 7619.060
506.849; 7174.211;  -10.416; 8733.969
507.436; 7660.092;  -10.305; 9790.121
508.023; 8041.043;   -5.496; 9985.472
508.610; 8122.989;   -7.856;10434.618
509.197; 9058.359;  -10.097;11198.435
509.784;10422.677;  -10.886;12391.194
510.371;11879.153;   -9.315;13603.713
510.958;12976.754;   -9.936;14426.586
511.545;13511.460;   -9.326;15243.775
512.132;13691.358;  -10.075;15945.876
512.719;14225.747;   -7.796;16340.369
513.305;15521.506;  -10.606;18011.766
513.892;17007.785;  -11.486;19754.971
514.479;18212.846;   -9.126;20967.805
515.066;19568.264;   -6.026;22299.793
515.652;19645.822;   -8.466;22908.660
516.239;20045.818;  -10.886;23798.875
516.825;21448.799;  -11.496;25567.275
517.412;23072.930;   -5.796;28154.959
517.998;24303.615;  -10.506;28344.111
518.585;25229.465;  -10.076;27134.219
519.171;24721.643;   -8.315;27268.576
519.758;25350.025;   -8.596;28964.129
520.344;27806.012;   -8.466;30664.494
520.930;26888.063;  -11.006;32550.605
521.516;25269.359;  -10.495;35422.895
522.103;27094.006;   -5.526;38280.004
522.689;29464.104;   -8.746;37835.117
523.275;30536.779;  -11.376;37288.613
523.861;32527.293;  -11.156;37281.395
524.447;32041.232;   -8.135;37846.949
525.033;32348.818;   -7.896;38321.949
525.619;33314.957;  -12.476;38579.285
526.205;33449.488;   -9.516;40622.875
526.791;32841.590;   -6.926;42258.836
527.377;32656.693;   -8.346;42966.902
527.963;34306.078;   -8.717;42018.949
528.549;35677.129;  -11.016;42476.828
529.135;34277.945;   -8.536;41854.852
529.721;34298.156;   -9.666;41237.711
530.306;33326.742;  -10.066;41259.445
530.892;34333.113;  -11.356;41506.047
531.478;36104.738;   -6.596;43559.613
532.063;38008.047;   -8.836;47695.563
532.649;36373.164;  -10.047;50808.324
533.235;36487.340;   -9.746;51787.500
533.820;38709.961;   -6.566;52145.035
534.406;40369.195;  -10.817;51133.488
534.991;42360.664;   -9.416;49996.805
535.576;41063.961;   -9.036;48882.852
536.162;38363.082;   -6.156;46942.285
536.747;38695.582;  -11.607;45711.746
537.333;41366.090;  -11.787;48510.180
537.918;42248.074;  -12.437;50439.891
538.503;41644.695;   -7.196;50863.711
539.088;42335.906;  -10.556;50906.922
539.673;43309.914;   -8.767;52621.965
540.259;40161.863;  -10.026;52368.094
540.844;39416.125;   -7.416;50879.109
541.429;39068.563;   -9.467;52077.777
542.014;38753.902;   -9.527;52716.695
542.599;41834.973;   -9.946;52363.281
543.184;43093.355;   -7.927;53187.137
543.769;43367.293;   -9.297;54697.605
544.354;43624.723;  -10.127;53913.914
544.938;41601.879;   -9.267;49680.164
545.523;39907.602;   -6.506;47386.277
546.108;41693.094;   -9.787;49151.949
546.693;42470.598;  -11.587;51384.637
547.278;42580.371;  -10.986;51853.254
547.862;42944.977;   -8.206;51173.750
548.447;41458.453;  -10.067;51691.395
549.031;41236.059;   -9.637;52456.703
549.616;41576.035;   -9.926;52714.516
550.201;40776.031;   -6.347;52414.598
550.785;41824.648;   -7.917;52355.059
551.370;42714.191;  -10.867;54589.453
551.954;44801.730;   -9.047;58267.348
552.538;44042.441;   -7.827;59062.176
553.123;42086.164;  -10.287;58115.285
553.707;41136.836;  -12.178;56556.285
554.291;38824.414;   -8.717;56201.668
554.876;40222.547;   -7.457;55335.762
555.460;42404.879;  -10.387;54155.703
556.044;43767.297;   -9.618;53721.484
556.628;44234.004;  -11.567;53731.016
557.212;44889.988;   -8.097;54312.531
557.796;46575.246;  -11.077;53797.773
558.380;44727.633;  -11.108;56145.984
558.964;42918.617;   -9.057;57277.930
559.548;40764.258;   -6.977;56459.641
560.132;37711.109;  -11.457;54434.543
560.716;39148.352;  -11.378;54800.617
561.300;41337.203;   -9.577;57606.945
561.884;40155.246;   -7.127;58972.445
562.467;38808.551;   -7.118;57327.570
563.051;37492.609;  -13.358;54962.434
563.635;35603.957;  -10.178;52594.473
564.219;37237.352;   -7.837;50610.410
564.802;40435.859;  -11.398;49551.180
565.386;40880.750;  -12.788;48370.953
565.969;41995.262;   -9.077;48178.871
566.553;41245.348;   -6.207;49957.305
567.136;39729.770;   -8.568;50369.594
567.720;40747.324;  -11.868;49492.004
568.303;41804.707;   -8.268;50616.352
568.887;40935.621;   -8.698;50727.148
569.470;38466.918;   -6.808;51698.379
570.053;36222.961;  -13.188;52122.078
570.637;34203.637;  -12.037;52536.438
571.220;34580.309;   -8.577;51186.098
571.803;34600.758;   -8.498;51032.762
572.386;36537.371;  -10.498;49609.887
572.969;37166.426;   -9.388;48285.926
573.552;37077.469;   -8.338;47624.285
574.135;35637.645;   -8.518;45498.641
574.718;31913.684;  -13.628;41970.434
575.301;32608.832;  -10.893;41447.137
575.884;33303.980;   -8.158;40923.836
576.467;38107.219;  -10.328;45267.723
577.050;38783.223;  -13.058;48175.543
577.633;37512.953;   -9.458;47729.328
578.216;34248.977;   -8.928;47579.793
578.799;32152.672;   -9.358;47820.996
579.381;33611.094;  -11.388;48115.551
579.964;33648.637;  -11.718;47333.766
580.547;32578.250;   -8.588;46668.969
581.129;33459.445;   -8.859;44466.141
581.712;35116.895;  -10.729;44164.922
582.294;34639.832;  -11.118;46477.855
582.877;35486.707;   -5.218;48244.254
583.459;35855.715;   -8.679;47437.895
584.042;37121.664;  -10.709;46943.219
584.624;35235.219;  -11.669;46792.227
585.206;33913.949;   -8.218;46557.250
585.789;34614.441;  -10.569;45793.773
586.371;34988.949;  -11.859;43836.391
586.953;36046.180;  -10.719;42972.492
587.536;37352.168;   -7.198;42487.211
588.118;36092.703;   -8.720;42086.414
588.700;34875.652;  -10.439;43389.930
589.282;32446.961;   -9.198;43646.039
589.864;30394.072;   -9.199;43438.109
590.446;30238.535;  -11.319;43151.926
591.028;29479.248;  -11.159;42781.867
591.610;28811.035;  -11.779;42839.098
592.192;28920.381;   -7.668;42820.402
592.774;27033.867;  -11.949;40724.277
593.356;24977.256;  -12.129;39874.789
593.937;26442.547;  -10.669;39980.648
594.519;30597.008;   -6.509;42069.633
595.101;31746.885;  -10.849;42976.031
595.683;30906.090;  -11.679;44084.441
596.264;30172.025;   -9.049;43478.797
596.846;30013.221;   -8.849;43803.672
597.427;30034.301;   -9.570;42986.934
598.009;31743.842;  -12.620;42832.219
598.591;31648.186;  -10.039;42580.086
599.172;33820.781;  -10.369;43061.805
599.753;36215.199;   -9.140;41691.469
600.335;35557.301;  -11.430;40692.520
600.916;33027.766;   -9.939;39982.422
601.498;29971.256;   -8.479;40318.617
602.079;29295.660;  -10.920;40670.609
602.660;28948.039;  -11.480;41450.898
603.241;29956.461;  -11.699;41137.738
603.823;30295.898;   -9.579;38868.797
604.404;30023.125;  -10.620;38182.785
604.985;32896.789;  -10.450;38078.047
605.566;33673.711;   -9.129;38056.633
606.147;34737.859;   -7.510;37020.418
606.728;33600.781;  -10.660;37883.359
607.309;31678.621;  -11.740;38748.273
607.890;31212.480;   -9.759;38850.230
608.471;29988.006;   -8.250;37457.918
609.051;30243.328;   -9.240;36066.457
609.632;30000.104;  -12.120;35991.074
610.213;29547.980;   -9.110;37402.641
610.794;30906.275;   -8.030;38383.363
611.374;29898.553;   -8.110;40562.387
611.955;29726.238;  -13.560;38533.727
612.536;30809.027;  -11.400;36951.789
613.116;30274.264;   -8.070;37197.891
613.697;31032.902;  -10.830;38411.125
614.277;30729.305;  -11.641;38673.938
614.858;30127.297;  -13.310;37075.863
615.438;30356.527;   -7.460;35092.906
616.019;28452.389;   -7.601;33666.301
616.599;29087.385;  -12.020;34189.023
617.179;29024.949;  -11.780;36952.047
617.760;27834.732;   -8.570;39582.574
618.340;28211.158;  -11.471;38943.977
618.920;28620.746;  -11.170;37594.156
619.500;29707.740;  -11.071;37866.938
620.080;30210.330;   -7.750;37869.043
620.660;30349.094;  -12.711;36868.617
621.241;31045.293;  -10.211;36352.309
621.821;30587.848;  -10.961;35459.520
622.401;30807.082;   -7.720;35207.414
622.980;32756.604;   -8.981;35980.422
623.560;31517.490;   -9.331;37351.328
624.140;27239.932;   -9.850;34388.582
624.720;23427.123;   -7.451;32368.764
625.300;23210.596;   -9.070;32638.629
625.880;27271.152;  -12.601;34599.035
626.459;30449.328;  -11.751;36831.738
627.039;30573.465;   -9.281;38299.098
627.619;29569.816;   -8.801;38289.574
628.198;29463.359;  -12.071;37220.695
628.778;30212.861;   -9.461;37632.563
629.357;30985.258;   -8.491;38003.012
629.937;30824.762;   -9.721;38402.039
630.516;31731.156;   -9.951;37868.801
631.096;33217.227;  -11.731;35760.410
631.675;35640.141;   -8.572;35225.219
632.254;35301.004;  -11.282;35130.289
632.834;33802.805;  -13.322;35794.570
633.413;34467.188;  -10.301;35788.922
633.992;34531.055;   -8.582;34532.863
634.571;35217.559;   -8.352;33590.113
635.151;34560.238;  -11.912;34943.863
635.730;32408.471;  -10.511;35352.523
636.309;32299.955;   -7.731;35366.605
636.888;31814.439;   -9.952;36165.637
637.467;31061.180;  -11.672;37515.902
638.046;29568.049;   -8.901;39288.695
638.625;28855.004;   -7.912;38279.699
639.204;28125.533;  -10.022;37741.598
639.782;29396.881;  -12.252;38364.551
640.361;31503.639;  -10.041;36740.621
640.940;31300.205;  -11.161;34950.082
641.519;30982.572;   -9.701;34137.398
642.097;32210.746;  -11.271;35654.258
642.676;32212.303;   -8.651;35637.957
643.255;31132.123;   -8.711;36567.074
643.833;30779.445;   -9.581;37809.434
644.412;31623.775;  -13.711;37337.293
644.990;33013.305;  -11.811;37018.531
645.569;35720.613;   -9.411;36518.469
646.147;36269.457;  -10.291;36186.430
646.726;34377.996;  -12.401;36267.688
647.304;32918.953;  -10.411;36647.625
647.882;33471.605;   -9.651;39286.742
648.461;33104.551;   -9.631;39157.703
649.039;30815.096;  -11.881;35412.883
649.617;30722.768;   -9.661;34744.918
650.195;31186.668;   -9.301;35403.098
650.773;30582.104;  -10.511;35053.797
651.352;30535.033;  -11.521;33756.816
651.930;29446.207;  -12.211;31868.773
652.508;28448.543;   -9.171;33121.551
653.086;29720.885;   -9.371;33564.793
653.663;31881.682;  -13.161;34054.668
654.241;30726.043;  -13.031;35693.309
654.819;28827.160;   -9.371;36422.906
655.397;29476.609;  -10.511;38213.484
655.975;29637.986;  -10.371;39507.625
656.553;30739.760;  -10.051;39498.223
657.130;31465.836;  -10.061;40395.480
657.708;28229.131;   -9.561;39242.020
658.286;25232.463;  -11.511;38920.020
658.863;25558.953;  -10.261;40202.898
659.441;28513.258;   -7.531;39677.938
660.018;31175.721;   -9.501;40413.355
660.596;31895.615;  -13.301;39931.414
661.173;34513.805;  -11.211;39604.531
661.750;33464.730;   -9.951;39700.070
662.328;30894.180;   -9.390;39292.809
662.905;29514.643;  -11.330;38235.648
663.482;26664.385;   -9.050;36212.305
664.060;24537.898;   -8.240;35944.945
664.637;28675.230;  -10.050;35170.785
665.214;33370.324;  -11.760;34197.523
665.791;32152.449;  -10.530;34549.520
666.368;31647.969;   -9.690;35118.578
666.945;32144.164;   -9.320;36019.418
667.522;33151.273;  -11.860;36048.438
668.099;32445.059;  -10.770;36243.914
668.676;32558.563;   -6.260;35958.875
669.253;34499.277;   -7.000;37384.730
669.830;34747.273;  -10.190;36779.629
670.407;33622.285;   -9.550;35231.289
670.984;33004.559;   -9.260;35544.270
671.560;31263.738;   -9.280;35466.867
672.137;29523.865;  -11.810;34280.863
672.714;29567.332;  -11.490;34632.863
673.290;30583.236;   -7.740;35135.422
673.867;31150.545;  -10.660;36114.480
674.443;30415.768;  -12.230;36152.859
675.020;28808.957;  -10.450;35327.238
675.596;27254.074;   -9.260;35795.176
676.173;27990.441;  -10.780;35430.355
676.749;28681.824;  -13.690;33549.516
677.326;29840.824;  -11.980;32210.012
677.902;27908.715;   -8.630;32068.871
678.478;25974.855;  -10.730;32583.891
679.054;27814.951;  -10.520;32088.928
679.631;29362.822;  -11.920;30978.848
680.207;30502.229;   -7.490;33160.887
680.783;31438.910;   -9.860;35570.363
681.359;31968.574;  -13.380;36125.184
681.935;30933.182;  -12.480;35240.922
682.511;31533.135;   -7.900;34429.961
683.087;32085.730;   -7.710;34463.680
683.663;32723.141;  -11.480;34648.898
684.239;32289.127;  -14.090;34546.457
684.815;33120.004;   -7.560;35586.375
685.390;33158.914;   -9.910;35821.895
685.966;32733.627;  -11.159;35085.871
686.542;33299.789;  -11.169;34198.230
687.118;31841.275;   -5.959;32847.707
687.693;32019.088;  -10.329;32794.027
688.269;31189.201;  -12.059;33072.367
688.844;32044.979;  -10.909;33141.664
689.420;33464.094;   -8.019;33965.742
689.995;30270.355;   -8.399;34655.523
690.571;29113.932;  -10.949;33576.742
691.146;28298.514;   -9.619;32657.219
691.722;26386.523;   -8.999;32526.979
692.297;25622.092;  -11.589;33014.617
692.872;26473.162;  -11.739;34012.254
693.448;26688.043;  -11.059;34237.434
694.023;28385.869;  -10.139;34142.672
694.598;30441.920;   -9.029;34132.031
695.173;30054.260;  -13.319;34205.250
695.748;27501.152;  -10.169;32882.488
696.323;25298.137;   -8.339;32864.906
696.898;25026.176;   -8.169;33170.004
697.473;28169.691;  -12.309;32432.984
698.048;28150.984;  -10.989;31649.303
698.623;27049.150;   -9.329;30778.141
699.198;28379.387;   -9.849;31140.119
699.773;29658.746;  -12.329;31764.299
700.348;29501.822;  -10.389;31780.816
700.922;27759.146;   -9.269;32046.375
701.497;26160.215;   -9.329;32603.574
702.072;27937.498;  -10.789;34799.871
702.646;27903.090;  -10.839;35793.172
703.221;28472.357;   -9.099;35201.590
703.795;28943.904;  -10.939;34764.527
704.370;27465.230;  -12.859;34307.367
704.944;28666.475;  -11.559;33509.887
705.519;29758.906;   -7.939;31388.584
706.093;31735.256;  -10.499;31340.104
706.668;32831.238;  -11.289;32630.281
707.242;31810.590;  -11.509;32728.779
707.816;30379.156;   -9.639;32947.238
708.390;29989.242;  -11.429;33277.855
708.965;31004.053;  -11.869;33834.336
709.539;31163.727;  -11.689;33709.273
710.113;30630.350;  -10.478;33044.313
710.687;27828.027;  -10.228;31953.992
711.261;26988.764;  -13.698;30505.949
711.835;26718.543;  -13.378;30262.369
712.409;26559.746;   -9.698;31254.447
712.983;26351.162;  -11.898;32754.986
713.557;25410.227;  -15.138;34018.824
714.131;26644.305;  -14.098;34579.625
714.704;26504.014;   -9.958;33890.262
715.278;25776.563;  -10.028;33531.102
715.852;24865.289;  -11.148;33601.660
716.425;24329.043;   -9.068;33515.117
716.999;25996.537;  -10.038;33185.555
717.573;26762.561;   -9.798;33905.996
718.146;27906.613;  -12.378;35199.293
718.720;28487.152;  -11.918;35060.551
719.293;27591.977;   -8.088;34973.230
719.867;26571.248;  -10.888;36394.449
720.440;27419.947;  -11.938;36663.008
721.013;29382.834;  -12.818;35102.426
721.587;30905.236;  -10.298;33985.266
722.160;30768.732;  -10.048;33524.965
722.733;28669.465;  -12.108;32987.043
723.306;26176.482;  -10.818;33066.301
723.880;26426.553;   -8.908;33399.500
724.453;25642.762;   -9.878;33468.297
725.026;25736.369;  -11.188;33816.637
725.599;25994.787;  -11.678;32797.996
726.172;25477.783;   -9.618;33187.434
726.745;26417.400;   -8.258;35136.613
727.318;29212.412;  -12.978;35751.730
727.891;31434.895;  -12.148;35890.430
728.463;32664.148;   -8.968;34822.090
729.036;32827.738;  -10.188;32895.086
729.609;30354.926;  -11.788;31823.225
730.182;28551.936;  -11.788;31445.283
730.754;27849.492;  -10.268;32373.223
731.327;27648.119;   -9.998;33676.820
731.900;26925.053;  -12.228;33417.000
732.472;25948.793;  -13.848;31978.498
733.045;25805.971;   -8.698;30368.777
733.617;25271.266;  -10.607;30574.215
734.190;23850.525;  -11.507;31280.975
734.762;23996.779;  -13.647;31674.412
735.334;25131.693;   -9.767;31247.291
735.907;25278.977;   -9.897;29876.211
736.479;23398.111;  -11.637;29808.488
737.051;23103.221;   -9.567;30233.547
737.623;23985.207;   -8.187;31469.086
738.195;25744.691;  -11.187;31784.225
738.768;26165.092;  -12.337;32120.523
739.340;25620.393;  -12.227;32094.342
739.912;25177.117;  -11.057;31312.680
740.484;26077.645;  -10.207;31946.238
741.056;27274.229;  -10.047;32984.059
741.628;26843.381;  -13.627;33897.715
742.199;27514.262;   -7.177;33213.016
742.771;25901.639;  -10.797;31369.113
743.343;24311.777;  -11.997;31865.473
743.915;24379.535;  -12.867;32388.631
744.487;24935.389;   -7.617;31079.568
745.058;26151.744;   -9.557;30570.107
745.630;25776.104;   -9.877;29970.127
746.201;24518.344;  -14.177;29186.766
746.773;24289.510;   -9.237;28805.723
747.344;24556.189;   -9.847;29591.223
747.916;24720.377;  -11.657;31412.201
748.487;24257.689;  -10.587;32194.898
749.059;23999.822;   -8.707;32533.719
749.630;22910.758;  -10.537;32158.518
750.201;23080.168;  -11.687;30855.395
750.773;23249.322;  -11.647;28622.555
751.344;24641.104;   -7.147;28405.732
751.915;24637.729;   -9.757;28461.551
752.486;24131.932;  -12.427;27842.850
753.057;22469.361;  -12.227;27845.008
753.628;21982.559;  -10.417;27728.107
754.199;22028.137;  -11.767;27381.086
754.770;21536.553;  -11.187;25882.203
755.341;21266.633;  -10.507;25886.184
755.912;21682.494;   -9.387;26050.861
756.483;22013.939;  -10.647;26798.779
757.054;21455.580;  -11.837;27048.238
757.625;19636.662;  -12.716;26294.838
758.195;19156.221;   -9.666;26142.076
758.766;20141.898;   -8.656;26392.234
759.337;19913.434;  -12.856;26334.594
759.907;19230.734;  -13.366;27579.652
760.478;18412.680;   -8.576;28352.770
761.048;18964.920;  -10.526;27325.088
761.619;19527.582;  -11.116;26460.428
762.189;19104.268;  -12.136;26029.826
762.760;19125.338;   -9.456;26430.145
763.330;19333.658;   -7.136;26670.902
763.900;19210.984;  -11.786;26603.021
764.471;18476.297;  -11.546;25542.740
765.041;18267.156;   -8.096;24358.459
765.611;18474.646;   -8.876;23991.297
766.181;18513.799;  -12.196;24470.236
766.751;19028.924;  -11.636;24845.975
767.321;19019.104;  -10.156;24533.633
767.891;18732.635;  -11.766;24916.492
768.461;18402.326;  -14.936;24776.771
769.031;17539.873;  -12.356;24757.988
769.601;17230.299;   -7.526;24181.088
770.171;17696.713;  -10.766;23670.387
770.741;18465.021;  -13.176;22960.045
771.311;18051.332;  -10.616;22917.523
771.880;16621.066;   -9.576;23562.941
772.450;16039.078;  -10.336;24216.500
773.020;16243.026;  -13.516;24140.398
773.589;16129.300;  -13.466;24414.857
774.159;15583.382;   -8.686;23858.717
774.729;14904.106;   -9.476;22942.135
775.298;14912.654;  -13.666;22324.033
775.867;15060.644;  -11.716;21140.313
776.437;14523.424;   -9.906;20838.092
777.006;14396.285;  -12.166;20599.510
777.576;15714.097;  -12.356;20508.809
778.145;14968.702;  -11.646;20732.947
778.714;13641.763;   -8.226;21062.465
779.283;13161.011;   -9.556;20949.664
779.853;12923.175;  -14.116;20508.623
780.422;13196.279;  -11.506;20649.082
780.991;13676.390;   -9.556;21527.520
781.560;14254.318;   -9.095;22632.658
782.129;13107.455;  -12.135;23048.277
782.698;11893.043;  -10.865;23438.555
783.267;11300.428;   -9.335;23267.734
783.836;11535.459;  -11.045;22415.133
784.404;12180.464;  -13.865;20443.152
784.973;12442.063;  -13.095;19699.150
785.542;12398.798;  -11.575;19763.828
786.111;12191.263;   -9.705;20341.408
786.679;11982.275;  -12.105;20207.967
787.248;11648.057;  -12.455;19516.465
787.817;11466.896;  -11.535;18900.363
788.385;11297.694;   -9.765;17879.121
788.954;11145.657;  -14.005;17658.301
789.522;10963.580;  -11.955;17788.879
790.090;10112.040;  -10.135;18118.277
790.659; 9338.818;  -10.975;18338.736
791.227; 9424.869;  -13.375;18508.615
791.795; 9762.937;  -12.375;17898.254
792.364; 9926.604;  -10.725;17295.133
792.932;10223.198;   -9.715;16822.051
793.500;10035.548;  -12.675;17040.148
794.068;10306.090;  -13.495;17179.787
794.636;10391.739;  -10.885;16664.246
795.204;10084.456;  -11.045;16524.545
795.772;10054.632;  -13.175;17274.564
796.340; 9794.360;  -12.445;17891.002
796.908; 9941.323;   -9.735;17648.561
797.476;10256.156;   -9.815;17064.080
798.044;10031.106;  -13.985;16672.777
798.612; 9651.228;  -13.115;17023.996
799.180; 8882.994;  -10.185;16561.615
799.747; 8569.481;   -9.055;15962.773
800.315; 8820.407;  -12.385;15296.992
800.883; 8258.895;  -15.035;14801.771
801.450; 7563.062;  -10.365;14534.430
802.018; 7315.459;   -9.855;14173.248
802.585; 7301.776;  -11.905;14029.547
803.153; 7503.463;  -11.585;13836.846
803.720; 7342.097;   -9.095;13567.324
804.287; 7285.572;   -9.135;13360.622
804.855; 7456.899;  -11.604;13681.981
805.422; 7831.040;  -11.794;13536.560
805.989; 8099.025;  -10.734;13355.958
806.556; 8063.917;  -10.444;13747.896
807.124; 8334.271;  -12.764;13987.376
807.691; 8778.134;  -12.964;14038.674
808.258; 8878.816;  -11.134;14120.152
808.825; 8923.389;   -9.854;13860.111
809.392; 8564.877;  -10.504;13268.790
809.959; 7878.403;  -13.054;12680.389
810.526; 7222.265;   -8.294;12427.308
811.093; 6629.764;   -8.394;12030.105
811.659; 6438.413;  -12.304;11653.664
812.226; 6622.739;  -13.944;11637.183
812.793; 7026.846;  -10.484;11611.521
813.360; 7160.095;  -10.144;11885.181
813.926; 7149.313;  -11.684;12770.539
814.493; 7092.563;  -13.644;12677.638
815.060; 7010.804;   -9.724;11974.336
815.626; 7205.718;   -9.854;11594.715
816.193; 7263.400;  -13.254;11579.474
816.759; 6668.509;  -13.204;11666.972
817.325; 6268.274;   -9.434;11325.530
817.892; 6183.017;  -10.134;11105.369
818.458; 6366.641;  -13.474;10843.928
819.024; 6829.672;  -11.854;10714.406
819.591; 6946.015;  -10.244;10469.165
820.157; 6756.016;  -10.704;10235.523
820.723; 6730.413;  -12.324;10847.563
821.289; 6616.866;   -9.444;11040.980
821.855; 6653.474;   -8.374;10357.100
822.421; 6975.380;  -10.234; 9978.918
822.987; 6960.984;  -13.294; 9754.177
823.553; 6690.129;  -10.884;10065.755
824.119; 6472.030;   -8.884;10036.294
824.685; 5983.531;   -6.784;10029.192
825.251; 5885.196;  -12.004;10199.230
825.816; 5591.896;  -11.474; 9820.189
826.382; 5363.051;   -9.174; 9297.248
826.948; 5665.761;   -9.214; 9381.347
827.513; 6114.966;  -10.774; 9450.726
828.079; 6211.124;  -11.924; 9472.444
828.645; 5994.028;  -10.543; 9292.643
829.210; 5844.909;  -10.533; 9065.341
829.776; 5751.678;  -10.753; 9132.620
830.341; 5898.838;  -10.173; 9092.878
830.906; 5944.147;  -10.743; 9078.557
831.472; 5715.145;  -11.113; 8534.535
832.037; 5335.046;  -10.603; 8677.874
832.602; 5185.807;  -13.323; 8628.692
833.167; 4958.064;  -10.823; 8879.031
833.733; 4822.960;  -10.113; 9189.790
834.298; 4679.596;  -13.583; 9052.608
834.863; 4841.633;  -12.703; 8895.087
835.428; 5036.707;  -10.523; 8824.266
835.993; 4933.901;   -6.963; 8845.385
836.558; 4892.269;  -10.763; 8888.563
837.123; 5058.846;   -9.903; 8966.582
837.688; 5431.987;   -9.913; 8617.860
838.253; 5455.197;  -10.283; 8590.699
838.817; 5087.994;  -12.963; 8443.797
839.382; 4962.052;  -14.243; 8799.356
839.947; 5090.439;  -10.733; 8810.595
840.511; 5079.674;   -9.383; 8796.394
841.076; 4908.067;  -12.563; 8347.231
841.641; 4737.669;  -12.953; 8224.330
842.205; 4617.330;   -7.043; 8223.349
842.770; 4420.260;   -8.163; 8622.107
843.334; 4569.843;  -12.503; 8410.386
843.898; 4711.981;  -11.693; 8337.465
844.463; 4286.762;  -10.203; 8506.283
845.027; 3986.719;   -9.533; 8280.962
845.591; 3997.681;  -13.443; 8231.141
846.156; 4041.801;  -13.143; 7969.179
846.720; 3882.523;   -9.433; 7768.278
847.284; 3804.105;  -11.033; 7630.957
847.848; 3793.935;  -10.403; 7472.395
848.412; 3623.168;  -11.553; 7437.394
848.976; 3523.241;   -8.393; 7674.592
849.540; 3486.635;   -8.713; 7836.011
850.104; 3452.047;  -12.463; 7913.669
850.668; 3499.830;  -12.973; 7694.508
851.232; 3464.063;  -10.793; 7756.887
851.796; 3492.106;  -10.662; 7926.545
852.359; 3584.613;  -13.082; 7827.844
852.923; 3566.386;  -12.192; 7641.163
853.487; 3556.955;  -11.912; 7342.501
854.050; 3404.891;  -10.892; 7042.820
854.614; 3463.003;  -13.992; 7151.338
855.177; 3538.068;  -11.732; 7105.077
855.741; 3409.706;   -8.962; 6989.675
856.304; 3285.636;   -9.442; 6596.634
856.868; 3177.872;  -14.192; 6356.272
857.431; 3127.104;  -12.702; 6468.571
857.995; 3133.805;   -9.942; 6373.210
858.558; 3219.007;   -9.112; 6324.448
859.121; 3104.834;  -12.932; 6408.327
859.684; 2939.994;  -13.442; 6347.886
860.247; 2890.847;  -10.632; 6321.264
860.810; 2862.568;  -11.272; 6301.903
861.374; 2801.332;   -9.832; 6607.881
861.937; 2724.329;  -11.762; 6408.200
862.500; 2732.291;   -9.722; 6572.639
863.062; 2719.326;  -10.512; 6387.297
863.625; 2703.683;  -11.232; 6190.836
864.188; 2731.295;  -14.112; 5807.254
864.751; 2743.483;  -11.302; 5682.413
865.314; 2637.131;  -10.112; 5547.492
865.876; 2483.786;  -12.182; 5500.150
866.439; 2336.534;  -10.722; 5415.909
867.002; 2244.402;   -9.252; 5501.567
867.564; 2306.271;   -9.572; 5413.946
868.127; 2353.057;  -13.142; 5160.325
868.689; 2431.482;  -12.902; 5133.183
869.252; 2537.125;   -9.732; 5252.382
869.814; 2473.359;   -9.432; 5297.141
870.377; 2380.121;  -11.552; 5390.919
870.939; 2381.320;   -9.052; 5599.898
871.501; 2331.491;  -10.982; 5248.336
872.063; 2218.170;  -12.292; 4854.235
872.626; 2159.971;  -14.912; 4817.074
873.188; 2072.434;  -13.112; 4987.732
873.750; 2040.565;  -13.442; 4868.651
874.312; 1999.746;   -9.402; 4779.330
874.874; 1959.824;  -11.062; 4866.348
875.436; 1861.587;  -13.931; 4718.887
875.998; 1748.816;   -9.561; 4660.005
876.560; 1737.461;  -11.321; 4462.964
877.122; 1800.747;  -12.221; 4145.042
877.683; 1916.157;  -12.191; 4056.481
878.245; 1949.650;  -12.101; 3950.740
878.807; 1961.429;   -8.971; 4058.958
879.369; 1903.307;  -12.071; 3954.677
879.930; 1772.503;  -14.621; 3941.495
880.492; 1689.386;  -10.311; 4067.014
881.053; 1696.578;  -10.901; 3859.633
881.615; 1685.389;  -14.411; 3776.071
882.176; 1610.942;  -13.761; 3734.750
882.738; 1532.375;   -9.181; 3678.489
883.299; 1525.488;  -11.791; 3405.407
883.860; 1544.082;  -13.121; 3351.106
884.422; 1488.836;  -11.211; 3394.044
884.983; 1399.917;  -10.091; 3166.443
885.544; 1348.903;   -8.461; 3189.802
886.105; 1282.286;  -12.361; 3160.360
886.666; 1213.704;  -14.141; 3093.059
887.227; 1181.667;  -11.361; 2941.957
887.788; 1122.986;  -11.401; 2974.836
888.349; 1025.029;  -13.791; 2721.214
888.910;  982.209;  -13.191; 2696.493
889.471;  945.885;   -9.881; 2560.172
890.032;  951.772;   -9.881; 2558.190
890.593;  941.423;  -10.371; 2567.669
891.153;  852.885;  -13.301; 2460.307
891.714;  736.482;  -11.431; 2372.046
892.275;  688.234;  -11.291; 2309.505
892.835;  699.356;  -11.471; 2382.543
893.396;  688.628;  -11.541; 2295.502
893.956;  657.976;  -11.181; 2162.420
894.517;  618.294;  -11.741; 2125.439
895.077;  564.774;  -11.671; 2086.978
895.638;  521.993;  -11.311; 2126.316
896.198;  507.767;   -9.831; 1838.275
896.758;  492.591;   -8.421; 1892.813
897.319;  470.875;  -12.351; 1792.232
897.879;  451.680;  -13.511; 1762.751
898.439;  415.276;  -12.001; 1661.149
898.999;  393.276;  -10.180; 1781.468
899.559;  388.214;  -12.030; 1703.347
900.119;  378.394;  -15.710; 1537.525
900.679;  364.195;   -8.900; 1638.384
901.239;  343.135;   -8.340; 1527.902
901.799;  314.694;  -13.910; 1456.441
902.359;  291.079;  -13.460; 1357.140
902.919;  282.297;  -11.490; 1331.118
903.479;  282.414;  -12.110; 1317.257
904.038;  277.087;  -11.720; 1262.595
904.598;  267.520;  -13.610; 1152.034
905.158;  256.503;  -11.040; 1240.893
905.717;  239.592;  -10.900; 1233.691
906.277;  229.748;  -15.080; 1217.330
906.836;  226.737;  -13.380; 1222.408
907.396;  223.806;  -10.780; 1193.047
907.955;  216.384;   -8.500; 1182.526
908.515;  211.707;  -12.760; 1099.364
909.074;  210.849;  -11.900; 1092.863
909.633;  210.793;   -8.950; 1069.121
910.192;  208.055;   -8.770; 1196.460
910.752;  196.724;  -12.390; 1029.960
911.311;  185.562;  -13.680; 1009.780
911.870;  175.591;  -12.370;  971.460
912.429;  170.937;  -10.900; 1094.080
912.988;  167.678;  -11.690; 1081.060
913.547;  165.552;  -13.240;  940.380
914.106;  163.947;  -11.990;  999.420
914.665;  161.608;   -9.990;  984.020
915.224;  160.417;  -12.880; 1035.760
915.782;  157.867;  -12.350;  922.560
916.341;  156.975;   -9.110; 1049.840
916.900;  154.308;   -9.270;  925.260
917.458;  152.583;  -13.240;  884.220
918.017;  150.510;  -13.550;  942.600
918.576;  148.215;  -12.320;  904.440
919.134;  147.403;  -11.490;  837.980
919.693;  145.155;  -13.670;  893.060
920.251;  143.977;  -15.470;  876.500
920.809;  142.909;  -11.290;  839.580
921.368;  144.688;  -10.210;  885.360
921.926;  141.383;  -12.140;  842.940
922.484;  138.177;  -13.080;  903.360
923.042;  137.630;  -11.720;  880.340
923.601;  137.611;   -7.480;  998.680
924.159;  136.236;  -11.570;  935.560
924.717;  133.591;  -13.840;  841.080
925.275;  133.910;  -10.640;  903.240
925.833;  133.157;  -11.540;  779.320
926.391;  134.640;  -12.960;  938.380
926.949;  133.952;  -14.130;  857.680
927.506;  133.983;  -11.750;  903.500
928.064;  133.998;  -10.250;  877.580
928.622;  134.807;  -13.030;  880.100
929.180;  135.883;  -13.400;  814.180
929.737;  140.138;  -10.700;  808.540
930.295;  141.765;  -10.070;  928.480
930.853;  142.301;  -11.960;  849.100
931.410;  142.284;  -13.120;  821.120
931.968;  144.625;  -10.770;  940.660
932.525;  144.352;  -10.680;  909.380
933.082;  144.490;  -13.130;  811.440
933.640;  145.243;  -13.210;  925.900
934.197;  144.626;  -11.060;  886.360
934.754;  144.752;   -9.580;  897.780
935.312;  146.404;  -14.000;  863.340
935.869;  148.204;  -10.710; 1012.980
936.426;  146.241;   -9.860;  872.800
936.983;  146.463;   -9.710;  889.020
937.540;  148.579;  -13.990;  838.280
938.097;  152.833;  -14.040;  940.120
938.654;  156.567;  -10.310;  898.860
939.211;  157.578;  -10.560;  952.480
939.768;  157.198;  -13.900;  915.420
940.324;  159.340;  -14.760;  904.200
940.881;  162.411;  -10.370;  878.500
941.438;  167.256;   -8.260; 1021.200
941.995;  165.140;  -12.540;  992.560
942.551;  165.132;  -14.670;  875.620
943.108;  166.362;  -10.450;  937.920
943.664;  167.438;  -10.750;  869.340
944.221;  171.358;  -11.550; 1088.140
944.777;  171.943;  -14.770;  869.680
945.334;  169.874;  -12.820;  884.840
945.890;  165.162;  -10.130;  946.480
946.446;  161.914;  -13.470;  947.020
947.003;  162.948;  -12.120;  964.940
947.559;  164.065;   -9.980; 1063.040
948.115;  160.144;   -9.080; 1026.540
948.671;  157.791;  -10.830;  967.300
949.227;  157.537;  -12.440;  859.560
949.783;  157.135;  -12.910;  858.900
950.339;  161.182;  -10.270;  991.000
950.895;  163.336;  -13.630; 1023.840
951.451;  161.911;  -15.100;  925.280
952.007;  160.255;  -11.330;  998.540
952.563;  155.991;  -10.580;  937.780
953.118;  153.935;  -13.440;  904.940
953.674;  153.572;  -12.710;  935.780
954.230;  155.838;  -10.350;  949.640
954.785;  160.327;   -9.190;  936.640
955.341;  162.290;  -11.200;  998.160
955.897;  156.790;  -16.560;  834.660
956.452;  155.022;  -12.570;  953.840
957.008;  152.709;   -7.970; 1083.640
957.563;  148.462;  -11.940; 1009.540
958.118;  143.906;  -13.450;  877.700
958.674;  141.423;  -12.030;  946.780
959.229;  142.664;   -9.410; 1013.980
959.784;  143.767;  -12.000;  832.400
960.339;  144.544;  -14.780; 1001.280
960.894;  141.639;   -9.860;  963.760
961.449;  137.526;   -9.970;  859.960
962.004;  138.123;  -10.900; 1212.840
962.559;  135.935;  -13.150;  860.140
963.114;  136.593;  -13.740;  742.480
963.669;  136.812;   -9.820;  915.500
964.224;  135.305;  -13.890;  874.340
964.779;  135.063;  -12.600;  828.420
965.334;  132.748;  -10.950; 1017.860
965.888;  122.599;  -11.170;  875.360
966.443;  112.549;  -12.540;  972.380
966.998;  101.462;  -15.780;  819.460
967.552;   96.036;   -9.760;  908.380
968.107;   93.702;   -9.060;  868.300
968.661;   96.097;  -11.950;  922.440
969.216;   98.745;  -12.800;  856.280
969.770;   99.984;  -11.210;  917.200
970.324;  102.766;  -11.610;  923.140
970.879;  103.894;  -11.370;  947.180
971.433;  107.324;  -12.540;  952.720
971.987;  107.443;  -11.320;  895.340
972.541;  106.117;  -10.720;  917.100
973.095;  105.177;   -9.680; 1009.460
973.649;  103.305;  -11.440;  809.480
974.203;  102.037;  -11.210;  829.040
974.757;  101.722;  -10.240;  855.220
975.311;  102.773;  -13.720;  872.600
975.865;  102.393;  -13.770;  881.820
976.419;   99.452;  -11.690;  857.400
976.973;   97.692;   -9.510;  849.620
977.526;   97.444;  -12.620;  949.920
978.080;   95.616;  -12.010;  796.780
978.634;   95.208;  -10.170;  921.320
979.187;   93.900;   -9.020;  905.400
979.741;   95.447;   -9.820; 1018.380
980.294;   93.995;  -14.870;  789.160
980.848;   92.579;  -12.380;  717.220
981.401;   92.827;  -10.350;  816.540
981.955;   92.808;  -13.720;  844.300
982.508;   89.057;  -11.490;  746.340
983.061;   88.159;  -10.000;  915.260
983.615;   86.804;  -11.480;  798.800
984.168;   85.253;  -13.220;  770.080
984.721;   84.503;  -13.960;  880.760
985.274;   82.709;  -10.870;  867.500
985.827;   80.972;   -9.790;  834.220
986.380;   78.936;  -13.120;  721.340
986.933;   78.981;  -12.450;  864.800
987.486;   77.106;  -10.210;  861.920
988.039;   78.214;   -8.430;  863.100
988.591;   77.608;  -10.520;  893.260
989.144;   75.171;  -14.860;  737.260
989.697;   73.761;  -13.080;  758.740
990.250;   73.592;  -10.150;  858.100
990.802;   71.618;  -13.430;  755.860
991.355;   71.320;  -12.750;  974.880
991.907;   69.391;  -12.040;  864.320
992.460;   67.461;  -11.330;  753.760
993.012;   66.081;  -13.610;  749.540
993.565;   65.092;  -13.460;  711.360
994.117;   65.201;   -9.360;  950.780
994.669;   62.676;  -11.300;  701.320
995.221;   61.854;  -13.540;  791.920
995.774;   60.620;  -13.430;  787.580
996.326;   58.728;  -12.520;  740.220
996.878;   59.322;  -10.950;  838.420
997.430;   55.635;  -14.300;  699.860
997.982;   54.857;  -13.760;  750.140
998.534;   54.719;  -11.530;  739.060
999.086;   53.762;  -10.310;  738.220
999.638;   53.298;  -12.530;  661.380
1000.190;   51.770;  -11.840;  699.320
1000.741;   51.491;  -10.260;  742.700
1001.293;   50.873;   -8.860;  686.020
1001.845;   50.585;  -13.700;  676.640
1002.396;   50.646;  -12.100;  743.400
1002.948;   50.005;  -12.760;  737.400
1003.500;   47.769;  -10.380;  723.780
1004.051;   48.539;  -11.900;  907.580
1004.603;   47.349;  -12.250;  791.820
1005.154;   43.651;  -13.210;  608.980
1005.705;   42.501;  -10.950;  723.960
1006.257;   41.344;  -13.880;  707.220
1006.808;   40.931;  -12.840;  685.460
1007.359;   41.242;  -10.570;  763.240
1007.910;   40.317;   -9.620;  646.640
1008.461;   39.550;  -13.630;  732.940
1009.013;   39.056;  -17.200;  588.340
1009.564;   39.857;  -10.200;  793.520
1010.115;   37.159;  -12.570;  597.040
1010.665;   36.805;  -15.150;  602.160
1011.216;   37.291;  -14.480;  667.920
1011.767;   37.061;  -11.340;  697.920
1012.318;   36.891;   -9.780;  736.980
1012.869;   36.235;  -12.380;  679.000
1013.419;   35.841;  -15.560;  603.120
1013.970;   35.945;  -11.010;  666.640
1014.521;   35.751;  -11.610;  620.620
1015.071;   35.866;  -13.450;  670.380
1015.622;   35.478;  -13.870;  635.460
1016.172;   34.485;  -11.610;  596.820
1016.723;   34.084;  -12.120;  614.380
1017.273;   33.806;  -13.620;  604.160
1017.823;   33.796;  -14.140;  650.340
1018.374;   33.053;  -12.800;  611.760
1018.924;   33.172;  -12.340;  716.880
1019.474;   34.189;  -11.410;  718.880
1020.024;   31.875;  -14.770;  657.580
1020.574;   33.259;   -9.780;  726.160
1021.124;   32.654;   -8.560;  673.580
1021.674;   31.928;  -15.190;  559.120
1022.224;   32.217;  -13.530;  708.940
1022.774;   32.249;  -13.280;  668.820
1023.324;   32.220;  -10.690;  753.520
1023.874;   33.204;  -10.240;  875.760
1024.423;   31.512;  -12.540;  613.700
1024.973;   30.574;  -10.010;  610.760
1025.523;   30.500;  -10.550;  620.960
1026.072;   29.752;  -13.560;  606.420
1026.622;   30.582;  -15.120;  675.740
1027.172;   30.787;  -11.260;  715.660
1027.721;   29.537;  -11.410;  601.220
1028.270;   30.334;  -13.530;  663.400
1028.820;   29.244;  -13.680;  638.080
1029.369;   29.786;  -13.520;  612.700
1029.918;   28.887;  -10.980;  649.840
1030.468;   29.209;  -13.530;  564.780
1031.017;   29.308;  -13.170;  634.800
1031.566;   28.265;  -12.200;  608.900
1032.115;   28.638;   -9.960;  694.500
1032.664;   27.715;  -13.210;  596.480
1033.213;   28.515;  -12.500;  735.420
1033.762;   27.747;  -11.910;  635.620
1034.311;   27.590;   -9.640;  677.220
1034.860;   27.865;  -13.310;  691.000
1035.408;   27.424;  -11.830;  722.720
1035.957;   27.821;  -12.000;  719.540
1036.506;   25.121;  -11.690;  530.800
1037.055;   28.100;  -10.990;  844.320
1037.603;   26.624;  -15.120;  664.000
1038.152;   24.344;  -12.450;  534.760
1038.700;   25.028;  -10.560;  585.740
1039.249;   25.809;  -11.080;  681.220
1039.797;   25.907;  -12.540;  633.360
1040.345;   25.540;  -11.920;  705.420
1040.894;   25.331;  -11.410;  625.300
1041.442;   24.873;  -14.320;  632.200
1041.990;   24.319;  -16.240;  559.160
1042.538;   23.927;  -11.680;  536.180
1043.087;   24.198;  -10.760;  570.860
1043.635;   24.710;  -11.850;  670.500
1044.183;   24.207;  -15.480;  586.400
1044.731;   22.927;  -11.770;  576.000
1045.279;   24.188;  -13.090;  674.920
1045.827;   25.859;  -12.440;  892.400
1046.374;   22.627;  -13.840;  515.420
1046.922;   21.968;  -13.220;  590.580
1047.470;   23.659;  -10.230;  691.300
1048.018;   22.947;  -14.590;  647.960
1048.565;   23.866;  -12.050;  708.600
1049.113;   21.504;  -11.650;  557.000
1049.660;   22.157;  -10.510;  629.660
1050.208;   22.971;  -13.310;  675.640
1050.755;   21.130;  -15.900;  606.580
1051.303;   22.647;  -11.430;  686.820
1051.850;   21.359;   -8.480;  635.120
1052.397;   19.612;  -15.010;  473.960
1052.945;   20.914;  -13.960;  617.760
1053.492;   22.210;  -13.150;  741.840
1054.039;   22.039;   -9.630;  720.180
1054.586;   20.718;  -13.680;  557.240
1055.133;   21.205;  -14.570;  693.140
1055.680;   21.143;  -13.820;  646.620
1056.227;   19.938;  -11.730;  542.780
1056.774;   22.045;  -12.480;  794.980
1057.321;   19.342;  -13.930;  523.260
1057.868;   20.196;  -11.690;  651.320
1058.415;   19.930;   -9.520;  651.980
1058.961;   21.072;  -13.160;  678.940
1059.508;   20.072;  -12.920;  643.820
1060.055;   19.458;  -11.920;  581.780
1060.601;   20.570;  -11.500;  624.300
1061.148;   19.525;  -14.330;  616.820
1061.694;   18.898;  -16.870;  592.580
1062.241;   18.903;  -10.330;  596.320
1062.787;   19.528;  -10.620;  663.140
1063.334;   20.306;  -10.110;  808.560
1063.880;   18.874;  -13.400;  668.360
1064.426;   18.764;  -10.680;  706.820
1064.972;   18.369;   -9.920;  601.340
1065.518;   16.979;  -10.980;  566.640
1066.065;   18.391;  -14.890;  624.460
1066.611;   17.722;  -12.870;  598.800
1067.157;   18.155;  -12.950;  641.860
1067.703;   18.040;  -13.540;  668.480
1068.249;   17.724;  -13.540;  605.220
1068.794;   17.564;  -12.600;  626.880
1069.340;   16.065;  -10.620;  578.960
1069.886;   17.304;  -12.830;  590.700
1070.432;   15.377;  -14.870;  541.720
1070.977;   15.906;  -11.980;  601.080
1071.523;   16.840;   -8.200;  573.060
1072.068;   16.374;  -12.330;  582.000
1072.614;   17.048;  -16.370;  527.760
1073.160;   16.751;  -11.100;  687.040
1073.705;   15.596;  -10.480;  572.520
1074.250;   15.967;  -14.520;  559.900
1074.796;   15.761;  -11.460;  655.160
1075.341;   16.542;  -11.950;  664.100
1075.886;   15.907;  -11.460;  594.240
1076.431;   15.710;  -13.770;  649.880
1076.976;   15.157;  -12.680;  639.220
1077.521;   15.249;  -13.170;  583.080
1078.067;   14.809;  -10.860;  579.400
1078.612;   15.063;  -13.920;  661.620
1079.156;   15.012;  -13.880;  601.540
1079.701;   15.509;  -13.120;  693.260
1080.246;   14.946;   -9.940;  696.300
1080.791;   14.015;  -14.740;  625.020
1081.336;   14.909;  -13.750;  659.320
1081.880;   15.048;  -13.400;  649.680
1082.425;   13.075;  -12.220;  573.480
1082.970;   14.831;  -11.610;  717.040
1083.514;   14.354;  -13.580;  597.000
1084.059;   13.213;  -12.810;  586.720
1084.603;   13.666;  -12.320;  565.840
1085.147;   13.911;  -13.190;  645.220
1085.692;   14.114;  -12.480;  716.800
1086.236;   12.715;  -13.020;  503.140
1086.780;   14.650;   -9.190;  751.440
1087.325;   13.534;  -12.480;  654.620
1087.869;   12.536;  -12.450;  610.700
1088.413;   12.971;  -12.240;  705.040
1088.957;   11.523;   -9.020;  543.400
1089.501;   13.118;  -10.320;  766.640
1090.045;   12.879;  -12.720;  726.480
1090.589;   11.170;  -13.690;  569.920
1091.133;   12.759;  -10.020;  673.340
1091.676;   12.662;  -12.330;  591.940
1092.220;   12.485;  -14.970;  600.920
1092.764;   12.209;  -12.430;  706.960
1093.307;   11.846;   -9.800;  673.780
1093.851;   10.542;  -14.970;  556.540
1094.395;   11.594;  -15.310;  683.140
1094.938;   11.082;  -10.370;  632.520
1095.482;   10.930;  -11.050;  559.800
1096.025;   11.538;  -11.840;  710.880
1096.568;   12.409;  -12.840;  779.280
1097.112;    9.445;  -14.700;  508.180
1097.655;   11.931;   -8.720;  603.000
1098.198;   10.691;  -13.610;  600.180
1098.741;   10.507;  -13.350;  612.860
1099.285;   10.858;  -11.230;  657.300
1099.828;    9.063;  -11.840;  439.400
1100.371;   10.081;  -10.840;  608.160
1100.914;   10.419;  -14.190;  682.660
1101.457;    9.864;  -11.240;  679.900
1101.999;    8.914;  -11.270;  584.680
1102.542;   10.081;  -11.480;  641.440
1103.085;    9.781;  -11.750;  658.500
1103.628;    9.781;  -11.400;  762.060
1104.170;    9.403;  -10.490;  588.280
1104.713;    9.726;  -10.600;  646.700
1105.256;    9.134;  -14.360;  557.440
1105.798;    8.445;  -13.210;  499.980
1106.341;    9.841;  -10.270;  728.900
1106.883;    8.862;  -12.200;  521.340
1107.425;    7.966;  -13.110;  668.180
1107.968;    8.218;  -12.840;  612.380
1108.510;    9.141;   -6.480;  684.960
1109.052;    7.307;  -13.940;  612.620
1109.594;    8.169;  -13.690;  554.440
1110.136;    8.346;  -11.880;  643.220
1110.679;    8.156;   -9.500;  633.080
1111.221;    8.277;  -14.160;  604.460
1111.763;    7.338;  -13.980;  559.220
1112.304;    7.178;  -13.880;  547.140
1112.846;    8.155;  -12.210;  666.240
1113.388;   10.155;  -11.390;  942.180
1113.930;    7.841;  -14.540;  694.200
1114.472;    6.744;  -12.640;  606.540
1115.013;    5.671;  -11.620;  551.280
1115.555;    7.235;  -13.640;  587.100
1116.097;    7.026;  -15.380;  579.480
1116.638;    7.479;  -12.640;  684.600
1117.180;    7.129;   -9.850;  667.740
1117.721;    6.678;  -13.690;  568.580
1118.262;    6.959;  -12.680;  677.960
1118.804;    7.276;  -12.530;  637.340
1119.345;    5.933;  -11.690;  578.400
1119.886;    6.889;  -13.380;  704.040
1120.427;    5.651;  -14.070;  589.020
1120.969;    5.325;  -13.500;  597.920
1121.510;    5.501;  -11.480;  563.060
1122.051;    6.023;  -12.830;  723.580
1122.592;    4.991;  -14.290;  655.420
1123.133;    4.876;  -12.400;  547.940
1123.673;    5.790;  -10.130;  706.480
1124.214;    6.056;  -12.930;  612.460
1124.755;    6.086;  -14.380;  639.460
1125.296;    5.733;  -14.000;  627.320
1125.836;    6.195;  -10.070;  691.500
1126.377;    4.671;  -12.640;  599.660
1126.918;    5.514;  -12.960;  614.980
1127.458;    4.468;  -13.350;  622.220
1127.999;    5.546;  -10.750;  656.980
1128.539;    5.392;  -12.350;  694.240
1129.079;    4.248;  -14.860;  632.720
1129.620;    3.328;  -13.840;  558.100
1130.160;    3.768;  -12.330;  539.480
1130.700;    4.263;  -14.530;  640.840
1131.240;    4.877;  -12.530;  643.700
1131.781;    3.922;  -14.450;  619.680
1132.321;    3.629;   -9.790;  599.120
1132.861;    2.610;  -14.860;  564.200
1133.401;    3.070;  -14.290;  593.940
1133.941;    4.406;  -11.750;  626.280
1134.481;    3.318;   -9.920;  597.580
1135.020;    3.717;  -12.290;  609.160
1135.560;    4.119;  -11.650;  674.940
1136.100;    3.239;  -16.270;  501.160
1136.640;    2.578;  -10.890;  510.480
1137.179;    2.947;  -14.180;  537.960
1137.719;    3.281;  -16.250;  605.400
1138.258;    3.383;  -14.230;  587.360
1138.798;    3.525;   -9.090;  663.780
1139.337;    2.103;  -15.130;  482.840
1139.877;    2.895;  -13.680;  642.360
1140.416;    4.952;  -11.320;  878.060
1140.955;    1.756;  -10.860;  535.380
1141.494;    2.738;  -12.920;  669.280
1142.034;    2.198;  -13.930;  583.520
1142.573;    3.103;  -11.440;  646.280
1143.112;    2.199;  -12.000;  553.480
1143.651;    2.416;  -13.670;  536.480
1144.190;    2.270;  -12.730;  691.640
1144.729;    1.909;  -14.560;  607.420
1145.267;    1.622;  -11.830;  584.900
1145.806;    2.729;  -12.230;  637.040
1146.345;    1.612;  -14.130;  635.020
1146.884;    1.337;  -11.590;  622.500
1147.422;    1.851;  -12.550;  533.060
1147.961;    2.957;  -11.180;  708.460
1148.500;    2.539;  -11.510;  669.720
1149.038;    1.882;  -11.640;  632.500
1149.577;    1.978;  -10.130;  698.640
1150.115;   -0.323;  -13.970;  452.280
1150.653;    1.410;  -14.520;  607.340
1151.192;    0.976;  -12.810;  552.920
1151.730;    1.154;   -9.100;  652.560
1152.268;    1.057;  -12.220;  589.520
1152.806;    0.865;  -14.140;  571.180
1153.344;    0.037;  -12.350;  577.640
1153.882;    1.158;   -8.980;  600.060
1154.421;    0.235;  -15.190;  470.620
1154.958;    1.195;  -15.210;  595.240
1155.496;    1.984;  -12.850;  645.280
1156.034;    0.841;   -9.940;  721.880
1156.572;    2.398;  -13.570;  667.060
1157.110;   -0.172;  -14.590;  473.940
1157.647;    1.061;  -13.030;  676.960
1158.185;   -0.095;  -12.140;  564.320
1158.723;   -1.049;  -14.390;  509.200
1159.260;   -0.028;  -14.090;  701.700
1159.798;    0.417;  -11.920;  658.160
1160.335;   -0.202;  -11.110;  631.820

