
Integration time [ms]:   3.276
Averaging Nr. [scans]: 1000
Smoothing Nr. [pixels]: 0
Data measured with spectrometer [name]: 7414430SP
Wave   ;Sample   ;Dark     ;Reference
[nm]   ;[counts] ;[counts] ;[counts] 

288.544;  149.873;    7.793;  793.890
289.143;  153.239;    7.462;  681.602
289.742;  153.876;    8.602;  828.814
290.341;  139.601;    1.321;  789.841
290.940;  128.943;   -0.709;  730.702
291.538;  129.225;    0.881;  881.108
292.137;  129.622;    0.122;  792.581
292.736;  134.953;   -1.929;  975.101
293.335;  131.251;   -8.229;  735.086
293.934;  130.752;   -5.279;  781.677
294.532;  129.779;   -1.369; 1031.958
295.131;  115.644;   -7.641;  834.394
295.730;  115.620;   -8.420;  809.588
296.328;  114.967;   -5.611;  783.442
296.927;  116.122;   -5.781;  779.652
297.525;  115.861;   -6.361;  781.236
298.124;  106.596;  -11.382;  654.009
298.722;  109.793;   -7.641;  761.933
299.321;  108.211;   -6.811;  708.597
299.919;  105.480;   -6.991;  751.918
300.518;  103.784;  -10.362;  689.338
301.116;  105.473;   -9.581;  691.381
301.715;  105.240;   -4.891;  730.222
302.313;  103.483;   -8.801;  704.943
302.911;   98.916;   -8.522;  733.830
303.509;  104.152;   -6.171;  925.627
304.108;  102.559;   -7.311;  760.383
304.706;  102.528;   -8.321;  801.664
305.304;   96.176;  -10.222;  796.707
305.902;  100.893;   -6.021;  784.484
306.500;   96.448;   -4.971;  728.200
307.098;   95.700;   -7.061;  746.560
307.696;   93.496;   -8.801;  780.432
308.294;   93.867;   -6.411;  731.359
308.892;   95.369;   -2.901;  759.769
309.490;   93.079;   -5.041;  712.161
310.088;   90.026;   -5.002;  788.444
310.686;   94.526;   -2.041;  821.749
311.284;   89.998;   -2.351;  766.040
311.882;   88.115;   -4.422;  731.225
312.480;   85.749;   -4.192;  697.167
313.078;   86.045;   -1.172;  808.331
313.675;   87.094;   -2.601;  691.600
314.273;   82.661;   -1.312;  797.837
314.871;   81.760;   -3.942;  589.829
315.468;   79.471;   -2.802;  652.090
316.066;   83.256;   -0.701;  694.427
316.664;   75.286;   -4.362;  656.351
317.261;   79.514;   -2.872;  910.128
317.859;   75.106;   -2.022;  768.735
318.456;   75.591;   -0.531;  830.096
319.054;   71.048;   -3.912;  787.828
319.651;   70.362;   -4.752;  759.928
320.249;   68.689;   -2.602;  810.188
320.846;   67.865;   -0.821;  714.286
321.443;   63.797;   -4.642;  832.135
322.041;   61.421;   -5.002;  812.315
322.638;   59.083;   -3.982;  701.456
323.235;   60.151;   -3.411;  665.683
323.833;   58.090;   -7.361;  740.354
324.430;   53.008;   -8.611;  615.900
325.027;   54.229;   -4.061;  876.855
325.624;   54.028;   -4.031;  644.532
326.221;   51.136;   -7.481;  689.717
326.818;   50.816;   -5.281;  818.332
327.415;   53.759;   -7.460;  748.828
328.012;   53.316;   -5.510;  690.585
328.609;   51.792;   -7.880;  731.389
329.206;   49.312;   -8.331;  778.621
329.803;   49.330;   -5.121;  737.841
330.400;   52.674;   -4.510;  704.260
330.997;   55.075;   -6.441;  817.147
331.594;   52.828;   -8.831;  788.185
332.191;   58.008;   -7.621;  728.722
332.787;   60.183;   -4.591;  844.463
333.384;   59.106;   -7.412;  763.093
333.981;   57.496;   -8.293;  815.687
334.578;   59.624;   -7.052;  708.378
335.174;   63.522;   -3.102;  731.469
335.771;   62.676;   -5.943;  836.456
336.367;   59.845;   -7.393;  710.631
336.964;   63.441;   -4.063;  793.266
337.561;   61.599;   -3.813;  731.112
338.157;   57.263;   -4.654;  911.916
338.754;   56.053;   -7.934;  796.589
339.350;   52.750;   -4.414;  722.493
339.946;   54.967;   -4.664;  773.135
340.543;   47.311;   -6.375;  846.136
341.139;   41.412;   -9.815;  720.836
341.735;   39.386;   -4.526;  772.593
342.332;   38.631;   -4.895;  691.472
342.928;   39.013;   -4.295;  795.394
343.524;   32.583;   -5.476;  761.684
344.120;   28.664;   -5.856;  738.562
344.716;   31.760;   -2.155;  723.717
345.313;   30.144;   -6.275;  795.342
345.909;   24.235;   -8.815;  627.336
346.505;   25.809;   -5.305;  740.247
347.101;   27.207;   -2.674;  827.864
347.697;   27.265;   -4.344;  785.398
348.293;   21.783;   -9.975;  627.244
348.889;   22.591;   -5.774;  745.914
349.485;   22.218;   -5.004;  688.205
350.081;   21.719;   -4.704;  772.592
350.676;   18.393;   -6.635;  691.606
351.272;   22.876;   -4.504;  809.530
351.868;   21.827;   -3.914;  780.497
352.464;   19.240;   -9.044;  723.932
353.059;   15.392;   -8.314;  646.017
353.655;   18.979;   -7.024;  777.063
354.251;   20.085;   -5.343;  759.845
354.846;   14.750;   -8.604;  740.646
355.442;   11.960;   -6.945;  753.071
356.038;   13.801;   -7.564;  751.708
356.633;   15.065;   -5.814;  728.594
357.229;   11.562;   -7.364;  724.757
357.824;   10.023;   -8.024;  703.600
358.420;   10.174;   -9.384;  679.726
359.015;   10.206;   -5.104;  695.357
359.610;   11.182;   -6.854;  763.920
360.206;    5.236;  -10.185;  603.240
360.801;    7.344;   -7.054;  646.503
361.396;   10.074;   -5.034;  725.975
361.992;    5.720;   -8.284;  668.220
362.587;    3.307;   -8.625;  670.160
363.182;    5.038;   -7.674;  689.631
363.777;    5.706;   -5.164;  738.242
364.372;    5.568;   -8.604;  737.314
364.967;    1.418;   -9.055;  680.744
365.563;    5.537;   -6.114;  815.567
366.158;    2.951;   -5.814;  685.161
366.753;    3.187;   -7.854;  649.263
367.348;    2.014;   -7.804;  746.056
367.942;    1.210;   -7.954;  697.298
368.537;    0.568;   -4.984;  754.245
369.132;    0.666;   -8.564;  703.428
369.727;   -3.686;   -8.855;  638.079
370.322;   -2.229;   -6.245;  580.186
370.917;   -2.239;   -6.425;  710.646
371.511;    0.425;   -6.294;  861.834
372.106;   -3.471;   -7.685;  776.964
372.701;   -6.116;   -7.335;  585.988
373.296;    0.100;   -4.564;  863.135
373.890;   -4.874;  -10.235;  647.840
374.485;   -7.494;   -7.885;  691.199
375.079;   -3.468;   -7.324;  738.685
375.674;   -2.366;   -3.494;  812.970
376.268;   -6.703;   -8.525;  691.759
376.863;  -12.475;  -10.086;  580.327
377.457;   -6.355;   -7.025;  662.490
378.052;   -8.517;   -3.585;  764.884
378.646;   -8.204;   -7.595;  741.167
379.240;   -9.071;   -8.335;  721.176
379.835;   -7.941;   -5.785;  636.978
380.429;   -9.958;   -4.335;  562.557
381.023;  -10.087;   -6.805;  779.205
381.617;  -12.783;   -9.195;  680.106
382.212;   -9.221;   -6.905;  685.303
382.806;   -7.882;   -3.745;  760.690
383.400;  -11.675;   -7.745;  672.281
383.994;  -13.561;   -9.765;  664.870
384.588;   -8.962;   -6.564;  697.701
385.182;   -8.123;   -5.344;  726.624
385.776;   -9.821;   -8.514;  706.875
386.370;  -13.648;   -9.555;  681.968
386.964;  -12.013;   -8.715;  684.155
387.558;   -9.824;   -6.174;  598.360
388.152;  -13.540;   -8.725;  681.959
388.745;  -12.154;   -7.965;  814.707
389.339;  -10.214;   -5.924;  747.642
389.933;   -9.466;   -5.524;  695.370
390.527;  -11.123;   -7.114;  859.029
391.120;  -17.025;  -10.725;  595.318
391.714;  -13.548;   -8.035;  711.633
392.308;  -10.351;   -3.574;  780.253
392.901;  -13.736;   -7.245;  642.460
393.495;  -16.836;   -9.285;  595.414
394.089;  -14.335;   -5.895;  760.452
394.682;  -14.686;   -4.295;  697.188
395.275;  -15.319;   -9.875;  719.927
395.869;  -16.349;   -8.485;  667.314
396.462;  -15.201;   -7.455;  616.609
397.056;  -10.792;   -5.424;  776.621
397.649;  -15.647;   -6.605;  731.575
398.242;  -13.098;   -8.224;  712.645
398.836;  -12.474;   -7.474;  766.408
399.429;  -13.073;   -7.094;  631.041
400.022;  -16.588;   -9.475;  665.902
400.615;  -14.038;   -7.145;  805.609
401.208;  -12.477;   -7.174;  691.451
401.802;  -14.868;   -5.515;  699.329
402.395;  -15.828;   -9.875;  683.502
402.988;  -16.112;   -8.845;  696.627
403.581;  -13.490;   -8.874;  646.878
404.174;  -11.185;   -5.324;  686.568
404.767;  -14.782;   -9.575;  638.583
405.360;  -16.548;  -10.965;  621.445
405.953;  -11.536;   -8.764;  759.034
406.545;  -10.687;   -7.514;  725.342
407.138;  -15.123;  -10.025;  618.350
407.731;  -13.710;  -10.034;  613.303
408.324;   -9.422;   -9.374;  660.554
408.917;  -10.769;   -6.534;  681.864
409.509;  -12.740;   -8.004;  740.396
410.102;  -14.406;   -9.875;  643.948
410.695;   -8.593;   -8.604;  665.758
411.287;   -9.770;   -6.794;  599.821
411.880;  -10.919;   -9.334;  585.421
412.472;  -13.926;  -10.254;  613.092
413.065;  -10.863;   -6.714;  629.408
413.657;   -8.788;   -7.234;  576.678
414.250;   -8.869;  -10.544;  646.681
414.842;  -10.246;   -9.744;  676.353
415.434;   -8.342;   -6.994;  570.463
416.027;   -4.557;   -5.893;  652.196
416.619;   -6.664;   -7.264;  713.400
417.211;   -6.987;  -10.374;  599.352
417.804;   -3.685;   -7.993;  628.499
418.396;   -7.108;   -7.234;  607.643
418.988;   -4.874;   -9.443;  659.238
419.580;   -8.677;  -10.724;  568.276
420.172;   -6.509;  -10.323;  536.196
420.764;   -1.795;   -8.793;  672.482
421.356;   -3.026;  -11.143;  636.898
421.948;   -4.301;   -8.293;  677.661
422.540;    0.596;   -7.893;  680.027
423.132;   -0.588;   -7.082;  600.641
423.724;   -2.887;   -8.653;  561.267
424.316;   -1.270;  -10.213;  621.345
424.908;    2.437;   -9.762;  591.517
425.500;    3.450;   -5.572;  647.978
426.092;    3.396;   -8.422;  648.268
426.683;    2.271;   -9.283;  684.836
427.275;    5.090;   -7.852;  641.471
427.867;    7.289;   -5.272;  668.948
428.458;    7.721;   -7.682;  732.344
429.050;    5.626;  -10.612;  680.749
429.642;    7.575;   -9.882;  743.124
430.233;    7.754;   -6.962;  569.356
430.825;    9.614;   -6.842;  724.809
431.416;    7.709;   -9.672;  698.241
432.008;   10.745;   -6.552;  651.723
432.599;   11.240;   -6.891;  656.073
433.190;    8.726;  -10.912;  637.670
433.782;    7.806;  -11.172;  590.395
434.373;   14.658;   -6.061;  884.765
434.964;   13.540;   -8.251;  602.920
435.556;   11.423;   -9.722;  634.537
436.147;   15.324;   -9.082;  758.490
436.738;   13.720;   -8.041;  701.099
437.329;   20.199;   -7.341;  721.723
437.920;   13.038;   -8.162;  666.688
438.511;   11.898;  -11.802;  564.526
439.103;   18.661;  -10.191;  623.998
439.694;   20.815;   -7.601;  681.583
440.285;   21.439;   -8.541;  764.432
440.876;   18.949;   -9.751;  845.738
441.466;   19.066;   -9.401;  575.162
442.057;   24.124;   -7.760;  665.814
442.648;   23.221;   -9.971;  746.255
443.239;   21.057;  -11.001;  620.477
443.830;   25.113;   -7.990;  704.958
444.421;   28.362;   -7.910;  655.474
445.011;   24.427;   -8.131;  693.619
445.602;   24.557;   -7.111;  743.126
446.193;   26.025;  -10.920;  488.117
446.783;   30.760;   -6.500;  640.397
447.374;   25.659;   -8.671;  692.759
447.964;   26.643;  -10.781;  713.770
448.555;   34.545;   -9.650;  822.742
449.145;   31.558;   -8.660;  662.853
449.736;   32.607;   -8.990;  803.179
450.326;   32.882;   -9.500;  713.626
450.917;   37.109;   -8.680;  675.324
451.507;   36.443;   -7.520;  600.661
452.097;   37.075;   -8.590;  746.267
452.688;   38.311;  -11.340;  742.160
453.278;   37.526;  -10.100;  566.840
453.868;   42.189;   -6.019;  793.550
454.458;   39.805;   -9.440;  651.141
455.048;   39.769;  -10.560;  711.783
455.639;   42.241;  -11.799;  567.096
456.229;   44.484;   -6.899;  710.694
456.819;   47.981;   -7.389;  751.158
457.409;   46.681;  -11.119;  773.993
457.999;   49.793;   -9.289;  737.505
458.589;   50.235;   -6.139;  686.606
459.179;   50.476;   -8.729;  717.658
459.769;   47.786;   -9.789;  627.099
460.358;   52.881;  -10.259;  797.262
460.948;   52.807;   -7.299;  689.503
461.538;   54.464;  -10.289;  660.677
462.128;   52.830;  -11.269;  664.934
462.717;   59.209;   -9.368;  710.326
463.307;   61.888;   -7.908;  705.846
463.897;   58.439;   -9.599;  656.942
464.486;   56.980;   -9.769;  837.128
465.076;   61.684;   -8.048;  733.776
465.666;   65.743;   -9.358;  652.900
466.255;   62.703;   -7.919;  785.651
466.845;   62.717;  -11.689;  666.749
467.434;   64.973;   -7.818;  725.873
468.023;   66.255;   -7.678;  658.357
468.613;   64.082;  -10.939;  713.946
469.202;   67.357;  -10.118;  646.507
469.791;   71.130;   -9.108;  737.811
470.381;   74.032;   -6.058;  742.813
470.970;   73.998;  -10.428;  711.099
471.559;   73.054;  -10.268;  733.291
472.148;   76.666;   -8.448;  675.737
472.738;   79.265;   -6.917;  765.466
473.327;   78.511;  -11.978;  637.529
473.916;   77.703;  -11.888;  737.446
474.505;   82.168;   -9.437;  751.703
475.094;   85.159;   -6.747;  806.570
475.683;   85.424;   -9.367;  797.699
476.272;   86.067;  -12.637;  730.632
476.861;   88.651;  -10.027;  706.754
477.449;   94.289;   -8.716;  728.487
478.038;   88.966;   -9.577;  692.513
478.627;   90.400;   -9.718;  714.852
479.216;   96.282;   -8.947;  769.441
479.805;   99.607;   -6.256;  783.375
480.393;   99.161;   -7.937; 1008.945
480.982;   98.156;   -7.717;  874.501
481.571;  104.891;   -9.266;  858.333
482.159;  105.905;   -7.636;  705.386
482.748;  105.293;   -9.667;  821.385
483.336;  109.715;  -10.376;  858.209
483.925;  110.370;   -7.147;  774.373
484.513;  117.092;   -7.996;  758.962
485.102;  113.842;  -10.027;  810.965
485.690;  122.489;  -10.446; 1011.050
486.278;  124.180;   -8.446;  979.329
486.867;  124.252;   -6.356;  809.662
487.455;  126.893;   -9.136;  898.229
488.043;  126.933;  -10.646;  748.361
488.631;  136.780;   -7.456; 1005.079
489.220;  140.727;   -6.636;  908.626
489.808;  140.405;  -11.036;  741.415
490.396;  147.435;  -10.246;  914.645
490.984;  154.277;   -8.556;  830.161
491.572;  163.550;   -5.886;  940.315
492.160;  168.296;   -9.486;  919.081
492.748;  179.744;  -10.976;  884.341
493.336;  202.534;   -8.776; 1019.693
493.924;  227.375;   -5.465;  958.077
494.512;  253.499;   -9.986; 1066.638
495.100;  289.477;  -10.636; 1103.280
495.687;  343.056;  -10.885; 1206.373
496.275;  404.444;   -8.126; 1150.796
496.863;  474.006;  -10.586; 1281.171
497.451;  573.114;  -11.926; 1386.805
498.038;  700.720;  -10.885; 1556.729
498.626;  805.314;   -6.315; 1741.407
499.214;  951.536;   -7.326; 2016.609
499.801; 1142.960;  -11.906; 2220.633
500.389; 1383.482;  -10.466; 2312.494
500.976; 1686.497;   -5.236; 2744.849
501.564; 2105.972;   -8.936; 3148.565
502.151; 2472.334;  -13.176; 3515.999
502.738; 2917.257;  -10.646; 3971.274
503.326; 3293.551;   -9.525; 4403.796
503.913; 3671.457;  -10.856; 5161.749
504.500; 4027.560;  -11.586; 5986.420
505.088; 4450.384;  -10.336; 6381.201
505.675; 4963.813;   -6.355; 6925.547
506.262; 5663.367;   -9.046; 7619.060
506.849; 6358.044;  -10.416; 8733.969
507.436; 6831.727;  -10.305; 9790.121
508.023; 7409.659;   -5.496; 9985.472
508.610; 7651.807;   -7.856;10434.618
509.197; 8267.037;  -10.097;11198.435
509.784; 9602.789;  -10.886;12391.194
510.371;10629.521;   -9.315;13603.713
510.958;11385.026;   -9.936;14426.586
511.545;12161.099;   -9.326;15243.775
512.132;12998.404;  -10.075;15945.876
512.719;13567.189;   -7.796;16340.369
513.305;14466.512;  -10.606;18011.766
513.892;15226.929;  -11.486;19754.971
514.479;16535.951;   -9.126;20967.805
515.066;17980.613;   -6.026;22299.793
515.652;19230.271;   -8.466;22908.660
516.239;20534.939;  -10.886;23798.875
516.825;21554.102;  -11.496;25567.275
517.412;22545.445;   -5.796;28154.959
517.998;23081.594;  -10.506;28344.111
518.585;23148.635;  -10.076;27134.219
519.171;23647.291;   -8.315;27268.576
519.758;25083.619;   -8.596;28964.129
520.344;26820.748;   -8.466;30664.494
520.930;26747.844;  -11.006;32550.605
521.516;28130.309;  -10.495;35422.895
522.103;30367.670;   -5.526;38280.004
522.689;30867.381;   -8.746;37835.117
523.275;30279.949;  -11.376;37288.613
523.861;31374.023;  -11.156;37281.395
524.447;32694.031;   -8.135;37846.949
525.033;32489.041;   -7.896;38321.949
525.619;32557.018;  -12.476;38579.285
526.205;33861.480;   -9.516;40622.875
526.791;35802.398;   -6.926;42258.836
527.377;35643.605;   -8.346;42966.902
527.963;36244.863;   -8.717;42018.949
528.549;33192.367;  -11.016;42476.828
529.135;29986.512;   -8.536;41854.852
529.721;29438.248;   -9.666;41237.711
530.306;31417.041;  -10.066;41259.445
530.892;33671.305;  -11.356;41506.047
531.478;36074.410;   -6.596;43559.613
532.063;39209.602;   -8.836;47695.563
532.649;39510.102;  -10.047;50808.324
533.235;40136.637;   -9.746;51787.500
533.820;40617.836;   -6.566;52145.035
534.406;41753.008;  -10.817;51133.488
534.991;41119.500;   -9.416;49996.805
535.576;39164.574;   -9.036;48882.852
536.162;38635.285;   -6.156;46942.285
536.747;37604.191;  -11.607;45711.746
537.333;38015.395;  -11.787;48510.180
537.918;38341.707;  -12.437;50439.891
538.503;38117.738;   -7.196;50863.711
539.088;38634.590;  -10.556;50906.922
539.673;42316.820;   -8.767;52621.965
540.259;44756.301;  -10.026;52368.094
540.844;43109.586;   -7.416;50879.109
541.429;44632.398;   -9.467;52077.777
542.014;47478.121;   -9.527;52716.695
542.599;46725.430;   -9.946;52363.281
543.184;44316.402;   -7.927;53187.137
543.769;45832.145;   -9.297;54697.605
544.354;45214.832;  -10.127;53913.914
544.938;43952.012;   -9.267;49680.164
545.523;45782.945;   -6.506;47386.277
546.108;48287.406;   -9.787;49151.949
546.693;50283.789;  -11.587;51384.637
547.278;50103.301;  -10.986;51853.254
547.862;47065.918;   -8.206;51173.750
548.447;42553.309;  -10.067;51691.395
549.031;42187.219;   -9.637;52456.703
549.616;47129.715;   -9.926;52714.516
550.201;46265.070;   -6.347;52414.598
550.785;47375.332;   -7.917;52355.059
551.370;46491.445;  -10.867;54589.453
551.954;46239.063;   -9.047;58267.348
552.538;46993.082;   -7.827;59062.176
553.123;45354.934;  -10.287;58115.285
553.707;43313.199;  -12.178;56556.285
554.291;44700.270;   -8.717;56201.668
554.876;46932.547;   -7.457;55335.762
555.460;47138.887;  -10.387;54155.703
556.044;48171.668;   -9.618;53721.484
556.628;46839.043;  -11.567;53731.016
557.212;45631.543;   -8.097;54312.531
557.796;44062.879;  -11.077;53797.773
558.380;44023.762;  -11.108;56145.984
558.964;44493.680;   -9.057;57277.930
559.548;45606.191;   -6.977;56459.641
560.132;43992.668;  -11.457;54434.543
560.716;42632.754;  -11.378;54800.617
561.300;43687.031;   -9.577;57606.945
561.884;44826.320;   -7.127;58972.445
562.467;43227.184;   -7.118;57327.570
563.051;42443.223;  -13.358;54962.434
563.635;43424.699;  -10.178;52594.473
564.219;43831.797;   -7.837;50610.410
564.802;44720.883;  -11.398;49551.180
565.386;44622.109;  -12.788;48370.953
565.969;43936.695;   -9.077;48178.871
566.553;43347.352;   -6.207;49957.305
567.136;43860.547;   -8.568;50369.594
567.720;40203.156;  -11.868;49492.004
568.303;38194.480;   -8.268;50616.352
568.887;38306.719;   -8.698;50727.148
569.470;38550.738;   -6.808;51698.379
570.053;37100.648;  -13.188;52122.078
570.637;35509.023;  -12.037;52536.438
571.220;35386.453;   -8.577;51186.098
571.803;35992.055;   -8.498;51032.762
572.386;38173.949;  -10.498;49609.887
572.969;40593.293;   -9.388;48285.926
573.552;38782.582;   -8.338;47624.285
574.135;37563.438;   -8.518;45498.641
574.718;35249.496;  -13.628;41970.434
575.301;34123.832;  -10.893;41447.137
575.884;32998.164;   -8.158;40923.836
576.467;34236.141;  -10.328;45267.723
577.050;36351.512;  -13.058;48175.543
577.633;37718.625;   -9.458;47729.328
578.216;36744.820;   -8.928;47579.793
578.799;35842.344;   -9.358;47820.996
579.381;34598.035;  -11.388;48115.551
579.964;32866.227;  -11.718;47333.766
580.547;34526.215;   -8.588;46668.969
581.129;35719.688;   -8.859;44466.141
581.712;36528.984;  -10.729;44164.922
582.294;37101.406;  -11.118;46477.855
582.877;36949.816;   -5.218;48244.254
583.459;34538.535;   -8.679;47437.895
584.042;32604.971;  -10.709;46943.219
584.624;33310.980;  -11.669;46792.227
585.206;32878.598;   -8.218;46557.250
585.789;32914.055;  -10.569;45793.773
586.371;35668.027;  -11.859;43836.391
586.953;36099.238;  -10.719;42972.492
587.536;37410.711;   -7.198;42487.211
588.118;37340.668;   -8.720;42086.414
588.700;33817.363;  -10.439;43389.930
589.282;33010.883;   -9.198;43646.039
589.864;33963.512;   -9.199;43438.109
590.446;34948.762;  -11.319;43151.926
591.028;34807.582;  -11.159;42781.867
591.610;33783.512;  -11.779;42839.098
592.192;31228.088;   -7.668;42820.402
592.774;29699.957;  -11.949;40724.277
593.356;28520.180;  -12.129;39874.789
593.937;27536.973;  -10.669;39980.648
594.519;29710.760;   -6.509;42069.633
595.101;31779.498;  -10.849;42976.031
595.683;31845.447;  -11.679;44084.441
596.264;32880.547;   -9.049;43478.797
596.846;32184.563;   -8.849;43803.672
597.427;32091.432;   -9.570;42986.934
598.009;33798.273;  -12.620;42832.219
598.591;34192.641;  -10.039;42580.086
599.172;33298.051;  -10.369;43061.805
599.753;33456.141;   -9.140;41691.469
600.335;35045.023;  -11.430;40692.520
600.916;33344.586;   -9.939;39982.422
601.498;30803.898;   -8.479;40318.617
602.079;29291.115;  -10.920;40670.609
602.660;29293.920;  -11.480;41450.898
603.241;30832.834;  -11.699;41137.738
603.823;29571.166;   -9.579;38868.797
604.404;29254.723;  -10.620;38182.785
604.985;30863.611;  -10.450;38078.047
605.566;30589.637;   -9.129;38056.633
606.147;30783.957;   -7.510;37020.418
606.728;32352.148;  -10.660;37883.359
607.309;30883.980;  -11.740;38748.273
607.890;30265.332;   -9.759;38850.230
608.471;29820.529;   -8.250;37457.918
609.051;28986.990;   -9.240;36066.457
609.632;27940.592;  -12.120;35991.074
610.213;28724.395;   -9.110;37402.641
610.794;29399.535;   -8.030;38383.363
611.374;28978.285;   -8.110;40562.387
611.955;29493.785;  -13.560;38533.727
612.536;30783.605;  -11.400;36951.789
613.116;30767.496;   -8.070;37197.891
613.697;31060.383;  -10.830;38411.125
614.277;29451.650;  -11.641;38673.938
614.858;30304.813;  -13.310;37075.863
615.438;29453.865;   -7.460;35092.906
616.019;26729.979;   -7.601;33666.301
616.599;27403.867;  -12.020;34189.023
617.179;29234.574;  -11.780;36952.047
617.760;30153.107;   -8.570;39582.574
618.340;31190.338;  -11.471;38943.977
618.920;32459.225;  -11.170;37594.156
619.500;32334.783;  -11.071;37866.938
620.080;31451.586;   -7.750;37869.043
620.660;32629.484;  -12.711;36868.617
621.241;34019.719;  -10.211;36352.309
621.821;34217.000;  -10.961;35459.520
622.401;33240.223;   -7.720;35207.414
622.980;32509.561;   -8.981;35980.422
623.560;31054.459;   -9.331;37351.328
624.140;29885.777;   -9.850;34388.582
624.720;24783.236;   -7.451;32368.764
625.300;21296.686;   -9.070;32638.629
625.880;24657.779;  -12.601;34599.035
626.459;28593.586;  -11.751;36831.738
627.039;31646.395;   -9.281;38299.098
627.619;31487.959;   -8.801;38289.574
628.198;29910.943;  -12.071;37220.695
628.778;29107.689;   -9.461;37632.563
629.357;29779.025;   -8.491;38003.012
629.937;29811.719;   -9.721;38402.039
630.516;29412.068;   -9.951;37868.801
631.096;29113.906;  -11.731;35760.410
631.675;31792.135;   -8.572;35225.219
632.254;36780.273;  -11.282;35130.289
632.834;36144.496;  -13.322;35794.570
633.413;34245.305;  -10.301;35788.922
633.992;31399.396;   -8.582;34532.863
634.571;32303.686;   -8.352;33590.113
635.151;35278.926;  -11.912;34943.863
635.730;33625.301;  -10.511;35352.523
636.309;30126.738;   -7.731;35366.605
636.888;27742.184;   -9.952;36165.637
637.467;28667.457;  -11.672;37515.902
638.046;30394.510;   -8.901;39288.695
638.625;33560.395;   -7.912;38279.699
639.204;33266.023;  -10.022;37741.598
639.782;31684.664;  -12.252;38364.551
640.361;27973.725;  -10.041;36740.621
640.940;25200.035;  -11.161;34950.082
641.519;25902.563;   -9.701;34137.398
642.097;28812.695;  -11.271;35654.258
642.676;31557.176;   -8.651;35637.957
643.255;32103.197;   -8.711;36567.074
643.833;31244.818;   -9.581;37809.434
644.412;31263.133;  -13.711;37337.293
644.990;30408.668;  -11.811;37018.531
645.569;30586.936;   -9.411;36518.469
646.147;29537.334;  -10.291;36186.430
646.726;29138.111;  -12.401;36267.688
647.304;30392.545;  -10.411;36647.625
647.882;32348.744;   -9.651;39286.742
648.461;33999.285;   -9.631;39157.703
649.039;32155.248;  -11.881;35412.883
649.617;31414.369;   -9.661;34744.918
650.195;31111.031;   -9.301;35403.098
650.773;29591.285;  -10.511;35053.797
651.352;27135.012;  -11.521;33756.816
651.930;24901.705;  -12.211;31868.773
652.508;23442.406;   -9.171;33121.551
653.086;27484.133;   -9.371;33564.793
653.663;30255.762;  -13.161;34054.668
654.241;29097.047;  -13.031;35693.309
654.819;30737.422;   -9.371;36422.906
655.397;30833.410;  -10.511;38213.484
655.975;30520.539;  -10.371;39507.625
656.553;30224.783;  -10.051;39498.223
657.130;28588.002;  -10.061;40395.480
657.708;27914.092;   -9.561;39242.020
658.286;28012.213;  -11.511;38920.020
658.863;29383.957;  -10.261;40202.898
659.441;32509.977;   -7.531;39677.938
660.018;31924.529;   -9.501;40413.355
660.596;30733.631;  -13.301;39931.414
661.173;32653.494;  -11.211;39604.531
661.750;32676.889;   -9.951;39700.070
662.328;31539.854;   -9.390;39292.809
662.905;30673.096;  -11.330;38235.648
663.482;26271.678;   -9.050;36212.305
664.060;24438.520;   -8.240;35944.945
664.637;27306.531;  -10.050;35170.785
665.214;29233.234;  -11.760;34197.523
665.791;30777.090;  -10.530;34549.520
666.368;29482.113;   -9.690;35118.578
666.945;30186.268;   -9.320;36019.418
667.522;31790.246;  -11.860;36048.438
668.099;31491.182;  -10.770;36243.914
668.676;30268.316;   -6.260;35958.875
669.253;28939.080;   -7.000;37384.730
669.830;29675.928;  -10.190;36779.629
670.407;29417.971;   -9.550;35231.289
670.984;29373.850;   -9.260;35544.270
671.560;29841.572;   -9.280;35466.867
672.137;29049.766;  -11.810;34280.863
672.714;29938.092;  -11.490;34632.863
673.290;30430.137;   -7.740;35135.422
673.867;30633.893;  -10.660;36114.480
674.443;30527.285;  -12.230;36152.859
675.020;28751.945;  -10.450;35327.238
675.596;29894.961;   -9.260;35795.176
676.173;30362.668;  -10.780;35430.355
676.749;30146.498;  -13.690;33549.516
677.326;30149.723;  -11.980;32210.012
677.902;30097.174;   -8.630;32068.871
678.478;29398.063;  -10.730;32583.891
679.054;28834.404;  -10.520;32088.928
679.631;29135.641;  -11.920;30978.848
680.207;30729.318;   -7.490;33160.887
680.783;32301.719;   -9.860;35570.363
681.359;31335.826;  -13.380;36125.184
681.935;30756.102;  -12.480;35240.922
682.511;29958.605;   -7.900;34429.961
683.087;30106.607;   -7.710;34463.680
683.663;29722.391;  -11.480;34648.898
684.239;28458.744;  -14.090;34546.457
684.815;28051.000;   -7.560;35586.375
685.390;28446.254;   -9.910;35821.895
685.966;28979.090;  -11.159;35085.871
686.542;31448.158;  -11.169;34198.230
687.118;33594.055;   -5.959;32847.707
687.693;33731.309;  -10.329;32794.027
688.269;33392.234;  -12.059;33072.367
688.844;31486.352;  -10.909;33141.664
689.420;29225.516;   -8.019;33965.742
689.995;26940.105;   -8.399;34655.523
690.571;25631.729;  -10.949;33576.742
691.146;26080.770;   -9.619;32657.219
691.722;25578.270;   -8.999;32526.979
692.297;25550.891;  -11.589;33014.617
692.872;27409.686;  -11.739;34012.254
693.448;27006.877;  -11.059;34237.434
694.023;26245.314;  -10.139;34142.672
694.598;28219.762;   -9.029;34132.031
695.173;28484.484;  -13.319;34205.250
695.748;27778.553;  -10.169;32882.488
696.323;27869.324;   -8.339;32864.906
696.898;28162.279;   -8.169;33170.004
697.473;28022.445;  -12.309;32432.984
698.048;27452.117;  -10.989;31649.303
698.623;27383.504;   -9.329;30778.141
699.198;29368.420;   -9.849;31140.119
699.773;30233.605;  -12.329;31764.299
700.348;28511.162;  -10.389;31780.816
700.922;28496.813;   -9.269;32046.375
701.497;29327.824;   -9.329;32603.574
702.072;29457.246;  -10.789;34799.871
702.646;28101.629;  -10.839;35793.172
703.221;26132.740;   -9.099;35201.590
703.795;28255.059;  -10.939;34764.527
704.370;28611.020;  -12.859;34307.367
704.944;29111.141;  -11.559;33509.887
705.519;30058.098;   -7.939;31388.584
706.093;31503.670;  -10.499;31340.104
706.668;31727.990;  -11.289;32630.281
707.242;30692.150;  -11.509;32728.779
707.816;29098.988;   -9.639;32947.238
708.390;27525.275;  -11.429;33277.855
708.965;28041.736;  -11.869;33834.336
709.539;28165.961;  -11.689;33709.273
710.113;28719.520;  -10.478;33044.313
710.687;28154.264;  -10.228;31953.992
711.261;26369.789;  -13.698;30505.949
711.835;26196.113;  -13.378;30262.369
712.409;27076.760;   -9.698;31254.447
712.983;29061.385;  -11.898;32754.986
713.557;29954.721;  -15.138;34018.824
714.131;29541.107;  -14.098;34579.625
714.704;28581.908;   -9.958;33890.262
715.278;26333.381;  -10.028;33531.102
715.852;25349.363;  -11.148;33601.660
716.425;26185.361;   -9.068;33515.117
716.999;26907.490;  -10.038;33185.555
717.573;27941.984;   -9.798;33905.996
718.146;29051.996;  -12.378;35199.293
718.720;28993.607;  -11.918;35060.551
719.293;28430.953;   -8.088;34973.230
719.867;31320.590;  -10.888;36394.449
720.440;30918.641;  -11.938;36663.008
721.013;29210.646;  -12.818;35102.426
721.587;27904.770;  -10.298;33985.266
722.160;26957.141;  -10.048;33524.965
722.733;25872.215;  -12.108;32987.043
723.306;26169.574;  -10.818;33066.301
723.880;28577.963;   -8.908;33399.500
724.453;30498.250;   -9.878;33468.297
725.026;29585.496;  -11.188;33816.637
725.599;26962.828;  -11.678;32797.996
726.172;27284.703;   -9.618;33187.434
726.745;28189.469;   -8.258;35136.613
727.318;29339.047;  -12.978;35751.730
727.891;29666.209;  -12.148;35890.430
728.463;29445.430;   -8.968;34822.090
729.036;28720.063;  -10.188;32895.086
729.609;29262.990;  -11.788;31823.225
730.182;26201.738;  -11.788;31445.283
730.754;23738.947;  -10.268;32373.223
731.327;23794.949;   -9.998;33676.820
731.900;24126.146;  -12.228;33417.000
732.472;25474.887;  -13.848;31978.498
733.045;27345.512;   -8.698;30368.777
733.617;27346.453;  -10.607;30574.215
734.190;26868.271;  -11.507;31280.975
734.762;23942.441;  -13.647;31674.412
735.334;22299.453;   -9.767;31247.291
735.907;23060.643;   -9.897;29876.211
736.479;23146.611;  -11.637;29808.488
737.051;22812.885;   -9.567;30233.547
737.623;23780.721;   -8.187;31469.086
738.195;24593.508;  -11.187;31784.225
738.768;26545.594;  -12.337;32120.523
739.340;26702.346;  -12.227;32094.342
739.912;25496.324;  -11.057;31312.680
740.484;24059.717;  -10.207;31946.238
741.056;22983.574;  -10.047;32984.059
741.628;24804.857;  -13.627;33897.715
742.199;27037.732;   -7.177;33213.016
742.771;25331.215;  -10.797;31369.113
743.343;22999.885;  -11.997;31865.473
743.915;22038.623;  -12.867;32388.631
744.487;22175.852;   -7.617;31079.568
745.058;22372.365;   -9.557;30570.107
745.630;22757.262;   -9.877;29970.127
746.201;23495.367;  -14.177;29186.766
746.773;23883.586;   -9.237;28805.723
747.344;23704.889;   -9.847;29591.223
747.916;22359.736;  -11.657;31412.201
748.487;22547.887;  -10.587;32194.898
749.059;23663.170;   -8.707;32533.719
749.630;24314.904;  -10.537;32158.518
750.201;23419.561;  -11.687;30855.395
750.773;21712.531;  -11.647;28622.555
751.344;21684.619;   -7.147;28405.732
751.915;22943.334;   -9.757;28461.551
752.486;22823.482;  -12.427;27842.850
753.057;20595.641;  -12.227;27845.008
753.628;19445.938;  -10.417;27728.107
754.199;20603.076;  -11.767;27381.086
754.770;21574.828;  -11.187;25882.203
755.341;21514.027;  -10.507;25886.184
755.912;21513.965;   -9.387;26050.861
756.483;21034.600;  -10.647;26798.779
757.054;19252.857;  -11.837;27048.238
757.625;17965.922;  -12.716;26294.838
758.195;17703.971;   -9.666;26142.076
758.766;17457.404;   -8.656;26392.234
759.337;18244.744;  -12.856;26334.594
759.907;19915.293;  -13.366;27579.652
760.478;20794.223;   -8.576;28352.770
761.048;20157.959;  -10.526;27325.088
761.619;19365.326;  -11.116;26460.428
762.189;19434.162;  -12.136;26029.826
762.760;20600.188;   -9.456;26430.145
763.330;21696.113;   -7.136;26670.902
763.900;21100.008;  -11.786;26603.021
764.471;18479.512;  -11.546;25542.740
765.041;17180.166;   -8.096;24358.459
765.611;17262.857;   -8.876;23991.297
766.181;17716.303;  -12.196;24470.236
766.751;18696.732;  -11.636;24845.975
767.321;18432.941;  -10.156;24533.633
767.891;16448.635;  -11.766;24916.492
768.461;15911.942;  -14.936;24776.771
769.031;16448.461;  -12.356;24757.988
769.601;17999.598;   -7.526;24181.088
770.171;17839.297;  -10.766;23670.387
770.741;17117.480;  -13.176;22960.045
771.311;17358.949;  -10.616;22917.523
771.880;17703.197;   -9.576;23562.941
772.450;17379.924;  -10.336;24216.500
773.020;17377.836;  -13.516;24140.398
773.589;16646.203;  -13.466;24414.857
774.159;15968.013;   -8.686;23858.717
774.729;15651.249;   -9.476;22942.135
775.298;15209.071;  -13.666;22324.033
775.867;14830.411;  -11.716;21140.313
776.437;14880.743;   -9.906;20838.092
777.006;14669.940;  -12.166;20599.510
777.576;14565.785;  -12.356;20508.809
778.145;14689.135;  -11.646;20732.947
778.714;14558.107;   -8.226;21062.465
779.283;13804.686;   -9.556;20949.664
779.853;13320.289;  -14.116;20508.623
780.422;13831.001;  -11.506;20649.082
780.991;13381.181;   -9.556;21527.520
781.560;12223.279;   -9.095;22632.658
782.129;12083.208;  -12.135;23048.277
782.698;12122.573;  -10.865;23438.555
783.267;11693.751;   -9.335;23267.734
783.836;11645.954;  -11.045;22415.133
784.404;12713.952;  -13.865;20443.152
784.973;13294.662;  -13.095;19699.150
785.542;13213.615;  -11.575;19763.828
786.111;13037.276;   -9.705;20341.408
786.679;12495.354;  -12.105;20207.967
787.248;12226.039;  -12.455;19516.465
787.817;12049.690;  -11.535;18900.363
788.385;11650.976;   -9.765;17879.121
788.954;11065.063;  -14.005;17658.301
789.522;10560.019;  -11.955;17788.879
790.090;11136.256;  -10.135;18118.277
790.659;11531.488;  -10.975;18338.736
791.227;11025.015;  -13.375;18508.615
791.795;11475.035;  -12.375;17898.254
792.364;11847.656;  -10.725;17295.133
792.932;12147.388;   -9.715;16822.051
793.500;12297.458;  -12.675;17040.148
794.068;12549.287;  -13.495;17179.787
794.636;12678.187;  -10.885;16664.246
795.204;12090.652;  -11.045;16524.545
795.772;12146.886;  -13.175;17274.564
796.340;11659.838;  -12.445;17891.002
796.908;11476.972;   -9.735;17648.561
797.476;11381.248;   -9.815;17064.080
798.044;10929.053;  -13.985;16672.777
798.612;10116.303;  -13.115;17023.996
799.180; 9726.891;  -10.185;16561.615
799.747; 9659.378;   -9.055;15962.773
800.315; 9414.665;  -12.385;15296.992
800.883; 9075.053;  -15.035;14801.771
801.450; 9079.815;  -10.365;14534.430
802.018; 9149.624;   -9.855;14173.248
802.585; 9288.897;  -11.905;14029.547
803.153; 9329.505;  -11.585;13836.846
803.720; 9138.230;   -9.095;13567.324
804.287; 8675.761;   -9.135;13360.622
804.855; 8253.899;  -11.604;13681.981
805.422; 8142.220;  -11.794;13536.560
805.989; 8161.655;  -10.734;13355.958
806.556; 8355.678;  -10.444;13747.896
807.124; 8602.514;  -12.764;13987.376
807.691; 8567.852;  -12.964;14038.674
808.258; 8365.181;  -11.134;14120.152
808.825; 8025.295;   -9.854;13860.111
809.392; 8085.874;  -10.504;13268.790
809.959; 7602.472;  -13.054;12680.389
810.526; 7172.551;   -8.294;12427.308
811.093; 7234.528;   -8.394;12030.105
811.659; 7860.483;  -12.304;11653.664
812.226; 8356.493;  -13.944;11637.183
812.793; 8023.638;  -10.484;11611.521
813.360; 7386.500;  -10.144;11885.181
813.926; 7088.008;  -11.684;12770.539
814.493; 6876.811;  -13.644;12677.638
815.060; 6476.495;   -9.724;11974.336
815.626; 6489.256;   -9.854;11594.715
816.193; 6902.234;  -13.254;11579.474
816.759; 6924.533;  -13.204;11666.972
817.325; 7005.546;   -9.434;11325.530
817.892; 7389.330;  -10.134;11105.369
818.458; 7831.413;  -13.474;10843.928
819.024; 7445.683;  -11.854;10714.406
819.591; 7121.781;  -10.244;10469.165
820.157; 6894.417;  -10.704;10235.523
820.723; 6365.458;  -12.324;10847.563
821.289; 6046.793;   -9.444;11040.980
821.855; 5946.632;   -8.374;10357.100
822.421; 5907.900;  -10.234; 9978.918
822.987; 5901.161;  -13.294; 9754.177
823.553; 5602.979;  -10.884;10065.755
824.119; 5441.500;   -8.884;10036.294
824.685; 5532.643;   -6.784;10029.192
825.251; 5617.707;  -12.004;10199.230
825.816; 5586.519;  -11.474; 9820.189
826.382; 5372.626;   -9.174; 9297.248
826.948; 5593.527;   -9.214; 9381.347
827.513; 5987.192;  -10.774; 9450.726
828.079; 5779.923;  -11.924; 9472.444
828.645; 5185.608;  -10.543; 9292.643
829.210; 5097.831;  -10.533; 9065.341
829.776; 5074.845;  -10.753; 9132.620
830.341; 4953.156;  -10.173; 9092.878
830.906; 5155.211;  -10.743; 9078.557
831.472; 5497.224;  -11.113; 8534.535
832.037; 5221.837;  -10.603; 8677.874
832.602; 4654.254;  -13.323; 8628.692
833.167; 4404.413;  -10.823; 8879.031
833.733; 4358.878;  -10.113; 9189.790
834.298; 4494.922;  -13.583; 9052.608
834.863; 4552.530;  -12.703; 8895.087
835.428; 4537.636;  -10.523; 8824.266
835.993; 4403.744;   -6.963; 8845.385
836.558; 4239.650;  -10.763; 8888.563
837.123; 4378.381;   -9.903; 8966.582
837.688; 4618.887;   -9.913; 8617.860
838.253; 4860.210;  -10.283; 8590.699
838.817; 5071.041;  -12.963; 8443.797
839.382; 4978.167;  -14.243; 8799.356
839.947; 4659.228;  -10.733; 8810.595
840.511; 4350.774;   -9.383; 8796.394
841.076; 3959.146;  -12.563; 8347.231
841.641; 4020.091;  -12.953; 8224.330
842.205; 4120.647;   -7.043; 8223.349
842.770; 4230.791;   -8.163; 8622.107
843.334; 4401.898;  -12.503; 8410.386
843.898; 4338.948;  -11.693; 8337.465
844.463; 4354.153;  -10.203; 8506.283
845.027; 4115.793;   -9.533; 8280.962
845.591; 3931.212;  -13.443; 8231.141
846.156; 3905.361;  -13.143; 7969.179
846.720; 3790.090;   -9.433; 7768.278
847.284; 3661.435;  -11.033; 7630.957
847.848; 3532.058;  -10.403; 7472.395
848.412; 3438.202;  -11.553; 7437.394
848.976; 3483.009;   -8.393; 7674.592
849.540; 3420.454;   -8.713; 7836.011
850.104; 3542.390;  -12.463; 7913.669
850.668; 3897.483;  -12.973; 7694.508
851.232; 3984.239;  -10.793; 7756.887
851.796; 3817.609;  -10.662; 7926.545
852.359; 3522.611;  -13.082; 7827.844
852.923; 3361.908;  -12.192; 7641.163
853.487; 3183.164;  -11.912; 7342.501
854.050; 3139.852;  -10.892; 7042.820
854.614; 3281.811;  -13.992; 7151.338
855.177; 3409.930;  -11.732; 7105.077
855.741; 3440.229;   -8.962; 6989.675
856.304; 3323.535;   -9.442; 6596.634
856.868; 3275.552;  -14.192; 6356.272
857.431; 3374.807;  -12.702; 6468.571
857.995; 3490.240;   -9.942; 6373.210
858.558; 3492.955;   -9.112; 6324.448
859.121; 3220.193;  -12.932; 6408.327
859.684; 3101.057;  -13.442; 6347.886
860.247; 3215.646;  -10.632; 6321.264
860.810; 3214.790;  -11.272; 6301.903
861.374; 2956.114;   -9.832; 6607.881
861.937; 2704.389;  -11.762; 6408.200
862.500; 2707.439;   -9.722; 6572.639
863.062; 2893.590;  -10.512; 6387.297
863.625; 3071.600;  -11.232; 6190.836
864.188; 3231.509;  -14.112; 5807.254
864.751; 3289.990;  -11.302; 5682.413
865.314; 3172.628;  -10.112; 5547.492
865.876; 2960.997;  -12.182; 5500.150
866.439; 2948.872;  -10.722; 5415.909
867.002; 2891.212;   -9.252; 5501.567
867.564; 2681.124;   -9.572; 5413.946
868.127; 2456.641;  -13.142; 5160.325
868.689; 2353.143;  -12.902; 5133.183
869.252; 2252.326;   -9.732; 5252.382
869.814; 2158.939;   -9.432; 5297.141
870.377; 2175.351;  -11.552; 5390.919
870.939; 2252.017;   -9.052; 5599.898
871.501; 2317.241;  -10.982; 5248.336
872.063; 2320.845;  -12.292; 4854.235
872.626; 2280.869;  -14.912; 4817.074
873.188; 2313.014;  -13.112; 4987.732
873.750; 2282.259;  -13.442; 4868.651
874.312; 2178.497;   -9.402; 4779.330
874.874; 2084.078;  -11.062; 4866.348
875.436; 1994.298;  -13.931; 4718.887
875.998; 1985.948;   -9.561; 4660.005
876.560; 2010.739;  -11.321; 4462.964
877.122; 1953.530;  -12.221; 4145.042
877.683; 1867.251;  -12.191; 4056.481
878.245; 1803.501;  -12.101; 3950.740
878.807; 1858.191;   -8.971; 4058.958
879.369; 1891.049;  -12.071; 3954.677
879.930; 1785.862;  -14.621; 3941.495
880.492; 1714.599;  -10.311; 4067.014
881.053; 1669.646;  -10.901; 3859.633
881.615; 1575.365;  -14.411; 3776.071
882.176; 1538.056;  -13.761; 3734.750
882.738; 1573.838;   -9.181; 3678.489
883.299; 1581.787;  -11.791; 3405.407
883.860; 1500.498;  -13.121; 3351.106
884.422; 1271.449;  -11.211; 3394.044
884.983;  962.152;  -10.091; 3166.443
885.544;  744.539;   -8.461; 3189.802
886.105;  668.365;  -12.361; 3160.360
886.666;  664.852;  -14.141; 3093.059
887.227;  679.242;  -11.361; 2941.957
887.788;  684.696;  -11.401; 2974.836
888.349;  683.178;  -13.791; 2721.214
888.910;  711.146;  -13.191; 2696.493
889.471;  739.039;   -9.881; 2560.172
890.032;  739.909;   -9.881; 2558.190
890.593;  730.687;  -10.371; 2567.669
891.153;  718.296;  -13.301; 2460.307
891.714;  682.090;  -11.431; 2372.046
892.275;  652.902;  -11.291; 2309.505
892.835;  621.301;  -11.471; 2382.543
893.396;  576.513;  -11.541; 2295.502
893.956;  527.582;  -11.181; 2162.420
894.517;  495.669;  -11.741; 2125.439
895.077;  492.762;  -11.671; 2086.978
895.638;  495.142;  -11.311; 2126.316
896.198;  468.578;   -9.831; 1838.275
896.758;  430.267;   -8.421; 1892.813
897.319;  402.180;  -12.351; 1792.232
897.879;  387.127;  -13.511; 1762.751
898.439;  362.908;  -12.001; 1661.149
898.999;  341.931;  -10.180; 1781.468
899.559;  334.347;  -12.030; 1703.347
900.119;  329.953;  -15.710; 1537.525
900.679;  326.411;   -8.900; 1638.384
901.239;  312.175;   -8.340; 1527.902
901.799;  302.648;  -13.910; 1456.441
902.359;  297.776;  -13.460; 1357.140
902.919;  291.229;  -11.490; 1331.118
903.479;  279.016;  -12.110; 1317.257
904.038;  259.084;  -11.720; 1262.595
904.598;  244.135;  -13.610; 1152.034
905.158;  241.472;  -11.040; 1240.893
905.717;  235.072;  -10.900; 1233.691
906.277;  224.302;  -15.080; 1217.330
906.836;  214.080;  -13.380; 1222.408
907.396;  205.323;  -10.780; 1193.047
907.955;  197.386;   -8.500; 1182.526
908.515;  190.754;  -12.760; 1099.364
909.074;  183.685;  -11.900; 1092.863
909.633;  176.594;   -8.950; 1069.121
910.192;  171.936;   -8.770; 1196.460
910.752;  168.244;  -12.390; 1029.960
911.311;  163.954;  -13.680; 1009.780
911.870;  162.511;  -12.370;  971.460
912.429;  163.414;  -10.900; 1094.080
912.988;  162.695;  -11.690; 1081.060
913.547;  158.511;  -13.240;  940.380
914.106;  153.463;  -11.990;  999.420
914.665;  151.770;   -9.990;  984.020
915.224;  151.589;  -12.880; 1035.760
915.782;  150.685;  -12.350;  922.560
916.341;  151.259;   -9.110; 1049.840
916.900;  147.085;   -9.270;  925.260
917.458;  145.017;  -13.240;  884.220
918.017;  144.899;  -13.550;  942.600
918.576;  143.608;  -12.320;  904.440
919.134;  142.903;  -11.490;  837.980
919.693;  140.461;  -13.670;  893.060
920.251;  138.641;  -15.470;  876.500
920.809;  137.613;  -11.290;  839.580
921.368;  137.757;  -10.210;  885.360
921.926;  136.873;  -12.140;  842.940
922.484;  135.343;  -13.080;  903.360
923.042;  134.589;  -11.720;  880.340
923.601;  138.600;   -7.480;  998.680
924.159;  135.982;  -11.570;  935.560
924.717;  132.473;  -13.840;  841.080
925.275;  132.810;  -10.640;  903.240
925.833;  132.619;  -11.540;  779.320
926.391;  133.290;  -12.960;  938.380
926.949;  131.734;  -14.130;  857.680
927.506;  132.417;  -11.750;  903.500
928.064;  133.301;  -10.250;  877.580
928.622;  130.926;  -13.030;  880.100
929.180;  131.573;  -13.400;  814.180
929.737;  131.705;  -10.700;  808.540
930.295;  135.815;  -10.070;  928.480
930.853;  136.984;  -11.960;  849.100
931.410;  137.453;  -13.120;  821.120
931.968;  137.071;  -10.770;  940.660
932.525;  137.318;  -10.680;  909.380
933.082;  137.615;  -13.130;  811.440
933.640;  138.499;  -13.210;  925.900
934.197;  136.239;  -11.060;  886.360
934.754;  137.863;   -9.580;  897.780
935.312;  139.917;  -14.000;  863.340
935.869;  144.476;  -10.710; 1012.980
936.426;  145.012;   -9.860;  872.800
936.983;  146.579;   -9.710;  889.020
937.540;  145.079;  -13.990;  838.280
938.097;  143.506;  -14.040;  940.120
938.654;  144.548;  -10.310;  898.860
939.211;  146.861;  -10.560;  952.480
939.768;  150.725;  -13.900;  915.420
940.324;  153.470;  -14.760;  904.200
940.881;  154.283;  -10.370;  878.500
941.438;  154.927;   -8.260; 1021.200
941.995;  151.787;  -12.540;  992.560
942.551;  149.802;  -14.670;  875.620
943.108;  149.636;  -10.450;  937.920
943.664;  151.877;  -10.750;  869.340
944.221;  155.645;  -11.550; 1088.140
944.777;  152.647;  -14.770;  869.680
945.334;  152.741;  -12.820;  884.840
945.890;  155.071;  -10.130;  946.480
946.446;  155.250;  -13.470;  947.020
947.003;  156.255;  -12.120;  964.940
947.559;  159.175;   -9.980; 1063.040
948.115;  158.852;   -9.080; 1026.540
948.671;  156.712;  -10.830;  967.300
949.227;  153.767;  -12.440;  859.560
949.783;  151.840;  -12.910;  858.900
950.339;  153.177;  -10.270;  991.000
950.895;  153.524;  -13.630; 1023.840
951.451;  153.319;  -15.100;  925.280
952.007;  152.814;  -11.330;  998.540
952.563;  153.735;  -10.580;  937.780
953.118;  152.061;  -13.440;  904.940
953.674;  152.493;  -12.710;  935.780
954.230;  151.336;  -10.350;  949.640
954.785;  149.184;   -9.190;  936.640
955.341;  146.004;  -11.200;  998.160
955.897;  144.863;  -16.560;  834.660
956.452;  145.724;  -12.570;  953.840
957.008;  145.974;   -7.970; 1083.640
957.563;  143.787;  -11.940; 1009.540
958.118;  138.143;  -13.450;  877.700
958.674;  138.964;  -12.030;  946.780
959.229;  139.947;   -9.410; 1013.980
959.784;  137.667;  -12.000;  832.400
960.339;  136.763;  -14.780; 1001.280
960.894;  133.938;   -9.860;  963.760
961.449;  129.739;   -9.970;  859.960
962.004;  129.943;  -10.900; 1212.840
962.559;  124.264;  -13.150;  860.140
963.114;  121.768;  -13.740;  742.480
963.669;  121.850;   -9.820;  915.500
964.224;  120.280;  -13.890;  874.340
964.779;  119.418;  -12.600;  828.420
965.334;  120.005;  -10.950; 1017.860
965.888;  120.508;  -11.170;  875.360
966.443;  122.286;  -12.540;  972.380
966.998;  121.808;  -15.780;  819.460
967.552;  119.936;   -9.760;  908.380
968.107;  117.130;   -9.060;  868.300
968.661;  117.657;  -11.950;  922.440
969.216;  118.573;  -12.800;  856.280
969.770;  118.701;  -11.210;  917.200
970.324;  117.230;  -11.610;  923.140
970.879;  114.171;  -11.370;  947.180
971.433;  111.225;  -12.540;  952.720
971.987;  106.367;  -11.320;  895.340
972.541;  104.278;  -10.720;  917.100
973.095;  103.576;   -9.680; 1009.460
973.649;  101.957;  -11.440;  809.480
974.203;  100.501;  -11.210;  829.040
974.757;  101.109;  -10.240;  855.220
975.311;  100.390;  -13.720;  872.600
975.865;  100.140;  -13.770;  881.820
976.419;   98.245;  -11.690;  857.400
976.973;   98.491;   -9.510;  849.620
977.526;  100.316;  -12.620;  949.920
978.080;   98.793;  -12.010;  796.780
978.634;  101.071;  -10.170;  921.320
979.187;   98.308;   -9.020;  905.400
979.741;   96.175;   -9.820; 1018.380
980.294;   91.485;  -14.870;  789.160
980.848;   88.778;  -12.380;  717.220
981.401;   90.980;  -10.350;  816.540
981.955;   93.246;  -13.720;  844.300
982.508;   91.518;  -11.490;  746.340
983.061;   91.941;  -10.000;  915.260
983.615;   88.803;  -11.480;  798.800
984.168;   85.744;  -13.220;  770.080
984.721;   84.838;  -13.960;  880.760
985.274;   82.862;  -10.870;  867.500
985.827;   82.225;   -9.790;  834.220
986.380;   80.644;  -13.120;  721.340
986.933;   79.104;  -12.450;  864.800
987.486;   77.692;  -10.210;  861.920
988.039;   76.812;   -8.430;  863.100
988.591;   75.143;  -10.520;  893.260
989.144;   72.090;  -14.860;  737.260
989.697;   71.797;  -13.080;  758.740
990.250;   72.503;  -10.150;  858.100
990.802;   71.031;  -13.430;  755.860
991.355;   72.145;  -12.750;  974.880
991.907;   70.056;  -12.040;  864.320
992.460;   67.967;  -11.330;  753.760
993.012;   67.099;  -13.610;  749.540
993.565;   65.826;  -13.460;  711.360
994.117;   66.876;   -9.360;  950.780
994.669;   63.735;  -11.300;  701.320
995.221;   62.394;  -13.540;  791.920
995.774;   59.614;  -13.430;  787.580
996.326;   58.061;  -12.520;  740.220
996.878;   58.196;  -10.950;  838.420
997.430;   56.378;  -14.300;  699.860
997.982;   56.036;  -13.760;  750.140
998.534;   54.759;  -11.530;  739.060
999.086;   53.911;  -10.310;  738.220
999.638;   52.798;  -12.530;  661.380
1000.190;   51.621;  -11.840;  699.320
1000.741;   51.488;  -10.260;  742.700
1001.293;   51.707;   -8.860;  686.020
1001.845;   49.828;  -13.700;  676.640
1002.396;   49.729;  -12.100;  743.400
1002.948;   48.982;  -12.760;  737.400
1003.500;   48.503;  -10.380;  723.780
1004.051;   48.545;  -11.900;  907.580
1004.603;   46.295;  -12.250;  791.820
1005.154;   42.787;  -13.210;  608.980
1005.705;   42.102;  -10.950;  723.960
1006.257;   41.688;  -13.880;  707.220
1006.808;   40.689;  -12.840;  685.460
1007.359;   40.225;  -10.570;  763.240
1007.910;   39.479;   -9.620;  646.640
1008.461;   40.239;  -13.630;  732.940
1009.013;   38.289;  -17.200;  588.340
1009.564;   38.983;  -10.200;  793.520
1010.115;   36.930;  -12.570;  597.040
1010.665;   37.452;  -15.150;  602.160
1011.216;   37.464;  -14.480;  667.920
1011.767;   36.461;  -11.340;  697.920
1012.318;   37.323;   -9.780;  736.980
1012.869;   35.808;  -12.380;  679.000
1013.419;   35.550;  -15.560;  603.120
1013.970;   35.140;  -11.010;  666.640
1014.521;   34.074;  -11.610;  620.620
1015.071;   35.320;  -13.450;  670.380
1015.622;   34.786;  -13.870;  635.460
1016.172;   34.381;  -11.610;  596.820
1016.723;   33.614;  -12.120;  614.380
1017.273;   33.903;  -13.620;  604.160
1017.823;   33.778;  -14.140;  650.340
1018.374;   32.968;  -12.800;  611.760
1018.924;   32.773;  -12.340;  716.880
1019.474;   33.026;  -11.410;  718.880
1020.024;   32.250;  -14.770;  657.580
1020.574;   32.295;   -9.780;  726.160
1021.124;   32.599;   -8.560;  673.580
1021.674;   31.669;  -15.190;  559.120
1022.224;   32.462;  -13.530;  708.940
1022.774;   31.722;  -13.280;  668.820
1023.324;   32.454;  -10.690;  753.520
1023.874;   33.614;  -10.240;  875.760
1024.423;   30.694;  -12.540;  613.700
1024.973;   30.421;  -10.010;  610.760
1025.523;   29.692;  -10.550;  620.960
1026.072;   29.408;  -13.560;  606.420
1026.622;   29.825;  -15.120;  675.740
1027.172;   30.447;  -11.260;  715.660
1027.721;   29.031;  -11.410;  601.220
1028.270;   29.278;  -13.530;  663.400
1028.820;   29.131;  -13.680;  638.080
1029.369;   28.390;  -13.520;  612.700
1029.918;   28.748;  -10.980;  649.840
1030.468;   28.227;  -13.530;  564.780
1031.017;   28.669;  -13.170;  634.800
1031.566;   27.235;  -12.200;  608.900
1032.115;   28.653;   -9.960;  694.500
1032.664;   27.273;  -13.210;  596.480
1033.213;   28.180;  -12.500;  735.420
1033.762;   27.090;  -11.910;  635.620
1034.311;   27.192;   -9.640;  677.220
1034.860;   27.104;  -13.310;  691.000
1035.408;   27.124;  -11.830;  722.720
1035.957;   27.531;  -12.000;  719.540
1036.506;   25.649;  -11.690;  530.800
1037.055;   28.266;  -10.990;  844.320
1037.603;   25.663;  -15.120;  664.000
1038.152;   24.643;  -12.450;  534.760
1038.700;   25.809;  -10.560;  585.740
1039.249;   25.328;  -11.080;  681.220
1039.797;   25.354;  -12.540;  633.360
1040.345;   25.518;  -11.920;  705.420
1040.894;   24.369;  -11.410;  625.300
1041.442;   24.838;  -14.320;  632.200
1041.990;   23.911;  -16.240;  559.160
1042.538;   23.599;  -11.680;  536.180
1043.087;   24.092;  -10.760;  570.860
1043.635;   25.030;  -11.850;  670.500
1044.183;   23.605;  -15.480;  586.400
1044.731;   23.261;  -11.770;  576.000
1045.279;   22.916;  -13.090;  674.920
1045.827;   24.422;  -12.440;  892.400
1046.374;   22.088;  -13.840;  515.420
1046.922;   22.133;  -13.220;  590.580
1047.470;   23.311;  -10.230;  691.300
1048.018;   22.364;  -14.590;  647.960
1048.565;   23.148;  -12.050;  708.600
1049.113;   21.335;  -11.650;  557.000
1049.660;   21.899;  -10.510;  629.660
1050.208;   22.365;  -13.310;  675.640
1050.755;   21.648;  -15.900;  606.580
1051.303;   22.016;  -11.430;  686.820
1051.850;   22.050;   -8.480;  635.120
1052.397;   19.570;  -15.010;  473.960
1052.945;   20.318;  -13.960;  617.760
1053.492;   21.745;  -13.150;  741.840
1054.039;   21.412;   -9.630;  720.180
1054.586;   20.461;  -13.680;  557.240
1055.133;   20.577;  -14.570;  693.140
1055.680;   21.128;  -13.820;  646.620
1056.227;   19.789;  -11.730;  542.780
1056.774;   21.356;  -12.480;  794.980
1057.321;   19.095;  -13.930;  523.260
1057.868;   19.714;  -11.690;  651.320
1058.415;   19.856;   -9.520;  651.980
1058.961;   19.904;  -13.160;  678.940
1059.508;   19.836;  -12.920;  643.820
1060.055;   18.803;  -11.920;  581.780
1060.601;   20.096;  -11.500;  624.300
1061.148;   19.537;  -14.330;  616.820
1061.694;   18.828;  -16.870;  592.580
1062.241;   18.108;  -10.330;  596.320
1062.787;   19.582;  -10.620;  663.140
1063.334;   20.240;  -10.110;  808.560
1063.880;   18.166;  -13.400;  668.360
1064.426;   18.229;  -10.680;  706.820
1064.972;   18.133;   -9.920;  601.340
1065.518;   17.228;  -10.980;  566.640
1066.065;   18.323;  -14.890;  624.460
1066.611;   16.300;  -12.870;  598.800
1067.157;   17.999;  -12.950;  641.860
1067.703;   18.393;  -13.540;  668.480
1068.249;   17.649;  -13.540;  605.220
1068.794;   17.328;  -12.600;  626.880
1069.340;   16.368;  -10.620;  578.960
1069.886;   16.980;  -12.830;  590.700
1070.432;   15.789;  -14.870;  541.720
1070.977;   16.768;  -11.980;  601.080
1071.523;   16.657;   -8.200;  573.060
1072.068;   16.084;  -12.330;  582.000
1072.614;   15.897;  -16.370;  527.760
1073.160;   16.748;  -11.100;  687.040
1073.705;   15.812;  -10.480;  572.520
1074.250;   16.109;  -14.520;  559.900
1074.796;   16.132;  -11.460;  655.160
1075.341;   16.389;  -11.950;  664.100
1075.886;   16.019;  -11.460;  594.240
1076.431;   15.238;  -13.770;  649.880
1076.976;   15.184;  -12.680;  639.220
1077.521;   14.901;  -13.170;  583.080
1078.067;   15.371;  -10.860;  579.400
1078.612;   15.860;  -13.920;  661.620
1079.156;   14.566;  -13.880;  601.540
1079.701;   14.143;  -13.120;  693.260
1080.246;   15.544;   -9.940;  696.300
1080.791;   14.568;  -14.740;  625.020
1081.336;   14.578;  -13.750;  659.320
1081.880;   14.150;  -13.400;  649.680
1082.425;   13.762;  -12.220;  573.480
1082.970;   15.717;  -11.610;  717.040
1083.514;   13.782;  -13.580;  597.000
1084.059;   13.468;  -12.810;  586.720
1084.603;   12.310;  -12.320;  565.840
1085.147;   13.408;  -13.190;  645.220
1085.692;   14.617;  -12.480;  716.800
1086.236;   12.377;  -13.020;  503.140
1086.780;   14.841;   -9.190;  751.440
1087.325;   13.682;  -12.480;  654.620
1087.869;   13.237;  -12.450;  610.700
1088.413;   13.401;  -12.240;  705.040
1088.957;   11.274;   -9.020;  543.400
1089.501;   13.125;  -10.320;  766.640
1090.045;   12.344;  -12.720;  726.480
1090.589;   11.433;  -13.690;  569.920
1091.133;   12.444;  -10.020;  673.340
1091.676;   12.303;  -12.330;  591.940
1092.220;   12.189;  -14.970;  600.920
1092.764;   12.829;  -12.430;  706.960
1093.307;   12.524;   -9.800;  673.780
1093.851;   10.619;  -14.970;  556.540
1094.395;   12.169;  -15.310;  683.140
1094.938;   10.772;  -10.370;  632.520
1095.482;   10.909;  -11.050;  559.800
1096.025;   11.973;  -11.840;  710.880
1096.568;   12.386;  -12.840;  779.280
1097.112;    9.415;  -14.700;  508.180
1097.655;   11.490;   -8.720;  603.000
1098.198;    9.624;  -13.610;  600.180
1098.741;   10.664;  -13.350;  612.860
1099.285;   10.670;  -11.230;  657.300
1099.828;    8.503;  -11.840;  439.400
1100.371;   10.019;  -10.840;  608.160
1100.914;    9.977;  -14.190;  682.660
1101.457;    9.621;  -11.240;  679.900
1101.999;    9.248;  -11.270;  584.680
1102.542;    9.920;  -11.480;  641.440
1103.085;    9.206;  -11.750;  658.500
1103.628;   10.276;  -11.400;  762.060
1104.170;    9.065;  -10.490;  588.280
1104.713;    9.102;  -10.600;  646.700
1105.256;    9.216;  -14.360;  557.440
1105.798;    7.521;  -13.210;  499.980
1106.341;   10.375;  -10.270;  728.900
1106.883;    8.525;  -12.200;  521.340
1107.425;    9.015;  -13.110;  668.180
1107.968;    8.457;  -12.840;  612.380
1108.510;    8.801;   -6.480;  684.960
1109.052;    7.785;  -13.940;  612.620
1109.594;    8.014;  -13.690;  554.440
1110.136;    8.751;  -11.880;  643.220
1110.679;    8.142;   -9.500;  633.080
1111.221;    8.303;  -14.160;  604.460
1111.763;    7.718;  -13.980;  559.220
1112.304;    6.648;  -13.880;  547.140
1112.846;    7.984;  -12.210;  666.240
1113.388;   10.363;  -11.390;  942.180
1113.930;    7.356;  -14.540;  694.200
1114.472;    6.930;  -12.640;  606.540
1115.013;    5.886;  -11.620;  551.280
1115.555;    7.035;  -13.640;  587.100
1116.097;    5.784;  -15.380;  579.480
1116.638;    6.975;  -12.640;  684.600
1117.180;    6.883;   -9.850;  667.740
1117.721;    7.261;  -13.690;  568.580
1118.262;    7.432;  -12.680;  677.960
1118.804;    7.638;  -12.530;  637.340
1119.345;    6.851;  -11.690;  578.400
1119.886;    7.303;  -13.380;  704.040
1120.427;    6.007;  -14.070;  589.020
1120.969;    5.649;  -13.500;  597.920
1121.510;    5.100;  -11.480;  563.060
1122.051;    7.385;  -12.830;  723.580
1122.592;    5.522;  -14.290;  655.420
1123.133;    4.512;  -12.400;  547.940
1123.673;    7.046;  -10.130;  706.480
1124.214;    5.321;  -12.930;  612.460
1124.755;    6.604;  -14.380;  639.460
1125.296;    4.894;  -14.000;  627.320
1125.836;    6.655;  -10.070;  691.500
1126.377;    4.275;  -12.640;  599.660
1126.918;    5.888;  -12.960;  614.980
1127.458;    4.904;  -13.350;  622.220
1127.999;    4.909;  -10.750;  656.980
1128.539;    5.262;  -12.350;  694.240
1129.079;    4.337;  -14.860;  632.720
1129.620;    4.352;  -13.840;  558.100
1130.160;    4.378;  -12.330;  539.480
1130.700;    5.470;  -14.530;  640.840
1131.240;    4.951;  -12.530;  643.700
1131.781;    3.960;  -14.450;  619.680
1132.321;    4.330;   -9.790;  599.120
1132.861;    2.967;  -14.860;  564.200
1133.401;    3.258;  -14.290;  593.940
1133.941;    3.375;  -11.750;  626.280
1134.481;    3.686;   -9.920;  597.580
1135.020;    3.309;  -12.290;  609.160
1135.560;    4.176;  -11.650;  674.940
1136.100;    3.250;  -16.270;  501.160
1136.640;    3.017;  -10.890;  510.480
1137.179;    3.321;  -14.180;  537.960
1137.719;    3.381;  -16.250;  605.400
1138.258;    3.018;  -14.230;  587.360
1138.798;    4.041;   -9.090;  663.780
1139.337;    1.924;  -15.130;  482.840
1139.877;    2.611;  -13.680;  642.360
1140.416;    4.503;  -11.320;  878.060
1140.955;    2.384;  -10.860;  535.380
1141.494;    3.458;  -12.920;  669.280
1142.034;    2.123;  -13.930;  583.520
1142.573;    2.674;  -11.440;  646.280
1143.112;    1.690;  -12.000;  553.480
1143.651;    2.299;  -13.670;  536.480
1144.190;    3.567;  -12.730;  691.640
1144.729;    2.009;  -14.560;  607.420
1145.267;    2.517;  -11.830;  584.900
1145.806;    2.590;  -12.230;  637.040
1146.345;    1.928;  -14.130;  635.020
1146.884;    1.442;  -11.590;  622.500
1147.422;    1.300;  -12.550;  533.060
1147.961;    2.527;  -11.180;  708.460
1148.500;    2.411;  -11.510;  669.720
1149.038;    2.446;  -11.640;  632.500
1149.577;    2.390;  -10.130;  698.640
1150.115;    0.570;  -13.970;  452.280
1150.653;    1.355;  -14.520;  607.340
1151.192;    1.552;  -12.810;  552.920
1151.730;    1.426;   -9.100;  652.560
1152.268;    0.789;  -12.220;  589.520
1152.806;    1.481;  -14.140;  571.180
1153.344;    0.220;  -12.350;  577.640
1153.882;    1.419;   -8.980;  600.060
1154.421;    0.201;  -15.190;  470.620
1154.958;    0.265;  -15.210;  595.240
1155.496;    1.867;  -12.850;  645.280
1156.034;    0.880;   -9.940;  721.880
1156.572;    2.318;  -13.570;  667.060
1157.110;    0.075;  -14.590;  473.940
1157.647;    0.628;  -13.030;  676.960
1158.185;   -0.522;  -12.140;  564.320
1158.723;   -0.506;  -14.390;  509.200
1159.260;    0.467;  -14.090;  701.700
1159.798;    0.492;  -11.920;  658.160
1160.335;    0.386;  -11.110;  631.820

