
Integration time [ms]:   3.276
Averaging Nr. [scans]: 1000
Smoothing Nr. [pixels]: 0
Data measured with spectrometer [name]: 7414430SP
Wave   ;Sample   ;Dark     ;Reference
[nm]   ;[counts] ;[counts] ;[counts] 

288.544;  148.960;    7.793;  793.890
289.143;  153.608;    7.462;  681.602
289.742;  154.035;    8.602;  828.814
290.341;  139.073;    1.321;  789.841
290.940;  126.980;   -0.709;  730.702
291.538;  128.795;    0.881;  881.108
292.137;  129.410;    0.122;  792.581
292.736;  132.999;   -1.929;  975.101
293.335;  129.882;   -8.229;  735.086
293.934;  130.503;   -5.279;  781.677
294.532;  130.008;   -1.369; 1031.958
295.131;  114.660;   -7.641;  834.394
295.730;  115.272;   -8.420;  809.588
296.328;  114.357;   -5.611;  783.442
296.927;  115.208;   -5.781;  779.652
297.525;  115.284;   -6.361;  781.236
298.124;  106.158;  -11.382;  654.009
298.722;  110.016;   -7.641;  761.933
299.321;  108.800;   -6.811;  708.597
299.919;  106.175;   -6.991;  751.918
300.518;  103.083;  -10.362;  689.338
301.116;  104.926;   -9.581;  691.381
301.715;  105.299;   -4.891;  730.222
302.313;  103.405;   -8.801;  704.943
302.911;   99.106;   -8.522;  733.830
303.509;  104.338;   -6.171;  925.627
304.108;  102.279;   -7.311;  760.383
304.706;  101.289;   -8.321;  801.664
305.304;   95.337;  -10.222;  796.707
305.902;  100.779;   -6.021;  784.484
306.500;   96.905;   -4.971;  728.200
307.098;   94.660;   -7.061;  746.560
307.696;   93.022;   -8.801;  780.432
308.294;   94.489;   -6.411;  731.359
308.892;   95.484;   -2.901;  759.769
309.490;   91.755;   -5.041;  712.161
310.088;   89.418;   -5.002;  788.444
310.686;   94.336;   -2.041;  821.749
311.284;   89.670;   -2.351;  766.040
311.882;   87.287;   -4.422;  731.225
312.480;   85.342;   -4.192;  697.167
313.078;   86.701;   -1.172;  808.331
313.675;   87.994;   -2.601;  691.600
314.273;   81.206;   -1.312;  797.837
314.871;   81.577;   -3.942;  589.829
315.468;   80.164;   -2.802;  652.090
316.066;   82.393;   -0.701;  694.427
316.664;   74.691;   -4.362;  656.351
317.261;   78.891;   -2.872;  910.128
317.859;   75.167;   -2.022;  768.735
318.456;   75.334;   -0.531;  830.096
319.054;   71.346;   -3.912;  787.828
319.651;   69.649;   -4.752;  759.928
320.249;   69.590;   -2.602;  810.188
320.846;   66.861;   -0.821;  714.286
321.443;   64.217;   -4.642;  832.135
322.041;   61.222;   -5.002;  812.315
322.638;   59.524;   -3.982;  701.456
323.235;   60.567;   -3.411;  665.683
323.833;   57.034;   -7.361;  740.354
324.430;   52.903;   -8.611;  615.900
325.027;   53.859;   -4.061;  876.855
325.624;   53.505;   -4.031;  644.532
326.221;   49.746;   -7.481;  689.717
326.818;   49.862;   -5.281;  818.332
327.415;   53.520;   -7.460;  748.828
328.012;   53.761;   -5.510;  690.585
328.609;   50.193;   -7.880;  731.389
329.206;   49.915;   -8.331;  778.621
329.803;   50.248;   -5.121;  737.841
330.400;   52.953;   -4.510;  704.260
330.997;   53.729;   -6.441;  817.147
331.594;   52.397;   -8.831;  788.185
332.191;   57.798;   -7.621;  728.722
332.787;   60.787;   -4.591;  844.463
333.384;   58.252;   -7.412;  763.093
333.981;   57.030;   -8.293;  815.687
334.578;   60.521;   -7.052;  708.378
335.174;   63.864;   -3.102;  731.469
335.771;   62.631;   -5.943;  836.456
336.367;   59.442;   -7.393;  710.631
336.964;   64.206;   -4.063;  793.266
337.561;   61.280;   -3.813;  731.112
338.157;   57.565;   -4.654;  911.916
338.754;   54.263;   -7.934;  796.589
339.350;   53.422;   -4.414;  722.493
339.946;   55.592;   -4.664;  773.135
340.543;   46.535;   -6.375;  846.136
341.139;   41.556;   -9.815;  720.836
341.735;   39.715;   -4.526;  772.593
342.332;   38.428;   -4.895;  691.472
342.928;   37.839;   -4.295;  795.394
343.524;   32.615;   -5.476;  761.684
344.120;   28.808;   -5.856;  738.562
344.716;   32.559;   -2.155;  723.717
345.313;   29.442;   -6.275;  795.342
345.909;   24.508;   -8.815;  627.336
346.505;   26.658;   -5.305;  740.247
347.101;   27.592;   -2.674;  827.864
347.697;   27.066;   -4.344;  785.398
348.293;   22.033;   -9.975;  627.244
348.889;   22.318;   -5.774;  745.914
349.485;   22.650;   -5.004;  688.205
350.081;   22.205;   -4.704;  772.592
350.676;   17.808;   -6.635;  691.606
351.272;   22.277;   -4.504;  809.530
351.868;   21.859;   -3.914;  780.497
352.464;   18.871;   -9.044;  723.932
353.059;   15.615;   -8.314;  646.017
353.655;   18.310;   -7.024;  777.063
354.251;   19.830;   -5.343;  759.845
354.846;   13.915;   -8.604;  740.646
355.442;   11.091;   -6.945;  753.071
356.038;   14.607;   -7.564;  751.708
356.633;   14.546;   -5.814;  728.594
357.229;   11.859;   -7.364;  724.757
357.824;    9.978;   -8.024;  703.600
358.420;    9.342;   -9.384;  679.726
359.015;   10.711;   -5.104;  695.357
359.610;   10.918;   -6.854;  763.920
360.206;    4.772;  -10.185;  603.240
360.801;    8.142;   -7.054;  646.503
361.396;   10.636;   -5.034;  725.975
361.992;    5.078;   -8.284;  668.220
362.587;    2.797;   -8.625;  670.160
363.182;    5.061;   -7.674;  689.631
363.777;    5.815;   -5.164;  738.242
364.372;    4.954;   -8.604;  737.314
364.967;    1.245;   -9.055;  680.744
365.563;    5.690;   -6.114;  815.567
366.158;    3.329;   -5.814;  685.161
366.753;    2.814;   -7.854;  649.263
367.348;    1.375;   -7.804;  746.056
367.942;    2.038;   -7.954;  697.298
368.537;    1.017;   -4.984;  754.245
369.132;    0.413;   -8.564;  703.428
369.727;   -3.472;   -8.855;  638.079
370.322;   -1.375;   -6.245;  580.186
370.917;   -2.331;   -6.425;  710.646
371.511;    0.170;   -6.294;  861.834
372.106;   -3.075;   -7.685;  776.964
372.701;   -5.663;   -7.335;  585.988
373.296;   -0.203;   -4.564;  863.135
373.890;   -4.945;  -10.235;  647.840
374.485;   -7.279;   -7.885;  691.199
375.079;   -4.424;   -7.324;  738.685
375.674;   -1.911;   -3.494;  812.970
376.268;   -7.036;   -8.525;  691.759
376.863;  -12.688;  -10.086;  580.327
377.457;   -5.120;   -7.025;  662.490
378.052;   -7.651;   -3.585;  764.884
378.646;   -9.368;   -7.595;  741.167
379.240;   -9.212;   -8.335;  721.176
379.835;   -8.183;   -5.785;  636.978
380.429;   -9.811;   -4.335;  562.557
381.023;  -10.904;   -6.805;  779.205
381.617;  -12.583;   -9.195;  680.106
382.212;   -8.949;   -6.905;  685.303
382.806;   -7.765;   -3.745;  760.690
383.400;  -13.027;   -7.745;  672.281
383.994;  -13.922;   -9.765;  664.870
384.588;   -9.452;   -6.564;  697.701
385.182;   -8.317;   -5.344;  726.624
385.776;  -10.313;   -8.514;  706.875
386.370;  -13.507;   -9.555;  681.968
386.964;  -12.080;   -8.715;  684.155
387.558;  -10.468;   -6.174;  598.360
388.152;  -14.483;   -8.725;  681.959
388.745;  -11.567;   -7.965;  814.707
389.339;   -9.545;   -5.924;  747.642
389.933;   -8.765;   -5.524;  695.370
390.527;  -10.675;   -7.114;  859.029
391.120;  -16.548;  -10.725;  595.318
391.714;  -13.505;   -8.035;  711.633
392.308;  -10.426;   -3.574;  780.253
392.901;  -14.548;   -7.245;  642.460
393.495;  -16.099;   -9.285;  595.414
394.089;  -13.279;   -5.895;  760.452
394.682;  -14.432;   -4.295;  697.188
395.275;  -15.651;   -9.875;  719.927
395.869;  -16.520;   -8.485;  667.314
396.462;  -14.398;   -7.455;  616.609
397.056;  -10.359;   -5.424;  776.621
397.649;  -16.383;   -6.605;  731.575
398.242;  -13.430;   -8.224;  712.645
398.836;  -11.261;   -7.474;  766.408
399.429;  -13.733;   -7.094;  631.041
400.022;  -17.788;   -9.475;  665.902
400.615;  -14.594;   -7.145;  805.609
401.208;  -12.684;   -7.174;  691.451
401.802;  -14.520;   -5.515;  699.329
402.395;  -16.305;   -9.875;  683.502
402.988;  -16.461;   -8.845;  696.627
403.581;  -14.045;   -8.874;  646.878
404.174;  -11.069;   -5.324;  686.568
404.767;  -14.837;   -9.575;  638.583
405.360;  -16.588;  -10.965;  621.445
405.953;  -10.820;   -8.764;  759.034
406.545;  -10.185;   -7.514;  725.342
407.138;  -15.759;  -10.025;  618.350
407.731;  -13.439;  -10.034;  613.303
408.324;   -9.568;   -9.374;  660.554
408.917;  -10.212;   -6.534;  681.864
409.509;  -12.888;   -8.004;  740.396
410.102;  -14.146;   -9.875;  643.948
410.695;   -8.642;   -8.604;  665.758
411.287;   -9.499;   -6.794;  599.821
411.880;  -11.216;   -9.334;  585.421
412.472;  -14.231;  -10.254;  613.092
413.065;  -10.739;   -6.714;  629.408
413.657;   -9.029;   -7.234;  576.678
414.250;   -9.752;  -10.544;  646.681
414.842;  -11.040;   -9.744;  676.353
415.434;   -7.691;   -6.994;  570.463
416.027;   -4.601;   -5.893;  652.196
416.619;   -7.021;   -7.264;  713.400
417.211;   -7.366;  -10.374;  599.352
417.804;   -3.092;   -7.993;  628.499
418.396;   -6.978;   -7.234;  607.643
418.988;   -5.421;   -9.443;  659.238
419.580;   -8.539;  -10.724;  568.276
420.172;   -6.713;  -10.323;  536.196
420.764;   -1.791;   -8.793;  672.482
421.356;   -3.284;  -11.143;  636.898
421.948;   -4.320;   -8.293;  677.661
422.540;    1.295;   -7.893;  680.027
423.132;    0.540;   -7.082;  600.641
423.724;   -3.948;   -8.653;  561.267
424.316;   -0.879;  -10.213;  621.345
424.908;    2.245;   -9.762;  591.517
425.500;    3.092;   -5.572;  647.978
426.092;    3.356;   -8.422;  648.268
426.683;    2.292;   -9.283;  684.836
427.275;    4.610;   -7.852;  641.471
427.867;    7.416;   -5.272;  668.948
428.458;    7.197;   -7.682;  732.344
429.050;    5.632;  -10.612;  680.749
429.642;    7.913;   -9.882;  743.124
430.233;    8.367;   -6.962;  569.356
430.825;    9.402;   -6.842;  724.809
431.416;    6.353;   -9.672;  698.241
432.008;   11.056;   -6.552;  651.723
432.599;   11.585;   -6.891;  656.073
433.190;    8.146;  -10.912;  637.670
433.782;    6.411;  -11.172;  590.395
434.373;   14.738;   -6.061;  884.765
434.964;   13.376;   -8.251;  602.920
435.556;   10.620;   -9.722;  634.537
436.147;   14.042;   -9.082;  758.490
436.738;   14.619;   -8.041;  701.099
437.329;   19.155;   -7.341;  721.723
437.920;   11.600;   -8.162;  666.688
438.511;   12.242;  -11.802;  564.526
439.103;   19.262;  -10.191;  623.998
439.694;   20.844;   -7.601;  681.583
440.285;   21.093;   -8.541;  764.432
440.876;   18.732;   -9.751;  845.738
441.466;   18.806;   -9.401;  575.162
442.057;   24.708;   -7.760;  665.814
442.648;   22.119;   -9.971;  746.255
443.239;   20.953;  -11.001;  620.477
443.830;   25.513;   -7.990;  704.958
444.421;   28.444;   -7.910;  655.474
445.011;   23.985;   -8.131;  693.619
445.602;   23.807;   -7.111;  743.126
446.193;   26.164;  -10.920;  488.117
446.783;   30.927;   -6.500;  640.397
447.374;   25.366;   -8.671;  692.759
447.964;   25.837;  -10.781;  713.770
448.555;   34.527;   -9.650;  822.742
449.145;   30.956;   -8.660;  662.853
449.736;   31.962;   -8.990;  803.179
450.326;   31.823;   -9.500;  713.626
450.917;   36.793;   -8.680;  675.324
451.507;   35.931;   -7.520;  600.661
452.097;   36.167;   -8.590;  746.267
452.688;   36.916;  -11.340;  742.160
453.278;   36.943;  -10.100;  566.840
453.868;   42.280;   -6.019;  793.550
454.458;   39.393;   -9.440;  651.141
455.048;   39.441;  -10.560;  711.783
455.639;   41.388;  -11.799;  567.096
456.229;   44.810;   -6.899;  710.694
456.819;   46.754;   -7.389;  751.158
457.409;   47.126;  -11.119;  773.993
457.999;   50.260;   -9.289;  737.505
458.589;   49.749;   -6.139;  686.606
459.179;   50.096;   -8.729;  717.658
459.769;   46.843;   -9.789;  627.099
460.358;   52.212;  -10.259;  797.262
460.948;   52.898;   -7.299;  689.503
461.538;   54.325;  -10.289;  660.677
462.128;   51.744;  -11.269;  664.934
462.717;   58.402;   -9.368;  710.326
463.307;   62.220;   -7.908;  705.846
463.897;   56.931;   -9.599;  656.942
464.486;   56.586;   -9.769;  837.128
465.076;   61.333;   -8.048;  733.776
465.666;   64.634;   -9.358;  652.900
466.255;   61.769;   -7.919;  785.651
466.845;   61.377;  -11.689;  666.749
467.434;   64.877;   -7.818;  725.873
468.023;   65.831;   -7.678;  658.357
468.613;   63.036;  -10.939;  713.946
469.202;   67.351;  -10.118;  646.507
469.791;   71.328;   -9.108;  737.811
470.381;   73.247;   -6.058;  742.813
470.970;   72.424;  -10.428;  711.099
471.559;   72.530;  -10.268;  733.291
472.148;   76.452;   -8.448;  675.737
472.738;   78.901;   -6.917;  765.466
473.327;   77.950;  -11.978;  637.529
473.916;   76.993;  -11.888;  737.446
474.505;   82.035;   -9.437;  751.703
475.094;   85.626;   -6.747;  806.570
475.683;   84.244;   -9.367;  797.699
476.272;   84.766;  -12.637;  730.632
476.861;   87.710;  -10.027;  706.754
477.449;   94.350;   -8.716;  728.487
478.038;   88.165;   -9.577;  692.513
478.627;   90.101;   -9.718;  714.852
479.216;   96.498;   -8.947;  769.441
479.805;   99.737;   -6.256;  783.375
480.393;   98.820;   -7.937; 1008.945
480.982;   97.465;   -7.717;  874.501
481.571;  104.449;   -9.266;  858.333
482.159;  104.636;   -7.636;  705.386
482.748;  103.611;   -9.667;  821.385
483.336;  109.285;  -10.376;  858.209
483.925;  109.472;   -7.147;  774.373
484.513;  116.155;   -7.996;  758.962
485.102;  112.281;  -10.027;  810.965
485.690;  120.372;  -10.446; 1011.050
486.278;  123.773;   -8.446;  979.329
486.867;  123.746;   -6.356;  809.662
487.455;  125.100;   -9.136;  898.229
488.043;  126.954;  -10.646;  748.361
488.631;  135.852;   -7.456; 1005.079
489.220;  139.177;   -6.636;  908.626
489.808;  139.630;  -11.036;  741.415
490.396;  146.808;  -10.246;  914.645
490.984;  151.772;   -8.556;  830.161
491.572;  161.955;   -5.886;  940.315
492.160;  166.160;   -9.486;  919.081
492.748;  178.001;  -10.976;  884.341
493.336;  199.327;   -8.776; 1019.693
493.924;  224.526;   -5.465;  958.077
494.512;  249.302;   -9.986; 1066.638
495.100;  283.096;  -10.636; 1103.280
495.687;  335.980;  -10.885; 1206.373
496.275;  395.739;   -8.126; 1150.796
496.863;  463.041;  -10.586; 1281.171
497.451;  561.024;  -11.926; 1386.805
498.038;  684.767;  -10.885; 1556.729
498.626;  786.470;   -6.315; 1741.407
499.214;  925.680;   -7.326; 2016.609
499.801; 1117.092;  -11.906; 2220.633
500.389; 1357.868;  -10.466; 2312.494
500.976; 1655.188;   -5.236; 2744.849
501.564; 2071.067;   -8.936; 3148.565
502.151; 2431.723;  -13.176; 3515.999
502.738; 2864.535;  -10.646; 3971.274
503.326; 3237.576;   -9.525; 4403.796
503.913; 3601.583;  -10.856; 5161.749
504.500; 3952.553;  -11.586; 5986.420
505.088; 4354.713;  -10.336; 6381.201
505.675; 4864.446;   -6.355; 6925.547
506.262; 5555.304;   -9.046; 7619.060
506.849; 6238.796;  -10.416; 8733.969
507.436; 6705.014;  -10.305; 9790.121
508.023; 7262.728;   -5.496; 9985.472
508.610; 7508.512;   -7.856;10434.618
509.197; 8113.278;  -10.097;11198.435
509.784; 9472.359;  -10.886;12391.194
510.371;10461.716;   -9.315;13603.713
510.958;11173.246;   -9.936;14426.586
511.545;11964.137;   -9.326;15243.775
512.132;12776.175;  -10.075;15945.876
512.719;13398.744;   -7.796;16340.369
513.305;14326.587;  -10.606;18011.766
513.892;15047.184;  -11.486;19754.971
514.479;16336.690;   -9.126;20967.805
515.066;17726.598;   -6.026;22299.793
515.652;18993.117;   -8.466;22908.660
516.239;20227.834;  -10.886;23798.875
516.825;21247.365;  -11.496;25567.275
517.412;22276.473;   -5.796;28154.959
517.998;22890.787;  -10.506;28344.111
518.585;22996.590;  -10.076;27134.219
519.171;23495.561;   -8.315;27268.576
519.758;24936.916;   -8.596;28964.129
520.344;26655.010;   -8.466;30664.494
520.930;26693.084;  -11.006;32550.605
521.516;28082.992;  -10.495;35422.895
522.103;30239.049;   -5.526;38280.004
522.689;30836.615;   -8.746;37835.117
523.275;30307.145;  -11.376;37288.613
523.861;31401.066;  -11.156;37281.395
524.447;32848.016;   -8.135;37846.949
525.033;32840.992;   -7.896;38321.949
525.619;32962.238;  -12.476;38579.285
526.205;34472.332;   -9.516;40622.875
526.791;36716.805;   -6.926;42258.836
527.377;37043.734;   -8.346;42966.902
527.963;38576.262;   -8.717;42018.949
528.549;36966.484;  -11.016;42476.828
529.135;35643.758;   -8.536;41854.852
529.721;35066.973;   -9.666;41237.711
530.306;34565.379;  -10.066;41259.445
530.892;34430.250;  -11.356;41506.047
531.478;35702.227;   -6.596;43559.613
532.063;38485.082;   -8.836;47695.563
532.649;38837.094;  -10.047;50808.324
533.235;39790.004;   -9.746;51787.500
533.820;40563.051;   -6.566;52145.035
534.406;41907.098;  -10.817;51133.488
534.991;41622.652;   -9.416;49996.805
535.576;40169.656;   -9.036;48882.852
536.162;40741.047;   -6.156;46942.285
536.747;41788.031;  -11.607;45711.746
537.333;45471.512;  -11.787;48510.180
537.918;48227.441;  -12.437;50439.891
538.503;46899.051;   -7.196;50863.711
539.088;43759.711;  -10.556;50906.922
539.673;43537.605;   -8.767;52621.965
540.259;43601.949;  -10.026;52368.094
540.844;41320.980;   -7.416;50879.109
541.429;42589.211;   -9.467;52077.777
542.014;45191.078;   -9.527;52716.695
542.599;44376.199;   -9.946;52363.281
543.184;42181.828;   -7.927;53187.137
543.769;43861.176;   -9.297;54697.605
544.354;43409.082;  -10.127;53913.914
544.938;42200.488;   -9.267;49680.164
545.523;44010.789;   -6.506;47386.277
546.108;46594.465;   -9.787;49151.949
546.693;48400.500;  -11.587;51384.637
547.278;48221.227;  -10.986;51853.254
547.862;45389.910;   -8.206;51173.750
548.447;41160.426;  -10.067;51691.395
549.031;40752.875;   -9.637;52456.703
549.616;45506.688;   -9.926;52714.516
550.201;44781.715;   -6.347;52414.598
550.785;45877.438;   -7.917;52355.059
551.370;44931.320;  -10.867;54589.453
551.954;44685.445;   -9.047;58267.348
552.538;45452.594;   -7.827;59062.176
553.123;43794.188;  -10.287;58115.285
553.707;41721.582;  -12.178;56556.285
554.291;43285.133;   -8.717;56201.668
554.876;45670.957;   -7.457;55335.762
555.460;45950.875;  -10.387;54155.703
556.044;46774.078;   -9.618;53721.484
556.628;45342.344;  -11.567;53731.016
557.212;44145.691;   -8.097;54312.531
557.796;42697.238;  -11.077;53797.773
558.380;42712.066;  -11.108;56145.984
558.964;43168.602;   -9.057;57277.930
559.548;44116.215;   -6.977;56459.641
560.132;42515.824;  -11.457;54434.543
560.716;41404.566;  -11.378;54800.617
561.300;42591.445;   -9.577;57606.945
561.884;43698.477;   -7.127;58972.445
562.467;42119.188;   -7.118;57327.570
563.051;41289.289;  -13.358;54962.434
563.635;42030.434;  -10.178;52594.473
564.219;42450.977;   -7.837;50610.410
564.802;43496.637;  -11.398;49551.180
565.386;43483.348;  -12.788;48370.953
565.969;42788.676;   -9.077;48178.871
566.553;42159.461;   -6.207;49957.305
567.136;42642.219;   -8.568;50369.594
567.720;39061.906;  -11.868;49492.004
568.303;37105.383;   -8.268;50616.352
568.887;37145.742;   -8.698;50727.148
569.470;37334.457;   -6.808;51698.379
570.053;35949.852;  -13.188;52122.078
570.637;34558.281;  -12.037;52536.438
571.220;34430.637;   -8.577;51186.098
571.803;34879.625;   -8.498;51032.762
572.386;37038.855;  -10.498;49609.887
572.969;39494.094;   -9.388;48285.926
573.552;37614.441;   -8.338;47624.285
574.135;36279.719;   -8.518;45498.641
574.718;33928.789;  -13.628;41970.434
575.301;32875.449;  -10.893;41447.137
575.884;31822.107;   -8.158;40923.836
576.467;32752.043;  -10.328;45267.723
577.050;34590.156;  -13.058;48175.543
577.633;35422.184;   -9.458;47729.328
578.216;33838.969;   -8.928;47579.793
578.799;32918.461;   -9.358;47820.996
579.381;32342.807;  -11.388;48115.551
579.964;31611.342;  -11.718;47333.766
580.547;33633.266;   -8.588;46668.969
581.129;34780.496;   -8.859;44466.141
581.712;35439.910;  -10.729;44164.922
582.294;36037.402;  -11.118;46477.855
582.877;35983.227;   -5.218;48244.254
583.459;33606.066;   -8.679;47437.895
584.042;31620.170;  -10.709;46943.219
584.624;32234.889;  -11.669;46792.227
585.206;31715.119;   -8.218;46557.250
585.789;31660.768;  -10.569;45793.773
586.371;34038.258;  -11.859;43836.391
586.953;33973.984;  -10.719;42972.492
587.536;34881.215;   -7.198;42487.211
588.118;33997.801;   -8.720;42086.414
588.700;29088.752;  -10.439;43389.930
589.282;26596.125;   -9.198;43646.039
589.864;27367.805;   -9.199;43438.109
590.446;30490.129;  -11.319;43151.926
591.028;32714.016;  -11.159;42781.867
591.610;32960.598;  -11.779;42839.098
592.192;31001.379;   -7.668;42820.402
592.774;29658.578;  -11.949;40724.277
593.356;28378.852;  -12.129;39874.789
593.937;27361.643;  -10.669;39980.648
594.519;29557.883;   -6.509;42069.633
595.101;31703.211;  -10.849;42976.031
595.683;31765.926;  -11.679;44084.441
596.264;32757.533;   -9.049;43478.797
596.846;32025.293;   -8.849;43803.672
597.427;31963.047;   -9.570;42986.934
598.009;33627.805;  -12.620;42832.219
598.591;33981.758;  -10.039;42580.086
599.172;33103.082;  -10.369;43061.805
599.753;33174.852;   -9.140;41691.469
600.335;34766.355;  -11.430;40692.520
600.916;33055.281;   -9.939;39982.422
601.498;30523.781;   -8.479;40318.617
602.079;29028.988;  -10.920;40670.609
602.660;29088.953;  -11.480;41450.898
603.241;30614.945;  -11.699;41137.738
603.823;29386.758;   -9.579;38868.797
604.404;29198.549;  -10.620;38182.785
604.985;30691.521;  -10.450;38078.047
605.566;30271.361;   -9.129;38056.633
606.147;30422.039;   -7.510;37020.418
606.728;31921.531;  -10.660;37883.359
607.309;30524.756;  -11.740;38748.273
607.890;30028.512;   -9.759;38850.230
608.471;29494.598;   -8.250;37457.918
609.051;28601.820;   -9.240;36066.457
609.632;27637.889;  -12.120;35991.074
610.213;28482.328;   -9.110;37402.641
610.794;29114.184;   -8.030;38383.363
611.374;28617.268;   -8.110;40562.387
611.955;29180.697;  -13.560;38533.727
612.536;30512.949;  -11.400;36951.789
613.116;30486.506;   -8.070;37197.891
613.697;30657.803;  -10.830;38411.125
614.277;29089.973;  -11.641;38673.938
614.858;29911.912;  -13.310;37075.863
615.438;29102.467;   -7.460;35092.906
616.019;26473.709;   -7.601;33666.301
616.599;27156.266;  -12.020;34189.023
617.179;28996.463;  -11.780;36952.047
617.760;30208.131;   -8.570;39582.574
618.340;31368.748;  -11.471;38943.977
618.920;32475.686;  -11.170;37594.156
619.500;32236.070;  -11.071;37866.938
620.080;31335.160;   -7.750;37869.043
620.660;32532.889;  -12.711;36868.617
621.241;33808.059;  -10.211;36352.309
621.821;33968.191;  -10.961;35459.520
622.401;33012.969;   -7.720;35207.414
622.980;32261.289;   -8.981;35980.422
623.560;30874.363;   -9.331;37351.328
624.140;29753.250;   -9.850;34388.582
624.720;24608.736;   -7.451;32368.764
625.300;21123.434;   -9.070;32638.629
625.880;24486.596;  -12.601;34599.035
626.459;28524.287;  -11.751;36831.738
627.039;31505.701;   -9.281;38299.098
627.619;31205.592;   -8.801;38289.574
628.198;29610.967;  -12.071;37220.695
628.778;28925.818;   -9.461;37632.563
629.357;29694.947;   -8.491;38003.012
629.937;29568.891;   -9.721;38402.039
630.516;29068.766;   -9.951;37868.801
631.096;28815.568;  -11.731;35760.410
631.675;31695.992;   -8.572;35225.219
632.254;36580.668;  -11.282;35130.289
632.834;35727.984;  -13.322;35794.570
633.413;33803.301;  -10.301;35788.922
633.992;31207.553;   -8.582;34532.863
634.571;32232.416;   -8.352;33590.113
635.151;35121.883;  -11.912;34943.863
635.730;33303.781;  -10.511;35352.523
636.309;29870.264;   -7.731;35366.605
636.888;27627.479;   -9.952;36165.637
637.467;28478.965;  -11.672;37515.902
638.046;30079.068;   -8.901;39288.695
638.625;33200.125;   -7.912;38279.699
639.204;33006.066;  -10.022;37741.598
639.782;31523.473;  -12.252;38364.551
640.361;27842.607;  -10.041;36740.621
640.940;25053.787;  -11.161;34950.082
641.519;25685.922;   -9.701;34137.398
642.097;28511.326;  -11.271;35654.258
642.676;31324.557;   -8.651;35637.957
643.255;31901.801;   -8.711;36567.074
643.833;31112.178;   -9.581;37809.434
644.412;31121.004;  -13.711;37337.293
644.990;30127.105;  -11.811;37018.531
645.569;30278.777;   -9.411;36518.469
646.147;29364.609;  -10.291;36186.430
646.726;29006.811;  -12.401;36267.688
647.304;30234.424;  -10.411;36647.625
647.882;32176.477;   -9.651;39286.742
648.461;33799.059;   -9.631;39157.703
649.039;31970.363;  -11.881;35412.883
649.617;31243.094;   -9.661;34744.918
650.195;30970.439;   -9.301;35403.098
650.773;29486.893;  -10.511;35053.797
651.352;27071.578;  -11.521;33756.816
651.930;24793.922;  -12.211;31868.773
652.508;23275.992;   -9.171;33121.551
653.086;27220.803;   -9.371;33564.793
653.663;29944.592;  -13.161;34054.668
654.241;28831.469;  -13.031;35693.309
654.819;30616.383;   -9.371;36422.906
655.397;30775.367;  -10.511;38213.484
655.975;30354.396;  -10.371;39507.625
656.553;29995.281;  -10.051;39498.223
657.130;28396.934;  -10.061;40395.480
657.708;27816.504;   -9.561;39242.020
658.286;27970.785;  -11.511;38920.020
658.863;29238.852;  -10.261;40202.898
659.441;32155.229;   -7.531;39677.938
660.018;31543.646;   -9.501;40413.355
660.596;30415.752;  -13.301;39931.414
661.173;32413.807;  -11.211;39604.531
661.750;32446.297;   -9.951;39700.070
662.328;31210.557;   -9.390;39292.809
662.905;30363.734;  -11.330;38235.648
663.482;26127.652;   -9.050;36212.305
664.060;24354.527;   -8.240;35944.945
664.637;27105.723;  -10.050;35170.785
665.214;29026.902;  -11.760;34197.523
665.791;30420.293;  -10.530;34549.520
666.368;29128.021;   -9.690;35118.578
666.945;29892.523;   -9.320;36019.418
667.522;31509.889;  -11.860;36048.438
668.099;31268.834;  -10.770;36243.914
668.676;30110.408;   -6.260;35958.875
669.253;28861.189;   -7.000;37384.730
669.830;29547.395;  -10.190;36779.629
670.407;29145.898;   -9.550;35231.289
670.984;29081.908;   -9.260;35544.270
671.560;29617.252;   -9.280;35466.867
672.137;28862.176;  -11.810;34280.863
672.714;29716.807;  -11.490;34632.863
673.290;30113.148;   -7.740;35135.422
673.867;30295.406;  -10.660;36114.480
674.443;30138.158;  -12.230;36152.859
675.020;28483.234;  -10.450;35327.238
675.596;29760.496;   -9.260;35795.176
676.173;30208.393;  -10.780;35430.355
676.749;29979.211;  -13.690;33549.516
677.326;30003.795;  -11.980;32210.012
677.902;29972.674;   -8.630;32068.871
678.478;29247.068;  -10.730;32583.891
679.054;28768.551;  -10.520;32088.928
679.631;29139.771;  -11.920;30978.848
680.207;30556.836;   -7.490;33160.887
680.783;32091.576;   -9.860;35570.363
681.359;31147.533;  -13.380;36125.184
681.935;30608.828;  -12.480;35240.922
682.511;29792.098;   -7.900;34429.961
683.087;29958.291;   -7.710;34463.680
683.663;29631.129;  -11.480;34648.898
684.239;28270.479;  -14.090;34546.457
684.815;27858.416;   -7.560;35586.375
685.390;28378.799;   -9.910;35821.895
685.966;28843.230;  -11.159;35085.871
686.542;31252.406;  -11.169;34198.230
687.118;33439.332;   -5.959;32847.707
687.693;33608.184;  -10.329;32794.027
688.269;33207.215;  -12.059;33072.367
688.844;31203.990;  -10.909;33141.664
689.420;28894.152;   -8.019;33965.742
689.995;26645.744;   -8.399;34655.523
690.571;25498.512;  -10.949;33576.742
691.146;26066.918;   -9.619;32657.219
691.722;25546.818;   -8.999;32526.979
692.297;25547.371;  -11.589;33014.617
692.872;27416.082;  -11.739;34012.254
693.448;26894.545;  -11.059;34237.434
694.023;26099.424;  -10.139;34142.672
694.598;28112.377;   -9.029;34132.031
695.173;28255.725;  -13.319;34205.250
695.748;27529.477;  -10.169;32882.488
696.323;27627.701;   -8.339;32864.906
696.898;27889.199;   -8.169;33170.004
697.473;27744.578;  -12.309;32432.984
698.048;27135.447;  -10.989;31649.303
698.623;27029.773;   -9.329;30778.141
699.198;29043.430;   -9.849;31140.119
699.773;29938.264;  -12.329;31764.299
700.348;28347.660;  -10.389;31780.816
700.922;28435.898;   -9.269;32046.375
701.497;29178.002;   -9.329;32603.574
702.072;29193.301;  -10.789;34799.871
702.646;27859.760;  -10.839;35793.172
703.221;25961.322;   -9.099;35201.590
703.795;28018.936;  -10.939;34764.527
704.370;28418.275;  -12.859;34307.367
704.944;28937.404;  -11.559;33509.887
705.519;29802.273;   -7.939;31388.584
706.093;31144.104;  -10.499;31340.104
706.668;31430.648;  -11.289;32630.281
707.242;30435.115;  -11.509;32728.779
707.816;28935.348;   -9.639;32947.238
708.390;27445.500;  -11.429;33277.855
708.965;27957.668;  -11.869;33834.336
709.539;28123.385;  -11.689;33709.273
710.113;28612.012;  -10.478;33044.313
710.687;27854.008;  -10.228;31953.992
711.261;26147.969;  -13.698;30505.949
711.835;26060.240;  -13.378;30262.369
712.409;26945.639;   -9.698;31254.447
712.983;28924.938;  -11.898;32754.986
713.557;29770.307;  -15.138;34018.824
714.131;29181.756;  -14.098;34579.625
714.704;28202.920;   -9.958;33890.262
715.278;26087.547;  -10.028;33531.102
715.852;25125.891;  -11.148;33601.660
716.425;25988.000;   -9.068;33515.117
716.999;26727.820;  -10.038;33185.555
717.573;27741.979;   -9.798;33905.996
718.146;28772.035;  -12.378;35199.293
718.720;28746.463;  -11.918;35060.551
719.293;28236.918;   -8.088;34973.230
719.867;31089.273;  -10.888;36394.449
720.440;30695.699;  -11.938;36663.008
721.013;29068.367;  -12.818;35102.426
721.587;27746.418;  -10.298;33985.266
722.160;26863.301;  -10.048;33524.965
722.733;25820.291;  -12.108;32987.043
723.306;26110.082;  -10.818;33066.301
723.880;28508.242;   -8.908;33399.500
724.453;30358.031;   -9.878;33468.297
725.026;29313.205;  -11.188;33816.637
725.599;26699.666;  -11.678;32797.996
726.172;27220.813;   -9.618;33187.434
726.745;28337.033;   -8.258;35136.613
727.318;29635.133;  -12.978;35751.730
727.891;29983.324;  -12.148;35890.430
728.463;29610.379;   -8.968;34822.090
729.036;28660.795;  -10.188;32895.086
729.609;29056.477;  -11.788;31823.225
730.182;25929.500;  -11.788;31445.283
730.754;23498.719;  -10.268;32373.223
731.327;23627.943;   -9.998;33676.820
731.900;24016.447;  -12.228;33417.000
732.472;25421.826;  -13.848;31978.498
733.045;27305.764;   -8.698;30368.777
733.617;27287.027;  -10.607;30574.215
734.190;26753.393;  -11.507;31280.975
734.762;23773.211;  -13.647;31674.412
735.334;22154.264;   -9.767;31247.291
735.907;22969.721;   -9.897;29876.211
736.479;23085.094;  -11.637;29808.488
737.051;22781.770;   -9.567;30233.547
737.623;23750.883;   -8.187;31469.086
738.195;24560.523;  -11.187;31784.225
738.768;26479.635;  -12.337;32120.523
739.340;26592.188;  -12.227;32094.342
739.912;25315.055;  -11.057;31312.680
740.484;23882.904;  -10.207;31946.238
741.056;22878.221;  -10.047;32984.059
741.628;24650.168;  -13.627;33897.715
742.199;26792.043;   -7.177;33213.016
742.771;25118.838;  -10.797;31369.113
743.343;22827.625;  -11.997;31865.473
743.915;21836.049;  -12.867;32388.631
744.487;21952.348;   -7.617;31079.568
745.058;22120.070;   -9.557;30570.107
745.630;22548.613;   -9.877;29970.127
746.201;23361.375;  -14.177;29186.766
746.773;23857.549;   -9.237;28805.723
747.344;23710.924;   -9.847;29591.223
747.916;22416.191;  -11.657;31412.201
748.487;22717.385;  -10.587;32194.898
749.059;23858.357;   -8.707;32533.719
749.630;24451.373;  -10.537;32158.518
750.201;23467.377;  -11.687;30855.395
750.773;21680.172;  -11.647;28622.555
751.344;21686.813;   -7.147;28405.732
751.915;22936.537;   -9.757;28461.551
752.486;22689.646;  -12.427;27842.850
753.057;20408.066;  -12.227;27845.008
753.628;19282.816;  -10.417;27728.107
754.199;20463.182;  -11.767;27381.086
754.770;21445.865;  -11.187;25882.203
755.341;21413.545;  -10.507;25886.184
755.912;21458.076;   -9.387;26050.861
756.483;21036.199;  -10.647;26798.779
757.054;19251.859;  -11.837;27048.238
757.625;17973.875;  -12.716;26294.838
758.195;17693.139;   -9.666;26142.076
758.766;17406.338;   -8.656;26392.234
759.337;18210.354;  -12.856;26334.594
759.907;19927.752;  -13.366;27579.652
760.478;20798.158;   -8.576;28352.770
761.048;20133.299;  -10.526;27325.088
761.619;19316.705;  -11.116;26460.428
762.189;19397.596;  -12.136;26029.826
762.760;20517.754;   -9.456;26430.145
763.330;21571.752;   -7.136;26670.902
763.900;20927.289;  -11.786;26603.021
764.471;18374.262;  -11.546;25542.740
765.041;17160.139;   -8.096;24358.459
765.611;17249.096;   -8.876;23991.297
766.181;17670.293;  -12.196;24470.236
766.751;18603.045;  -11.636;24845.975
767.321;18306.863;  -10.156;24533.633
767.891;16370.131;  -11.766;24916.492
768.461;15905.772;  -14.936;24776.771
769.031;16485.086;  -12.356;24757.988
769.601;18014.502;   -7.526;24181.088
770.171;17820.367;  -10.766;23670.387
770.741;17158.588;  -13.176;22960.045
771.311;17392.396;  -10.616;22917.523
771.880;17689.174;   -9.576;23562.941
772.450;17335.584;  -10.336;24216.500
773.020;17346.387;  -13.516;24140.398
773.589;16663.785;  -13.466;24414.857
774.159;16038.634;   -8.686;23858.717
774.729;15706.410;   -9.476;22942.135
775.298;15213.554;  -13.666;22324.033
775.867;14809.634;  -11.716;21140.313
776.437;14855.893;   -9.906;20838.092
777.006;14658.098;  -12.166;20599.510
777.576;14563.166;  -12.356;20508.809
778.145;14689.738;  -11.646;20732.947
778.714;14523.222;   -8.226;21062.465
779.283;13764.808;   -9.556;20949.664
779.853;13345.315;  -14.116;20508.623
780.422;13898.819;  -11.506;20649.082
780.991;13447.142;   -9.556;21527.520
781.560;12261.990;   -9.095;22632.658
782.129;12137.386;  -12.135;23048.277
782.698;12187.627;  -10.865;23438.555
783.267;11757.315;   -9.335;23267.734
783.836;11665.674;  -11.045;22415.133
784.404;12682.406;  -13.865;20443.152
784.973;13220.247;  -13.095;19699.150
785.542;13154.427;  -11.575;19763.828
786.111;12972.054;   -9.705;20341.408
786.679;12424.205;  -12.105;20207.967
787.248;12180.504;  -12.455;19516.465
787.817;11982.411;  -11.535;18900.363
788.385;11591.347;   -9.765;17879.121
788.954;11049.541;  -14.005;17658.301
789.522;10581.794;  -11.955;17788.879
790.090;11197.200;  -10.135;18118.277
790.659;11582.974;  -10.975;18338.736
791.227;11081.335;  -13.375;18508.615
791.795;11525.383;  -12.375;17898.254
792.364;11895.700;  -10.725;17295.133
792.932;12215.532;   -9.715;16822.051
793.500;12337.500;  -12.675;17040.148
794.068;12558.942;  -13.495;17179.787
794.636;12671.119;  -10.885;16664.246
795.204;12110.246;  -11.045;16524.545
795.772;12198.896;  -13.175;17274.564
796.340;11696.659;  -12.445;17891.002
796.908;11512.336;   -9.735;17648.561
797.476;11385.662;   -9.815;17064.080
798.044;10906.047;  -13.985;16672.777
798.612;10094.082;  -13.115;17023.996
799.180; 9766.823;  -10.185;16561.615
799.747; 9744.879;   -9.055;15962.773
800.315; 9500.628;  -12.385;15296.992
800.883; 9124.366;  -15.035;14801.771
801.450; 9119.081;  -10.365;14534.430
802.018; 9175.988;   -9.855;14173.248
802.585; 9288.112;  -11.905;14029.547
803.153; 9332.132;  -11.585;13836.846
803.720; 9142.433;   -9.095;13567.324
804.287; 8654.651;   -9.135;13360.622
804.855; 8214.407;  -11.604;13681.981
805.422; 8133.983;  -11.794;13536.560
805.989; 8166.674;  -10.734;13355.958
806.556; 8356.121;  -10.444;13747.896
807.124; 8601.627;  -12.764;13987.376
807.691; 8564.881;  -12.964;14038.674
808.258; 8361.539;  -11.134;14120.152
808.825; 8039.280;   -9.854;13860.111
809.392; 8113.353;  -10.504;13268.790
809.959; 7641.068;  -13.054;12680.389
810.526; 7196.155;   -8.294;12427.308
811.093; 7255.208;   -8.394;12030.105
811.659; 7886.724;  -12.304;11653.664
812.226; 8382.182;  -13.944;11637.183
812.793; 8044.987;  -10.484;11611.521
813.360; 7394.147;  -10.144;11885.181
813.926; 7093.951;  -11.684;12770.539
814.493; 6896.366;  -13.644;12677.638
815.060; 6517.254;   -9.724;11974.336
815.626; 6528.811;   -9.854;11594.715
816.193; 6915.861;  -13.254;11579.474
816.759; 6904.270;  -13.204;11666.972
817.325; 6960.716;   -9.434;11325.530
817.892; 7352.216;  -10.134;11105.369
818.458; 7805.311;  -13.474;10843.928
819.024; 7415.163;  -11.854;10714.406
819.591; 7121.630;  -10.244;10469.165
820.157; 6898.638;  -10.704;10235.523
820.723; 6376.080;  -12.324;10847.563
821.289; 6075.142;   -9.444;11040.980
821.855; 5979.898;   -8.374;10357.100
822.421; 5949.758;  -10.234; 9978.918
822.987; 5947.599;  -13.294; 9754.177
823.553; 5642.366;  -10.884;10065.755
824.119; 5470.318;   -8.884;10036.294
824.685; 5556.388;   -6.784;10029.192
825.251; 5635.999;  -12.004;10199.230
825.816; 5601.067;  -11.474; 9820.189
826.382; 5393.875;   -9.174; 9297.248
826.948; 5634.055;   -9.214; 9381.347
827.513; 6024.009;  -10.774; 9450.726
828.079; 5794.732;  -11.924; 9472.444
828.645; 5199.857;  -10.543; 9292.643
829.210; 5140.753;  -10.533; 9065.341
829.776; 5129.015;  -10.753; 9132.620
830.341; 5013.395;  -10.173; 9092.878
830.906; 5214.121;  -10.743; 9078.557
831.472; 5546.679;  -11.113; 8534.535
832.037; 5256.353;  -10.603; 8677.874
832.602; 4688.101;  -13.323; 8628.692
833.167; 4431.146;  -10.823; 8879.031
833.733; 4378.696;  -10.113; 9189.790
834.298; 4523.159;  -13.583; 9052.608
834.863; 4594.366;  -12.703; 8895.087
835.428; 4573.864;  -10.523; 8824.266
835.993; 4423.248;   -6.963; 8845.385
836.558; 4270.267;  -10.763; 8888.563
837.123; 4410.764;   -9.903; 8966.582
837.688; 4651.166;   -9.913; 8617.860
838.253; 4892.821;  -10.283; 8590.699
838.817; 5081.135;  -12.963; 8443.797
839.382; 4979.414;  -14.243; 8799.356
839.947; 4652.766;  -10.733; 8810.595
840.511; 4335.003;   -9.383; 8796.394
841.076; 3942.324;  -12.563; 8347.231
841.641; 3987.031;  -12.953; 8224.330
842.205; 4072.431;   -7.043; 8223.349
842.770; 4193.285;   -8.163; 8622.107
843.334; 4372.974;  -12.503; 8410.386
843.898; 4315.187;  -11.693; 8337.465
844.463; 4342.346;  -10.203; 8506.283
845.027; 4118.774;   -9.533; 8280.962
845.591; 3942.683;  -13.443; 8231.141
846.156; 3914.719;  -13.143; 7969.179
846.720; 3797.261;   -9.433; 7768.278
847.284; 3679.780;  -11.033; 7630.957
847.848; 3548.061;  -10.403; 7472.395
848.412; 3450.563;  -11.553; 7437.394
848.976; 3485.084;   -8.393; 7674.592
849.540; 3419.681;   -8.713; 7836.011
850.104; 3540.059;  -12.463; 7913.669
850.668; 3897.109;  -12.973; 7694.508
851.232; 3992.176;  -10.793; 7756.887
851.796; 3824.547;  -10.662; 7926.545
852.359; 3520.546;  -13.082; 7827.844
852.923; 3352.972;  -12.192; 7641.163
853.487; 3176.139;  -11.912; 7342.501
854.050; 3135.181;  -10.892; 7042.820
854.614; 3270.827;  -13.992; 7151.338
855.177; 3389.156;  -11.732; 7105.077
855.741; 3416.344;   -8.962; 6989.675
856.304; 3307.901;   -9.442; 6596.634
856.868; 3269.487;  -14.192; 6356.272
857.431; 3365.906;  -12.702; 6468.571
857.995; 3471.234;   -9.942; 6373.210
858.558; 3473.615;   -9.112; 6324.448
859.121; 3210.311;  -12.932; 6408.327
859.684; 3102.051;  -13.442; 6347.886
860.247; 3207.586;  -10.632; 6321.264
860.810; 3194.385;  -11.272; 6301.903
861.374; 2934.538;   -9.832; 6607.881
861.937; 2691.027;  -11.762; 6408.200
862.500; 2701.518;   -9.722; 6572.639
863.062; 2882.652;  -10.512; 6387.297
863.625; 3047.977;  -11.232; 6190.836
864.188; 3202.447;  -14.112; 5807.254
864.751; 3253.097;  -11.302; 5682.413
865.314; 3129.833;  -10.112; 5547.492
865.876; 2924.451;  -12.182; 5500.150
866.439; 2916.117;  -10.722; 5415.909
867.002; 2864.800;   -9.252; 5501.567
867.564; 2655.268;   -9.572; 5413.946
868.127; 2433.660;  -13.142; 5160.325
868.689; 2333.131;  -12.902; 5133.183
869.252; 2229.964;   -9.732; 5252.382
869.814; 2130.533;   -9.432; 5297.141
870.377; 2143.734;  -11.552; 5390.919
870.939; 2219.506;   -9.052; 5599.898
871.501; 2285.016;  -10.982; 5248.336
872.063; 2287.239;  -12.292; 4854.235
872.626; 2247.478;  -14.912; 4817.074
873.188; 2272.294;  -13.112; 4987.732
873.750; 2237.966;  -13.442; 4868.651
874.312; 2141.873;   -9.402; 4779.330
874.874; 2046.926;  -11.062; 4866.348
875.436; 1958.735;  -13.931; 4718.887
875.998; 1948.402;   -9.561; 4660.005
876.560; 1967.338;  -11.321; 4462.964
877.122; 1906.231;  -12.221; 4145.042
877.683; 1814.739;  -12.191; 4056.481
878.245; 1748.461;  -12.101; 3950.740
878.807; 1793.282;   -8.971; 4058.958
879.369; 1819.190;  -12.071; 3954.677
879.930; 1719.186;  -14.621; 3941.495
880.492; 1651.421;  -10.311; 4067.014
881.053; 1606.572;  -10.901; 3859.633
881.615; 1494.062;  -14.411; 3776.071
882.176; 1399.062;  -13.761; 3734.750
882.738; 1355.657;   -9.181; 3678.489
883.299; 1329.113;  -11.791; 3405.407
883.860; 1332.189;  -13.121; 3351.106
884.422; 1332.214;  -11.211; 3394.044
884.983; 1286.196;  -10.091; 3166.443
885.544; 1205.269;   -8.461; 3189.802
886.105; 1123.418;  -12.361; 3160.360
886.666; 1054.895;  -14.141; 3093.059
887.227;  994.689;  -11.361; 2941.957
887.788;  931.170;  -11.401; 2974.836
888.349;  870.621;  -13.791; 2721.214
888.910;  870.437;  -13.191; 2696.493
889.471;  880.281;   -9.881; 2560.172
890.032;  860.685;   -9.881; 2558.190
890.593;  837.084;  -10.371; 2567.669
891.153;  811.887;  -13.301; 2460.307
891.714;  762.546;  -11.431; 2372.046
892.275;  720.575;  -11.291; 2309.505
892.835;  678.162;  -11.471; 2382.543
893.396;  623.944;  -11.541; 2295.502
893.956;  567.507;  -11.181; 2162.420
894.517;  530.441;  -11.741; 2125.439
895.077;  525.988;  -11.671; 2086.978
895.638;  527.334;  -11.311; 2126.316
896.198;  496.847;   -9.831; 1838.275
896.758;  452.198;   -8.421; 1892.813
897.319;  420.753;  -12.351; 1792.232
897.879;  405.487;  -13.511; 1762.751
898.439;  379.469;  -12.001; 1661.149
898.999;  355.787;  -10.180; 1781.468
899.559;  346.455;  -12.030; 1703.347
900.119;  341.853;  -15.710; 1537.525
900.679;  337.250;   -8.900; 1638.384
901.239;  321.643;   -8.340; 1527.902
901.799;  311.235;  -13.910; 1456.441
902.359;  306.179;  -13.460; 1357.140
902.919;  300.007;  -11.490; 1331.118
903.479;  286.241;  -12.110; 1317.257
904.038;  264.801;  -11.720; 1262.595
904.598;  250.086;  -13.610; 1152.034
905.158;  245.807;  -11.040; 1240.893
905.717;  239.148;  -10.900; 1233.691
906.277;  227.321;  -15.080; 1217.330
906.836;  216.897;  -13.380; 1222.408
907.396;  208.629;  -10.780; 1193.047
907.955;  202.282;   -8.500; 1182.526
908.515;  195.828;  -12.760; 1099.364
909.074;  189.567;  -11.900; 1092.863
909.633;  183.866;   -8.950; 1069.121
910.192;  179.100;   -8.770; 1196.460
910.752;  173.299;  -12.390; 1029.960
911.311;  168.966;  -13.680; 1009.780
911.870;  167.758;  -12.370;  971.460
912.429;  168.156;  -10.900; 1094.080
912.988;  166.715;  -11.690; 1081.060
913.547;  162.858;  -13.240;  940.380
914.106;  157.768;  -11.990;  999.420
914.665;  154.567;   -9.990;  984.020
915.224;  153.474;  -12.880; 1035.760
915.782;  153.088;  -12.350;  922.560
916.341;  153.290;   -9.110; 1049.840
916.900;  148.865;   -9.270;  925.260
917.458;  146.178;  -13.240;  884.220
918.017;  147.174;  -13.550;  942.600
918.576;  146.520;  -12.320;  904.440
919.134;  144.215;  -11.490;  837.980
919.693;  141.185;  -13.670;  893.060
920.251;  140.035;  -15.470;  876.500
920.809;  140.073;  -11.290;  839.580
921.368;  139.376;  -10.210;  885.360
921.926;  137.646;  -12.140;  842.940
922.484;  136.418;  -13.080;  903.360
923.042;  136.867;  -11.720;  880.340
923.601;  138.998;   -7.480;  998.680
924.159;  137.185;  -11.570;  935.560
924.717;  133.982;  -13.840;  841.080
925.275;  134.190;  -10.640;  903.240
925.833;  134.417;  -11.540;  779.320
926.391;  133.843;  -12.960;  938.380
926.949;  133.421;  -14.130;  857.680
927.506;  132.681;  -11.750;  903.500
928.064;  133.343;  -10.250;  877.580
928.622;  133.208;  -13.030;  880.100
929.180;  132.600;  -13.400;  814.180
929.737;  134.211;  -10.700;  808.540
930.295;  138.009;  -10.070;  928.480
930.853;  139.092;  -11.960;  849.100
931.410;  139.452;  -13.120;  821.120
931.968;  139.670;  -10.770;  940.660
932.525;  139.304;  -10.680;  909.380
933.082;  139.295;  -13.130;  811.440
933.640;  140.536;  -13.210;  925.900
934.197;  139.138;  -11.060;  886.360
934.754;  139.518;   -9.580;  897.780
935.312;  143.232;  -14.000;  863.340
935.869;  147.301;  -10.710; 1012.980
936.426;  147.982;   -9.860;  872.800
936.983;  149.380;   -9.710;  889.020
937.540;  147.435;  -13.990;  838.280
938.097;  145.439;  -14.040;  940.120
938.654;  146.886;  -10.310;  898.860
939.211;  149.968;  -10.560;  952.480
939.768;  153.069;  -13.900;  915.420
940.324;  157.293;  -14.760;  904.200
940.881;  158.368;  -10.370;  878.500
941.438;  158.566;   -8.260; 1021.200
941.995;  153.947;  -12.540;  992.560
942.551;  152.270;  -14.670;  875.620
943.108;  153.215;  -10.450;  937.920
943.664;  156.358;  -10.750;  869.340
944.221;  159.156;  -11.550; 1088.140
944.777;  155.817;  -14.770;  869.680
945.334;  157.942;  -12.820;  884.840
945.890;  159.141;  -10.130;  946.480
946.446;  158.669;  -13.470;  947.020
947.003;  161.612;  -12.120;  964.940
947.559;  164.451;   -9.980; 1063.040
948.115;  163.032;   -9.080; 1026.540
948.671;  161.349;  -10.830;  967.300
949.227;  158.123;  -12.440;  859.560
949.783;  156.067;  -12.910;  858.900
950.339;  157.212;  -10.270;  991.000
950.895;  157.341;  -13.630; 1023.840
951.451;  158.360;  -15.100;  925.280
952.007;  157.543;  -11.330;  998.540
952.563;  159.426;  -10.580;  937.780
953.118;  158.353;  -13.440;  904.940
953.674;  157.394;  -12.710;  935.780
954.230;  157.927;  -10.350;  949.640
954.785;  154.081;   -9.190;  936.640
955.341;  151.536;  -11.200;  998.160
955.897;  150.712;  -16.560;  834.660
956.452;  152.141;  -12.570;  953.840
957.008;  150.979;   -7.970; 1083.640
957.563;  147.971;  -11.940; 1009.540
958.118;  143.290;  -13.450;  877.700
958.674;  144.811;  -12.030;  946.780
959.229;  146.175;   -9.410; 1013.980
959.784;  143.067;  -12.000;  832.400
960.339;  142.454;  -14.780; 1001.280
960.894;  139.522;   -9.860;  963.760
961.449;  135.367;   -9.970;  859.960
962.004;  135.102;  -10.900; 1212.840
962.559;  129.624;  -13.150;  860.140
963.114;  128.045;  -13.740;  742.480
963.669;  127.964;   -9.820;  915.500
964.224;  124.606;  -13.890;  874.340
964.779;  124.736;  -12.600;  828.420
965.334;  126.322;  -10.950; 1017.860
965.888;  125.714;  -11.170;  875.360
966.443;  128.892;  -12.540;  972.380
966.998;  128.237;  -15.780;  819.460
967.552;  127.459;   -9.760;  908.380
968.107;  124.786;   -9.060;  868.300
968.661;  125.019;  -11.950;  922.440
969.216;  126.648;  -12.800;  856.280
969.770;  127.184;  -11.210;  917.200
970.324;  125.348;  -11.610;  923.140
970.879;  121.941;  -11.370;  947.180
971.433;  119.649;  -12.540;  952.720
971.987;  115.714;  -11.320;  895.340
972.541;  111.972;  -10.720;  917.100
973.095;  107.506;   -9.680; 1009.460
973.649;   98.753;  -11.440;  809.480
974.203;   90.427;  -11.210;  829.040
974.757;   83.813;  -10.240;  855.220
975.311;   80.583;  -13.720;  872.600
975.865;   81.107;  -13.770;  881.820
976.419;   83.329;  -11.690;  857.400
976.973;   85.950;   -9.510;  849.620
977.526;   88.725;  -12.620;  949.920
978.080;   89.001;  -12.010;  796.780
978.634;   92.691;  -10.170;  921.320
979.187;   90.254;   -9.020;  905.400
979.741;   88.336;   -9.820; 1018.380
980.294;   85.097;  -14.870;  789.160
980.848;   83.945;  -12.380;  717.220
981.401;   87.066;  -10.350;  816.540
981.955;   88.561;  -13.720;  844.300
982.508;   87.762;  -11.490;  746.340
983.061;   88.830;  -10.000;  915.260
983.615;   85.066;  -11.480;  798.800
984.168;   82.157;  -13.220;  770.080
984.721;   82.278;  -13.960;  880.760
985.274;   81.392;  -10.870;  867.500
985.827;   81.238;   -9.790;  834.220
986.380;   78.272;  -13.120;  721.340
986.933;   78.438;  -12.450;  864.800
987.486;   76.629;  -10.210;  861.920
988.039;   76.453;   -8.430;  863.100
988.591;   73.497;  -10.520;  893.260
989.144;   71.818;  -14.860;  737.260
989.697;   71.509;  -13.080;  758.740
990.250;   71.669;  -10.150;  858.100
990.802;   70.528;  -13.430;  755.860
991.355;   72.200;  -12.750;  974.880
991.907;   69.976;  -12.040;  864.320
992.460;   67.751;  -11.330;  753.760
993.012;   66.334;  -13.610;  749.540
993.565;   66.247;  -13.460;  711.360
994.117;   68.019;   -9.360;  950.780
994.669;   64.112;  -11.300;  701.320
995.221;   61.833;  -13.540;  791.920
995.774;   60.060;  -13.430;  787.580
996.326;   58.730;  -12.520;  740.220
996.878;   58.747;  -10.950;  838.420
997.430;   55.445;  -14.300;  699.860
997.982;   54.504;  -13.760;  750.140
998.534;   52.385;  -11.530;  739.060
999.086;   51.367;  -10.310;  738.220
999.638;   49.196;  -12.530;  661.380
1000.190;   49.426;  -11.840;  699.320
1000.741;   50.336;  -10.260;  742.700
1001.293;   50.308;   -8.860;  686.020
1001.845;   47.925;  -13.700;  676.640
1002.396;   48.221;  -12.100;  743.400
1002.948;   48.385;  -12.760;  737.400
1003.500;   47.802;  -10.380;  723.780
1004.051;   48.006;  -11.900;  907.580
1004.603;   46.108;  -12.250;  791.820
1005.154;   43.523;  -13.210;  608.980
1005.705;   42.042;  -10.950;  723.960
1006.257;   41.263;  -13.880;  707.220
1006.808;   41.185;  -12.840;  685.460
1007.359;   41.033;  -10.570;  763.240
1007.910;   39.790;   -9.620;  646.640
1008.461;   38.913;  -13.630;  732.940
1009.013;   37.715;  -17.200;  588.340
1009.564;   39.992;  -10.200;  793.520
1010.115;   37.447;  -12.570;  597.040
1010.665;   36.479;  -15.150;  602.160
1011.216;   37.697;  -14.480;  667.920
1011.767;   37.175;  -11.340;  697.920
1012.318;   37.756;   -9.780;  736.980
1012.869;   35.422;  -12.380;  679.000
1013.419;   35.199;  -15.560;  603.120
1013.970;   35.402;  -11.010;  666.640
1014.521;   34.674;  -11.610;  620.620
1015.071;   34.764;  -13.450;  670.380
1015.622;   34.452;  -13.870;  635.460
1016.172;   33.536;  -11.610;  596.820
1016.723;   33.924;  -12.120;  614.380
1017.273;   32.682;  -13.620;  604.160
1017.823;   33.069;  -14.140;  650.340
1018.374;   32.744;  -12.800;  611.760
1018.924;   33.105;  -12.340;  716.880
1019.474;   33.478;  -11.410;  718.880
1020.024;   31.722;  -14.770;  657.580
1020.574;   32.785;   -9.780;  726.160
1021.124;   32.965;   -8.560;  673.580
1021.674;   31.063;  -15.190;  559.120
1022.224;   32.655;  -13.530;  708.940
1022.774;   32.607;  -13.280;  668.820
1023.324;   32.176;  -10.690;  753.520
1023.874;   32.531;  -10.240;  875.760
1024.423;   30.756;  -12.540;  613.700
1024.973;   29.624;  -10.010;  610.760
1025.523;   30.409;  -10.550;  620.960
1026.072;   29.533;  -13.560;  606.420
1026.622;   29.743;  -15.120;  675.740
1027.172;   30.522;  -11.260;  715.660
1027.721;   29.169;  -11.410;  601.220
1028.270;   28.621;  -13.530;  663.400
1028.820;   28.849;  -13.680;  638.080
1029.369;   29.035;  -13.520;  612.700
1029.918;   29.320;  -10.980;  649.840
1030.468;   28.029;  -13.530;  564.780
1031.017;   28.462;  -13.170;  634.800
1031.566;   27.958;  -12.200;  608.900
1032.115;   27.905;   -9.960;  694.500
1032.664;   26.709;  -13.210;  596.480
1033.213;   28.138;  -12.500;  735.420
1033.762;   27.112;  -11.910;  635.620
1034.311;   27.531;   -9.640;  677.220
1034.860;   27.089;  -13.310;  691.000
1035.408;   26.820;  -11.830;  722.720
1035.957;   27.397;  -12.000;  719.540
1036.506;   26.082;  -11.690;  530.800
1037.055;   28.039;  -10.990;  844.320
1037.603;   26.479;  -15.120;  664.000
1038.152;   24.906;  -12.450;  534.760
1038.700;   25.010;  -10.560;  585.740
1039.249;   24.732;  -11.080;  681.220
1039.797;   25.711;  -12.540;  633.360
1040.345;   25.479;  -11.920;  705.420
1040.894;   25.310;  -11.410;  625.300
1041.442;   24.277;  -14.320;  632.200
1041.990;   23.466;  -16.240;  559.160
1042.538;   24.177;  -11.680;  536.180
1043.087;   24.048;  -10.760;  570.860
1043.635;   24.299;  -11.850;  670.500
1044.183;   23.595;  -15.480;  586.400
1044.731;   23.898;  -11.770;  576.000
1045.279;   22.615;  -13.090;  674.920
1045.827;   24.290;  -12.440;  892.400
1046.374;   21.805;  -13.840;  515.420
1046.922;   22.070;  -13.220;  590.580
1047.470;   23.927;  -10.230;  691.300
1048.018;   22.721;  -14.590;  647.960
1048.565;   23.454;  -12.050;  708.600
1049.113;   22.056;  -11.650;  557.000
1049.660;   22.589;  -10.510;  629.660
1050.208;   22.619;  -13.310;  675.640
1050.755;   20.938;  -15.900;  606.580
1051.303;   21.756;  -11.430;  686.820
1051.850;   21.540;   -8.480;  635.120
1052.397;   18.924;  -15.010;  473.960
1052.945;   19.899;  -13.960;  617.760
1053.492;   21.999;  -13.150;  741.840
1054.039;   22.674;   -9.630;  720.180
1054.586;   20.014;  -13.680;  557.240
1055.133;   20.958;  -14.570;  693.140
1055.680;   21.218;  -13.820;  646.620
1056.227;   19.879;  -11.730;  542.780
1056.774;   21.243;  -12.480;  794.980
1057.321;   18.755;  -13.930;  523.260
1057.868;   19.496;  -11.690;  651.320
1058.415;   20.132;   -9.520;  651.980
1058.961;   19.674;  -13.160;  678.940
1059.508;   19.300;  -12.920;  643.820
1060.055;   19.501;  -11.920;  581.780
1060.601;   19.827;  -11.500;  624.300
1061.148;   19.472;  -14.330;  616.820
1061.694;   17.875;  -16.870;  592.580
1062.241;   19.414;  -10.330;  596.320
1062.787;   19.149;  -10.620;  663.140
1063.334;   20.112;  -10.110;  808.560
1063.880;   18.568;  -13.400;  668.360
1064.426;   18.963;  -10.680;  706.820
1064.972;   18.004;   -9.920;  601.340
1065.518;   16.842;  -10.980;  566.640
1066.065;   17.599;  -14.890;  624.460
1066.611;   18.054;  -12.870;  598.800
1067.157;   18.426;  -12.950;  641.860
1067.703;   17.771;  -13.540;  668.480
1068.249;   17.218;  -13.540;  605.220
1068.794;   18.110;  -12.600;  626.880
1069.340;   16.548;  -10.620;  578.960
1069.886;   16.530;  -12.830;  590.700
1070.432;   16.120;  -14.870;  541.720
1070.977;   16.412;  -11.980;  601.080
1071.523;   16.305;   -8.200;  573.060
1072.068;   15.816;  -12.330;  582.000
1072.614;   15.946;  -16.370;  527.760
1073.160;   17.415;  -11.100;  687.040
1073.705;   16.191;  -10.480;  572.520
1074.250;   14.986;  -14.520;  559.900
1074.796;   16.534;  -11.460;  655.160
1075.341;   17.272;  -11.950;  664.100
1075.886;   15.769;  -11.460;  594.240
1076.431;   15.097;  -13.770;  649.880
1076.976;   14.301;  -12.680;  639.220
1077.521;   15.059;  -13.170;  583.080
1078.067;   14.401;  -10.860;  579.400
1078.612;   15.015;  -13.920;  661.620
1079.156;   14.877;  -13.880;  601.540
1079.701;   15.421;  -13.120;  693.260
1080.246;   15.973;   -9.940;  696.300
1080.791;   14.451;  -14.740;  625.020
1081.336;   13.964;  -13.750;  659.320
1081.880;   15.181;  -13.400;  649.680
1082.425;   14.117;  -12.220;  573.480
1082.970;   14.533;  -11.610;  717.040
1083.514;   13.278;  -13.580;  597.000
1084.059;   13.309;  -12.810;  586.720
1084.603;   13.251;  -12.320;  565.840
1085.147;   13.033;  -13.190;  645.220
1085.692;   13.918;  -12.480;  716.800
1086.236;   13.185;  -13.020;  503.140
1086.780;   14.528;   -9.190;  751.440
1087.325;   13.156;  -12.480;  654.620
1087.869;   13.316;  -12.450;  610.700
1088.413;   13.732;  -12.240;  705.040
1088.957;   12.088;   -9.020;  543.400
1089.501;   13.385;  -10.320;  766.640
1090.045;   12.207;  -12.720;  726.480
1090.589;   11.197;  -13.690;  569.920
1091.133;   12.537;  -10.020;  673.340
1091.676;   12.135;  -12.330;  591.940
1092.220;   12.005;  -14.970;  600.920
1092.764;   13.129;  -12.430;  706.960
1093.307;   12.702;   -9.800;  673.780
1093.851;   10.841;  -14.970;  556.540
1094.395;   11.847;  -15.310;  683.140
1094.938;   10.902;  -10.370;  632.520
1095.482;   11.588;  -11.050;  559.800
1096.025;   11.039;  -11.840;  710.880
1096.568;   12.061;  -12.840;  779.280
1097.112;    9.972;  -14.700;  508.180
1097.655;   11.936;   -8.720;  603.000
1098.198;    9.531;  -13.610;  600.180
1098.741;    8.982;  -13.350;  612.860
1099.285;   11.801;  -11.230;  657.300
1099.828;    9.924;  -11.840;  439.400
1100.371;    9.787;  -10.840;  608.160
1100.914;   10.145;  -14.190;  682.660
1101.457;   10.600;  -11.240;  679.900
1101.999;    9.200;  -11.270;  584.680
1102.542;    9.686;  -11.480;  641.440
1103.085;    9.353;  -11.750;  658.500
1103.628;   10.891;  -11.400;  762.060
1104.170;   10.339;  -10.490;  588.280
1104.713;    9.211;  -10.600;  646.700
1105.256;    8.866;  -14.360;  557.440
1105.798;    8.441;  -13.210;  499.980
1106.341;   11.053;  -10.270;  728.900
1106.883;    8.727;  -12.200;  521.340
1107.425;    8.988;  -13.110;  668.180
1107.968;    9.403;  -12.840;  612.380
1108.510;    9.826;   -6.480;  684.960
1109.052;    7.339;  -13.940;  612.620
1109.594;    6.852;  -13.690;  554.440
1110.136;    8.401;  -11.880;  643.220
1110.679;    7.919;   -9.500;  633.080
1111.221;    8.056;  -14.160;  604.460
1111.763;    7.464;  -13.980;  559.220
1112.304;    7.096;  -13.880;  547.140
1112.846;    8.359;  -12.210;  666.240
1113.388;    9.791;  -11.390;  942.180
1113.930;    7.178;  -14.540;  694.200
1114.472;    7.198;  -12.640;  606.540
1115.013;    6.244;  -11.620;  551.280
1115.555;    5.856;  -13.640;  587.100
1116.097;    5.994;  -15.380;  579.480
1116.638;    6.965;  -12.640;  684.600
1117.180;    7.490;   -9.850;  667.740
1117.721;    7.457;  -13.690;  568.580
1118.262;    7.227;  -12.680;  677.960
1118.804;    7.258;  -12.530;  637.340
1119.345;    6.774;  -11.690;  578.400
1119.886;    7.511;  -13.380;  704.040
1120.427;    5.266;  -14.070;  589.020
1120.969;    5.904;  -13.500;  597.920
1121.510;    6.010;  -11.480;  563.060
1122.051;    6.496;  -12.830;  723.580
1122.592;    5.333;  -14.290;  655.420
1123.133;    5.199;  -12.400;  547.940
1123.673;    6.644;  -10.130;  706.480
1124.214;    5.420;  -12.930;  612.460
1124.755;    5.768;  -14.380;  639.460
1125.296;    5.716;  -14.000;  627.320
1125.836;    6.453;  -10.070;  691.500
1126.377;    5.370;  -12.640;  599.660
1126.918;    5.602;  -12.960;  614.980
1127.458;    5.503;  -13.350;  622.220
1127.999;    6.119;  -10.750;  656.980
1128.539;    5.088;  -12.350;  694.240
1129.079;    4.271;  -14.860;  632.720
1129.620;    3.988;  -13.840;  558.100
1130.160;    4.689;  -12.330;  539.480
1130.700;    4.753;  -14.530;  640.840
1131.240;    5.354;  -12.530;  643.700
1131.781;    4.473;  -14.450;  619.680
1132.321;    4.939;   -9.790;  599.120
1132.861;    2.999;  -14.860;  564.200
1133.401;    2.694;  -14.290;  593.940
1133.941;    3.801;  -11.750;  626.280
1134.481;    3.752;   -9.920;  597.580
1135.020;    2.762;  -12.290;  609.160
1135.560;    3.321;  -11.650;  674.940
1136.100;    2.910;  -16.270;  501.160
1136.640;    3.158;  -10.890;  510.480
1137.179;    2.607;  -14.180;  537.960
1137.719;    3.040;  -16.250;  605.400
1138.258;    3.781;  -14.230;  587.360
1138.798;    4.515;   -9.090;  663.780
1139.337;    2.103;  -15.130;  482.840
1139.877;    2.428;  -13.680;  642.360
1140.416;    4.711;  -11.320;  878.060
1140.955;    3.449;  -10.860;  535.380
1141.494;    2.632;  -12.920;  669.280
1142.034;    1.814;  -13.930;  583.520
1142.573;    3.729;  -11.440;  646.280
1143.112;    2.273;  -12.000;  553.480
1143.651;    2.311;  -13.670;  536.480
1144.190;    2.895;  -12.730;  691.640
1144.729;    2.814;  -14.560;  607.420
1145.267;    2.274;  -11.830;  584.900
1145.806;    3.539;  -12.230;  637.040
1146.345;    1.072;  -14.130;  635.020
1146.884;    1.577;  -11.590;  622.500
1147.422;    0.971;  -12.550;  533.060
1147.961;    2.781;  -11.180;  708.460
1148.500;    1.899;  -11.510;  669.720
1149.038;    3.125;  -11.640;  632.500
1149.577;    2.969;  -10.130;  698.640
1150.115;    0.566;  -13.970;  452.280
1150.653;    1.773;  -14.520;  607.340
1151.192;    2.210;  -12.810;  552.920
1151.730;    2.060;   -9.100;  652.560
1152.268;    0.977;  -12.220;  589.520
1152.806;    1.091;  -14.140;  571.180
1153.344;    0.497;  -12.350;  577.640
1153.882;    1.412;   -8.980;  600.060
1154.421;   -0.127;  -15.190;  470.620
1154.958;   -0.422;  -15.210;  595.240
1155.496;    1.906;  -12.850;  645.280
1156.034;    1.375;   -9.940;  721.880
1156.572;    1.626;  -13.570;  667.060
1157.110;   -0.552;  -14.590;  473.940
1157.647;    1.183;  -13.030;  676.960
1158.185;    0.601;  -12.140;  564.320
1158.723;   -0.776;  -14.390;  509.200
1159.260;    0.581;  -14.090;  701.700
1159.798;    1.372;  -11.920;  658.160
1160.335;    0.429;  -11.110;  631.820

