
Integration time [ms]:   3.276
Averaging Nr. [scans]: 1000
Smoothing Nr. [pixels]: 0
Data measured with spectrometer [name]: 7414430SP
Wave   ;Sample   ;Dark     ;Reference
[nm]   ;[counts] ;[counts] ;[counts] 

288.544;  149.902;    7.793;  793.890
289.143;  153.719;    7.462;  681.602
289.742;  154.152;    8.602;  828.814
290.341;  140.114;    1.321;  789.841
290.940;  128.245;   -0.709;  730.702
291.538;  129.597;    0.881;  881.108
292.137;  130.036;    0.122;  792.581
292.736;  134.615;   -1.929;  975.101
293.335;  129.810;   -8.229;  735.086
293.934;  130.775;   -5.279;  781.677
294.532;  129.567;   -1.369; 1031.958
295.131;  115.022;   -7.641;  834.394
295.730;  115.232;   -8.420;  809.588
296.328;  114.570;   -5.611;  783.442
296.927;  115.737;   -5.781;  779.652
297.525;  116.763;   -6.361;  781.236
298.124;  106.476;  -11.382;  654.009
298.722;  109.534;   -7.641;  761.933
299.321;  109.104;   -6.811;  708.597
299.919;  106.950;   -6.991;  751.918
300.518;  103.783;  -10.362;  689.338
301.116;  104.810;   -9.581;  691.381
301.715;  104.798;   -4.891;  730.222
302.313;  104.336;   -8.801;  704.943
302.911;   99.787;   -8.522;  733.830
303.509;  104.166;   -6.171;  925.627
304.108;  102.903;   -7.311;  760.383
304.706;  102.845;   -8.321;  801.664
305.304;   95.744;  -10.222;  796.707
305.902;  101.645;   -6.021;  784.484
306.500;   97.261;   -4.971;  728.200
307.098;   96.342;   -7.061;  746.560
307.696;   94.121;   -8.801;  780.432
308.294;   93.696;   -6.411;  731.359
308.892;   96.454;   -2.901;  759.769
309.490;   93.009;   -5.041;  712.161
310.088;   90.613;   -5.002;  788.444
310.686;   93.925;   -2.041;  821.749
311.284;   91.208;   -2.351;  766.040
311.882;   88.635;   -4.422;  731.225
312.480;   86.162;   -4.192;  697.167
313.078;   86.279;   -1.172;  808.331
313.675;   87.168;   -2.601;  691.600
314.273;   82.566;   -1.312;  797.837
314.871;   82.164;   -3.942;  589.829
315.468;   80.696;   -2.802;  652.090
316.066;   82.794;   -0.701;  694.427
316.664;   76.047;   -4.362;  656.351
317.261;   79.069;   -2.872;  910.128
317.859;   75.206;   -2.022;  768.735
318.456;   75.984;   -0.531;  830.096
319.054;   72.143;   -3.912;  787.828
319.651;   70.960;   -4.752;  759.928
320.249;   68.998;   -2.602;  810.188
320.846;   67.981;   -0.821;  714.286
321.443;   65.986;   -4.642;  832.135
322.041;   61.955;   -5.002;  812.315
322.638;   59.527;   -3.982;  701.456
323.235;   61.594;   -3.411;  665.683
323.833;   58.753;   -7.361;  740.354
324.430;   53.759;   -8.611;  615.900
325.027;   55.033;   -4.061;  876.855
325.624;   55.209;   -4.031;  644.532
326.221;   52.757;   -7.481;  689.717
326.818;   50.834;   -5.281;  818.332
327.415;   53.969;   -7.460;  748.828
328.012;   53.997;   -5.510;  690.585
328.609;   53.330;   -7.880;  731.389
329.206;   50.794;   -8.331;  778.621
329.803;   50.944;   -5.121;  737.841
330.400;   54.136;   -4.510;  704.260
330.997;   55.383;   -6.441;  817.147
331.594;   53.911;   -8.831;  788.185
332.191;   58.742;   -7.621;  728.722
332.787;   61.492;   -4.591;  844.463
333.384;   60.361;   -7.412;  763.093
333.981;   58.673;   -8.293;  815.687
334.578;   61.227;   -7.052;  708.378
335.174;   64.355;   -3.102;  731.469
335.771;   64.927;   -5.943;  836.456
336.367;   61.171;   -7.393;  710.631
336.964;   64.249;   -4.063;  793.266
337.561;   62.297;   -3.813;  731.112
338.157;   58.954;   -4.654;  911.916
338.754;   56.058;   -7.934;  796.589
339.350;   53.819;   -4.414;  722.493
339.946;   56.560;   -4.664;  773.135
340.543;   48.345;   -6.375;  846.136
341.139;   43.527;   -9.815;  720.836
341.735;   40.195;   -4.526;  772.593
342.332;   39.772;   -4.895;  691.472
342.928;   39.516;   -4.295;  795.394
343.524;   33.064;   -5.476;  761.684
344.120;   29.724;   -5.856;  738.562
344.716;   33.114;   -2.155;  723.717
345.313;   31.466;   -6.275;  795.342
345.909;   26.397;   -8.815;  627.336
346.505;   28.052;   -5.305;  740.247
347.101;   29.795;   -2.674;  827.864
347.697;   28.463;   -4.344;  785.398
348.293;   23.323;   -9.975;  627.244
348.889;   24.634;   -5.774;  745.914
349.485;   24.324;   -5.004;  688.205
350.081;   24.365;   -4.704;  772.592
350.676;   18.593;   -6.635;  691.606
351.272;   23.615;   -4.504;  809.530
351.868;   23.583;   -3.914;  780.497
352.464;   20.663;   -9.044;  723.932
353.059;   16.911;   -8.314;  646.017
353.655;   19.650;   -7.024;  777.063
354.251;   21.977;   -5.343;  759.845
354.846;   15.964;   -8.604;  740.646
355.442;   14.008;   -6.945;  753.071
356.038;   15.736;   -7.564;  751.708
356.633;   15.729;   -5.814;  728.594
357.229;   14.329;   -7.364;  724.757
357.824;   12.564;   -8.024;  703.600
358.420;   11.266;   -9.384;  679.726
359.015;   12.033;   -5.104;  695.357
359.610;   13.061;   -6.854;  763.920
360.206;    6.795;  -10.185;  603.240
360.801;    9.902;   -7.054;  646.503
361.396;   12.436;   -5.034;  725.975
361.992;    6.946;   -8.284;  668.220
362.587;    4.515;   -8.625;  670.160
363.182;    7.192;   -7.674;  689.631
363.777;    7.192;   -5.164;  738.242
364.372;    6.912;   -8.604;  737.314
364.967;    3.787;   -9.055;  680.744
365.563;    8.083;   -6.114;  815.567
366.158;    4.714;   -5.814;  685.161
366.753;    5.971;   -7.854;  649.263
367.348;    3.179;   -7.804;  746.056
367.942;    3.384;   -7.954;  697.298
368.537;    3.213;   -4.984;  754.245
369.132;    2.659;   -8.564;  703.428
369.727;   -1.338;   -8.855;  638.079
370.322;    0.857;   -6.245;  580.186
370.917;    0.737;   -6.425;  710.646
371.511;    2.676;   -6.294;  861.834
372.106;   -1.727;   -7.685;  776.964
372.701;   -3.648;   -7.335;  585.988
373.296;    1.707;   -4.564;  863.135
373.890;   -1.970;  -10.235;  647.840
374.485;   -5.195;   -7.885;  691.199
375.079;   -1.439;   -7.324;  738.685
375.674;    0.272;   -3.494;  812.970
376.268;   -3.907;   -8.525;  691.759
376.863;   -9.255;  -10.086;  580.327
377.457;   -4.463;   -7.025;  662.490
378.052;   -4.549;   -3.585;  764.884
378.646;   -5.638;   -7.595;  741.167
379.240;   -6.254;   -8.335;  721.176
379.835;   -5.793;   -5.785;  636.978
380.429;   -7.174;   -4.335;  562.557
381.023;   -7.753;   -6.805;  779.205
381.617;   -9.832;   -9.195;  680.106
382.212;   -7.172;   -6.905;  685.303
382.806;   -6.169;   -3.745;  760.690
383.400;   -9.686;   -7.745;  672.281
383.994;  -11.139;   -9.765;  664.870
384.588;   -7.040;   -6.564;  697.701
385.182;   -5.211;   -5.344;  726.624
385.776;   -6.626;   -8.514;  706.875
386.370;  -10.215;   -9.555;  681.968
386.964;   -9.057;   -8.715;  684.155
387.558;   -7.176;   -6.174;  598.360
388.152;  -10.448;   -8.725;  681.959
388.745;   -8.869;   -7.965;  814.707
389.339;   -7.403;   -5.924;  747.642
389.933;   -5.994;   -5.524;  695.370
390.527;   -7.437;   -7.114;  859.029
391.120;  -13.551;  -10.725;  595.318
391.714;  -10.841;   -8.035;  711.633
392.308;   -7.225;   -3.574;  780.253
392.901;  -10.818;   -7.245;  642.460
393.495;  -12.947;   -9.285;  595.414
394.089;  -11.324;   -5.895;  760.452
394.682;  -11.599;   -4.295;  697.188
395.275;  -12.230;   -9.875;  719.927
395.869;  -13.485;   -8.485;  667.314
396.462;  -11.469;   -7.455;  616.609
397.056;   -7.773;   -5.424;  776.621
397.649;  -11.880;   -6.605;  731.575
398.242;   -9.680;   -8.224;  712.645
398.836;   -9.744;   -7.474;  766.408
399.429;  -10.468;   -7.094;  631.041
400.022;  -13.608;   -9.475;  665.902
400.615;  -10.457;   -7.145;  805.609
401.208;   -8.846;   -7.174;  691.451
401.802;  -10.845;   -5.515;  699.329
402.395;  -12.844;   -9.875;  683.502
402.988;  -13.493;   -8.845;  696.627
403.581;  -10.130;   -8.874;  646.878
404.174;   -8.268;   -5.324;  686.568
404.767;  -10.450;   -9.575;  638.583
405.360;  -13.363;  -10.965;  621.445
405.953;   -7.921;   -8.764;  759.034
406.545;   -6.800;   -7.514;  725.342
407.138;  -11.344;  -10.025;  618.350
407.731;  -10.614;  -10.034;  613.303
408.324;   -7.050;   -9.374;  660.554
408.917;   -6.859;   -6.534;  681.864
409.509;   -9.298;   -8.004;  740.396
410.102;  -10.689;   -9.875;  643.948
410.695;   -4.660;   -8.604;  665.758
411.287;   -5.569;   -6.794;  599.821
411.880;   -6.473;   -9.334;  585.421
412.472;  -10.094;  -10.254;  613.092
413.065;   -7.270;   -6.714;  629.408
413.657;   -5.082;   -7.234;  576.678
414.250;   -3.934;  -10.544;  646.681
414.842;   -7.850;   -9.744;  676.353
415.434;   -4.648;   -6.994;  570.463
416.027;   -0.647;   -5.893;  652.196
416.619;   -2.475;   -7.264;  713.400
417.211;   -2.977;  -10.374;  599.352
417.804;   -0.919;   -7.993;  628.499
418.396;   -2.940;   -7.234;  607.643
418.988;   -1.138;   -9.443;  659.238
419.580;   -4.383;  -10.724;  568.276
420.172;   -2.010;  -10.323;  536.196
420.764;    2.161;   -8.793;  672.482
421.356;    0.497;  -11.143;  636.898
421.948;    0.442;   -8.293;  677.661
422.540;    4.431;   -7.893;  680.027
423.132;    4.511;   -7.082;  600.641
423.724;    1.531;   -8.653;  561.267
424.316;    3.003;  -10.213;  621.345
424.908;    6.261;   -9.762;  591.517
425.500;    6.762;   -5.572;  647.978
426.092;    8.264;   -8.422;  648.268
426.683;    6.926;   -9.283;  684.836
427.275;   10.093;   -7.852;  641.471
427.867;   11.247;   -5.272;  668.948
428.458;   11.348;   -7.682;  732.344
429.050;   10.539;  -10.612;  680.749
429.642;   11.694;   -9.882;  743.124
430.233;   12.826;   -6.962;  569.356
430.825;   14.403;   -6.842;  724.809
431.416;   11.631;   -9.672;  698.241
432.008;   14.988;   -6.552;  651.723
432.599;   16.054;   -6.891;  656.073
433.190;   13.325;  -10.912;  637.670
433.782;   12.656;  -11.172;  590.395
434.373;   19.318;   -6.061;  884.765
434.964;   18.022;   -8.251;  602.920
435.556;   16.200;   -9.722;  634.537
436.147;   19.276;   -9.082;  758.490
436.738;   18.930;   -8.041;  701.099
437.329;   24.402;   -7.341;  721.723
437.920;   17.436;   -8.162;  666.688
438.511;   17.010;  -11.802;  564.526
439.103;   23.424;  -10.191;  623.998
439.694;   26.293;   -7.601;  681.583
440.285;   26.940;   -8.541;  764.432
440.876;   24.526;   -9.751;  845.738
441.466;   24.048;   -9.401;  575.162
442.057;   29.504;   -7.760;  665.814
442.648;   28.358;   -9.971;  746.255
443.239;   26.466;  -11.001;  620.477
443.830;   31.208;   -7.990;  704.958
444.421;   32.961;   -7.910;  655.474
445.011;   29.927;   -8.131;  693.619
445.602;   29.812;   -7.111;  743.126
446.193;   30.877;  -10.920;  488.117
446.783;   35.965;   -6.500;  640.397
447.374;   31.276;   -8.671;  692.759
447.964;   32.086;  -10.781;  713.770
448.555;   40.161;   -9.650;  822.742
449.145;   37.424;   -8.660;  662.853
449.736;   38.533;   -8.990;  803.179
450.326;   37.575;   -9.500;  713.626
450.917;   42.981;   -8.680;  675.324
451.507;   42.014;   -7.520;  600.661
452.097;   43.405;   -8.590;  746.267
452.688;   43.867;  -11.340;  742.160
453.278;   43.290;  -10.100;  566.840
453.868;   47.284;   -6.019;  793.550
454.458;   46.038;   -9.440;  651.141
455.048;   45.941;  -10.560;  711.783
455.639;   47.493;  -11.799;  567.096
456.229;   50.728;   -6.899;  710.694
456.819;   53.813;   -7.389;  751.158
457.409;   53.256;  -11.119;  773.993
457.999;   55.757;   -9.289;  737.505
458.589;   56.677;   -6.139;  686.606
459.179;   56.960;   -8.729;  717.658
459.769;   54.484;   -9.789;  627.099
460.358;   59.781;  -10.259;  797.262
460.948;   58.903;   -7.299;  689.503
461.538;   60.992;  -10.289;  660.677
462.128;   58.851;  -11.269;  664.934
462.717;   65.096;   -9.368;  710.326
463.307;   68.382;   -7.908;  705.846
463.897;   65.069;   -9.599;  656.942
464.486;   63.686;   -9.769;  837.128
465.076;   68.622;   -8.048;  733.776
465.666;   71.290;   -9.358;  652.900
466.255;   70.467;   -7.919;  785.651
466.845;   68.138;  -11.689;  666.749
467.434;   72.754;   -7.818;  725.873
468.023;   73.347;   -7.678;  658.357
468.613;   70.633;  -10.939;  713.946
469.202;   74.925;  -10.118;  646.507
469.791;   79.046;   -9.108;  737.811
470.381;   81.235;   -6.058;  742.813
470.970;   81.509;  -10.428;  711.099
471.559;   80.231;  -10.268;  733.291
472.148;   83.491;   -8.448;  675.737
472.738;   85.945;   -6.917;  765.466
473.327;   87.166;  -11.978;  637.529
473.916;   86.174;  -11.888;  737.446
474.505;   89.802;   -9.437;  751.703
475.094;   92.874;   -6.747;  806.570
475.683;   92.858;   -9.367;  797.699
476.272;   93.793;  -12.637;  730.632
476.861;   96.645;  -10.027;  706.754
477.449;  103.523;   -8.716;  728.487
478.038;   98.760;   -9.577;  692.513
478.627;   98.867;   -9.718;  714.852
479.216;  105.311;   -8.947;  769.441
479.805;  108.515;   -6.256;  783.375
480.393;  108.466;   -7.937; 1008.945
480.982;  107.965;   -7.717;  874.501
481.571;  114.359;   -9.266;  858.333
482.159;  114.948;   -7.636;  705.386
482.748;  115.516;   -9.667;  821.385
483.336;  119.817;  -10.376;  858.209
483.925;  120.264;   -7.147;  774.373
484.513;  127.256;   -7.996;  758.962
485.102;  124.088;  -10.027;  810.965
485.690;  133.265;  -10.446; 1011.050
486.278;  135.093;   -8.446;  979.329
486.867;  135.966;   -6.356;  809.662
487.455;  139.088;   -9.136;  898.229
488.043;  139.721;  -10.646;  748.361
488.631;  148.071;   -7.456; 1005.079
489.220;  152.889;   -6.636;  908.626
489.808;  153.762;  -11.036;  741.415
490.396;  162.092;  -10.246;  914.645
490.984;  169.340;   -8.556;  830.161
491.572;  178.484;   -5.886;  940.315
492.160;  186.608;   -9.486;  919.081
492.748;  199.729;  -10.976;  884.341
493.336;  226.265;   -8.776; 1019.693
493.924;  256.301;   -5.465;  958.077
494.512;  288.294;   -9.986; 1066.638
495.100;  331.112;  -10.636; 1103.280
495.687;  391.727;  -10.885; 1206.373
496.275;  464.351;   -8.126; 1150.796
496.863;  545.705;  -10.586; 1281.171
497.451;  661.683;  -11.926; 1386.805
498.038;  806.857;  -10.885; 1556.729
498.626;  931.635;   -6.315; 1741.407
499.214; 1104.038;   -7.326; 2016.609
499.801; 1318.132;  -11.906; 2220.633
500.389; 1604.870;  -10.466; 2312.494
500.976; 1950.577;   -5.236; 2744.849
501.564; 2445.733;   -8.936; 3148.565
502.151; 2854.728;  -13.176; 3515.999
502.738; 3356.666;  -10.646; 3971.274
503.326; 3799.907;   -9.525; 4403.796
503.913; 4235.289;  -10.856; 5161.749
504.500; 4640.056;  -11.586; 5986.420
505.088; 5112.806;  -10.336; 6381.201
505.675; 5692.220;   -6.355; 6925.547
506.262; 6499.719;   -9.046; 7619.060
506.849; 7302.886;  -10.416; 8733.969
507.436; 7814.046;  -10.305; 9790.121
508.023; 8445.763;   -5.496; 9985.472
508.610; 8733.646;   -7.856;10434.618
509.197; 9457.228;  -10.097;11198.435
509.784;10985.063;  -10.886;12391.194
510.371;12145.128;   -9.315;13603.713
510.958;12948.381;   -9.936;14426.586
511.545;13812.225;   -9.326;15243.775
512.132;14676.187;  -10.075;15945.876
512.719;15203.688;   -7.796;16340.369
513.305;16185.082;  -10.606;18011.766
513.892;16923.264;  -11.486;19754.971
514.479;18392.887;   -9.126;20967.805
515.066;20175.959;   -6.026;22299.793
515.652;21700.988;   -8.466;22908.660
516.239;22907.639;  -10.886;23798.875
516.825;23828.242;  -11.496;25567.275
517.412;24778.682;   -5.796;28154.959
517.998;25380.070;  -10.506;28344.111
518.585;25537.109;  -10.076;27134.219
519.171;26125.045;   -8.315;27268.576
519.758;27620.732;   -8.596;28964.129
520.344;29671.883;   -8.466;30664.494
520.930;29769.535;  -11.006;32550.605
521.516;30911.369;  -10.495;35422.895
522.103;33221.246;   -5.526;38280.004
522.689;33620.699;   -8.746;37835.117
523.275;33272.375;  -11.376;37288.613
523.861;34978.238;  -11.156;37281.395
524.447;36444.129;   -8.135;37846.949
525.033;36174.137;   -7.896;38321.949
525.619;36318.102;  -12.476;38579.285
526.205;37987.648;   -9.516;40622.875
526.791;40259.309;   -6.926;42258.836
527.377;40573.172;   -8.346;42966.902
527.963;42138.605;   -8.717;42018.949
528.549;40588.746;  -11.016;42476.828
529.135;39114.973;   -8.536;41854.852
529.721;38210.293;   -9.666;41237.711
530.306;37333.785;  -10.066;41259.445
530.892;37161.039;  -11.356;41506.047
531.478;38715.656;   -6.596;43559.613
532.063;41802.809;   -8.836;47695.563
532.649;42511.176;  -10.047;50808.324
533.235;43262.563;   -9.746;51787.500
533.820;43560.809;   -6.566;52145.035
534.406;45105.285;  -10.817;51133.488
534.991;44894.387;   -9.416;49996.805
535.576;43298.668;   -9.036;48882.852
536.162;43864.047;   -6.156;46942.285
536.747;44668.668;  -11.607;45711.746
537.333;48145.863;  -11.787;48510.180
537.918;51570.301;  -12.437;50439.891
538.503;50459.746;   -7.196;50863.711
539.088;46635.199;  -10.556;50906.922
539.673;46261.566;   -8.767;52621.965
540.259;46516.113;  -10.026;52368.094
540.844;44114.898;   -7.416;50879.109
541.429;45448.328;   -9.467;52077.777
542.014;48216.043;   -9.527;52716.695
542.599;47468.496;   -9.946;52363.281
543.184;45068.793;   -7.927;53187.137
543.769;46423.574;   -9.297;54697.605
544.354;46053.113;  -10.127;53913.914
544.938;44849.590;   -9.267;49680.164
545.523;46889.539;   -6.506;47386.277
546.108;49897.383;   -9.787;49151.949
546.693;51896.531;  -11.587;51384.637
547.278;51528.582;  -10.986;51853.254
547.862;48650.398;   -8.206;51173.750
548.447;44220.648;  -10.067;51691.395
549.031;43744.367;   -9.637;52456.703
549.616;48747.168;   -9.926;52714.516
550.201;48160.832;   -6.347;52414.598
550.785;49173.367;   -7.917;52355.059
551.370;48250.258;  -10.867;54589.453
551.954;47619.551;   -9.047;58267.348
552.538;48616.258;   -7.827;59062.176
553.123;47037.410;  -10.287;58115.285
553.707;44452.254;  -12.178;56556.285
554.291;45868.547;   -8.717;56201.668
554.876;48512.176;   -7.457;55335.762
555.460;48731.211;  -10.387;54155.703
556.044;49589.758;   -9.618;53721.484
556.628;48383.672;  -11.567;53731.016
557.212;47510.313;   -8.097;54312.531
557.796;45944.285;  -11.077;53797.773
558.380;45944.191;  -11.108;56145.984
558.964;46197.676;   -9.057;57277.930
559.548;47685.688;   -6.977;56459.641
560.132;46117.266;  -11.457;54434.543
560.716;44368.316;  -11.378;54800.617
561.300;45215.652;   -9.577;57606.945
561.884;46507.898;   -7.127;58972.445
562.467;44810.355;   -7.118;57327.570
563.051;44281.344;  -13.358;54962.434
563.635;45400.160;  -10.178;52594.473
564.219;45447.367;   -7.837;50610.410
564.802;46329.805;  -11.398;49551.180
565.386;46305.508;  -12.788;48370.953
565.969;45492.898;   -9.077;48178.871
566.553;44518.656;   -6.207;49957.305
567.136;45311.746;   -8.568;50369.594
567.720;41861.590;  -11.868;49492.004
568.303;39670.977;   -8.268;50616.352
568.887;39637.688;   -8.698;50727.148
569.470;40022.836;   -6.808;51698.379
570.053;38645.410;  -13.188;52122.078
570.637;37197.629;  -12.037;52536.438
571.220;37199.066;   -8.577;51186.098
571.803;37911.016;   -8.498;51032.762
572.386;39852.340;  -10.498;49609.887
572.969;42386.566;   -9.388;48285.926
573.552;40678.238;   -8.338;47624.285
574.135;39304.199;   -8.518;45498.641
574.718;36874.645;  -13.628;41970.434
575.301;35925.438;  -10.893;41447.137
575.884;34976.234;   -8.158;40923.836
576.467;36195.340;  -10.328;45267.723
577.050;37884.141;  -13.058;48175.543
577.633;39266.891;   -9.458;47729.328
578.216;38470.926;   -8.928;47579.793
578.799;37559.391;   -9.358;47820.996
579.381;36421.047;  -11.388;48115.551
579.964;34384.148;  -11.718;47333.766
580.547;36206.824;   -8.588;46668.969
581.129;37483.297;   -8.859;44466.141
581.712;38415.652;  -10.729;44164.922
582.294;39071.934;  -11.118;46477.855
582.877;38740.738;   -5.218;48244.254
583.459;36250.477;   -8.679;47437.895
584.042;34313.125;  -10.709;46943.219
584.624;34775.301;  -11.669;46792.227
585.206;34288.434;   -8.218;46557.250
585.789;34129.105;  -10.569;45793.773
586.371;37033.406;  -11.859;43836.391
586.953;37782.230;  -10.719;42972.492
587.536;39102.992;   -7.198;42487.211
588.118;39471.535;   -8.720;42086.414
588.700;35495.418;  -10.439;43389.930
589.282;34358.527;   -9.198;43646.039
589.864;35256.496;   -9.199;43438.109
590.446;36480.828;  -11.319;43151.926
591.028;36599.289;  -11.159;42781.867
591.610;35392.730;  -11.779;42839.098
592.192;32559.342;   -7.668;42820.402
592.774;30985.822;  -11.949;40724.277
593.356;29623.449;  -12.129;39874.789
593.937;28397.207;  -10.669;39980.648
594.519;30492.762;   -6.509;42069.633
595.101;32765.863;  -10.849;42976.031
595.683;32989.984;  -11.679;44084.441
596.264;34136.684;   -9.049;43478.797
596.846;33639.441;   -8.849;43803.672
597.427;33576.371;   -9.570;42986.934
598.009;35246.867;  -12.620;42832.219
598.591;35641.145;  -10.039;42580.086
599.172;34915.324;  -10.369;43061.805
599.753;35176.578;   -9.140;41691.469
600.335;36807.070;  -11.430;40692.520
600.916;34855.645;   -9.939;39982.422
601.498;32090.557;   -8.479;40318.617
602.079;30534.404;  -10.920;40670.609
602.660;30299.467;  -11.480;41450.898
603.241;32005.125;  -11.699;41137.738
603.823;30749.088;   -9.579;38868.797
604.404;29890.035;  -10.620;38182.785
604.985;31579.156;  -10.450;38078.047
605.566;31694.197;   -9.129;38056.633
606.147;31944.131;   -7.510;37020.418
606.728;33445.895;  -10.660;37883.359
607.309;31958.246;  -11.740;38748.273
607.890;31489.600;   -9.759;38850.230
608.471;30890.670;   -8.250;37457.918
609.051;29996.871;   -9.240;36066.457
609.632;28881.072;  -12.120;35991.074
610.213;29632.754;   -9.110;37402.641
610.794;30396.826;   -8.030;38383.363
611.374;29914.012;   -8.110;40562.387
611.955;30413.180;  -13.560;38533.727
612.536;31793.959;  -11.400;36951.789
613.116;31643.939;   -8.070;37197.891
613.697;32150.779;  -10.830;38411.125
614.277;30559.510;  -11.641;38673.938
614.858;31364.221;  -13.310;37075.863
615.438;30435.072;   -7.460;35092.906
616.019;27850.451;   -7.601;33666.301
616.599;28530.926;  -12.020;34189.023
617.179;30459.316;  -11.780;36952.047
617.760;31505.000;   -8.570;39582.574
618.340;32600.172;  -11.471;38943.977
618.920;33882.117;  -11.170;37594.156
619.500;33485.938;  -11.071;37866.938
620.080;32305.066;   -7.750;37869.043
620.660;33448.422;  -12.711;36868.617
621.241;34814.184;  -10.211;36352.309
621.821;35239.234;  -10.961;35459.520
622.401;34283.203;   -7.720;35207.414
622.980;33586.977;   -8.981;35980.422
623.560;32104.750;   -9.331;37351.328
624.140;30764.648;   -9.850;34388.582
624.720;25621.336;   -7.451;32368.764
625.300;22100.146;   -9.070;32638.629
625.880;25479.553;  -12.601;34599.035
626.459;29370.189;  -11.751;36831.738
627.039;32463.725;   -9.281;38299.098
627.619;32369.053;   -8.801;38289.574
628.198;30920.236;  -12.071;37220.695
628.778;30151.951;   -9.461;37632.563
629.357;30804.535;   -8.491;38003.012
629.937;30741.654;   -9.721;38402.039
630.516;30314.832;   -9.951;37868.801
631.096;30169.906;  -11.731;35760.410
631.675;32438.039;   -8.572;35225.219
632.254;37599.668;  -11.282;35130.289
632.834;37039.645;  -13.322;35794.570
633.413;35160.992;  -10.301;35788.922
633.992;32554.867;   -8.582;34532.863
634.571;33389.113;   -8.352;33590.113
635.151;36589.207;  -11.912;34943.863
635.730;34793.367;  -10.511;35352.523
636.309;30950.426;   -7.731;35366.605
636.888;28327.938;   -9.952;36165.637
637.467;28903.180;  -11.672;37515.902
638.046;30622.236;   -8.901;39288.695
638.625;33833.863;   -7.912;38279.699
639.204;33672.141;  -10.022;37741.598
639.782;32160.613;  -12.252;38364.551
640.361;28633.215;  -10.041;36740.621
640.940;25754.246;  -11.161;34950.082
641.519;26426.467;   -9.701;34137.398
642.097;29144.035;  -11.271;35654.258
642.676;31973.840;   -8.651;35637.957
643.255;32791.000;   -8.711;36567.074
643.833;31966.621;   -9.581;37809.434
644.412;31824.752;  -13.711;37337.293
644.990;30716.688;  -11.811;37018.531
645.569;30436.459;   -9.411;36518.469
646.147;29393.930;  -10.291;36186.430
646.726;29444.971;  -12.401;36267.688
647.304;30936.467;  -10.411;36647.625
647.882;32595.152;   -9.651;39286.742
648.461;34086.164;   -9.631;39157.703
649.039;32476.396;  -11.881;35412.883
649.617;31872.105;   -9.661;34744.918
650.195;31456.867;   -9.301;35403.098
650.773;30008.832;  -10.511;35053.797
651.352;27364.361;  -11.521;33756.816
651.930;24971.389;  -12.211;31868.773
652.508;23690.072;   -9.171;33121.551
653.086;27710.629;   -9.371;33564.793
653.663;30581.482;  -13.161;34054.668
654.241;29177.113;  -13.031;35693.309
654.819;30755.299;   -9.371;36422.906
655.397;30894.041;  -10.511;38213.484
655.975;30410.453;  -10.371;39507.625
656.553;30337.281;  -10.051;39498.223
657.130;28745.758;  -10.061;40395.480
657.708;27795.854;   -9.561;39242.020
658.286;27878.805;  -11.511;38920.020
658.863;29369.840;  -10.261;40202.898
659.441;32433.832;   -7.531;39677.938
660.018;31961.729;   -9.501;40413.355
660.596;30801.170;  -13.301;39931.414
661.173;32656.135;  -11.211;39604.531
661.750;32554.625;   -9.951;39700.070
662.328;30970.715;   -9.390;39292.809
662.905;30207.127;  -11.330;38235.648
663.482;26350.613;   -9.050;36212.305
664.060;24524.166;   -8.240;35944.945
664.637;27228.129;  -10.050;35170.785
665.214;28998.453;  -11.760;34197.523
665.791;30736.973;  -10.530;34549.520
666.368;29695.598;   -9.690;35118.578
666.945;30075.221;   -9.320;36019.418
667.522;31596.254;  -11.860;36048.438
668.099;31292.350;  -10.770;36243.914
668.676;30070.313;   -6.260;35958.875
669.253;28874.402;   -7.000;37384.730
669.830;29551.633;  -10.190;36779.629
670.407;29249.361;   -9.550;35231.289
670.984;28856.285;   -9.260;35544.270
671.560;29462.785;   -9.280;35466.867
672.137;29014.283;  -11.810;34280.863
672.714;29911.400;  -11.490;34632.863
673.290;30451.834;   -7.740;35135.422
673.867;30591.014;  -10.660;36114.480
674.443;30591.506;  -12.230;36152.859
675.020;28854.934;  -10.450;35327.238
675.596;29748.225;   -9.260;35795.176
676.173;30073.977;  -10.780;35430.355
676.749;29845.621;  -13.690;33549.516
677.326;29900.129;  -11.980;32210.012
677.902;29863.088;   -8.630;32068.871
678.478;29264.521;  -10.730;32583.891
679.054;28659.760;  -10.520;32088.928
679.631;28909.463;  -11.920;30978.848
680.207;30467.611;   -7.490;33160.887
680.783;32113.088;   -9.860;35570.363
681.359;31267.896;  -13.380;36125.184
681.935;30712.945;  -12.480;35240.922
682.511;29964.311;   -7.900;34429.961
683.087;30050.131;   -7.710;34463.680
683.663;29542.883;  -11.480;34648.898
684.239;28314.908;  -14.090;34546.457
684.815;27942.662;   -7.560;35586.375
685.390;28186.500;   -9.910;35821.895
685.966;28662.469;  -11.159;35085.871
686.542;30985.732;  -11.169;34198.230
687.118;33316.461;   -5.959;32847.707
687.693;33838.918;  -10.329;32794.027
688.269;33509.191;  -12.059;33072.367
688.844;31600.434;  -10.909;33141.664
689.420;29350.508;   -8.019;33965.742
689.995;27136.826;   -8.399;34655.523
690.571;25777.500;  -10.949;33576.742
691.146;26200.389;   -9.619;32657.219
691.722;25775.910;   -8.999;32526.979
692.297;25453.289;  -11.589;33014.617
692.872;27237.781;  -11.739;34012.254
693.448;26947.855;  -11.059;34237.434
694.023;26110.820;  -10.139;34142.672
694.598;27930.514;   -9.029;34132.031
695.173;28303.744;  -13.319;34205.250
695.748;27484.291;  -10.169;32882.488
696.323;27769.656;   -8.339;32864.906
696.898;28085.264;   -8.169;33170.004
697.473;27987.434;  -12.309;32432.984
698.048;27443.082;  -10.989;31649.303
698.623;27194.205;   -9.329;30778.141
699.198;29025.047;   -9.849;31140.119
699.773;30099.803;  -12.329;31764.299
700.348;28394.852;  -10.389;31780.816
700.922;28422.615;   -9.269;32046.375
701.497;29443.863;   -9.329;32603.574
702.072;29811.805;  -10.789;34799.871
702.646;28313.166;  -10.839;35793.172
703.221;25980.250;   -9.099;35201.590
703.795;28150.893;  -10.939;34764.527
704.370;28711.338;  -12.859;34307.367
704.944;29047.881;  -11.559;33509.887
705.519;29790.531;   -7.939;31388.584
706.093;31194.969;  -10.499;31340.104
706.668;31698.908;  -11.289;32630.281
707.242;30597.719;  -11.509;32728.779
707.816;29014.629;   -9.639;32947.238
708.390;27532.338;  -11.429;33277.855
708.965;27833.818;  -11.869;33834.336
709.539;27576.014;  -11.689;33709.273
710.113;28052.008;  -10.478;33044.313
710.687;27773.910;  -10.228;31953.992
711.261;26279.207;  -13.698;30505.949
711.835;26031.742;  -13.378;30262.369
712.409;26655.885;   -9.698;31254.447
712.983;28646.916;  -11.898;32754.986
713.557;29694.014;  -15.138;34018.824
714.131;29279.748;  -14.098;34579.625
714.704;28240.393;   -9.958;33890.262
715.278;25999.480;  -10.028;33531.102
715.852;24839.145;  -11.148;33601.660
716.425;25590.162;   -9.068;33515.117
716.999;26336.668;  -10.038;33185.555
717.573;27294.805;   -9.798;33905.996
718.146;28377.365;  -12.378;35199.293
718.720;28625.385;  -11.918;35060.551
719.293;28053.775;   -8.088;34973.230
719.867;30861.176;  -10.888;36394.449
720.440;30774.072;  -11.938;36663.008
721.013;29230.455;  -12.818;35102.426
721.587;27708.865;  -10.298;33985.266
722.160;26595.682;  -10.048;33524.965
722.733;25490.830;  -12.108;32987.043
723.306;25649.150;  -10.818;33066.301
723.880;28238.738;   -8.908;33399.500
724.453;30618.297;   -9.878;33468.297
725.026;29739.008;  -11.188;33816.637
725.599;26779.955;  -11.678;32797.996
726.172;26777.238;   -9.618;33187.434
726.745;27665.848;   -8.258;35136.613
727.318;28928.900;  -12.978;35751.730
727.891;29753.689;  -12.148;35890.430
728.463;29578.188;   -8.968;34822.090
729.036;28502.248;  -10.188;32895.086
729.609;28946.064;  -11.788;31823.225
730.182;25889.762;  -11.788;31445.283
730.754;23412.762;  -10.268;32373.223
731.327;23474.188;   -9.998;33676.820
731.900;23652.414;  -12.228;33417.000
732.472;24910.502;  -13.848;31978.498
733.045;26907.355;   -8.698;30368.777
733.617;26960.510;  -10.607;30574.215
734.190;26687.059;  -11.507;31280.975
734.762;24019.389;  -13.647;31674.412
735.334;22191.313;   -9.767;31247.291
735.907;22726.135;   -9.897;29876.211
736.479;22909.617;  -11.637;29808.488
737.051;22665.395;   -9.567;30233.547
737.623;23592.307;   -8.187;31469.086
738.195;24127.928;  -11.187;31784.225
738.768;25809.020;  -12.337;32120.523
739.340;26308.055;  -12.227;32094.342
739.912;25316.666;  -11.057;31312.680
740.484;23850.666;  -10.207;31946.238
741.056;22614.000;  -10.047;32984.059
741.628;24320.557;  -13.627;33897.715
742.199;26461.135;   -7.177;33213.016
742.771;24747.197;  -10.797;31369.113
743.343;22403.594;  -11.997;31865.473
743.915;21418.881;  -12.867;32388.631
744.487;21568.947;   -7.617;31079.568
745.058;21889.660;   -9.557;30570.107
745.630;22349.992;   -9.877;29970.127
746.201;23261.191;  -14.177;29186.766
746.773;23896.844;   -9.237;28805.723
747.344;23682.162;   -9.847;29591.223
747.916;22168.721;  -11.657;31412.201
748.487;22299.641;  -10.587;32194.898
749.059;23392.559;   -8.707;32533.719
749.630;23917.363;  -10.537;32158.518
750.201;22848.871;  -11.687;30855.395
750.773;21115.445;  -11.647;28622.555
751.344;21059.711;   -7.147;28405.732
751.915;22424.447;   -9.757;28461.551
752.486;22618.785;  -12.427;27842.850
753.057;20282.184;  -12.227;27845.008
753.628;18933.656;  -10.417;27728.107
754.199;19969.850;  -11.767;27381.086
754.770;20951.063;  -11.187;25882.203
755.341;20902.521;  -10.507;25886.184
755.912;21049.439;   -9.387;26050.861
756.483;20687.520;  -10.647;26798.779
757.054;19088.896;  -11.837;27048.238
757.625;17852.977;  -12.716;26294.838
758.195;17423.064;   -9.666;26142.076
758.766;17017.789;   -8.656;26392.234
759.337;17740.855;  -12.856;26334.594
759.907;19326.707;  -13.366;27579.652
760.478;20269.893;   -8.576;28352.770
761.048;19815.920;  -10.526;27325.088
761.619;19054.309;  -11.116;26460.428
762.189;19053.697;  -12.136;26029.826
762.760;19922.012;   -9.456;26430.145
763.330;21049.203;   -7.136;26670.902
763.900;20590.613;  -11.786;26603.021
764.471;18125.318;  -11.546;25542.740
765.041;16926.670;   -8.096;24358.459
765.611;16977.613;   -8.876;23991.297
766.181;17293.402;  -12.196;24470.236
766.751;18177.057;  -11.636;24845.975
767.321;18018.527;  -10.156;24533.633
767.891;16267.199;  -11.766;24916.492
768.461;15691.518;  -14.936;24776.771
769.031;16103.762;  -12.356;24757.988
769.601;17665.973;   -7.526;24181.088
770.171;17610.357;  -10.766;23670.387
770.741;16798.453;  -13.176;22960.045
771.311;16823.395;  -10.616;22917.523
771.880;17186.762;   -9.576;23562.941
772.450;16865.602;  -10.336;24216.500
773.020;16774.887;  -13.516;24140.398
773.589;16048.621;  -13.466;24414.857
774.159;15363.954;   -8.686;23858.717
774.729;15018.317;   -9.476;22942.135
775.298;14636.796;  -13.666;22324.033
775.867;14307.220;  -11.716;21140.313
776.437;14434.985;   -9.906;20838.092
777.006;14300.437;  -12.166;20599.510
777.576;14166.540;  -12.356;20508.809
778.145;14162.382;  -11.646;20732.947
778.714;14008.025;   -8.226;21062.465
779.283;13284.831;   -9.556;20949.664
779.853;12791.335;  -14.116;20508.623
780.422;13264.744;  -11.506;20649.082
780.991;12820.369;   -9.556;21527.520
781.560;11672.238;   -9.095;22632.658
782.129;11551.806;  -12.135;23048.277
782.698;11639.791;  -10.865;23438.555
783.267;11258.353;   -9.335;23267.734
783.836;11180.698;  -11.045;22415.133
784.404;12134.909;  -13.865;20443.152
784.973;12726.614;  -13.095;19699.150
785.542;12594.372;  -11.575;19763.828
786.111;12348.802;   -9.705;20341.408
786.679;11890.131;  -12.105;20207.967
787.248;11667.582;  -12.455;19516.465
787.817;11517.309;  -11.535;18900.363
788.385;11148.250;   -9.765;17879.121
788.954;10610.489;  -14.005;17658.301
789.522;10090.157;  -11.955;17788.879
790.090;10632.467;  -10.135;18118.277
790.659;11050.157;  -10.975;18338.736
791.227;10577.875;  -13.375;18508.615
791.795;10990.890;  -12.375;17898.254
792.364;11406.782;  -10.725;17295.133
792.932;11774.230;   -9.715;16822.051
793.500;11879.940;  -12.675;17040.148
794.068;11979.435;  -13.495;17179.787
794.636;12077.466;  -10.885;16664.246
795.204;11458.212;  -11.045;16524.545
795.772;11519.799;  -13.175;17274.564
796.340;11119.239;  -12.445;17891.002
796.908;10943.389;   -9.735;17648.561
797.476;10806.937;   -9.815;17064.080
798.044;10337.746;  -13.985;16672.777
798.612; 9543.859;  -13.115;17023.996
799.180; 9197.929;  -10.185;16561.615
799.747; 9165.298;   -9.055;15962.773
800.315; 8899.930;  -12.385;15296.992
800.883; 8584.303;  -15.035;14801.771
801.450; 8614.961;  -10.365;14534.430
802.018; 8679.625;   -9.855;14173.248
802.585; 8801.587;  -11.905;14029.547
803.153; 8807.111;  -11.585;13836.846
803.720; 8624.602;   -9.095;13567.324
804.287; 8226.308;   -9.135;13360.622
804.855; 7837.418;  -11.604;13681.981
805.422; 7705.462;  -11.794;13536.560
805.989; 7729.752;  -10.734;13355.958
806.556; 7874.296;  -10.444;13747.896
807.124; 8066.555;  -12.764;13987.376
807.691; 8037.411;  -12.964;14038.674
808.258; 7885.604;  -11.134;14120.152
808.825; 7643.168;   -9.854;13860.111
809.392; 7699.957;  -10.504;13268.790
809.959; 7192.779;  -13.054;12680.389
810.526; 6764.814;   -8.294;12427.308
811.093; 6831.604;   -8.394;12030.105
811.659; 7477.819;  -12.304;11653.664
812.226; 7993.342;  -13.944;11637.183
812.793; 7717.313;  -10.484;11611.521
813.360; 7124.189;  -10.144;11885.181
813.926; 6839.799;  -11.684;12770.539
814.493; 6630.185;  -13.644;12677.638
815.060; 6248.832;   -9.724;11974.336
815.626; 6246.581;   -9.854;11594.715
816.193; 6639.625;  -13.254;11579.474
816.759; 6660.170;  -13.204;11666.972
817.325; 6722.375;   -9.434;11325.530
817.892; 7079.340;  -10.134;11105.369
818.458; 7500.347;  -13.474;10843.928
819.024; 7158.322;  -11.854;10714.406
819.591; 6859.216;  -10.244;10469.165
820.157; 6637.342;  -10.704;10235.523
820.723; 6126.247;  -12.324;10847.563
821.289; 5800.578;   -9.444;11040.980
821.855; 5730.129;   -8.374;10357.100
822.421; 5762.730;  -10.234; 9978.918
822.987; 5816.305;  -13.294; 9754.177
823.553; 5508.058;  -10.884;10065.755
824.119; 5306.624;   -8.884;10036.294
824.685; 5402.333;   -6.784;10029.192
825.251; 5513.402;  -12.004;10199.230
825.816; 5460.080;  -11.474; 9820.189
826.382; 5219.713;   -9.174; 9297.248
826.948; 5397.565;   -9.214; 9381.347
827.513; 5792.948;  -10.774; 9450.726
828.079; 5627.467;  -11.924; 9472.444
828.645; 5040.361;  -10.543; 9292.643
829.210; 4935.649;  -10.533; 9065.341
829.776; 4944.661;  -10.753; 9132.620
830.341; 4854.560;  -10.173; 9092.878
830.906; 5049.531;  -10.743; 9078.557
831.472; 5405.704;  -11.113; 8534.535
832.037; 5173.701;  -10.603; 8677.874
832.602; 4638.917;  -13.323; 8628.692
833.167; 4377.215;  -10.823; 8879.031
833.733; 4311.869;  -10.113; 9189.790
834.298; 4460.209;  -13.583; 9052.608
834.863; 4544.574;  -12.703; 8895.087
835.428; 4515.952;  -10.523; 8824.266
835.993; 4357.409;   -6.963; 8845.385
836.558; 4183.316;  -10.763; 8888.563
837.123; 4304.947;   -9.903; 8966.582
837.688; 4541.940;   -9.913; 8617.860
838.253; 4800.776;  -10.283; 8590.699
838.817; 5013.650;  -12.963; 8443.797
839.382; 4927.499;  -14.243; 8799.356
839.947; 4611.614;  -10.733; 8810.595
840.511; 4329.418;   -9.383; 8796.394
841.076; 3950.386;  -12.563; 8347.231
841.641; 3984.677;  -12.953; 8224.330
842.205; 4072.663;   -7.043; 8223.349
842.770; 4171.453;   -8.163; 8622.107
843.334; 4329.336;  -12.503; 8410.386
843.898; 4242.730;  -11.693; 8337.465
844.463; 4236.669;  -10.203; 8506.283
845.027; 4012.093;   -9.533; 8280.962
845.591; 3832.379;  -13.443; 8231.141
846.156; 3841.744;  -13.143; 7969.179
846.720; 3735.620;   -9.433; 7768.278
847.284; 3616.895;  -11.033; 7630.957
847.848; 3495.999;  -10.403; 7472.395
848.412; 3414.780;  -11.553; 7437.394
848.976; 3464.984;   -8.393; 7674.592
849.540; 3378.901;   -8.713; 7836.011
850.104; 3483.003;  -12.463; 7913.669
850.668; 3842.345;  -12.973; 7694.508
851.232; 3939.781;  -10.793; 7756.887
851.796; 3771.749;  -10.662; 7926.545
852.359; 3481.567;  -13.082; 7827.844
852.923; 3299.704;  -12.192; 7641.163
853.487; 3104.101;  -11.912; 7342.501
854.050; 3064.110;  -10.892; 7042.820
854.614; 3216.315;  -13.992; 7151.338
855.177; 3357.135;  -11.732; 7105.077
855.741; 3388.142;   -8.962; 6989.675
856.304; 3251.455;   -9.442; 6596.634
856.868; 3186.818;  -14.192; 6356.272
857.431; 3262.989;  -12.702; 6468.571
857.995; 3354.423;   -9.942; 6373.210
858.558; 3351.871;   -9.112; 6324.448
859.121; 3081.001;  -12.932; 6408.327
859.684; 2953.427;  -13.442; 6347.886
860.247; 3068.865;  -10.632; 6321.264
860.810; 3079.507;  -11.272; 6301.903
861.374; 2829.651;   -9.832; 6607.881
861.937; 2577.170;  -11.762; 6408.200
862.500; 2567.330;   -9.722; 6572.639
863.062; 2743.197;  -10.512; 6387.297
863.625; 2910.020;  -11.232; 6190.836
864.188; 3054.575;  -14.112; 5807.254
864.751; 3101.328;  -11.302; 5682.413
865.314; 2986.469;  -10.112; 5547.492
865.876; 2772.597;  -12.182; 5500.150
866.439; 2747.094;  -10.722; 5415.909
867.002; 2700.853;   -9.252; 5501.567
867.564; 2515.991;   -9.572; 5413.946
868.127; 2312.191;  -13.142; 5160.325
868.689; 2218.740;  -12.902; 5133.183
869.252; 2127.328;   -9.732; 5252.382
869.814; 2037.298;   -9.432; 5297.141
870.377; 2037.744;  -11.552; 5390.919
870.939; 2089.184;   -9.052; 5599.898
871.501; 2148.458;  -10.982; 5248.336
872.063; 2152.353;  -12.292; 4854.235
872.626; 2115.011;  -14.912; 4817.074
873.188; 2138.933;  -13.112; 4987.732
873.750; 2105.543;  -13.442; 4868.651
874.312; 2001.320;   -9.402; 4779.330
874.874; 1917.618;  -11.062; 4866.348
875.436; 1836.336;  -13.931; 4718.887
875.998; 1826.117;   -9.561; 4660.005
876.560; 1847.416;  -11.321; 4462.964
877.122; 1792.019;  -12.221; 4145.042
877.683; 1705.102;  -12.191; 4056.481
878.245; 1642.567;  -12.101; 3950.740
878.807; 1689.159;   -8.971; 4058.958
879.369; 1713.881;  -12.071; 3954.677
879.930; 1613.951;  -14.621; 3941.495
880.492; 1547.943;  -10.311; 4067.014
881.053; 1517.968;  -10.901; 3859.633
881.615; 1427.712;  -14.411; 3776.071
882.176; 1333.533;  -13.761; 3734.750
882.738; 1284.247;   -9.181; 3678.489
883.299; 1256.637;  -11.791; 3405.407
883.860; 1256.633;  -13.121; 3351.106
884.422; 1256.240;  -11.211; 3394.044
884.983; 1214.948;  -10.091; 3166.443
885.544; 1144.704;   -8.461; 3189.802
886.105; 1067.927;  -12.361; 3160.360
886.666; 1000.186;  -14.141; 3093.059
887.227;  946.645;  -11.361; 2941.957
887.788;  886.758;  -11.401; 2974.836
888.349;  827.996;  -13.791; 2721.214
888.910;  824.446;  -13.191; 2696.493
889.471;  833.494;   -9.881; 2560.172
890.032;  819.462;   -9.881; 2558.190
890.593;  797.363;  -10.371; 2567.669
891.153;  770.813;  -13.301; 2460.307
891.714;  722.044;  -11.431; 2372.046
892.275;  685.122;  -11.291; 2309.505
892.835;  651.271;  -11.471; 2382.543
893.396;  602.758;  -11.541; 2295.502
893.956;  550.425;  -11.181; 2162.420
894.517;  512.827;  -11.741; 2125.439
895.077;  505.728;  -11.671; 2086.978
895.638;  504.197;  -11.311; 2126.316
896.198;  476.168;   -9.831; 1838.275
896.758;  434.596;   -8.421; 1892.813
897.319;  405.289;  -12.351; 1792.232
897.879;  389.661;  -13.511; 1762.751
898.439;  364.562;  -12.001; 1661.149
898.999;  341.986;  -10.180; 1781.468
899.559;  335.255;  -12.030; 1703.347
900.119;  329.286;  -15.710; 1537.525
900.679;  325.098;   -8.900; 1638.384
901.239;  311.007;   -8.340; 1527.902
901.799;  300.677;  -13.910; 1456.441
902.359;  294.758;  -13.460; 1357.140
902.919;  287.827;  -11.490; 1331.118
903.479;  276.116;  -12.110; 1317.257
904.038;  256.156;  -11.720; 1262.595
904.598;  240.763;  -13.610; 1152.034
905.158;  235.917;  -11.040; 1240.893
905.717;  230.342;  -10.900; 1233.691
906.277;  220.783;  -15.080; 1217.330
906.836;  210.997;  -13.380; 1222.408
907.396;  202.146;  -10.780; 1193.047
907.955;  195.072;   -8.500; 1182.526
908.515;  189.539;  -12.760; 1099.364
909.074;  183.630;  -11.900; 1092.863
909.633;  176.894;   -8.950; 1069.121
910.192;  173.678;   -8.770; 1196.460
910.752;  168.699;  -12.390; 1029.960
911.311;  164.474;  -13.680; 1009.780
911.870;  161.273;  -12.370;  971.460
912.429;  162.649;  -10.900; 1094.080
912.988;  162.143;  -11.690; 1081.060
913.547;  157.043;  -13.240;  940.380
914.106;  152.138;  -11.990;  999.420
914.665;  149.495;   -9.990;  984.020
915.224;  148.295;  -12.880; 1035.760
915.782;  148.146;  -12.350;  922.560
916.341;  148.097;   -9.110; 1049.840
916.900;  143.959;   -9.270;  925.260
917.458;  142.398;  -13.240;  884.220
918.017;  141.719;  -13.550;  942.600
918.576;  140.485;  -12.320;  904.440
919.134;  140.109;  -11.490;  837.980
919.693;  137.949;  -13.670;  893.060
920.251;  135.674;  -15.470;  876.500
920.809;  134.199;  -11.290;  839.580
921.368;  134.387;  -10.210;  885.360
921.926;  134.405;  -12.140;  842.940
922.484;  132.694;  -13.080;  903.360
923.042;  131.613;  -11.720;  880.340
923.601;  135.218;   -7.480;  998.680
924.159;  133.606;  -11.570;  935.560
924.717;  130.215;  -13.840;  841.080
925.275;  129.876;  -10.640;  903.240
925.833;  129.107;  -11.540;  779.320
926.391;  130.628;  -12.960;  938.380
926.949;  128.043;  -14.130;  857.680
927.506;  128.037;  -11.750;  903.500
928.064;  130.007;  -10.250;  877.580
928.622;  128.981;  -13.030;  880.100
929.180;  128.265;  -13.400;  814.180
929.737;  129.007;  -10.700;  808.540
930.295;  133.651;  -10.070;  928.480
930.853;  134.475;  -11.960;  849.100
931.410;  134.336;  -13.120;  821.120
931.968;  133.953;  -10.770;  940.660
932.525;  133.574;  -10.680;  909.380
933.082;  134.191;  -13.130;  811.440
933.640;  135.301;  -13.210;  925.900
934.197;  133.108;  -11.060;  886.360
934.754;  134.328;   -9.580;  897.780
935.312;  137.441;  -14.000;  863.340
935.869;  140.868;  -10.710; 1012.980
936.426;  141.493;   -9.860;  872.800
936.983;  141.965;   -9.710;  889.020
937.540;  142.151;  -13.990;  838.280
938.097;  140.576;  -14.040;  940.120
938.654;  140.858;  -10.310;  898.860
939.211;  143.350;  -10.560;  952.480
939.768;  146.523;  -13.900;  915.420
940.324;  150.612;  -14.760;  904.200
940.881;  150.183;  -10.370;  878.500
941.438;  150.887;   -8.260; 1021.200
941.995;  147.881;  -12.540;  992.560
942.551;  144.661;  -14.670;  875.620
943.108;  146.463;  -10.450;  937.920
943.664;  148.818;  -10.750;  869.340
944.221;  151.523;  -11.550; 1088.140
944.777;  148.288;  -14.770;  869.680
945.334;  148.888;  -12.820;  884.840
945.890;  150.557;  -10.130;  946.480
946.446;  151.597;  -13.470;  947.020
947.003;  152.026;  -12.120;  964.940
947.559;  154.309;   -9.980; 1063.040
948.115;  153.925;   -9.080; 1026.540
948.671;  152.056;  -10.830;  967.300
949.227;  149.755;  -12.440;  859.560
949.783;  146.000;  -12.910;  858.900
950.339;  148.858;  -10.270;  991.000
950.895;  148.760;  -13.630; 1023.840
951.451;  147.286;  -15.100;  925.280
952.007;  148.454;  -11.330;  998.540
952.563;  149.205;  -10.580;  937.780
953.118;  148.152;  -13.440;  904.940
953.674;  147.243;  -12.710;  935.780
954.230;  147.536;  -10.350;  949.640
954.785;  145.305;   -9.190;  936.640
955.341;  142.229;  -11.200;  998.160
955.897;  141.062;  -16.560;  834.660
956.452;  142.491;  -12.570;  953.840
957.008;  142.144;   -7.970; 1083.640
957.563;  138.453;  -11.940; 1009.540
958.118;  133.789;  -13.450;  877.700
958.674;  134.364;  -12.030;  946.780
959.229;  135.013;   -9.410; 1013.980
959.784;  132.085;  -12.000;  832.400
960.339;  132.527;  -14.780; 1001.280
960.894;  129.729;   -9.860;  963.760
961.449;  126.299;   -9.970;  859.960
962.004;  126.730;  -10.900; 1212.840
962.559;  120.985;  -13.150;  860.140
963.114;  117.584;  -13.740;  742.480
963.669;  118.319;   -9.820;  915.500
964.224;  117.297;  -13.890;  874.340
964.779;  114.990;  -12.600;  828.420
965.334;  116.037;  -10.950; 1017.860
965.888;  115.764;  -11.170;  875.360
966.443;  119.494;  -12.540;  972.380
966.998;  118.276;  -15.780;  819.460
967.552;  116.251;   -9.760;  908.380
968.107;  113.793;   -9.060;  868.300
968.661;  114.329;  -11.950;  922.440
969.216;  115.582;  -12.800;  856.280
969.770;  114.664;  -11.210;  917.200
970.324;  114.111;  -11.610;  923.140
970.879;  110.963;  -11.370;  947.180
971.433;  107.505;  -12.540;  952.720
971.987;  102.973;  -11.320;  895.340
972.541;  100.464;  -10.720;  917.100
973.095;  101.487;   -9.680; 1009.460
973.649;   99.565;  -11.440;  809.480
974.203;   97.502;  -11.210;  829.040
974.757;   97.529;  -10.240;  855.220
975.311;   98.624;  -13.720;  872.600
975.865;   96.062;  -13.770;  881.820
976.419;   94.783;  -11.690;  857.400
976.973;   95.413;   -9.510;  849.620
977.526;   96.765;  -12.620;  949.920
978.080;   96.342;  -12.010;  796.780
978.634;   97.543;  -10.170;  921.320
979.187;   94.578;   -9.020;  905.400
979.741;   93.424;   -9.820; 1018.380
980.294;   87.646;  -14.870;  789.160
980.848;   85.440;  -12.380;  717.220
981.401;   87.698;  -10.350;  816.540
981.955;   90.096;  -13.720;  844.300
982.508;   89.209;  -11.490;  746.340
983.061;   88.996;  -10.000;  915.260
983.615;   84.918;  -11.480;  798.800
984.168;   82.347;  -13.220;  770.080
984.721;   81.440;  -13.960;  880.760
985.274;   80.397;  -10.870;  867.500
985.827;   79.985;   -9.790;  834.220
986.380;   78.325;  -13.120;  721.340
986.933;   76.845;  -12.450;  864.800
987.486;   75.368;  -10.210;  861.920
988.039;   74.881;   -8.430;  863.100
988.591;   73.243;  -10.520;  893.260
989.144;   69.814;  -14.860;  737.260
989.697;   69.608;  -13.080;  758.740
990.250;   70.434;  -10.150;  858.100
990.802;   69.037;  -13.430;  755.860
991.355;   69.522;  -12.750;  974.880
991.907;   67.399;  -12.040;  864.320
992.460;   65.276;  -11.330;  753.760
993.012;   65.131;  -13.610;  749.540
993.565;   63.539;  -13.460;  711.360
994.117;   65.271;   -9.360;  950.780
994.669;   62.448;  -11.300;  701.320
995.221;   59.593;  -13.540;  791.920
995.774;   58.117;  -13.430;  787.580
996.326;   56.943;  -12.520;  740.220
996.878;   57.111;  -10.950;  838.420
997.430;   55.328;  -14.300;  699.860
997.982;   54.051;  -13.760;  750.140
998.534;   52.746;  -11.530;  739.060
999.086;   51.863;  -10.310;  738.220
999.638;   51.050;  -12.530;  661.380
1000.190;   49.911;  -11.840;  699.320
1000.741;   50.119;  -10.260;  742.700
1001.293;   49.177;   -8.860;  686.020
1001.845;   48.542;  -13.700;  676.640
1002.396;   47.798;  -12.100;  743.400
1002.948;   47.780;  -12.760;  737.400
1003.500;   45.711;  -10.380;  723.780
1004.051;   47.000;  -11.900;  907.580
1004.603;   45.394;  -12.250;  791.820
1005.154;   40.584;  -13.210;  608.980
1005.705;   41.027;  -10.950;  723.960
1006.257;   40.412;  -13.880;  707.220
1006.808;   39.370;  -12.840;  685.460
1007.359;   39.225;  -10.570;  763.240
1007.910;   37.995;   -9.620;  646.640
1008.461;   38.024;  -13.630;  732.940
1009.013;   37.569;  -17.200;  588.340
1009.564;   37.468;  -10.200;  793.520
1010.115;   35.821;  -12.570;  597.040
1010.665;   35.646;  -15.150;  602.160
1011.216;   35.766;  -14.480;  667.920
1011.767;   34.832;  -11.340;  697.920
1012.318;   36.204;   -9.780;  736.980
1012.869;   34.489;  -12.380;  679.000
1013.419;   34.076;  -15.560;  603.120
1013.970;   34.580;  -11.010;  666.640
1014.521;   33.514;  -11.610;  620.620
1015.071;   33.956;  -13.450;  670.380
1015.622;   33.318;  -13.870;  635.460
1016.172;   33.015;  -11.610;  596.820
1016.723;   32.615;  -12.120;  614.380
1017.273;   32.468;  -13.620;  604.160
1017.823;   32.286;  -14.140;  650.340
1018.374;   31.393;  -12.800;  611.760
1018.924;   31.257;  -12.340;  716.880
1019.474;   32.475;  -11.410;  718.880
1020.024;   30.308;  -14.770;  657.580
1020.574;   31.659;   -9.780;  726.160
1021.124;   31.327;   -8.560;  673.580
1021.674;   30.132;  -15.190;  559.120
1022.224;   30.408;  -13.530;  708.940
1022.774;   30.320;  -13.280;  668.820
1023.324;   31.085;  -10.690;  753.520
1023.874;   32.024;  -10.240;  875.760
1024.423;   28.679;  -12.540;  613.700
1024.973;   28.904;  -10.010;  610.760
1025.523;   28.705;  -10.550;  620.960
1026.072;   29.205;  -13.560;  606.420
1026.622;   28.338;  -15.120;  675.740
1027.172;   29.049;  -11.260;  715.660
1027.721;   28.139;  -11.410;  601.220
1028.270;   27.908;  -13.530;  663.400
1028.820;   28.134;  -13.680;  638.080
1029.369;   27.645;  -13.520;  612.700
1029.918;   28.100;  -10.980;  649.840
1030.468;   27.001;  -13.530;  564.780
1031.017;   27.834;  -13.170;  634.800
1031.566;   26.588;  -12.200;  608.900
1032.115;   26.430;   -9.960;  694.500
1032.664;   26.233;  -13.210;  596.480
1033.213;   27.083;  -12.500;  735.420
1033.762;   26.181;  -11.910;  635.620
1034.311;   25.916;   -9.640;  677.220
1034.860;   26.406;  -13.310;  691.000
1035.408;   26.252;  -11.830;  722.720
1035.957;   26.541;  -12.000;  719.540
1036.506;   24.998;  -11.690;  530.800
1037.055;   26.238;  -10.990;  844.320
1037.603;   24.868;  -15.120;  664.000
1038.152;   23.935;  -12.450;  534.760
1038.700;   23.733;  -10.560;  585.740
1039.249;   24.539;  -11.080;  681.220
1039.797;   24.217;  -12.540;  633.360
1040.345;   23.665;  -11.920;  705.420
1040.894;   23.988;  -11.410;  625.300
1041.442;   23.513;  -14.320;  632.200
1041.990;   22.703;  -16.240;  559.160
1042.538;   22.162;  -11.680;  536.180
1043.087;   22.612;  -10.760;  570.860
1043.635;   24.171;  -11.850;  670.500
1044.183;   21.972;  -15.480;  586.400
1044.731;   21.760;  -11.770;  576.000
1045.279;   22.426;  -13.090;  674.920
1045.827;   24.550;  -12.440;  892.400
1046.374;   21.460;  -13.840;  515.420
1046.922;   20.498;  -13.220;  590.580
1047.470;   22.980;  -10.230;  691.300
1048.018;   22.674;  -14.590;  647.960
1048.565;   22.759;  -12.050;  708.600
1049.113;   20.555;  -11.650;  557.000
1049.660;   20.728;  -10.510;  629.660
1050.208;   21.438;  -13.310;  675.640
1050.755;   20.634;  -15.900;  606.580
1051.303;   20.700;  -11.430;  686.820
1051.850;   20.255;   -8.480;  635.120
1052.397;   18.595;  -15.010;  473.960
1052.945;   19.042;  -13.960;  617.760
1053.492;   20.903;  -13.150;  741.840
1054.039;   20.947;   -9.630;  720.180
1054.586;   19.395;  -13.680;  557.240
1055.133;   20.314;  -14.570;  693.140
1055.680;   19.799;  -13.820;  646.620
1056.227;   18.833;  -11.730;  542.780
1056.774;   20.871;  -12.480;  794.980
1057.321;   17.854;  -13.930;  523.260
1057.868;   19.007;  -11.690;  651.320
1058.415;   18.367;   -9.520;  651.980
1058.961;   19.095;  -13.160;  678.940
1059.508;   18.439;  -12.920;  643.820
1060.055;   18.409;  -11.920;  581.780
1060.601;   18.902;  -11.500;  624.300
1061.148;   18.526;  -14.330;  616.820
1061.694;   17.589;  -16.870;  592.580
1062.241;   18.256;  -10.330;  596.320
1062.787;   17.964;  -10.620;  663.140
1063.334;   19.525;  -10.110;  808.560
1063.880;   17.614;  -13.400;  668.360
1064.426;   17.396;  -10.680;  706.820
1064.972;   17.125;   -9.920;  601.340
1065.518;   15.765;  -10.980;  566.640
1066.065;   17.107;  -14.890;  624.460
1066.611;   16.436;  -12.870;  598.800
1067.157;   16.596;  -12.950;  641.860
1067.703;   16.943;  -13.540;  668.480
1068.249;   16.329;  -13.540;  605.220
1068.794;   16.626;  -12.600;  626.880
1069.340;   15.708;  -10.620;  578.960
1069.886;   16.735;  -12.830;  590.700
1070.432;   14.859;  -14.870;  541.720
1070.977;   15.192;  -11.980;  601.080
1071.523;   15.055;   -8.200;  573.060
1072.068;   15.639;  -12.330;  582.000
1072.614;   15.076;  -16.370;  527.760
1073.160;   15.670;  -11.100;  687.040
1073.705;   14.431;  -10.480;  572.520
1074.250;   14.845;  -14.520;  559.900
1074.796;   15.625;  -11.460;  655.160
1075.341;   14.719;  -11.950;  664.100
1075.886;   14.997;  -11.460;  594.240
1076.431;   14.879;  -13.770;  649.880
1076.976;   14.249;  -12.680;  639.220
1077.521;   13.828;  -13.170;  583.080
1078.067;   12.878;  -10.860;  579.400
1078.612;   14.732;  -13.920;  661.620
1079.156;   13.586;  -13.880;  601.540
1079.701;   13.927;  -13.120;  693.260
1080.246;   14.432;   -9.940;  696.300
1080.791;   13.761;  -14.740;  625.020
1081.336;   14.142;  -13.750;  659.320
1081.880;   13.537;  -13.400;  649.680
1082.425;   12.684;  -12.220;  573.480
1082.970;   14.637;  -11.610;  717.040
1083.514;   13.159;  -13.580;  597.000
1084.059;   12.443;  -12.810;  586.720
1084.603;   12.183;  -12.320;  565.840
1085.147;   13.442;  -13.190;  645.220
1085.692;   14.071;  -12.480;  716.800
1086.236;   11.350;  -13.020;  503.140
1086.780;   13.622;   -9.190;  751.440
1087.325;   12.661;  -12.480;  654.620
1087.869;   11.889;  -12.450;  610.700
1088.413;   12.761;  -12.240;  705.040
1088.957;   11.033;   -9.020;  543.400
1089.501;   13.234;  -10.320;  766.640
1090.045;   11.582;  -12.720;  726.480
1090.589;   10.286;  -13.690;  569.920
1091.133;   11.317;  -10.020;  673.340
1091.676;   11.102;  -12.330;  591.940
1092.220;   11.107;  -14.970;  600.920
1092.764;   11.280;  -12.430;  706.960
1093.307;   11.668;   -9.800;  673.780
1093.851;    9.988;  -14.970;  556.540
1094.395;   11.510;  -15.310;  683.140
1094.938;   10.034;  -10.370;  632.520
1095.482;   10.187;  -11.050;  559.800
1096.025;   11.952;  -11.840;  710.880
1096.568;   10.661;  -12.840;  779.280
1097.112;    8.500;  -14.700;  508.180
1097.655;   10.651;   -8.720;  603.000
1098.198;   10.210;  -13.610;  600.180
1098.741;    8.897;  -13.350;  612.860
1099.285;   10.175;  -11.230;  657.300
1099.828;    8.264;  -11.840;  439.400
1100.371;    9.804;  -10.840;  608.160
1100.914;   10.337;  -14.190;  682.660
1101.457;    9.138;  -11.240;  679.900
1101.999;    8.392;  -11.270;  584.680
1102.542;    8.914;  -11.480;  641.440
1103.085;    8.660;  -11.750;  658.500
1103.628;    8.729;  -11.400;  762.060
1104.170;    8.600;  -10.490;  588.280
1104.713;    9.358;  -10.600;  646.700
1105.256;    8.847;  -14.360;  557.440
1105.798;    7.234;  -13.210;  499.980
1106.341;    9.197;  -10.270;  728.900
1106.883;    8.137;  -12.200;  521.340
1107.425;    8.074;  -13.110;  668.180
1107.968;    7.445;  -12.840;  612.380
1108.510;    7.956;   -6.480;  684.960
1109.052;    7.516;  -13.940;  612.620
1109.594;    7.366;  -13.690;  554.440
1110.136;    7.526;  -11.880;  643.220
1110.679;    7.112;   -9.500;  633.080
1111.221;    7.459;  -14.160;  604.460
1111.763;    7.251;  -13.980;  559.220
1112.304;    6.726;  -13.880;  547.140
1112.846;    7.447;  -12.210;  666.240
1113.388;    9.879;  -11.390;  942.180
1113.930;    6.499;  -14.540;  694.200
1114.472;    6.178;  -12.640;  606.540
1115.013;    5.509;  -11.620;  551.280
1115.555;    6.028;  -13.640;  587.100
1116.097;    5.079;  -15.380;  579.480
1116.638;    6.533;  -12.640;  684.600
1117.180;    7.475;   -9.850;  667.740
1117.721;    6.067;  -13.690;  568.580
1118.262;    6.638;  -12.680;  677.960
1118.804;    6.727;  -12.530;  637.340
1119.345;    5.527;  -11.690;  578.400
1119.886;    6.847;  -13.380;  704.040
1120.427;    5.276;  -14.070;  589.020
1120.969;    4.679;  -13.500;  597.920
1121.510;    4.606;  -11.480;  563.060
1122.051;    6.103;  -12.830;  723.580
1122.592;    4.439;  -14.290;  655.420
1123.133;    4.546;  -12.400;  547.940
1123.673;    6.144;  -10.130;  706.480
1124.214;    5.035;  -12.930;  612.460
1124.755;    5.541;  -14.380;  639.460
1125.296;    4.787;  -14.000;  627.320
1125.836;    5.302;  -10.070;  691.500
1126.377;    5.092;  -12.640;  599.660
1126.918;    5.111;  -12.960;  614.980
1127.458;    4.100;  -13.350;  622.220
1127.999;    4.786;  -10.750;  656.980
1128.539;    5.037;  -12.350;  694.240
1129.079;    4.342;  -14.860;  632.720
1129.620;    3.393;  -13.840;  558.100
1130.160;    3.184;  -12.330;  539.480
1130.700;    4.543;  -14.530;  640.840
1131.240;    4.255;  -12.530;  643.700
1131.781;    3.252;  -14.450;  619.680
1132.321;    3.094;   -9.790;  599.120
1132.861;    2.999;  -14.860;  564.200
1133.401;    2.644;  -14.290;  593.940
1133.941;    2.826;  -11.750;  626.280
1134.481;    3.225;   -9.920;  597.580
1135.020;    2.973;  -12.290;  609.160
1135.560;    2.882;  -11.650;  674.940
1136.100;    2.329;  -16.270;  501.160
1136.640;    2.372;  -10.890;  510.480
1137.179;    2.694;  -14.180;  537.960
1137.719;    2.938;  -16.250;  605.400
1138.258;    2.640;  -14.230;  587.360
1138.798;    3.307;   -9.090;  663.780
1139.337;    1.881;  -15.130;  482.840
1139.877;    2.689;  -13.680;  642.360
1140.416;    3.545;  -11.320;  878.060
1140.955;    1.699;  -10.860;  535.380
1141.494;    2.580;  -12.920;  669.280
1142.034;    1.832;  -13.930;  583.520
1142.573;    2.974;  -11.440;  646.280
1143.112;    1.557;  -12.000;  553.480
1143.651;    2.689;  -13.670;  536.480
1144.190;    2.428;  -12.730;  691.640
1144.729;    1.339;  -14.560;  607.420
1145.267;    2.189;  -11.830;  584.900
1145.806;    2.639;  -12.230;  637.040
1146.345;    1.171;  -14.130;  635.020
1146.884;    1.056;  -11.590;  622.500
1147.422;    0.963;  -12.550;  533.060
1147.961;    3.019;  -11.180;  708.460
1148.500;    2.332;  -11.510;  669.720
1149.038;    1.621;  -11.640;  632.500
1149.577;    1.618;  -10.130;  698.640
1150.115;   -0.047;  -13.970;  452.280
1150.653;    1.582;  -14.520;  607.340
1151.192;    1.110;  -12.810;  552.920
1151.730;    1.004;   -9.100;  652.560
1152.268;    0.787;  -12.220;  589.520
1152.806;    0.201;  -14.140;  571.180
1153.344;   -0.722;  -12.350;  577.640
1153.882;    1.012;   -8.980;  600.060
1154.421;   -0.596;  -15.190;  470.620
1154.958;   -0.080;  -15.210;  595.240
1155.496;    1.780;  -12.850;  645.280
1156.034;    1.495;   -9.940;  721.880
1156.572;    1.443;  -13.570;  667.060
1157.110;   -0.953;  -14.590;  473.940
1157.647;    0.372;  -13.030;  676.960
1158.185;   -0.751;  -12.140;  564.320
1158.723;   -1.480;  -14.390;  509.200
1159.260;    0.119;  -14.090;  701.700
1159.798;    0.219;  -11.920;  658.160
1160.335;   -0.309;  -11.110;  631.820

