
Integration time [ms]:   3.276
Averaging Nr. [scans]: 1000
Smoothing Nr. [pixels]: 0
Data measured with spectrometer [name]: 7414430SP
Wave   ;Sample   ;Dark     ;Reference
[nm]   ;[counts] ;[counts] ;[counts] 

288.544;  151.655;    7.793;  793.890
289.143;  156.287;    7.462;  681.602
289.742;  156.473;    8.602;  828.814
290.341;  142.043;    1.321;  789.841
290.940;  130.490;   -0.709;  730.702
291.538;  131.575;    0.881;  881.108
292.137;  132.016;    0.122;  792.581
292.736;  136.237;   -1.929;  975.101
293.335;  131.787;   -8.229;  735.086
293.934;  132.361;   -5.279;  781.677
294.532;  131.539;   -1.369; 1031.958
295.131;  117.752;   -7.641;  834.394
295.730;  117.637;   -8.420;  809.588
296.328;  116.301;   -5.611;  783.442
296.927;  117.704;   -5.781;  779.652
297.525;  118.134;   -6.361;  781.236
298.124;  108.333;  -11.382;  654.009
298.722;  111.925;   -7.641;  761.933
299.321;  110.770;   -6.811;  708.597
299.919;  108.749;   -6.991;  751.918
300.518;  104.264;  -10.362;  689.338
301.116;  107.602;   -9.581;  691.381
301.715;  107.046;   -4.891;  730.222
302.313;  106.054;   -8.801;  704.943
302.911;  100.283;   -8.522;  733.830
303.509;  106.590;   -6.171;  925.627
304.108;  104.856;   -7.311;  760.383
304.706;  103.508;   -8.321;  801.664
305.304;   97.662;  -10.222;  796.707
305.902;  103.480;   -6.021;  784.484
306.500;   98.872;   -4.971;  728.200
307.098;   97.391;   -7.061;  746.560
307.696;   94.493;   -8.801;  780.432
308.294;   95.615;   -6.411;  731.359
308.892;   97.807;   -2.901;  759.769
309.490;   94.205;   -5.041;  712.161
310.088;   91.611;   -5.002;  788.444
310.686;   96.372;   -2.041;  821.749
311.284;   92.439;   -2.351;  766.040
311.882;   90.557;   -4.422;  731.225
312.480;   86.018;   -4.192;  697.167
313.078;   88.061;   -1.172;  808.331
313.675;   89.298;   -2.601;  691.600
314.273;   84.196;   -1.312;  797.837
314.871;   83.308;   -3.942;  589.829
315.468;   81.189;   -2.802;  652.090
316.066;   84.914;   -0.701;  694.427
316.664;   77.642;   -4.362;  656.351
317.261;   80.760;   -2.872;  910.128
317.859;   76.643;   -2.022;  768.735
318.456;   77.282;   -0.531;  830.096
319.054;   73.407;   -3.912;  787.828
319.651;   72.015;   -4.752;  759.928
320.249;   70.392;   -2.602;  810.188
320.846;   68.571;   -0.821;  714.286
321.443;   66.143;   -4.642;  832.135
322.041;   62.430;   -5.002;  812.315
322.638;   60.353;   -3.982;  701.456
323.235;   61.917;   -3.411;  665.683
323.833;   59.553;   -7.361;  740.354
324.430;   54.497;   -8.611;  615.900
325.027;   55.170;   -4.061;  876.855
325.624;   54.964;   -4.031;  644.532
326.221;   52.568;   -7.481;  689.717
326.818;   51.117;   -5.281;  818.332
327.415;   54.930;   -7.460;  748.828
328.012;   54.863;   -5.510;  690.585
328.609;   52.208;   -7.880;  731.389
329.206;   50.730;   -8.331;  778.621
329.803;   51.491;   -5.121;  737.841
330.400;   53.888;   -4.510;  704.260
330.997;   55.637;   -6.441;  817.147
331.594;   53.684;   -8.831;  788.185
332.191;   59.222;   -7.621;  728.722
332.787;   62.553;   -4.591;  844.463
333.384;   60.544;   -7.412;  763.093
333.981;   58.385;   -8.293;  815.687
334.578;   61.637;   -7.052;  708.378
335.174;   65.154;   -3.102;  731.469
335.771;   64.549;   -5.943;  836.456
336.367;   61.003;   -7.393;  710.631
336.964;   64.987;   -4.063;  793.266
337.561;   63.380;   -3.813;  731.112
338.157;   58.479;   -4.654;  911.916
338.754;   55.800;   -7.934;  796.589
339.350;   53.982;   -4.414;  722.493
339.946;   56.171;   -4.664;  773.135
340.543;   47.942;   -6.375;  846.136
341.139;   42.702;   -9.815;  720.836
341.735;   40.637;   -4.526;  772.593
342.332;   39.410;   -4.895;  691.472
342.928;   40.612;   -4.295;  795.394
343.524;   33.439;   -5.476;  761.684
344.120;   30.089;   -5.856;  738.562
344.716;   34.053;   -2.155;  723.717
345.313;   30.997;   -6.275;  795.342
345.909;   25.101;   -8.815;  627.336
346.505;   27.086;   -5.305;  740.247
347.101;   28.939;   -2.674;  827.864
347.697;   28.722;   -4.344;  785.398
348.293;   22.518;   -9.975;  627.244
348.889;   23.438;   -5.774;  745.914
349.485;   23.311;   -5.004;  688.205
350.081;   23.468;   -4.704;  772.592
350.676;   17.755;   -6.635;  691.606
351.272;   23.836;   -4.504;  809.530
351.868;   21.726;   -3.914;  780.497
352.464;   19.894;   -9.044;  723.932
353.059;   16.012;   -8.314;  646.017
353.655;   19.775;   -7.024;  777.063
354.251;   20.770;   -5.343;  759.845
354.846;   15.390;   -8.604;  740.646
355.442;   12.904;   -6.945;  753.071
356.038;   14.835;   -7.564;  751.708
356.633;   15.028;   -5.814;  728.594
357.229;   13.520;   -7.364;  724.757
357.824;   11.190;   -8.024;  703.600
358.420;   10.065;   -9.384;  679.726
359.015;   11.225;   -5.104;  695.357
359.610;   11.508;   -6.854;  763.920
360.206;    5.128;  -10.185;  603.240
360.801;    8.792;   -7.054;  646.503
361.396;   11.346;   -5.034;  725.975
361.992;    6.622;   -8.284;  668.220
362.587;    2.923;   -8.625;  670.160
363.182;    6.197;   -7.674;  689.631
363.777;    6.523;   -5.164;  738.242
364.372;    6.619;   -8.604;  737.314
364.967;    2.151;   -9.055;  680.744
365.563;    6.785;   -6.114;  815.567
366.158;    3.938;   -5.814;  685.161
366.753;    4.480;   -7.854;  649.263
367.348;    2.012;   -7.804;  746.056
367.942;    2.886;   -7.954;  697.298
368.537;    1.737;   -4.984;  754.245
369.132;    1.980;   -8.564;  703.428
369.727;   -2.947;   -8.855;  638.079
370.322;   -0.705;   -6.245;  580.186
370.917;   -0.616;   -6.425;  710.646
371.511;    1.920;   -6.294;  861.834
372.106;   -2.349;   -7.685;  776.964
372.701;   -5.118;   -7.335;  585.988
373.296;    0.383;   -4.564;  863.135
373.890;   -4.172;  -10.235;  647.840
374.485;   -6.665;   -7.885;  691.199
375.079;   -2.517;   -7.324;  738.685
375.674;   -0.676;   -3.494;  812.970
376.268;   -5.548;   -8.525;  691.759
376.863;  -11.469;  -10.086;  580.327
377.457;   -4.912;   -7.025;  662.490
378.052;   -6.858;   -3.585;  764.884
378.646;   -8.238;   -7.595;  741.167
379.240;   -8.157;   -8.335;  721.176
379.835;   -7.083;   -5.785;  636.978
380.429;   -8.662;   -4.335;  562.557
381.023;   -9.060;   -6.805;  779.205
381.617;  -11.679;   -9.195;  680.106
382.212;   -8.104;   -6.905;  685.303
382.806;   -6.729;   -3.745;  760.690
383.400;  -12.155;   -7.745;  672.281
383.994;  -13.019;   -9.765;  664.870
384.588;   -8.549;   -6.564;  697.701
385.182;   -7.146;   -5.344;  726.624
385.776;   -8.469;   -8.514;  706.875
386.370;  -12.248;   -9.555;  681.968
386.964;  -10.978;   -8.715;  684.155
387.558;   -9.228;   -6.174;  598.360
388.152;  -13.026;   -8.725;  681.959
388.745;  -11.073;   -7.965;  814.707
389.339;   -8.551;   -5.924;  747.642
389.933;   -7.528;   -5.524;  695.370
390.527;   -9.865;   -7.114;  859.029
391.120;  -15.839;  -10.725;  595.318
391.714;  -13.191;   -8.035;  711.633
392.308;   -9.676;   -3.574;  780.253
392.901;  -13.045;   -7.245;  642.460
393.495;  -15.785;   -9.285;  595.414
394.089;  -13.313;   -5.895;  760.452
394.682;  -13.217;   -4.295;  697.188
395.275;  -14.215;   -9.875;  719.927
395.869;  -16.499;   -8.485;  667.314
396.462;  -13.687;   -7.455;  616.609
397.056;   -9.850;   -5.424;  776.621
397.649;  -14.265;   -6.605;  731.575
398.242;  -12.983;   -8.224;  712.645
398.836;  -11.590;   -7.474;  766.408
399.429;  -12.417;   -7.094;  631.041
400.022;  -15.510;   -9.475;  665.902
400.615;  -13.929;   -7.145;  805.609
401.208;  -11.425;   -7.174;  691.451
401.802;  -12.724;   -5.515;  699.329
402.395;  -14.736;   -9.875;  683.502
402.988;  -16.402;   -8.845;  696.627
403.581;  -11.475;   -8.874;  646.878
404.174;   -9.960;   -5.324;  686.568
404.767;  -13.605;   -9.575;  638.583
405.360;  -16.150;  -10.965;  621.445
405.953;  -10.090;   -8.764;  759.034
406.545;   -9.223;   -7.514;  725.342
407.138;  -13.856;  -10.025;  618.350
407.731;  -13.213;  -10.034;  613.303
408.324;   -8.560;   -9.374;  660.554
408.917;   -9.417;   -6.534;  681.864
409.509;  -11.348;   -8.004;  740.396
410.102;  -13.492;   -9.875;  643.948
410.695;   -7.679;   -8.604;  665.758
411.287;   -8.772;   -6.794;  599.821
411.880;  -10.157;   -9.334;  585.421
412.472;  -13.560;  -10.254;  613.092
413.065;   -9.801;   -6.714;  629.408
413.657;   -8.260;   -7.234;  576.678
414.250;   -7.664;  -10.544;  646.681
414.842;   -9.779;   -9.744;  676.353
415.434;   -6.559;   -6.994;  570.463
416.027;   -2.944;   -5.893;  652.196
416.619;   -5.275;   -7.264;  713.400
417.211;   -6.492;  -10.374;  599.352
417.804;   -2.386;   -7.993;  628.499
418.396;   -5.437;   -7.234;  607.643
418.988;   -3.500;   -9.443;  659.238
419.580;   -7.853;  -10.724;  568.276
420.172;   -4.990;  -10.323;  536.196
420.764;   -1.120;   -8.793;  672.482
421.356;   -1.445;  -11.143;  636.898
421.948;   -3.494;   -8.293;  677.661
422.540;    2.201;   -7.893;  680.027
423.132;    1.728;   -7.082;  600.641
423.724;   -1.610;   -8.653;  561.267
424.316;   -0.741;  -10.213;  621.345
424.908;    3.798;   -9.762;  591.517
425.500;    4.595;   -5.572;  647.978
426.092;    4.397;   -8.422;  648.268
426.683;    2.712;   -9.283;  684.836
427.275;    7.016;   -7.852;  641.471
427.867;    8.245;   -5.272;  668.948
428.458;    8.965;   -7.682;  732.344
429.050;    6.764;  -10.612;  680.749
429.642;    9.189;   -9.882;  743.124
430.233;    9.570;   -6.962;  569.356
430.825;   10.284;   -6.842;  724.809
431.416;    8.016;   -9.672;  698.241
432.008;   12.062;   -6.552;  651.723
432.599;   13.019;   -6.891;  656.073
433.190;   10.491;  -10.912;  637.670
433.782;    8.398;  -11.172;  590.395
434.373;   16.590;   -6.061;  884.765
434.964;   15.277;   -8.251;  602.920
435.556;   12.428;   -9.722;  634.537
436.147;   15.417;   -9.082;  758.490
436.738;   16.289;   -8.041;  701.099
437.329;   21.775;   -7.341;  721.723
437.920;   13.829;   -8.162;  666.688
438.511;   13.167;  -11.802;  564.526
439.103;   20.416;  -10.191;  623.998
439.694;   22.654;   -7.601;  681.583
440.285;   22.904;   -8.541;  764.432
440.876;   20.467;   -9.751;  845.738
441.466;   19.817;   -9.401;  575.162
442.057;   26.234;   -7.760;  665.814
442.648;   25.034;   -9.971;  746.255
443.239;   22.202;  -11.001;  620.477
443.830;   27.962;   -7.990;  704.958
444.421;   29.691;   -7.910;  655.474
445.011;   26.411;   -8.131;  693.619
445.602;   25.463;   -7.111;  743.126
446.193;   27.785;  -10.920;  488.117
446.783;   32.605;   -6.500;  640.397
447.374;   28.048;   -8.671;  692.759
447.964;   27.992;  -10.781;  713.770
448.555;   36.042;   -9.650;  822.742
449.145;   33.658;   -8.660;  662.853
449.736;   34.151;   -8.990;  803.179
450.326;   33.453;   -9.500;  713.626
450.917;   38.349;   -8.680;  675.324
451.507;   38.719;   -7.520;  600.661
452.097;   38.497;   -8.590;  746.267
452.688;   39.198;  -11.340;  742.160
453.278;   39.480;  -10.100;  566.840
453.868;   43.790;   -6.019;  793.550
454.458;   41.728;   -9.440;  651.141
455.048;   41.721;  -10.560;  711.783
455.639;   43.664;  -11.799;  567.096
456.229;   48.042;   -6.899;  710.694
456.819;   48.504;   -7.389;  751.158
457.409;   48.911;  -11.119;  773.993
457.999;   52.034;   -9.289;  737.505
458.589;   51.947;   -6.139;  686.606
459.179;   51.600;   -8.729;  717.658
459.769;   49.417;   -9.789;  627.099
460.358;   54.112;  -10.259;  797.262
460.948;   55.184;   -7.299;  689.503
461.538;   57.410;  -10.289;  660.677
462.128;   54.431;  -11.269;  664.934
462.717;   61.067;   -9.368;  710.326
463.307;   63.730;   -7.908;  705.846
463.897;   60.504;   -9.599;  656.942
464.486;   58.904;   -9.769;  837.128
465.076;   64.242;   -8.048;  733.776
465.666;   67.827;   -9.358;  652.900
466.255;   65.268;   -7.919;  785.651
466.845;   63.605;  -11.689;  666.749
467.434;   67.099;   -7.818;  725.873
468.023;   67.688;   -7.678;  658.357
468.613;   65.592;  -10.939;  713.946
469.202;   69.538;  -10.118;  646.507
469.791;   74.422;   -9.108;  737.811
470.381;   76.046;   -6.058;  742.813
470.970;   76.371;  -10.428;  711.099
471.559;   75.176;  -10.268;  733.291
472.148;   78.264;   -8.448;  675.737
472.738;   80.815;   -6.917;  765.466
473.327;   81.438;  -11.978;  637.529
473.916;   79.688;  -11.888;  737.446
474.505;   84.760;   -9.437;  751.703
475.094;   88.526;   -6.747;  806.570
475.683;   87.701;   -9.367;  797.699
476.272;   87.598;  -12.637;  730.632
476.861;   91.361;  -10.027;  706.754
477.449;   97.899;   -8.716;  728.487
478.038;   91.951;   -9.577;  692.513
478.627;   92.219;   -9.718;  714.852
479.216;   98.944;   -8.947;  769.441
479.805;  102.765;   -6.256;  783.375
480.393;  102.638;   -7.937; 1008.945
480.982;  100.913;   -7.717;  874.501
481.571;  108.336;   -9.266;  858.333
482.159;  108.614;   -7.636;  705.386
482.748;  107.935;   -9.667;  821.385
483.336;  112.314;  -10.376;  858.209
483.925;  112.414;   -7.147;  774.373
484.513;  120.348;   -7.996;  758.962
485.102;  117.055;  -10.027;  810.965
485.690;  124.263;  -10.446; 1011.050
486.278;  127.156;   -8.446;  979.329
486.867;  128.155;   -6.356;  809.662
487.455;  129.463;   -9.136;  898.229
488.043;  131.531;  -10.646;  748.361
488.631;  139.861;   -7.456; 1005.079
489.220;  144.386;   -6.636;  908.626
489.808;  144.325;  -11.036;  741.415
490.396;  151.938;  -10.246;  914.645
490.984;  158.630;   -8.556;  830.161
491.572;  167.948;   -5.886;  940.315
492.160;  173.565;   -9.486;  919.081
492.748;  185.326;  -10.976;  884.341
493.336;  208.583;   -8.776; 1019.693
493.924;  234.894;   -5.465;  958.077
494.512;  263.448;   -9.986; 1066.638
495.100;  298.213;  -10.636; 1103.280
495.687;  355.420;  -10.885; 1206.373
496.275;  418.392;   -8.126; 1150.796
496.863;  489.337;  -10.586; 1281.171
497.451;  588.672;  -11.926; 1386.805
498.038;  720.373;  -10.885; 1556.729
498.626;  826.661;   -6.315; 1741.407
499.214;  981.051;   -7.326; 2016.609
499.801; 1189.881;  -11.906; 2220.633
500.389; 1441.445;  -10.466; 2312.494
500.976; 1723.727;   -5.236; 2744.849
501.564; 2154.316;   -8.936; 3148.565
502.151; 2514.858;  -13.176; 3515.999
502.738; 2918.070;  -10.646; 3971.274
503.326; 3349.119;   -9.525; 4403.796
503.913; 3772.822;  -10.856; 5161.749
504.500; 4187.172;  -11.586; 5986.420
505.088; 4567.581;  -10.336; 6381.201
505.675; 5102.183;   -6.355; 6925.547
506.262; 5759.923;   -9.046; 7619.060
506.849; 6456.479;  -10.416; 8733.969
507.436; 6986.477;  -10.305; 9790.121
508.023; 7562.503;   -5.496; 9985.472
508.610; 7854.964;   -7.856;10434.618
509.197; 8492.653;  -10.097;11198.435
509.784; 9857.688;  -10.886;12391.194
510.371;11011.271;   -9.315;13603.713
510.958;11658.854;   -9.936;14426.586
511.545;12326.328;   -9.326;15243.775
512.132;13077.062;  -10.075;15945.876
512.719;13628.997;   -7.796;16340.369
513.305;14837.654;  -10.606;18011.766
513.892;15512.687;  -11.486;19754.971
514.479;16688.248;   -9.126;20967.805
515.066;18237.088;   -6.026;22299.793
515.652;20081.084;   -8.466;22908.660
516.239;21204.217;  -10.886;23798.875
516.825;21818.758;  -11.496;25567.275
517.412;22959.518;   -5.796;28154.959
517.998;23948.758;  -10.506;28344.111
518.585;23935.984;  -10.076;27134.219
519.171;24342.906;   -8.315;27268.576
519.758;26190.770;   -8.596;28964.129
520.344;28200.525;   -8.466;30664.494
520.930;27799.346;  -11.006;32550.605
521.516;28940.617;  -10.495;35422.895
522.103;30579.883;   -5.526;38280.004
522.689;31072.291;   -8.746;37835.117
523.275;30578.725;  -11.376;37288.613
523.861;32209.705;  -11.156;37281.395
524.447;34031.102;   -8.135;37846.949
525.033;34161.840;   -7.896;38321.949
525.619;34039.609;  -12.476;38579.285
526.205;35200.070;   -9.516;40622.875
526.791;38133.789;   -6.926;42258.836
527.377;38176.172;   -8.346;42966.902
527.963;38897.898;   -8.717;42018.949
528.549;37805.578;  -11.016;42476.828
529.135;36081.973;   -8.536;41854.852
529.721;34848.559;   -9.666;41237.711
530.306;33345.602;  -10.066;41259.445
530.892;31260.068;  -11.356;41506.047
531.478;31018.332;   -6.596;43559.613
532.063;35415.371;   -8.836;47695.563
532.649;38795.348;  -10.047;50808.324
533.235;40041.090;   -9.746;51787.500
533.820;39552.539;   -6.566;52145.035
534.406;39058.500;  -10.817;51133.488
534.991;36464.777;   -9.416;49996.805
535.576;32211.541;   -9.036;48882.852
536.162;31473.748;   -6.156;46942.285
536.747;35231.859;  -11.607;45711.746
537.333;42483.340;  -11.787;48510.180
537.918;48990.320;  -12.437;50439.891
538.503;50563.781;   -7.196;50863.711
539.088;47748.246;  -10.556;50906.922
539.673;47039.367;   -8.767;52621.965
540.259;47872.016;  -10.026;52368.094
540.844;45863.633;   -7.416;50879.109
541.429;48062.859;   -9.467;52077.777
542.014;49611.156;   -9.527;52716.695
542.599;47921.930;   -9.946;52363.281
543.184;44644.219;   -7.927;53187.137
543.769;45946.594;   -9.297;54697.605
544.354;46250.973;  -10.127;53913.914
544.938;44499.645;   -9.267;49680.164
545.523;46509.129;   -6.506;47386.277
546.108;49952.449;   -9.787;49151.949
546.693;51673.168;  -11.587;51384.637
547.278;51481.539;  -10.986;51853.254
547.862;48657.883;   -8.206;51173.750
548.447;44058.930;  -10.067;51691.395
549.031;42918.191;   -9.637;52456.703
549.616;47613.090;   -9.926;52714.516
550.201;47968.422;   -6.347;52414.598
550.785;49635.668;   -7.917;52355.059
551.370;48577.055;  -10.867;54589.453
551.954;47381.887;   -9.047;58267.348
552.538;47782.301;   -7.827;59062.176
553.123;45763.090;  -10.287;58115.285
553.707;43507.906;  -12.178;56556.285
554.291;45538.648;   -8.717;56201.668
554.876;49452.797;   -7.457;55335.762
555.460;49852.785;  -10.387;54155.703
556.044;49495.523;   -9.618;53721.484
556.628;47168.578;  -11.567;53731.016
557.212;45563.887;   -8.097;54312.531
557.796;44484.918;  -11.077;53797.773
558.380;44776.094;  -11.108;56145.984
558.964;45061.246;   -9.057;57277.930
559.548;45938.563;   -6.977;56459.641
560.132;43926.617;  -11.457;54434.543
560.716;42111.078;  -11.378;54800.617
561.300;43320.625;   -9.577;57606.945
561.884;44687.266;   -7.127;58972.445
562.467;42387.445;   -7.118;57327.570
563.051;41569.965;  -13.358;54962.434
563.635;42669.684;  -10.178;52594.473
564.219;43596.621;   -7.837;50610.410
564.802;44821.809;  -11.398;49551.180
565.386;44148.750;  -12.788;48370.953
565.969;43033.879;   -9.077;48178.871
566.553;41610.055;   -6.207;49957.305
567.136;43113.129;   -8.568;50369.594
567.720;40167.285;  -11.868;49492.004
568.303;37943.824;   -8.268;50616.352
568.887;37853.184;   -8.698;50727.148
569.470;38523.875;   -6.808;51698.379
570.053;37838.305;  -13.188;52122.078
570.637;35291.277;  -12.037;52536.438
571.220;34950.398;   -8.577;51186.098
571.803;35745.582;   -8.498;51032.762
572.386;37599.719;  -10.498;49609.887
572.969;40225.180;   -9.388;48285.926
573.552;38854.504;   -8.338;47624.285
574.135;37104.516;   -8.518;45498.641
574.718;34647.988;  -13.628;41970.434
575.301;34318.797;  -10.893;41447.137
575.884;33989.602;   -8.158;40923.836
576.467;35335.813;  -10.328;45267.723
577.050;36681.262;  -13.058;48175.543
577.633;37139.969;   -9.458;47729.328
578.216;36193.090;   -8.928;47579.793
578.799;35478.020;   -9.358;47820.996
579.381;34602.379;  -11.388;48115.551
579.964;32607.201;  -11.718;47333.766
580.547;34791.039;   -8.588;46668.969
581.129;35651.355;   -8.859;44466.141
581.712;36510.762;  -10.729;44164.922
582.294;36826.465;  -11.118;46477.855
582.877;36826.621;   -5.218;48244.254
583.459;35450.809;   -8.679;47437.895
584.042;33407.680;  -10.709;46943.219
584.624;33166.719;  -11.669;46792.227
585.206;33246.594;   -8.218;46557.250
585.789;33522.957;  -10.569;45793.773
586.371;35542.449;  -11.859;43836.391
586.953;36061.375;  -10.719;42972.492
587.536;37081.840;   -7.198;42487.211
588.118;37604.590;   -8.720;42086.414
588.700;33140.609;  -10.439;43389.930
589.282;32209.695;   -9.198;43646.039
589.864;33609.773;   -9.199;43438.109
590.446;34854.445;  -11.319;43151.926
591.028;34498.863;  -11.159;42781.867
591.610;33382.148;  -11.779;42839.098
592.192;31012.070;   -7.668;42820.402
592.774;29606.027;  -11.949;40724.277
593.356;28410.395;  -12.129;39874.789
593.937;27331.268;  -10.669;39980.648
594.519;29638.588;   -6.509;42069.633
595.101;31628.555;  -10.849;42976.031
595.683;31633.723;  -11.679;44084.441
596.264;32320.721;   -9.049;43478.797
596.846;32404.725;   -8.849;43803.672
597.427;32664.691;   -9.570;42986.934
598.009;33910.660;  -12.620;42832.219
598.591;33892.355;  -10.039;42580.086
599.172;33529.309;  -10.369;43061.805
599.753;33494.527;   -9.140;41691.469
600.335;34838.066;  -11.430;40692.520
600.916;33144.105;   -9.939;39982.422
601.498;30994.107;   -8.479;40318.617
602.079;29429.475;  -10.920;40670.609
602.660;29097.121;  -11.480;41450.898
603.241;30805.186;  -11.699;41137.738
603.823;29688.676;   -9.579;38868.797
604.404;28533.191;  -10.620;38182.785
604.985;30360.430;  -10.450;38078.047
605.566;30610.561;   -9.129;38056.633
606.147;30782.008;   -7.510;37020.418
606.728;32075.588;  -10.660;37883.359
607.309;30752.490;  -11.740;38748.273
607.890;30929.918;   -9.759;38850.230
608.471;30468.592;   -8.250;37457.918
609.051;29481.289;   -9.240;36066.457
609.632;28176.619;  -12.120;35991.074
610.213;28203.043;   -9.110;37402.641
610.794;28915.566;   -8.030;38383.363
611.374;29025.666;   -8.110;40562.387
611.955;30510.355;  -13.560;38533.727
612.536;31979.662;  -11.400;36951.789
613.116;31110.713;   -8.070;37197.891
613.697;31205.701;  -10.830;38411.125
614.277;29549.367;  -11.641;38673.938
614.858;30232.014;  -13.310;37075.863
615.438;29693.688;   -7.460;35092.906
616.019;27681.020;   -7.601;33666.301
616.599;27846.834;  -12.020;34189.023
617.179;29525.064;  -11.780;36952.047
617.760;31247.607;   -8.570;39582.574
618.340;32040.684;  -11.471;38943.977
618.920;32516.932;  -11.170;37594.156
619.500;32515.248;  -11.071;37866.938
620.080;31319.053;   -7.750;37869.043
620.660;32228.375;  -12.711;36868.617
621.241;34140.281;  -10.211;36352.309
621.821;35080.430;  -10.961;35459.520
622.401;33818.492;   -7.720;35207.414
622.980;32373.410;   -8.981;35980.422
623.560;30844.748;   -9.331;37351.328
624.140;29404.744;   -9.850;34388.582
624.720;24998.721;   -7.451;32368.764
625.300;21781.287;   -9.070;32638.629
625.880;25004.998;  -12.601;34599.035
626.459;29183.641;  -11.751;36831.738
627.039;31981.582;   -9.281;38299.098
627.619;31730.121;   -8.801;38289.574
628.198;30249.453;  -12.071;37220.695
628.778;29391.695;   -9.461;37632.563
629.357;29958.574;   -8.491;38003.012
629.937;30009.084;   -9.721;38402.039
630.516;29495.738;   -9.951;37868.801
631.096;29302.611;  -11.731;35760.410
631.675;31456.227;   -8.572;35225.219
632.254;36544.855;  -11.282;35130.289
632.834;36007.176;  -13.322;35794.570
633.413;34328.199;  -10.301;35788.922
633.992;32094.123;   -8.582;34532.863
634.571;32600.350;   -8.352;33590.113
635.151;35066.730;  -11.912;34943.863
635.730;33378.449;  -10.511;35352.523
636.309;30495.643;   -7.731;35366.605
636.888;28140.857;   -9.952;36165.637
637.467;28361.465;  -11.672;37515.902
638.046;29576.695;   -8.901;39288.695
638.625;32200.277;   -7.912;38279.699
639.204;32462.594;  -10.022;37741.598
639.782;31740.270;  -12.252;38364.551
640.361;27865.982;  -10.041;36740.621
640.940;25026.578;  -11.161;34950.082
641.519;25932.984;   -9.701;34137.398
642.097;28950.008;  -11.271;35654.258
642.676;31564.725;   -8.651;35637.957
643.255;32819.789;   -8.711;36567.074
643.833;32352.354;   -9.581;37809.434
644.412;32222.832;  -13.711;37337.293
644.990;31034.416;  -11.811;37018.531
645.569;30824.785;   -9.411;36518.469
646.147;30706.783;  -10.291;36186.430
646.726;31119.590;  -12.401;36267.688
647.304;32224.508;  -10.411;36647.625
647.882;33305.043;   -9.651;39286.742
648.461;34606.953;   -9.631;39157.703
649.039;33224.453;  -11.881;35412.883
649.617;32141.766;   -9.661;34744.918
650.195;31049.721;   -9.301;35403.098
650.773;29688.625;  -10.511;35053.797
651.352;27814.404;  -11.521;33756.816
651.930;25614.236;  -12.211;31868.773
652.508;23770.734;   -9.171;33121.551
653.086;27339.775;   -9.371;33564.793
653.663;30753.875;  -13.161;34054.668
654.241;29539.906;  -13.031;35693.309
654.819;30803.799;   -9.371;36422.906
655.397;30565.781;  -10.511;38213.484
655.975;29726.578;  -10.371;39507.625
656.553;29501.727;  -10.051;39498.223
657.130;28274.760;  -10.061;40395.480
657.708;27408.619;   -9.561;39242.020
658.286;27512.338;  -11.511;38920.020
658.863;28755.717;  -10.261;40202.898
659.441;32051.545;   -7.531;39677.938
660.018;32202.850;   -9.501;40413.355
660.596;30649.615;  -13.301;39931.414
661.173;31890.975;  -11.211;39604.531
661.750;32363.982;   -9.951;39700.070
662.328;31489.256;   -9.390;39292.809
662.905;30887.580;  -11.330;38235.648
663.482;27023.592;   -9.050;36212.305
664.060;24981.602;   -8.240;35944.945
664.637;27473.547;  -10.050;35170.785
665.214;28788.529;  -11.760;34197.523
665.791;30367.629;  -10.530;34549.520
666.368;29604.291;   -9.690;35118.578
666.945;29932.945;   -9.320;36019.418
667.522;31584.807;  -11.860;36048.438
668.099;31396.650;  -10.770;36243.914
668.676;29914.943;   -6.260;35958.875
669.253;28612.984;   -7.000;37384.730
669.830;28586.494;  -10.190;36779.629
670.407;28549.650;   -9.550;35231.289
670.984;28620.250;   -9.260;35544.270
671.560;29933.600;   -9.280;35466.867
672.137;29453.445;  -11.810;34280.863
672.714;30229.299;  -11.490;34632.863
673.290;31326.504;   -7.740;35135.422
673.867;31261.791;  -10.660;36114.480
674.443;30889.713;  -12.230;36152.859
675.020;28678.582;  -10.450;35327.238
675.596;29845.500;   -9.260;35795.176
676.173;30631.943;  -10.780;35430.355
676.749;30350.752;  -13.690;33549.516
677.326;30171.451;  -11.980;32210.012
677.902;30201.289;   -8.630;32068.871
678.478;29768.021;  -10.730;32583.891
679.054;28755.057;  -10.520;32088.928
679.631;28996.547;  -11.920;30978.848
680.207;30279.309;   -7.490;33160.887
680.783;31619.494;   -9.860;35570.363
681.359;30696.902;  -13.380;36125.184
681.935;30666.959;  -12.480;35240.922
682.511;31017.746;   -7.900;34429.961
683.087;31401.438;   -7.710;34463.680
683.663;30411.076;  -11.480;34648.898
684.239;28747.314;  -14.090;34546.457
684.815;28027.041;   -7.560;35586.375
685.390;28368.570;   -9.910;35821.895
685.966;28968.832;  -11.159;35085.871
686.542;31133.441;  -11.169;34198.230
687.118;33620.328;   -5.959;32847.707
687.693;34117.605;  -10.329;32794.027
688.269;33684.555;  -12.059;33072.367
688.844;32063.041;  -10.909;33141.664
689.420;30359.488;   -8.019;33965.742
689.995;28720.586;   -8.399;34655.523
690.571;27313.557;  -10.949;33576.742
691.146;27077.889;   -9.619;32657.219
691.722;26836.148;   -8.999;32526.979
692.297;26331.646;  -11.589;33014.617
692.872;27486.713;  -11.739;34012.254
693.448;27335.473;  -11.059;34237.434
694.023;26269.979;  -10.139;34142.672
694.598;28203.867;   -9.029;34132.031
695.173;28981.039;  -13.319;34205.250
695.748;27712.061;  -10.169;32882.488
696.323;27511.533;   -8.339;32864.906
696.898;27885.131;   -8.169;33170.004
697.473;28394.313;  -12.309;32432.984
698.048;27816.230;  -10.989;31649.303
698.623;27257.484;   -9.329;30778.141
699.198;28428.820;   -9.849;31140.119
699.773;29850.768;  -12.329;31764.299
700.348;28896.953;  -10.389;31780.816
700.922;29200.832;   -9.269;32046.375
701.497;30628.217;   -9.329;32603.574
702.072;30828.217;  -10.789;34799.871
702.646;29170.334;  -10.839;35793.172
703.221;26889.035;   -9.099;35201.590
703.795;28198.510;  -10.939;34764.527
704.370;28568.115;  -12.859;34307.367
704.944;29364.848;  -11.559;33509.887
705.519;29964.422;   -7.939;31388.584
706.093;30715.348;  -10.499;31340.104
706.668;31270.188;  -11.289;32630.281
707.242;30173.422;  -11.509;32728.779
707.816;28957.270;   -9.639;32947.238
708.390;27590.395;  -11.429;33277.855
708.965;28143.400;  -11.869;33834.336
709.539;28403.314;  -11.689;33709.273
710.113;28214.031;  -10.478;33044.313
710.687;27231.092;  -10.228;31953.992
711.261;25751.109;  -13.698;30505.949
711.835;25713.057;  -13.378;30262.369
712.409;26094.346;   -9.698;31254.447
712.983;28197.111;  -11.898;32754.986
713.557;29544.912;  -15.138;34018.824
714.131;29666.211;  -14.098;34579.625
714.704;28742.002;   -9.958;33890.262
715.278;25953.338;  -10.028;33531.102
715.852;24619.338;  -11.148;33601.660
716.425;25698.555;   -9.068;33515.117
716.999;27081.445;  -10.038;33185.555
717.573;28063.863;   -9.798;33905.996
718.146;28988.064;  -12.378;35199.293
718.720;29113.855;  -11.918;35060.551
719.293;29349.041;   -8.088;34973.230
719.867;32446.084;  -10.888;36394.449
720.440;32098.426;  -11.938;36663.008
721.013;30091.471;  -12.818;35102.426
721.587;28230.043;  -10.298;33985.266
722.160;26745.457;  -10.048;33524.965
722.733;25815.439;  -12.108;32987.043
723.306;26345.822;  -10.818;33066.301
723.880;28423.078;   -8.908;33399.500
724.453;30671.611;   -9.878;33468.297
725.026;29939.588;  -11.188;33816.637
725.599;26981.572;  -11.678;32797.996
726.172;26915.871;   -9.618;33187.434
726.745;28150.705;   -8.258;35136.613
727.318;29278.322;  -12.978;35751.730
727.891;29933.305;  -12.148;35890.430
728.463;29507.742;   -8.968;34822.090
729.036;28190.873;  -10.188;32895.086
729.609;28783.428;  -11.788;31823.225
730.182;26082.219;  -11.788;31445.283
730.754;23788.377;  -10.268;32373.223
731.327;24310.027;   -9.998;33676.820
731.900;24518.662;  -12.228;33417.000
732.472;24839.326;  -13.848;31978.498
733.045;26168.012;   -8.698;30368.777
733.617;26342.191;  -10.607;30574.215
734.190;27152.379;  -11.507;31280.975
734.762;24992.650;  -13.647;31674.412
735.334;22880.693;   -9.767;31247.291
735.907;23352.629;   -9.897;29876.211
736.479;23739.631;  -11.637;29808.488
737.051;23413.225;   -9.567;30233.547
737.623;23877.900;   -8.187;31469.086
738.195;24001.064;  -11.187;31784.225
738.768;25979.094;  -12.337;32120.523
739.340;27147.115;  -12.227;32094.342
739.912;26575.057;  -11.057;31312.680
740.484;25011.943;  -10.207;31946.238
741.056;23188.361;  -10.047;32984.059
741.628;24234.688;  -13.627;33897.715
742.199;26127.578;   -7.177;33213.016
742.771;24895.580;  -10.797;31369.113
743.343;23098.689;  -11.997;31865.473
743.915;22044.248;  -12.867;32388.631
744.487;21790.994;   -7.617;31079.568
745.058;21740.141;   -9.557;30570.107
745.630;22525.861;   -9.877;29970.127
746.201;24060.879;  -14.177;29186.766
746.773;25060.490;   -9.237;28805.723
747.344;24856.125;   -9.847;29591.223
747.916;22848.027;  -11.657;31412.201
748.487;22661.094;  -10.587;32194.898
749.059;23900.906;   -8.707;32533.719
749.630;24555.727;  -10.537;32158.518
750.201;23365.123;  -11.687;30855.395
750.773;21699.605;  -11.647;28622.555
751.344;21503.146;   -7.147;28405.732
751.915;22366.740;   -9.757;28461.551
752.486;22583.875;  -12.427;27842.850
753.057;20917.486;  -12.227;27845.008
753.628;19827.039;  -10.417;27728.107
754.199;20793.219;  -11.767;27381.086
754.770;21939.221;  -11.187;25882.203
755.341;22091.598;  -10.507;25886.184
755.912;22055.633;   -9.387;26050.861
756.483;21659.254;  -10.647;26798.779
757.054;19873.303;  -11.837;27048.238
757.625;18384.609;  -12.716;26294.838
758.195;18055.029;   -9.666;26142.076
758.766;17677.863;   -8.656;26392.234
759.337;18433.979;  -12.856;26334.594
759.907;19990.627;  -13.366;27579.652
760.478;20886.361;   -8.576;28352.770
761.048;20346.719;  -10.526;27325.088
761.619;19188.879;  -11.116;26460.428
762.189;19248.328;  -12.136;26029.826
762.760;20271.180;   -9.456;26430.145
763.330;21366.146;   -7.136;26670.902
763.900;20966.070;  -11.786;26603.021
764.471;18750.549;  -11.546;25542.740
765.041;17403.303;   -8.096;24358.459
765.611;17073.160;   -8.876;23991.297
766.181;17303.234;  -12.196;24470.236
766.751;18484.689;  -11.636;24845.975
767.321;18250.785;  -10.156;24533.633
767.891;16223.168;  -11.766;24916.492
768.461;15646.053;  -14.936;24776.771
769.031;16169.703;  -12.356;24757.988
769.601;18006.225;   -7.526;24181.088
770.171;18273.018;  -10.766;23670.387
770.741;17320.898;  -13.176;22960.045
771.311;17098.131;  -10.616;22917.523
771.880;17586.402;   -9.576;23562.941
772.450;17571.807;  -10.336;24216.500
773.020;17389.000;  -13.516;24140.398
773.589;16494.641;  -13.466;24414.857
774.159;15995.340;   -8.686;23858.717
774.729;15907.164;   -9.476;22942.135
775.298;15635.338;  -13.666;22324.033
775.867;15129.948;  -11.716;21140.313
776.437;15320.928;   -9.906;20838.092
777.006;15067.946;  -12.166;20599.510
777.576;14486.935;  -12.356;20508.809
778.145;14253.444;  -11.646;20732.947
778.714;14359.084;   -8.226;21062.465
779.283;13963.406;   -9.556;20949.664
779.853;13432.906;  -14.116;20508.623
780.422;13805.051;  -11.506;20649.082
780.991;13437.511;   -9.556;21527.520
781.560;12096.192;   -9.095;22632.658
782.129;11921.164;  -12.135;23048.277
782.698;11954.572;  -10.865;23438.555
783.267;11560.260;   -9.335;23267.734
783.836;11422.336;  -11.045;22415.133
784.404;12387.744;  -13.865;20443.152
784.973;13099.919;  -13.095;19699.150
785.542;13184.882;  -11.575;19763.828
786.111;13013.407;   -9.705;20341.408
786.679;12633.189;  -12.105;20207.967
787.248;12354.866;  -12.455;19516.465
787.817;12111.908;  -11.535;18900.363
788.385;11808.492;   -9.765;17879.121
788.954;11264.476;  -14.005;17658.301
789.522;10551.254;  -11.955;17788.879
790.090;10891.990;  -10.135;18118.277
790.659;11527.655;  -10.975;18338.736
791.227;11160.068;  -13.375;18508.615
791.795;11472.874;  -12.375;17898.254
792.364;11730.009;  -10.725;17295.133
792.932;12052.147;   -9.715;16822.051
793.500;12345.233;  -12.675;17040.148
794.068;12584.115;  -13.495;17179.787
794.636;12833.474;  -10.885;16664.246
795.204;12218.171;  -11.045;16524.545
795.772;12132.471;  -13.175;17274.564
796.340;11561.752;  -12.445;17891.002
796.908;11299.094;   -9.735;17648.561
797.476;11257.393;   -9.815;17064.080
798.044;11014.691;  -13.985;16672.777
798.612;10326.226;  -13.115;17023.996
799.180; 9903.355;  -10.185;16561.615
799.747; 9708.606;   -9.055;15962.773
800.315; 9364.078;  -12.385;15296.992
800.883; 9158.720;  -15.035;14801.771
801.450; 9377.759;  -10.365;14534.430
802.018; 9489.964;   -9.855;14173.248
802.585; 9473.422;  -11.905;14029.547
803.153; 9470.097;  -11.585;13836.846
803.720; 9268.206;   -9.095;13567.324
804.287; 8719.046;   -9.135;13360.622
804.855; 8136.654;  -11.604;13681.981
805.422; 8040.978;  -11.794;13536.560
805.989; 8171.121;  -10.734;13355.958
806.556; 8374.740;  -10.444;13747.896
807.124; 8634.414;  -12.764;13987.376
807.691; 8575.361;  -12.964;14038.674
808.258; 8369.745;  -11.134;14120.152
808.825; 8035.182;   -9.854;13860.111
809.392; 8169.239;  -10.504;13268.790
809.959; 7767.594;  -13.054;12680.389
810.526; 7214.386;   -8.294;12427.308
811.093; 7108.089;   -8.394;12030.105
811.659; 7742.629;  -12.304;11653.664
812.226; 8398.734;  -13.944;11637.183
812.793; 8235.902;  -10.484;11611.521
813.360; 7570.130;  -10.144;11885.181
813.926; 7185.401;  -11.684;12770.539
814.493; 6989.716;  -13.644;12677.638
815.060; 6608.232;   -9.724;11974.336
815.626; 6535.873;   -9.854;11594.715
816.193; 6897.945;  -13.254;11579.474
816.759; 6926.222;  -13.204;11666.972
817.325; 6979.339;   -9.434;11325.530
817.892; 7422.660;  -10.134;11105.369
818.458; 7879.318;  -13.474;10843.928
819.024; 7500.466;  -11.854;10714.406
819.591; 7211.208;  -10.244;10469.165
820.157; 6969.349;  -10.704;10235.523
820.723; 6383.983;  -12.324;10847.563
821.289; 6099.197;   -9.444;11040.980
821.855; 6087.083;   -8.374;10357.100
822.421; 6137.845;  -10.234; 9978.918
822.987; 6127.283;  -13.294; 9754.177
823.553; 5683.948;  -10.884;10065.755
824.119; 5385.685;   -8.884;10036.294
824.685; 5468.917;   -6.784;10029.192
825.251; 5602.498;  -12.004;10199.230
825.816; 5591.291;  -11.474; 9820.189
826.382; 5321.625;   -9.174; 9297.248
826.948; 5465.649;   -9.214; 9381.347
827.513; 5908.440;  -10.774; 9450.726
828.079; 5827.030;  -11.924; 9472.444
828.645; 5215.617;  -10.543; 9292.643
829.210; 4988.747;  -10.533; 9065.341
829.776; 4936.980;  -10.753; 9132.620
830.341; 4809.587;  -10.173; 9092.878
830.906; 4944.065;  -10.743; 9078.557
831.472; 5296.225;  -11.113; 8534.535
832.037; 5140.327;  -10.603; 8677.874
832.602; 4590.578;  -13.323; 8628.692
833.167; 4258.683;  -10.823; 8879.031
833.733; 4192.882;  -10.113; 9189.790
834.298; 4353.051;  -13.583; 9052.608
834.863; 4545.398;  -12.703; 8895.087
835.428; 4600.911;  -10.523; 8824.266
835.993; 4427.633;   -6.963; 8845.385
836.558; 4226.934;  -10.763; 8888.563
837.123; 4288.589;   -9.903; 8966.582
837.688; 4566.642;   -9.913; 8617.860
838.253; 4873.366;  -10.283; 8590.699
838.817; 5057.562;  -12.963; 8443.797
839.382; 4950.601;  -14.243; 8799.356
839.947; 4646.901;  -10.733; 8810.595
840.511; 4357.205;   -9.383; 8796.394
841.076; 4008.040;  -12.563; 8347.231
841.641; 4072.215;  -12.953; 8224.330
842.205; 4157.389;   -7.043; 8223.349
842.770; 4158.266;   -8.163; 8622.107
843.334; 4252.506;  -12.503; 8410.386
843.898; 4177.557;  -11.693; 8337.465
844.463; 4143.987;  -10.203; 8506.283
845.027; 3939.322;   -9.533; 8280.962
845.591; 3780.344;  -13.443; 8231.141
846.156; 3809.023;  -13.143; 7969.179
846.720; 3737.092;   -9.433; 7768.278
847.284; 3666.782;  -11.033; 7630.957
847.848; 3534.442;  -10.403; 7472.395
848.412; 3412.802;  -11.553; 7437.394
848.976; 3433.748;   -8.393; 7674.592
849.540; 3349.121;   -8.713; 7836.011
850.104; 3383.264;  -12.463; 7913.669
850.668; 3737.788;  -12.973; 7694.508
851.232; 3917.883;  -10.793; 7756.887
851.796; 3793.419;  -10.662; 7926.545
852.359; 3460.531;  -13.082; 7827.844
852.923; 3267.668;  -12.192; 7641.163
853.487; 3163.775;  -11.912; 7342.501
854.050; 3166.434;  -10.892; 7042.820
854.614; 3271.225;  -13.992; 7151.338
855.177; 3347.705;  -11.732; 7105.077
855.741; 3383.143;   -8.962; 6989.675
856.304; 3286.782;   -9.442; 6596.634
856.868; 3270.710;  -14.192; 6356.272
857.431; 3400.177;  -12.702; 6468.571
857.995; 3534.370;   -9.942; 6373.210
858.558; 3592.743;   -9.112; 6324.448
859.121; 3352.040;  -12.932; 6408.327
859.684; 3158.045;  -13.442; 6347.886
860.247; 3242.561;  -10.632; 6321.264
860.810; 3288.220;  -11.272; 6301.903
861.374; 3055.361;   -9.832; 6607.881
861.937; 2797.241;  -11.762; 6408.200
862.500; 2812.030;   -9.722; 6572.639
863.062; 2952.855;  -10.512; 6387.297
863.625; 3078.726;  -11.232; 6190.836
864.188; 3232.963;  -14.112; 5807.254
864.751; 3306.541;  -11.302; 5682.413
865.314; 3210.319;  -10.112; 5547.492
865.876; 2966.073;  -12.182; 5500.150
866.439; 2923.241;  -10.722; 5415.909
867.002; 2906.541;   -9.252; 5501.567
867.564; 2744.583;   -9.572; 5413.946
868.127; 2537.420;  -13.142; 5160.325
868.689; 2403.939;  -12.902; 5133.183
869.252; 2298.640;   -9.732; 5252.382
869.814; 2195.617;   -9.432; 5297.141
870.377; 2200.922;  -11.552; 5390.919
870.939; 2262.762;   -9.052; 5599.898
871.501; 2337.300;  -10.982; 5248.336
872.063; 2353.653;  -12.292; 4854.235
872.626; 2287.634;  -14.912; 4817.074
873.188; 2267.268;  -13.112; 4987.732
873.750; 2254.035;  -13.442; 4868.651
874.312; 2193.066;   -9.402; 4779.330
874.874; 2111.554;  -11.062; 4866.348
875.436; 2019.269;  -13.931; 4718.887
875.998; 2014.432;   -9.561; 4660.005
876.560; 2059.877;  -11.321; 4462.964
877.122; 2007.736;  -12.221; 4145.042
877.683; 1894.533;  -12.191; 4056.481
878.245; 1807.016;  -12.101; 3950.740
878.807; 1845.115;   -8.971; 4058.958
879.369; 1873.274;  -12.071; 3954.677
879.930; 1784.330;  -14.621; 3941.495
880.492; 1711.508;  -10.311; 4067.014
881.053; 1685.397;  -10.901; 3859.633
881.615; 1597.912;  -14.411; 3776.071
882.176; 1506.260;  -13.761; 3734.750
882.738; 1447.803;   -9.181; 3678.489
883.299; 1415.321;  -11.791; 3405.407
883.860; 1398.340;  -13.121; 3351.106
884.422; 1396.555;  -11.211; 3394.044
884.983; 1395.086;  -10.091; 3166.443
885.544; 1376.982;   -8.461; 3189.802
886.105; 1308.752;  -12.361; 3160.360
886.666; 1138.851;  -14.141; 3093.059
887.227;  881.778;  -11.361; 2941.957
887.788;  662.132;  -11.401; 2974.836
888.349;  548.733;  -13.791; 2721.214
888.910;  534.946;  -13.191; 2696.493
889.471;  556.727;   -9.881; 2560.172
890.032;  576.600;   -9.881; 2558.190
890.593;  589.947;  -10.371; 2567.669
891.153;  603.043;  -13.301; 2460.307
891.714;  597.408;  -11.431; 2372.046
892.275;  592.458;  -11.291; 2309.505
892.835;  581.123;  -11.471; 2382.543
893.396;  549.272;  -11.541; 2295.502
893.956;  508.354;  -11.181; 2162.420
894.517;  476.261;  -11.741; 2125.439
895.077;  471.971;  -11.671; 2086.978
895.638;  477.487;  -11.311; 2126.316
896.198;  456.643;   -9.831; 1838.275
896.758;  420.865;   -8.421; 1892.813
897.319;  392.801;  -12.351; 1792.232
897.879;  379.431;  -13.511; 1762.751
898.439;  356.859;  -12.001; 1661.149
898.999;  336.139;  -10.180; 1781.468
899.559;  327.119;  -12.030; 1703.347
900.119;  323.380;  -15.710; 1537.525
900.679;  320.260;   -8.900; 1638.384
901.239;  307.073;   -8.340; 1527.902
901.799;  297.750;  -13.910; 1456.441
902.359;  290.922;  -13.460; 1357.140
902.919;  285.800;  -11.490; 1331.118
903.479;  274.412;  -12.110; 1317.257
904.038;  254.633;  -11.720; 1262.595
904.598;  240.678;  -13.610; 1152.034
905.158;  238.482;  -11.040; 1240.893
905.717;  232.650;  -10.900; 1233.691
906.277;  221.528;  -15.080; 1217.330
906.836;  211.148;  -13.380; 1222.408
907.396;  200.386;  -10.780; 1193.047
907.955;  194.547;   -8.500; 1182.526
908.515;  188.614;  -12.760; 1099.364
909.074;  183.883;  -11.900; 1092.863
909.633;  179.147;   -8.950; 1069.121
910.192;  176.895;   -8.770; 1196.460
910.752;  171.909;  -12.390; 1029.960
911.311;  166.271;  -13.680; 1009.780
911.870;  165.030;  -12.370;  971.460
912.429;  165.410;  -10.900; 1094.080
912.988;  164.245;  -11.690; 1081.060
913.547;  160.333;  -13.240;  940.380
914.106;  156.508;  -11.990;  999.420
914.665;  153.451;   -9.990;  984.020
915.224;  151.634;  -12.880; 1035.760
915.782;  150.985;  -12.350;  922.560
916.341;  151.794;   -9.110; 1049.840
916.900;  147.782;   -9.270;  925.260
917.458;  145.227;  -13.240;  884.220
918.017;  145.319;  -13.550;  942.600
918.576;  146.041;  -12.320;  904.440
919.134;  144.151;  -11.490;  837.980
919.693;  141.329;  -13.670;  893.060
920.251;  139.448;  -15.470;  876.500
920.809;  139.976;  -11.290;  839.580
921.368;  140.018;  -10.210;  885.360
921.926;  139.114;  -12.140;  842.940
922.484;  136.808;  -13.080;  903.360
923.042;  137.051;  -11.720;  880.340
923.601;  139.778;   -7.480;  998.680
924.159;  137.477;  -11.570;  935.560
924.717;  133.525;  -13.840;  841.080
925.275;  133.792;  -10.640;  903.240
925.833;  133.685;  -11.540;  779.320
926.391;  133.760;  -12.960;  938.380
926.949;  131.660;  -14.130;  857.680
927.506;  133.335;  -11.750;  903.500
928.064;  132.945;  -10.250;  877.580
928.622;  132.197;  -13.030;  880.100
929.180;  130.780;  -13.400;  814.180
929.737;  132.684;  -10.700;  808.540
930.295;  136.671;  -10.070;  928.480
930.853;  137.621;  -11.960;  849.100
931.410;  138.214;  -13.120;  821.120
931.968;  138.074;  -10.770;  940.660
932.525;  137.815;  -10.680;  909.380
933.082;  138.187;  -13.130;  811.440
933.640;  139.341;  -13.210;  925.900
934.197;  138.284;  -11.060;  886.360
934.754;  139.806;   -9.580;  897.780
935.312;  141.751;  -14.000;  863.340
935.869;  144.976;  -10.710; 1012.980
936.426;  145.315;   -9.860;  872.800
936.983;  145.984;   -9.710;  889.020
937.540;  146.952;  -13.990;  838.280
938.097;  145.816;  -14.040;  940.120
938.654;  145.947;  -10.310;  898.860
939.211;  149.178;  -10.560;  952.480
939.768;  151.480;  -13.900;  915.420
940.324;  155.679;  -14.760;  904.200
940.881;  158.111;  -10.370;  878.500
941.438;  160.299;   -8.260; 1021.200
941.995;  154.389;  -12.540;  992.560
942.551;  151.316;  -14.670;  875.620
943.108;  150.725;  -10.450;  937.920
943.664;  154.104;  -10.750;  869.340
944.221;  157.035;  -11.550; 1088.140
944.777;  153.632;  -14.770;  869.680
945.334;  154.989;  -12.820;  884.840
945.890;  157.283;  -10.130;  946.480
946.446;  156.141;  -13.470;  947.020
947.003;  156.903;  -12.120;  964.940
947.559;  160.328;   -9.980; 1063.040
948.115;  161.202;   -9.080; 1026.540
948.671;  158.259;  -10.830;  967.300
949.227;  155.737;  -12.440;  859.560
949.783;  154.356;  -12.910;  858.900
950.339;  155.999;  -10.270;  991.000
950.895;  155.937;  -13.630; 1023.840
951.451;  153.828;  -15.100;  925.280
952.007;  153.830;  -11.330;  998.540
952.563;  153.750;  -10.580;  937.780
953.118;  151.745;  -13.440;  904.940
953.674;  151.053;  -12.710;  935.780
954.230;  150.440;  -10.350;  949.640
954.785;  148.833;   -9.190;  936.640
955.341;  146.362;  -11.200;  998.160
955.897;  144.345;  -16.560;  834.660
956.452;  146.775;  -12.570;  953.840
957.008;  146.391;   -7.970; 1083.640
957.563;  143.469;  -11.940; 1009.540
958.118;  137.754;  -13.450;  877.700
958.674;  138.285;  -12.030;  946.780
959.229;  140.656;   -9.410; 1013.980
959.784;  137.929;  -12.000;  832.400
960.339;  136.471;  -14.780; 1001.280
960.894;  133.534;   -9.860;  963.760
961.449;  130.289;   -9.970;  859.960
962.004;  129.832;  -10.900; 1212.840
962.559;  124.238;  -13.150;  860.140
963.114;  121.792;  -13.740;  742.480
963.669;  122.210;   -9.820;  915.500
964.224;  119.747;  -13.890;  874.340
964.779;  118.303;  -12.600;  828.420
965.334;  119.035;  -10.950; 1017.860
965.888;  119.271;  -11.170;  875.360
966.443;  121.654;  -12.540;  972.380
966.998;  120.658;  -15.780;  819.460
967.552;  121.309;   -9.760;  908.380
968.107;  118.245;   -9.060;  868.300
968.661;  118.094;  -11.950;  922.440
969.216;  118.079;  -12.800;  856.280
969.770;  119.480;  -11.210;  917.200
970.324;  118.001;  -11.610;  923.140
970.879;  113.822;  -11.370;  947.180
971.433;  111.159;  -12.540;  952.720
971.987;  107.277;  -11.320;  895.340
972.541;  104.444;  -10.720;  917.100
973.095;  104.006;   -9.680; 1009.460
973.649;  101.232;  -11.440;  809.480
974.203;  100.675;  -11.210;  829.040
974.757;  101.222;  -10.240;  855.220
975.311;  100.993;  -13.720;  872.600
975.865;  100.614;  -13.770;  881.820
976.419;   98.373;  -11.690;  857.400
976.973;   99.209;   -9.510;  849.620
977.526;  100.609;  -12.620;  949.920
978.080;   99.560;  -12.010;  796.780
978.634;  101.501;  -10.170;  921.320
979.187;   99.555;   -9.020;  905.400
979.741;   96.910;   -9.820; 1018.380
980.294;   91.583;  -14.870;  789.160
980.848;   89.712;  -12.380;  717.220
981.401;   91.686;  -10.350;  816.540
981.955;   93.471;  -13.720;  844.300
982.508;   92.237;  -11.490;  746.340
983.061;   92.933;  -10.000;  915.260
983.615;   89.285;  -11.480;  798.800
984.168;   86.282;  -13.220;  770.080
984.721;   84.502;  -13.960;  880.760
985.274;   84.133;  -10.870;  867.500
985.827;   83.923;   -9.790;  834.220
986.380;   80.945;  -13.120;  721.340
986.933;   79.988;  -12.450;  864.800
987.486;   78.467;  -10.210;  861.920
988.039;   77.473;   -8.430;  863.100
988.591;   76.481;  -10.520;  893.260
989.144;   72.958;  -14.860;  737.260
989.697;   72.663;  -13.080;  758.740
990.250;   73.395;  -10.150;  858.100
990.802;   70.832;  -13.430;  755.860
991.355;   72.020;  -12.750;  974.880
991.907;   69.821;  -12.040;  864.320
992.460;   67.622;  -11.330;  753.760
993.012;   67.037;  -13.610;  749.540
993.565;   65.672;  -13.460;  711.360
994.117;   67.556;   -9.360;  950.780
994.669;   64.395;  -11.300;  701.320
995.221;   61.605;  -13.540;  791.920
995.774;   60.868;  -13.430;  787.580
996.326;   59.007;  -12.520;  740.220
996.878;   58.987;  -10.950;  838.420
997.430;   56.982;  -14.300;  699.860
997.982;   55.327;  -13.760;  750.140
998.534;   56.137;  -11.530;  739.060
999.086;   54.669;  -10.310;  738.220
999.638;   53.128;  -12.530;  661.380
1000.190;   51.674;  -11.840;  699.320
1000.741;   51.931;  -10.260;  742.700
1001.293;   51.807;   -8.860;  686.020
1001.845;   49.570;  -13.700;  676.640
1002.396;   50.974;  -12.100;  743.400
1002.948;   49.888;  -12.760;  737.400
1003.500;   48.675;  -10.380;  723.780
1004.051;   48.747;  -11.900;  907.580
1004.603;   46.660;  -12.250;  791.820
1005.154;   43.711;  -13.210;  608.980
1005.705;   43.610;  -10.950;  723.960
1006.257;   42.838;  -13.880;  707.220
1006.808;   41.168;  -12.840;  685.460
1007.359;   41.557;  -10.570;  763.240
1007.910;   40.022;   -9.620;  646.640
1008.461;   40.184;  -13.630;  732.940
1009.013;   38.346;  -17.200;  588.340
1009.564;   40.126;  -10.200;  793.520
1010.115;   37.786;  -12.570;  597.040
1010.665;   37.470;  -15.150;  602.160
1011.216;   37.195;  -14.480;  667.920
1011.767;   36.775;  -11.340;  697.920
1012.318;   37.221;   -9.780;  736.980
1012.869;   35.268;  -12.380;  679.000
1013.419;   35.739;  -15.560;  603.120
1013.970;   36.036;  -11.010;  666.640
1014.521;   35.789;  -11.610;  620.620
1015.071;   35.637;  -13.450;  670.380
1015.622;   34.689;  -13.870;  635.460
1016.172;   34.785;  -11.610;  596.820
1016.723;   34.354;  -12.120;  614.380
1017.273;   33.604;  -13.620;  604.160
1017.823;   33.561;  -14.140;  650.340
1018.374;   32.612;  -12.800;  611.760
1018.924;   33.633;  -12.340;  716.880
1019.474;   33.919;  -11.410;  718.880
1020.024;   31.786;  -14.770;  657.580
1020.574;   33.082;   -9.780;  726.160
1021.124;   33.317;   -8.560;  673.580
1021.674;   31.790;  -15.190;  559.120
1022.224;   32.346;  -13.530;  708.940
1022.774;   32.278;  -13.280;  668.820
1023.324;   33.227;  -10.690;  753.520
1023.874;   32.901;  -10.240;  875.760
1024.423;   30.833;  -12.540;  613.700
1024.973;   30.875;  -10.010;  610.760
1025.523;   31.116;  -10.550;  620.960
1026.072;   29.217;  -13.560;  606.420
1026.622;   29.381;  -15.120;  675.740
1027.172;   30.730;  -11.260;  715.660
1027.721;   30.181;  -11.410;  601.220
1028.270;   29.694;  -13.530;  663.400
1028.820;   29.559;  -13.680;  638.080
1029.369;   29.649;  -13.520;  612.700
1029.918;   29.598;  -10.980;  649.840
1030.468;   28.696;  -13.530;  564.780
1031.017;   28.859;  -13.170;  634.800
1031.566;   27.910;  -12.200;  608.900
1032.115;   29.062;   -9.960;  694.500
1032.664;   27.297;  -13.210;  596.480
1033.213;   28.804;  -12.500;  735.420
1033.762;   27.722;  -11.910;  635.620
1034.311;   27.320;   -9.640;  677.220
1034.860;   28.081;  -13.310;  691.000
1035.408;   27.275;  -11.830;  722.720
1035.957;   27.881;  -12.000;  719.540
1036.506;   26.597;  -11.690;  530.800
1037.055;   28.616;  -10.990;  844.320
1037.603;   25.995;  -15.120;  664.000
1038.152;   25.388;  -12.450;  534.760
1038.700;   26.234;  -10.560;  585.740
1039.249;   25.154;  -11.080;  681.220
1039.797;   25.932;  -12.540;  633.360
1040.345;   26.141;  -11.920;  705.420
1040.894;   25.389;  -11.410;  625.300
1041.442;   24.978;  -14.320;  632.200
1041.990;   23.858;  -16.240;  559.160
1042.538;   24.235;  -11.680;  536.180
1043.087;   24.440;  -10.760;  570.860
1043.635;   25.482;  -11.850;  670.500
1044.183;   24.026;  -15.480;  586.400
1044.731;   24.024;  -11.770;  576.000
1045.279;   24.208;  -13.090;  674.920
1045.827;   25.324;  -12.440;  892.400
1046.374;   22.667;  -13.840;  515.420
1046.922;   22.653;  -13.220;  590.580
1047.470;   24.859;  -10.230;  691.300
1048.018;   23.105;  -14.590;  647.960
1048.565;   23.700;  -12.050;  708.600
1049.113;   22.589;  -11.650;  557.000
1049.660;   22.582;  -10.510;  629.660
1050.208;   22.957;  -13.310;  675.640
1050.755;   21.836;  -15.900;  606.580
1051.303;   22.871;  -11.430;  686.820
1051.850;   22.214;   -8.480;  635.120
1052.397;   19.825;  -15.010;  473.960
1052.945;   20.785;  -13.960;  617.760
1053.492;   22.490;  -13.150;  741.840
1054.039;   22.313;   -9.630;  720.180
1054.586;   20.790;  -13.680;  557.240
1055.133;   21.792;  -14.570;  693.140
1055.680;   21.440;  -13.820;  646.620
1056.227;   20.915;  -11.730;  542.780
1056.774;   22.498;  -12.480;  794.980
1057.321;   19.256;  -13.930;  523.260
1057.868;   20.248;  -11.690;  651.320
1058.415;   19.997;   -9.520;  651.980
1058.961;   19.999;  -13.160;  678.940
1059.508;   19.857;  -12.920;  643.820
1060.055;   19.512;  -11.920;  581.780
1060.601;   20.991;  -11.500;  624.300
1061.148;   20.140;  -14.330;  616.820
1061.694;   18.667;  -16.870;  592.580
1062.241;   19.187;  -10.330;  596.320
1062.787;   19.745;  -10.620;  663.140
1063.334;   21.333;  -10.110;  808.560
1063.880;   19.139;  -13.400;  668.360
1064.426;   19.847;  -10.680;  706.820
1064.972;   18.082;   -9.920;  601.340
1065.518;   17.824;  -10.980;  566.640
1066.065;   18.440;  -14.890;  624.460
1066.611;   17.381;  -12.870;  598.800
1067.157;   19.296;  -12.950;  641.860
1067.703;   17.841;  -13.540;  668.480
1068.249;   17.913;  -13.540;  605.220
1068.794;   17.668;  -12.600;  626.880
1069.340;   16.408;  -10.620;  578.960
1069.886;   17.337;  -12.830;  590.700
1070.432;   16.095;  -14.870;  541.720
1070.977;   16.817;  -11.980;  601.080
1071.523;   17.555;   -8.200;  573.060
1072.068;   16.951;  -12.330;  582.000
1072.614;   16.136;  -16.370;  527.760
1073.160;   16.951;  -11.100;  687.040
1073.705;   15.955;  -10.480;  572.520
1074.250;   15.656;  -14.520;  559.900
1074.796;   16.475;  -11.460;  655.160
1075.341;   16.676;  -11.950;  664.100
1075.886;   17.042;  -11.460;  594.240
1076.431;   15.654;  -13.770;  649.880
1076.976;   15.337;  -12.680;  639.220
1077.521;   14.925;  -13.170;  583.080
1078.067;   15.215;  -10.860;  579.400
1078.612;   15.641;  -13.920;  661.620
1079.156;   15.156;  -13.880;  601.540
1079.701;   15.235;  -13.120;  693.260
1080.246;   16.018;   -9.940;  696.300
1080.791;   15.142;  -14.740;  625.020
1081.336;   14.377;  -13.750;  659.320
1081.880;   14.922;  -13.400;  649.680
1082.425;   14.779;  -12.220;  573.480
1082.970;   15.589;  -11.610;  717.040
1083.514;   13.284;  -13.580;  597.000
1084.059;   12.862;  -12.810;  586.720
1084.603;   13.663;  -12.320;  565.840
1085.147;   13.738;  -13.190;  645.220
1085.692;   14.606;  -12.480;  716.800
1086.236;   12.718;  -13.020;  503.140
1086.780;   15.694;   -9.190;  751.440
1087.325;   14.041;  -12.480;  654.620
1087.869;   13.708;  -12.450;  610.700
1088.413;   13.681;  -12.240;  705.040
1088.957;   12.881;   -9.020;  543.400
1089.501;   14.269;  -10.320;  766.640
1090.045;   13.547;  -12.720;  726.480
1090.589;   11.294;  -13.690;  569.920
1091.133;   13.237;  -10.020;  673.340
1091.676;   13.116;  -12.330;  591.940
1092.220;   12.037;  -14.970;  600.920
1092.764;   13.306;  -12.430;  706.960
1093.307;   13.380;   -9.800;  673.780
1093.851;   11.204;  -14.970;  556.540
1094.395;   12.329;  -15.310;  683.140
1094.938;   11.552;  -10.370;  632.520
1095.482;   12.250;  -11.050;  559.800
1096.025;   12.881;  -11.840;  710.880
1096.568;   12.420;  -12.840;  779.280
1097.112;   10.040;  -14.700;  508.180
1097.655;   11.762;   -8.720;  603.000
1098.198;   10.801;  -13.610;  600.180
1098.741;   10.446;  -13.350;  612.860
1099.285;   10.913;  -11.230;  657.300
1099.828;   10.356;  -11.840;  439.400
1100.371;   11.115;  -10.840;  608.160
1100.914;   10.320;  -14.190;  682.660
1101.457;   11.159;  -11.240;  679.900
1101.999;    9.606;  -11.270;  584.680
1102.542;    9.975;  -11.480;  641.440
1103.085;   10.024;  -11.750;  658.500
1103.628;   11.461;  -11.400;  762.060
1104.170;   10.375;  -10.490;  588.280
1104.713;   10.079;  -10.600;  646.700
1105.256;    8.746;  -14.360;  557.440
1105.798;    8.979;  -13.210;  499.980
1106.341;   11.027;  -10.270;  728.900
1106.883;    9.314;  -12.200;  521.340
1107.425;    9.210;  -13.110;  668.180
1107.968;    8.608;  -12.840;  612.380
1108.510;   10.136;   -6.480;  684.960
1109.052;    8.112;  -13.940;  612.620
1109.594;    8.107;  -13.690;  554.440
1110.136;    9.341;  -11.880;  643.220
1110.679;    8.824;   -9.500;  633.080
1111.221;    9.177;  -14.160;  604.460
1111.763;    7.829;  -13.980;  559.220
1112.304;    7.677;  -13.880;  547.140
1112.846;    9.375;  -12.210;  666.240
1113.388;   10.985;  -11.390;  942.180
1113.930;    7.831;  -14.540;  694.200
1114.472;    7.483;  -12.640;  606.540
1115.013;    7.185;  -11.620;  551.280
1115.555;    7.279;  -13.640;  587.100
1116.097;    6.172;  -15.380;  579.480
1116.638;    7.987;  -12.640;  684.600
1117.180;    7.593;   -9.850;  667.740
1117.721;    7.090;  -13.690;  568.580
1118.262;    7.826;  -12.680;  677.960
1118.804;    7.740;  -12.530;  637.340
1119.345;    6.123;  -11.690;  578.400
1119.886;    8.267;  -13.380;  704.040
1120.427;    6.460;  -14.070;  589.020
1120.969;    6.106;  -13.500;  597.920
1121.510;    5.527;  -11.480;  563.060
1122.051;    7.343;  -12.830;  723.580
1122.592;    5.920;  -14.290;  655.420
1123.133;    5.148;  -12.400;  547.940
1123.673;    7.462;  -10.130;  706.480
1124.214;    6.287;  -12.930;  612.460
1124.755;    7.058;  -14.380;  639.460
1125.296;    6.234;  -14.000;  627.320
1125.836;    7.106;  -10.070;  691.500
1126.377;    5.448;  -12.640;  599.660
1126.918;    5.724;  -12.960;  614.980
1127.458;    5.538;  -13.350;  622.220
1127.999;    6.257;  -10.750;  656.980
1128.539;    6.200;  -12.350;  694.240
1129.079;    4.830;  -14.860;  632.720
1129.620;    4.106;  -13.840;  558.100
1130.160;    4.679;  -12.330;  539.480
1130.700;    5.827;  -14.530;  640.840
1131.240;    5.661;  -12.530;  643.700
1131.781;    4.641;  -14.450;  619.680
1132.321;    5.274;   -9.790;  599.120
1132.861;    4.097;  -14.860;  564.200
1133.401;    3.580;  -14.290;  593.940
1133.941;    4.273;  -11.750;  626.280
1134.481;    4.586;   -9.920;  597.580
1135.020;    3.621;  -12.290;  609.160
1135.560;    4.385;  -11.650;  674.940
1136.100;    3.679;  -16.270;  501.160
1136.640;    4.016;  -10.890;  510.480
1137.179;    4.280;  -14.180;  537.960
1137.719;    3.593;  -16.250;  605.400
1138.258;    3.836;  -14.230;  587.360
1138.798;    4.410;   -9.090;  663.780
1139.337;    2.916;  -15.130;  482.840
1139.877;    3.397;  -13.680;  642.360
1140.416;    5.810;  -11.320;  878.060
1140.955;    2.656;  -10.860;  535.380
1141.494;    3.577;  -12.920;  669.280
1142.034;    2.619;  -13.930;  583.520
1142.573;    3.567;  -11.440;  646.280
1143.112;    2.951;  -12.000;  553.480
1143.651;    3.392;  -13.670;  536.480
1144.190;    3.139;  -12.730;  691.640
1144.729;    2.560;  -14.560;  607.420
1145.267;    3.191;  -11.830;  584.900
1145.806;    3.325;  -12.230;  637.040
1146.345;    1.259;  -14.130;  635.020
1146.884;    2.801;  -11.590;  622.500
1147.422;    1.730;  -12.550;  533.060
1147.961;    3.875;  -11.180;  708.460
1148.500;    2.647;  -11.510;  669.720
1149.038;    3.003;  -11.640;  632.500
1149.577;    3.290;  -10.130;  698.640
1150.115;    1.172;  -13.970;  452.280
1150.653;    2.374;  -14.520;  607.340
1151.192;    1.979;  -12.810;  552.920
1151.730;    2.411;   -9.100;  652.560
1152.268;    1.410;  -12.220;  589.520
1152.806;    1.262;  -14.140;  571.180
1153.344;    0.466;  -12.350;  577.640
1153.882;    2.111;   -8.980;  600.060
1154.421;    0.471;  -15.190;  470.620
1154.958;    0.666;  -15.210;  595.240
1155.496;    2.531;  -12.850;  645.280
1156.034;    1.628;   -9.940;  721.880
1156.572;    3.031;  -13.570;  667.060
1157.110;    0.151;  -14.590;  473.940
1157.647;    1.138;  -13.030;  676.960
1158.185;    0.397;  -12.140;  564.320
1158.723;    0.642;  -14.390;  509.200
1159.260;    0.113;  -14.090;  701.700
1159.798;    1.120;  -11.920;  658.160
1160.335;    0.986;  -11.110;  631.820

