
Integration time [ms]:   3.276
Averaging Nr. [scans]: 1000
Smoothing Nr. [pixels]: 0
Data measured with spectrometer [name]: 7414430SP
Wave   ;Sample   ;Dark     ;Reference
[nm]   ;[counts] ;[counts] ;[counts] 

288.544;  152.212;    7.793;  793.890
289.143;  156.512;    7.462;  681.602
289.742;  157.237;    8.602;  828.814
290.341;  141.410;    1.321;  789.841
290.940;  130.402;   -0.709;  730.702
291.538;  132.982;    0.881;  881.108
292.137;  132.484;    0.122;  792.581
292.736;  136.353;   -1.929;  975.101
293.335;  132.659;   -8.229;  735.086
293.934;  133.315;   -5.279;  781.677
294.532;  132.059;   -1.369; 1031.958
295.131;  117.352;   -7.641;  834.394
295.730;  117.207;   -8.420;  809.588
296.328;  117.984;   -5.611;  783.442
296.927;  117.952;   -5.781;  779.652
297.525;  118.575;   -6.361;  781.236
298.124;  108.959;  -11.382;  654.009
298.722;  112.904;   -7.641;  761.933
299.321;  110.664;   -6.811;  708.597
299.919;  107.976;   -6.991;  751.918
300.518;  104.784;  -10.362;  689.338
301.116;  107.637;   -9.581;  691.381
301.715;  107.550;   -4.891;  730.222
302.313;  105.198;   -8.801;  704.943
302.911;  101.280;   -8.522;  733.830
303.509;  107.864;   -6.171;  925.627
304.108;  104.437;   -7.311;  760.383
304.706;  102.648;   -8.321;  801.664
305.304;   97.677;  -10.222;  796.707
305.902;  104.161;   -6.021;  784.484
306.500;   99.721;   -4.971;  728.200
307.098;   97.024;   -7.061;  746.560
307.696;   95.333;   -8.801;  780.432
308.294;   96.683;   -6.411;  731.359
308.892;   98.577;   -2.901;  759.769
309.490;   93.801;   -5.041;  712.161
310.088;   91.949;   -5.002;  788.444
310.686;   96.955;   -2.041;  821.749
311.284;   92.615;   -2.351;  766.040
311.882;   90.063;   -4.422;  731.225
312.480;   87.086;   -4.192;  697.167
313.078;   88.731;   -1.172;  808.331
313.675;   89.656;   -2.601;  691.600
314.273;   84.370;   -1.312;  797.837
314.871;   83.676;   -3.942;  589.829
315.468;   81.993;   -2.802;  652.090
316.066;   85.080;   -0.701;  694.427
316.664;   76.913;   -4.362;  656.351
317.261;   81.412;   -2.872;  910.128
317.859;   77.387;   -2.022;  768.735
318.456;   77.411;   -0.531;  830.096
319.054;   73.012;   -3.912;  787.828
319.651;   71.976;   -4.752;  759.928
320.249;   71.908;   -2.602;  810.188
320.846;   69.913;   -0.821;  714.286
321.443;   66.069;   -4.642;  832.135
322.041;   62.827;   -5.002;  812.315
322.638;   61.907;   -3.982;  701.456
323.235;   62.841;   -3.411;  665.683
323.833;   58.777;   -7.361;  740.354
324.430;   54.729;   -8.611;  615.900
325.027;   56.969;   -4.061;  876.855
325.624;   56.503;   -4.031;  644.532
326.221;   52.820;   -7.481;  689.717
326.818;   52.635;   -5.281;  818.332
327.415;   56.580;   -7.460;  748.828
328.012;   55.343;   -5.510;  690.585
328.609;   53.533;   -7.880;  731.389
329.206;   52.046;   -8.331;  778.621
329.803;   52.531;   -5.121;  737.841
330.400;   54.768;   -4.510;  704.260
330.997;   56.025;   -6.441;  817.147
331.594;   54.948;   -8.831;  788.185
332.191;   60.639;   -7.621;  728.722
332.787;   63.253;   -4.591;  844.463
333.384;   61.505;   -7.412;  763.093
333.981;   59.061;   -8.293;  815.687
334.578;   63.574;   -7.052;  708.378
335.174;   67.100;   -3.102;  731.469
335.771;   64.530;   -5.943;  836.456
336.367;   61.270;   -7.393;  710.631
336.964;   65.637;   -4.063;  793.266
337.561;   63.525;   -3.813;  731.112
338.157;   59.606;   -4.654;  911.916
338.754;   56.612;   -7.934;  796.589
339.350;   55.236;   -4.414;  722.493
339.946;   56.600;   -4.664;  773.135
340.543;   48.778;   -6.375;  846.136
341.139;   43.832;   -9.815;  720.836
341.735;   41.848;   -4.526;  772.593
342.332;   39.928;   -4.895;  691.472
342.928;   40.104;   -4.295;  795.394
343.524;   35.062;   -5.476;  761.684
344.120;   31.741;   -5.856;  738.562
344.716;   34.930;   -2.155;  723.717
345.313;   31.500;   -6.275;  795.342
345.909;   26.919;   -8.815;  627.336
346.505;   28.535;   -5.305;  740.247
347.101;   29.634;   -2.674;  827.864
347.697;   28.618;   -4.344;  785.398
348.293;   23.585;   -9.975;  627.244
348.889;   25.043;   -5.774;  745.914
349.485;   24.460;   -5.004;  688.205
350.081;   24.241;   -4.704;  772.592
350.676;   20.137;   -6.635;  691.606
351.272;   24.629;   -4.504;  809.530
351.868;   24.351;   -3.914;  780.497
352.464;   21.165;   -9.044;  723.932
353.059;   17.209;   -8.314;  646.017
353.655;   21.613;   -7.024;  777.063
354.251;   22.010;   -5.343;  759.845
354.846;   16.538;   -8.604;  740.646
355.442;   14.362;   -6.945;  753.071
356.038;   16.886;   -7.564;  751.708
356.633;   17.700;   -5.814;  728.594
357.229;   14.286;   -7.364;  724.757
357.824;   11.790;   -8.024;  703.600
358.420;   12.378;   -9.384;  679.726
359.015;   12.789;   -5.104;  695.357
359.610;   13.630;   -6.854;  763.920
360.206;    7.711;  -10.185;  603.240
360.801;   10.847;   -7.054;  646.503
361.396;   12.797;   -5.034;  725.975
361.992;    7.819;   -8.284;  668.220
362.587;    5.579;   -8.625;  670.160
363.182;    7.399;   -7.674;  689.631
363.777;    8.262;   -5.164;  738.242
364.372;    7.419;   -8.604;  737.314
364.967;    3.999;   -9.055;  680.744
365.563;    8.585;   -6.114;  815.567
366.158;    5.970;   -5.814;  685.161
366.753;    5.657;   -7.854;  649.263
367.348;    4.198;   -7.804;  746.056
367.942;    4.727;   -7.954;  697.298
368.537;    3.852;   -4.984;  754.245
369.132;    3.265;   -8.564;  703.428
369.727;   -0.667;   -8.855;  638.079
370.322;    1.064;   -6.245;  580.186
370.917;    1.158;   -6.425;  710.646
371.511;    2.765;   -6.294;  861.834
372.106;    0.159;   -7.685;  776.964
372.701;   -3.028;   -7.335;  585.988
373.296;    2.433;   -4.564;  863.135
373.890;   -2.180;  -10.235;  647.840
374.485;   -5.002;   -7.885;  691.199
375.079;   -0.126;   -7.324;  738.685
375.674;    1.284;   -3.494;  812.970
376.268;   -3.478;   -8.525;  691.759
376.863;   -9.064;  -10.086;  580.327
377.457;   -2.417;   -7.025;  662.490
378.052;   -4.351;   -3.585;  764.884
378.646;   -5.953;   -7.595;  741.167
379.240;   -5.837;   -8.335;  721.176
379.835;   -4.300;   -5.785;  636.978
380.429;   -6.386;   -4.335;  562.557
381.023;   -7.753;   -6.805;  779.205
381.617;   -9.787;   -9.195;  680.106
382.212;   -5.601;   -6.905;  685.303
382.806;   -5.010;   -3.745;  760.690
383.400;   -9.466;   -7.745;  672.281
383.994;  -10.930;   -9.765;  664.870
384.588;   -5.794;   -6.564;  697.701
385.182;   -4.725;   -5.344;  726.624
385.776;   -6.828;   -8.514;  706.875
386.370;   -9.897;   -9.555;  681.968
386.964;   -8.629;   -8.715;  684.155
387.558;   -7.255;   -6.174;  598.360
388.152;  -10.681;   -8.725;  681.959
388.745;   -8.424;   -7.965;  814.707
389.339;   -6.941;   -5.924;  747.642
389.933;   -5.571;   -5.524;  695.370
390.527;   -7.178;   -7.114;  859.029
391.120;  -13.204;  -10.725;  595.318
391.714;  -10.312;   -8.035;  711.633
392.308;   -6.534;   -3.574;  780.253
392.901;  -10.784;   -7.245;  642.460
393.495;  -12.641;   -9.285;  595.414
394.089;   -9.587;   -5.895;  760.452
394.682;  -11.016;   -4.295;  697.188
395.275;  -12.179;   -9.875;  719.927
395.869;  -12.920;   -8.485;  667.314
396.462;  -11.013;   -7.455;  616.609
397.056;   -7.151;   -5.424;  776.621
397.649;  -11.934;   -6.605;  731.575
398.242;   -9.329;   -8.224;  712.645
398.836;   -7.877;   -7.474;  766.408
399.429;  -10.210;   -7.094;  631.041
400.022;  -13.144;   -9.475;  665.902
400.615;  -10.727;   -7.145;  805.609
401.208;   -8.529;   -7.174;  691.451
401.802;  -10.368;   -5.515;  699.329
402.395;  -11.969;   -9.875;  683.502
402.988;  -12.991;   -8.845;  696.627
403.581;   -9.081;   -8.874;  646.878
404.174;   -7.185;   -5.324;  686.568
404.767;  -10.536;   -9.575;  638.583
405.360;  -12.327;  -10.965;  621.445
405.953;   -6.976;   -8.764;  759.034
406.545;   -6.492;   -7.514;  725.342
407.138;  -11.657;  -10.025;  618.350
407.731;   -9.965;  -10.034;  613.303
408.324;   -5.274;   -9.374;  660.554
408.917;   -6.647;   -6.534;  681.864
409.509;   -8.628;   -8.004;  740.396
410.102;  -10.929;   -9.875;  643.948
410.695;   -4.035;   -8.604;  665.758
411.287;   -5.202;   -6.794;  599.821
411.880;   -6.924;   -9.334;  585.421
412.472;  -10.298;  -10.254;  613.092
413.065;   -6.380;   -6.714;  629.408
413.657;   -4.710;   -7.234;  576.678
414.250;   -4.920;  -10.544;  646.681
414.842;   -6.508;   -9.744;  676.353
415.434;   -3.347;   -6.994;  570.463
416.027;    0.663;   -5.893;  652.196
416.619;   -2.037;   -7.264;  713.400
417.211;   -2.977;  -10.374;  599.352
417.804;    1.490;   -7.993;  628.499
418.396;   -2.289;   -7.234;  607.643
418.988;   -0.289;   -9.443;  659.238
419.580;   -3.842;  -10.724;  568.276
420.172;   -1.429;  -10.323;  536.196
420.764;    2.878;   -8.793;  672.482
421.356;    1.567;  -11.143;  636.898
421.948;    0.454;   -8.293;  677.661
422.540;    6.543;   -7.893;  680.027
423.132;    5.716;   -7.082;  600.641
423.724;    2.113;   -8.653;  561.267
424.316;    3.402;  -10.213;  621.345
424.908;    8.134;   -9.762;  591.517
425.500;    7.957;   -5.572;  647.978
426.092;    8.786;   -8.422;  648.268
426.683;    6.596;   -9.283;  684.836
427.275;   10.757;   -7.852;  641.471
427.867;   11.866;   -5.272;  668.948
428.458;   12.321;   -7.682;  732.344
429.050;   10.795;  -10.612;  680.749
429.642;   13.500;   -9.882;  743.124
430.233;   14.308;   -6.962;  569.356
430.825;   14.271;   -6.842;  724.809
431.416;   12.487;   -9.672;  698.241
432.008;   16.810;   -6.552;  651.723
432.599;   17.328;   -6.891;  656.073
433.190;   13.966;  -10.912;  637.670
433.782;   12.798;  -11.172;  590.395
434.373;   20.723;   -6.061;  884.765
434.964;   19.560;   -8.251;  602.920
435.556;   16.860;   -9.722;  634.537
436.147;   19.518;   -9.082;  758.490
436.738;   20.228;   -8.041;  701.099
437.329;   25.872;   -7.341;  721.723
437.920;   18.378;   -8.162;  666.688
438.511;   17.700;  -11.802;  564.526
439.103;   25.454;  -10.191;  623.998
439.694;   27.151;   -7.601;  681.583
440.285;   27.025;   -8.541;  764.432
440.876;   25.290;   -9.751;  845.738
441.466;   25.591;   -9.401;  575.162
442.057;   31.334;   -7.760;  665.814
442.648;   28.761;   -9.971;  746.255
443.239;   28.131;  -11.001;  620.477
443.830;   32.843;   -7.990;  704.958
444.421;   35.317;   -7.910;  655.474
445.011;   31.010;   -8.131;  693.619
445.602;   30.339;   -7.111;  743.126
446.193;   33.187;  -10.920;  488.117
446.783;   37.269;   -6.500;  640.397
447.374;   31.678;   -8.671;  692.759
447.964;   33.008;  -10.781;  713.770
448.555;   41.845;   -9.650;  822.742
449.145;   38.714;   -8.660;  662.853
449.736;   39.599;   -8.990;  803.179
450.326;   39.107;   -9.500;  713.626
450.917;   44.961;   -8.680;  675.324
451.507;   43.766;   -7.520;  600.661
452.097;   43.636;   -8.590;  746.267
452.688;   44.525;  -11.340;  742.160
453.278;   45.262;  -10.100;  566.840
453.868;   50.033;   -6.019;  793.550
454.458;   47.234;   -9.440;  651.141
455.048;   47.762;  -10.560;  711.783
455.639;   50.328;  -11.799;  567.096
456.229;   53.647;   -6.899;  710.694
456.819;   54.720;   -7.389;  751.158
457.409;   54.991;  -11.119;  773.993
457.999;   58.454;   -9.289;  737.505
458.589;   58.207;   -6.139;  686.606
459.179;   57.374;   -8.729;  717.658
459.769;   55.633;   -9.789;  627.099
460.358;   62.103;  -10.259;  797.262
460.948;   60.971;   -7.299;  689.503
461.538;   62.798;  -10.289;  660.677
462.128;   59.682;  -11.269;  664.934
462.717;   67.939;   -9.368;  710.326
463.307;   70.979;   -7.908;  705.846
463.897;   66.684;   -9.599;  656.942
464.486;   65.064;   -9.769;  837.128
465.076;   70.993;   -8.048;  733.776
465.666;   73.707;   -9.358;  652.900
466.255;   72.109;   -7.919;  785.651
466.845;   70.073;  -11.689;  666.749
467.434;   74.511;   -7.818;  725.873
468.023;   76.106;   -7.678;  658.357
468.613;   72.216;  -10.939;  713.946
469.202;   77.392;  -10.118;  646.507
469.791;   80.674;   -9.108;  737.811
470.381;   83.655;   -6.058;  742.813
470.970;   82.801;  -10.428;  711.099
471.559;   82.930;  -10.268;  733.291
472.148;   87.064;   -8.448;  675.737
472.738;   89.352;   -6.917;  765.466
473.327;   88.623;  -11.978;  637.529
473.916;   88.191;  -11.888;  737.446
474.505;   92.320;   -9.437;  751.703
475.094;   95.546;   -6.747;  806.570
475.683;   95.211;   -9.367;  797.699
476.272;   95.943;  -12.637;  730.632
476.861;   98.632;  -10.027;  706.754
477.449;  105.658;   -8.716;  728.487
478.038;   99.966;   -9.577;  692.513
478.627;  101.399;   -9.718;  714.852
479.216;  108.574;   -8.947;  769.441
479.805;  111.434;   -6.256;  783.375
480.393;  111.260;   -7.937; 1008.945
480.982;  109.258;   -7.717;  874.501
481.571;  116.692;   -9.266;  858.333
482.159;  117.643;   -7.636;  705.386
482.748;  116.451;   -9.667;  821.385
483.336;  121.965;  -10.376;  858.209
483.925;  122.809;   -7.147;  774.373
484.513;  130.308;   -7.996;  758.962
485.102;  126.536;  -10.027;  810.965
485.690;  134.834;  -10.446; 1011.050
486.278;  137.959;   -8.446;  979.329
486.867;  138.267;   -6.356;  809.662
487.455;  140.095;   -9.136;  898.229
488.043;  141.915;  -10.646;  748.361
488.631;  151.191;   -7.456; 1005.079
489.220;  154.735;   -6.636;  908.626
489.808;  155.928;  -11.036;  741.415
490.396;  163.017;  -10.246;  914.645
490.984;  170.584;   -8.556;  830.161
491.572;  181.510;   -5.886;  940.315
492.160;  186.696;   -9.486;  919.081
492.748;  199.513;  -10.976;  884.341
493.336;  224.712;   -8.776; 1019.693
493.924;  254.445;   -5.465;  958.077
494.512;  285.095;   -9.986; 1066.638
495.100;  326.196;  -10.636; 1103.280
495.687;  385.480;  -10.885; 1206.373
496.275;  454.152;   -8.126; 1150.796
496.863;  526.099;  -10.586; 1281.171
497.451;  633.560;  -11.926; 1386.805
498.038;  778.020;  -10.885; 1556.729
498.626;  898.124;   -6.315; 1741.407
499.214; 1066.073;   -7.326; 2016.609
499.801; 1288.807;  -11.906; 2220.633
500.389; 1544.057;  -10.466; 2312.494
500.976; 1873.261;   -5.236; 2744.849
501.564; 2353.883;   -8.936; 3148.565
502.151; 2759.143;  -13.176; 3515.999
502.738; 3221.403;  -10.646; 3971.274
503.326; 3660.132;   -9.525; 4403.796
503.913; 4113.656;  -10.856; 5161.749
504.500; 4533.508;  -11.586; 5986.420
505.088; 4964.516;  -10.336; 6381.201
505.675; 5600.306;   -6.355; 6925.547
506.262; 6343.940;   -9.046; 7619.060
506.849; 7084.665;  -10.416; 8733.969
507.436; 7652.926;  -10.305; 9790.121
508.023; 8311.020;   -5.496; 9985.472
508.610; 8613.161;   -7.856;10434.618
509.197; 9295.944;  -10.097;11198.435
509.784;10771.816;  -10.886;12391.194
510.371;12006.412;   -9.315;13603.713
510.958;12698.258;   -9.936;14426.586
511.545;13383.342;   -9.326;15243.775
512.132;14394.842;  -10.075;15945.876
512.719;15045.069;   -7.796;16340.369
513.305;16331.713;  -10.606;18011.766
513.892;17133.230;  -11.486;19754.971
514.479;18416.664;   -9.126;20967.805
515.066;19928.779;   -6.026;22299.793
515.652;21571.836;   -8.466;22908.660
516.239;23004.428;  -10.886;23798.875
516.825;24027.607;  -11.496;25567.275
517.412;25277.828;   -5.796;28154.959
517.998;26151.727;  -10.506;28344.111
518.585;25943.904;  -10.076;27134.219
519.171;26476.857;   -8.315;27268.576
519.758;28599.869;   -8.596;28964.129
520.344;30883.447;   -8.466;30664.494
520.930;30409.963;  -11.006;32550.605
521.516;31566.303;  -10.495;35422.895
522.103;33564.934;   -5.526;38280.004
522.689;34381.398;   -8.746;37835.117
523.275;33690.676;  -11.376;37288.613
523.861;35008.773;  -11.156;37281.395
524.447;36978.230;   -8.135;37846.949
525.033;36829.523;   -7.896;38321.949
525.619;36894.582;  -12.476;38579.285
526.205;38376.230;   -9.516;40622.875
526.791;41732.789;   -6.926;42258.836
527.377;41481.223;   -8.346;42966.902
527.963;42628.164;   -8.717;42018.949
528.549;41772.883;  -11.016;42476.828
529.135;40532.637;   -8.536;41854.852
529.721;39666.430;   -9.666;41237.711
530.306;38904.621;  -10.066;41259.445
530.892;38203.234;  -11.356;41506.047
531.478;39402.414;   -6.596;43559.613
532.063;43244.582;   -8.836;47695.563
532.649;44591.129;  -10.047;50808.324
533.235;45213.039;   -9.746;51787.500
533.820;45503.813;   -6.566;52145.035
534.406;46640.484;  -10.817;51133.488
534.991;46716.328;   -9.416;49996.805
535.576;45030.047;   -9.036;48882.852
536.162;45705.547;   -6.156;46942.285
536.747;47056.512;  -11.607;45711.746
537.333;49980.961;  -11.787;48510.180
537.918;52641.289;  -12.437;50439.891
538.503;51917.512;   -7.196;50863.711
539.088;48707.563;  -10.556;50906.922
539.673;48839.449;   -8.767;52621.965
540.259;49187.070;  -10.026;52368.094
540.844;46506.625;   -7.416;50879.109
541.429;48355.691;   -9.467;52077.777
542.014;50750.609;   -9.527;52716.695
542.599;49725.551;   -9.946;52363.281
543.184;46465.336;   -7.927;53187.137
543.769;47797.164;   -9.297;54697.605
544.354;47894.070;  -10.127;53913.914
544.938;46279.992;   -9.267;49680.164
545.523;48148.313;   -6.506;47386.277
546.108;51097.809;   -9.787;49151.949
546.693;53411.676;  -11.587;51384.637
547.278;53781.523;  -10.986;51853.254
547.862;50691.492;   -8.206;51173.750
548.447;45642.066;  -10.067;51691.395
549.031;44342.730;   -9.637;52456.703
549.616;49361.496;   -9.926;52714.516
550.201;49220.539;   -6.347;52414.598
550.785;50777.551;   -7.917;52355.059
551.370;50107.492;  -10.867;54589.453
551.954;49710.105;   -9.047;58267.348
552.538;50434.230;   -7.827;59062.176
553.123;48368.871;  -10.287;58115.285
553.707;46267.371;  -12.178;56556.285
554.291;47927.098;   -8.717;56201.668
554.876;51164.625;   -7.457;55335.762
555.460;51539.297;  -10.387;54155.703
556.044;51943.117;   -9.618;53721.484
556.628;49545.730;  -11.567;53731.016
557.212;48088.848;   -8.097;54312.531
557.796;46970.918;  -11.077;53797.773
558.380;47108.465;  -11.108;56145.984
558.964;47273.457;   -9.057;57277.930
559.548;47850.363;   -6.977;56459.641
560.132;45650.867;  -11.457;54434.543
560.716;44156.105;  -11.378;54800.617
561.300;45808.684;   -9.577;57606.945
561.884;47096.785;   -7.127;58972.445
562.467;45046.617;   -7.118;57327.570
563.051;44167.906;  -13.358;54962.434
563.635;45633.824;  -10.178;52594.473
564.219;46613.434;   -7.837;50610.410
564.802;47460.020;  -11.398;49551.180
565.386;46835.172;  -12.788;48370.953
565.969;46145.984;   -9.077;48178.871
566.553;44829.219;   -6.207;49957.305
567.136;45886.559;   -8.568;50369.594
567.720;42385.082;  -11.868;49492.004
568.303;40111.477;   -8.268;50616.352
568.887;39960.426;   -8.698;50727.148
569.470;40386.645;   -6.808;51698.379
570.053;39634.262;  -13.188;52122.078
570.637;36922.469;  -12.037;52536.438
571.220;36489.082;   -8.577;51186.098
571.803;37562.406;   -8.498;51032.762
572.386;40225.871;  -10.498;49609.887
572.969;42876.395;   -9.388;48285.926
573.552;40888.703;   -8.338;47624.285
574.135;38822.934;   -8.518;45498.641
574.718;36261.422;  -13.628;41970.434
575.301;35704.750;  -10.893;41447.137
575.884;35148.078;   -8.158;40923.836
576.467;36439.184;  -10.328;45267.723
577.050;37886.602;  -13.058;48175.543
577.633;38696.012;   -9.458;47729.328
578.216;37733.906;   -8.928;47579.793
578.799;36819.645;   -9.358;47820.996
579.381;35950.648;  -11.388;48115.551
579.964;34098.078;  -11.718;47333.766
580.547;36164.863;   -8.588;46668.969
581.129;36984.250;   -8.859;44466.141
581.712;37655.824;  -10.729;44164.922
582.294;37852.055;  -11.118;46477.855
582.877;37954.574;   -5.218;48244.254
583.459;36377.758;   -8.679;47437.895
584.042;34331.711;  -10.709;46943.219
584.624;34238.227;  -11.669;46792.227
585.206;34111.949;   -8.218;46557.250
585.789;34588.344;  -10.569;45793.773
586.371;36990.703;  -11.859;43836.391
586.953;37750.922;  -10.719;42972.492
587.536;38599.941;   -7.198;42487.211
588.118;38753.855;   -8.720;42086.414
588.700;34709.000;  -10.439;43389.930
589.282;33881.824;   -9.198;43646.039
589.864;34953.422;   -9.199;43438.109
590.446;35806.773;  -11.319;43151.926
591.028;35429.738;  -11.159;42781.867
591.610;34409.453;  -11.779;42839.098
592.192;31850.520;   -7.668;42820.402
592.774;30521.387;  -11.949;40724.277
593.356;29419.367;  -12.129;39874.789
593.937;28392.293;  -10.669;39980.648
594.519;30718.953;   -6.509;42069.633
595.101;32894.918;  -10.849;42976.031
595.683;33067.309;  -11.679;44084.441
596.264;34018.891;   -9.049;43478.797
596.846;33923.309;   -8.849;43803.672
597.427;33488.875;   -9.570;42986.934
598.009;34602.477;  -12.620;42832.219
598.591;34781.531;  -10.039;42580.086
599.172;34198.824;  -10.369;43061.805
599.753;34021.449;   -9.140;41691.469
600.335;35149.938;  -11.430;40692.520
600.916;33494.133;   -9.939;39982.422
601.498;31604.762;   -8.479;40318.617
602.079;30124.357;  -10.920;40670.609
602.660;29855.746;  -11.480;41450.898
603.241;31650.240;  -11.699;41137.738
603.823;30496.229;   -9.579;38868.797
604.404;29752.701;  -10.620;38182.785
604.985;31337.021;  -10.450;38078.047
605.566;31213.150;   -9.129;38056.633
606.147;31278.168;   -7.510;37020.418
606.728;33025.297;  -10.660;37883.359
607.309;31915.338;  -11.740;38748.273
607.890;31779.111;   -9.759;38850.230
608.471;31314.881;   -8.250;37457.918
609.051;30393.986;   -9.240;36066.457
609.632;28981.629;  -12.120;35991.074
610.213;29304.232;   -9.110;37402.641
610.794;30234.148;   -8.030;38383.363
611.374;30287.875;   -8.110;40562.387
611.955;31009.674;  -13.560;38533.727
612.536;32158.504;  -11.400;36951.789
613.116;31635.061;   -8.070;37197.891
613.697;31838.279;  -10.830;38411.125
614.277;30357.240;  -11.641;38673.938
614.858;31385.984;  -13.310;37075.863
615.438;30793.639;   -7.460;35092.906
616.019;28341.277;   -7.601;33666.301
616.599;28478.332;  -12.020;34189.023
617.179;30223.893;  -11.780;36952.047
617.760;31518.400;   -8.570;39582.574
618.340;32264.479;  -11.471;38943.977
618.920;33079.789;  -11.170;37594.156
619.500;33219.313;  -11.071;37866.938
620.080;32382.352;   -7.750;37869.043
620.660;33338.785;  -12.711;36868.617
621.241;35161.438;  -10.211;36352.309
621.821;35635.477;  -10.961;35459.520
622.401;34212.613;   -7.720;35207.414
622.980;33004.867;   -8.981;35980.422
623.560;31573.297;   -9.331;37351.328
624.140;30237.754;   -9.850;34388.582
624.720;25329.391;   -7.451;32368.764
625.300;21877.338;   -9.070;32638.629
625.880;25380.078;  -12.601;34599.035
626.459;29825.119;  -11.751;36831.738
627.039;32831.395;   -9.281;38299.098
627.619;32656.096;   -8.801;38289.574
628.198;30946.938;  -12.071;37220.695
628.778;29758.828;   -9.461;37632.563
629.357;30330.752;   -8.491;38003.012
629.937;30614.006;   -9.721;38402.039
630.516;29991.816;   -9.951;37868.801
631.096;29625.441;  -11.731;35760.410
631.675;32143.057;   -8.572;35225.219
632.254;37561.625;  -11.282;35130.289
632.834;37235.848;  -13.322;35794.570
633.413;35438.996;  -10.301;35788.922
633.992;32502.244;   -8.582;34532.863
634.571;32784.875;   -8.352;33590.113
635.151;35232.000;  -11.912;34943.863
635.730;33879.176;  -10.511;35352.523
636.309;31058.352;   -7.731;35366.605
636.888;28765.191;   -9.952;36165.637
637.467;29300.629;  -11.672;37515.902
638.046;30592.801;   -8.901;39288.695
638.625;33239.270;   -7.912;38279.699
639.204;33189.281;  -10.022;37741.598
639.782;32228.248;  -12.252;38364.551
640.361;28203.770;  -10.041;36740.621
640.940;25431.014;  -11.161;34950.082
641.519;26255.123;   -9.701;34137.398
642.097;29396.635;  -11.271;35654.258
642.676;32276.773;   -8.651;35637.957
643.255;33364.492;   -8.711;36567.074
643.833;32635.621;   -9.581;37809.434
644.412;32767.600;  -13.711;37337.293
644.990;31801.768;  -11.811;37018.531
645.569;31761.008;   -9.411;36518.469
646.147;31366.689;  -10.291;36186.430
646.726;31227.162;  -12.401;36267.688
647.304;31994.637;  -10.411;36647.625
647.882;33448.477;   -9.651;39286.742
648.461;35379.406;   -9.631;39157.703
649.039;33738.250;  -11.881;35412.883
649.617;32539.764;   -9.661;34744.918
650.195;31552.736;   -9.301;35403.098
650.773;30187.273;  -10.511;35053.797
651.352;28178.871;  -11.521;33756.816
651.930;25924.492;  -12.211;31868.773
652.508;24172.539;   -9.171;33121.551
653.086;28028.773;   -9.371;33564.793
653.663;31139.516;  -13.161;34054.668
654.241;29944.678;  -13.031;35693.309
654.819;31373.830;   -9.371;36422.906
655.397;31148.836;  -10.511;38213.484
655.975;30667.330;  -10.371;39507.625
656.553;30215.826;  -10.051;39498.223
657.130;28635.338;  -10.061;40395.480
657.708;27784.824;   -9.561;39242.020
658.286;27854.654;  -11.511;38920.020
658.863;28916.020;  -10.261;40202.898
659.441;32318.221;   -7.531;39677.938
660.018;32595.963;   -9.501;40413.355
660.596;31196.529;  -13.301;39931.414
661.173;32791.699;  -11.211;39604.531
661.750;33236.512;   -9.951;39700.070
662.328;32265.705;   -9.390;39292.809
662.905;31302.184;  -11.330;38235.648
663.482;26976.631;   -9.050;36212.305
664.060;25175.635;   -8.240;35944.945
664.637;28158.098;  -10.050;35170.785
665.214;29431.645;  -11.760;34197.523
665.791;30859.740;  -10.530;34549.520
666.368;30040.186;   -9.690;35118.578
666.945;30598.258;   -9.320;36019.418
667.522;32204.939;  -11.860;36048.438
668.099;31992.180;  -10.770;36243.914
668.676;30679.289;   -6.260;35958.875
669.253;29243.576;   -7.000;37384.730
669.830;29302.818;  -10.190;36779.629
670.407;29367.859;   -9.550;35231.289
670.984;29734.848;   -9.260;35544.270
671.560;30741.496;   -9.280;35466.867
672.137;29663.246;  -11.810;34280.863
672.714;30232.633;  -11.490;34632.863
673.290;31457.756;   -7.740;35135.422
673.867;31662.924;  -10.660;36114.480
674.443;31170.033;  -12.230;36152.859
675.020;29010.201;  -10.450;35327.238
675.596;29918.664;   -9.260;35795.176
676.173;30814.070;  -10.780;35430.355
676.749;30766.736;  -13.690;33549.516
677.326;30545.088;  -11.980;32210.012
677.902;30512.143;   -8.630;32068.871
678.478;29887.666;  -10.730;32583.891
679.054;28871.582;  -10.520;32088.928
679.631;29101.496;  -11.920;30978.848
680.207;30343.248;   -7.490;33160.887
680.783;31757.662;   -9.860;35570.363
681.359;30989.426;  -13.380;36125.184
681.935;30777.477;  -12.480;35240.922
682.511;30663.791;   -7.900;34429.961
683.087;31034.020;   -7.710;34463.680
683.663;30341.004;  -11.480;34648.898
684.239;28858.309;  -14.090;34546.457
684.815;28119.826;   -7.560;35586.375
685.390;28158.416;   -9.910;35821.895
685.966;28667.402;  -11.159;35085.871
686.542;31129.139;  -11.169;34198.230
687.118;33307.809;   -5.959;32847.707
687.693;33627.336;  -10.329;32794.027
688.269;33297.898;  -12.059;33072.367
688.844;31703.811;  -10.909;33141.664
689.420;29963.525;   -8.019;33965.742
689.995;28295.945;   -8.399;34655.523
690.571;26916.422;  -10.949;33576.742
691.146;26839.307;   -9.619;32657.219
691.722;26498.217;   -8.999;32526.979
692.297;26143.014;  -11.589;33014.617
692.872;27512.041;  -11.739;34012.254
693.448;27234.111;  -11.059;34237.434
694.023;26245.354;  -10.139;34142.672
694.598;28299.408;   -9.029;34132.031
695.173;29209.258;  -13.319;34205.250
695.748;28179.826;  -10.169;32882.488
696.323;27789.438;   -8.339;32864.906
696.898;27846.510;   -8.169;33170.004
697.473;28009.629;  -12.309;32432.984
698.048;27338.486;  -10.989;31649.303
698.623;27119.141;   -9.329;30778.141
699.198;28487.303;   -9.849;31140.119
699.773;29808.443;  -12.329;31764.299
700.348;28723.557;  -10.389;31780.816
700.922;28674.201;   -9.269;32046.375
701.497;29575.703;   -9.329;32603.574
702.072;29818.371;  -10.789;34799.871
702.646;28633.170;  -10.839;35793.172
703.221;26607.139;   -9.099;35201.590
703.795;28102.500;  -10.939;34764.527
704.370;28466.605;  -12.859;34307.367
704.944;28840.393;  -11.559;33509.887
705.519;29454.441;   -7.939;31388.584
706.093;30687.576;  -10.499;31340.104
706.668;31115.377;  -11.289;32630.281
707.242;29847.385;  -11.509;32728.779
707.816;28520.064;   -9.639;32947.238
708.390;27033.867;  -11.429;33277.855
708.965;27811.516;  -11.869;33834.336
709.539;28363.859;  -11.689;33709.273
710.113;28225.109;  -10.478;33044.313
710.687;27346.264;  -10.228;31953.992
711.261;25768.221;  -13.698;30505.949
711.835;25720.906;  -13.378;30262.369
712.409;26247.254;   -9.698;31254.447
712.983;28079.049;  -11.898;32754.986
713.557;29272.230;  -15.138;34018.824
714.131;29302.822;  -14.098;34579.625
714.704;28388.662;   -9.958;33890.262
715.278;25786.213;  -10.028;33531.102
715.852;24749.678;  -11.148;33601.660
716.425;25872.133;   -9.068;33515.117
716.999;27106.559;  -10.038;33185.555
717.573;28060.311;   -9.798;33905.996
718.146;28993.238;  -12.378;35199.293
718.720;28886.854;  -11.918;35060.551
719.293;28940.178;   -8.088;34973.230
719.867;32008.287;  -10.888;36394.449
720.440;31638.607;  -11.938;36663.008
721.013;29533.543;  -12.818;35102.426
721.587;27693.738;  -10.298;33985.266
722.160;26429.568;  -10.048;33524.965
722.733;25665.016;  -12.108;32987.043
723.306;26243.588;  -10.818;33066.301
723.880;28020.709;   -8.908;33399.500
724.453;29768.277;   -9.878;33468.297
725.026;28965.168;  -11.188;33816.637
725.599;26448.297;  -11.678;32797.996
726.172;26848.051;   -9.618;33187.434
726.745;28250.227;   -8.258;35136.613
727.318;29616.430;  -12.978;35751.730
727.891;30081.391;  -12.148;35890.430
728.463;29460.912;   -8.968;34822.090
729.036;28100.580;  -10.188;32895.086
729.609;28617.547;  -11.788;31823.225
730.182;25910.160;  -11.788;31445.283
730.754;23457.371;  -10.268;32373.223
731.327;23845.143;   -9.998;33676.820
731.900;24413.152;  -12.228;33417.000
732.472;25092.205;  -13.848;31978.498
733.045;26401.381;   -8.698;30368.777
733.617;26424.629;  -10.607;30574.215
734.190;26812.334;  -11.507;31280.975
734.762;24394.014;  -13.647;31674.412
735.334;22440.850;   -9.767;31247.291
735.907;22894.793;   -9.897;29876.211
736.479;23243.533;  -11.637;29808.488
737.051;22914.191;   -9.567;30233.547
737.623;23348.098;   -8.187;31469.086
738.195;23813.346;  -11.187;31784.225
738.768;26061.846;  -12.337;32120.523
739.340;26831.438;  -12.227;32094.342
739.912;25906.859;  -11.057;31312.680
740.484;24505.861;  -10.207;31946.238
741.056;22893.271;  -10.047;32984.059
741.628;23966.697;  -13.627;33897.715
742.199;26153.506;   -7.177;33213.016
742.771;25071.416;  -10.797;31369.113
743.343;23067.707;  -11.997;31865.473
743.915;22012.688;  -12.867;32388.631
744.487;21887.721;   -7.617;31079.568
745.058;21797.111;   -9.557;30570.107
745.630;22377.531;   -9.877;29970.127
746.201;23601.063;  -14.177;29186.766
746.773;24225.951;   -9.237;28805.723
747.344;24063.516;   -9.847;29591.223
747.916;22261.508;  -11.657;31412.201
748.487;22335.803;  -10.587;32194.898
749.059;23794.014;   -8.707;32533.719
749.630;24641.176;  -10.537;32158.518
750.201;23708.541;  -11.687;30855.395
750.773;21930.580;  -11.647;28622.555
751.344;21685.859;   -7.147;28405.732
751.915;22528.934;   -9.757;28461.551
752.486;22486.059;  -12.427;27842.850
753.057;20636.977;  -12.227;27845.008
753.628;19470.631;  -10.417;27728.107
754.199;20382.664;  -11.767;27381.086
754.770;21522.131;  -11.187;25882.203
755.341;21823.775;  -10.507;25886.184
755.912;21785.994;   -9.387;26050.861
756.483;21214.033;  -10.647;26798.779
757.054;19364.375;  -11.837;27048.238
757.625;17903.461;  -12.716;26294.838
758.195;17867.043;   -9.666;26142.076
758.766;17685.180;   -8.656;26392.234
759.337;18299.535;  -12.856;26334.594
759.907;19827.037;  -13.366;27579.652
760.478;20780.721;   -8.576;28352.770
761.048;20195.572;  -10.526;27325.088
761.619;19004.770;  -11.116;26460.428
762.189;19105.906;  -12.136;26029.826
762.760;20291.643;   -9.456;26430.145
763.330;21335.178;   -7.136;26670.902
763.900;20807.566;  -11.786;26603.021
764.471;18337.387;  -11.546;25542.740
765.041;16825.244;   -8.096;24358.459
765.611;16579.188;   -8.876;23991.297
766.181;16928.121;  -12.196;24470.236
766.751;18122.697;  -11.636;24845.975
767.321;17920.770;  -10.156;24533.633
767.891;15836.217;  -11.766;24916.492
768.461;15251.381;  -14.936;24776.771
769.031;15813.276;  -12.356;24757.988
769.601;17477.879;   -7.526;24181.088
770.171;17546.053;  -10.766;23670.387
770.741;16657.488;  -13.176;22960.045
771.311;16684.771;  -10.616;22917.523
771.880;17199.451;   -9.576;23562.941
772.450;17069.299;  -10.336;24216.500
773.020;17063.840;  -13.516;24140.398
773.589;16365.913;  -13.466;24414.857
774.159;15811.836;   -8.686;23858.717
774.729;15449.913;   -9.476;22942.135
775.298;15025.027;  -13.666;22324.033
775.867;14522.990;  -11.716;21140.313
776.437;14727.480;   -9.906;20838.092
777.006;14536.176;  -12.166;20599.510
777.576;14170.294;  -12.356;20508.809
778.145;14159.139;  -11.646;20732.947
778.714;14266.856;   -8.226;21062.465
779.283;13755.024;   -9.556;20949.664
779.853;13141.091;  -14.116;20508.623
780.422;13412.052;  -11.506;20649.082
780.991;13087.490;   -9.556;21527.520
781.560;11839.885;   -9.095;22632.658
782.129;11585.438;  -12.135;23048.277
782.698;11608.364;  -10.865;23438.555
783.267;11273.039;   -9.335;23267.734
783.836;11236.881;  -11.045;22415.133
784.404;12274.480;  -13.865;20443.152
784.973;12966.024;  -13.095;19699.150
785.542;13047.342;  -11.575;19763.828
786.111;12926.609;   -9.705;20341.408
786.679;12479.452;  -12.105;20207.967
787.248;12203.689;  -12.455;19516.465
787.817;12011.806;  -11.535;18900.363
788.385;11558.100;   -9.765;17879.121
788.954;10890.093;  -14.005;17658.301
789.522;10231.692;  -11.955;17788.879
790.090;10598.399;  -10.135;18118.277
790.659;11205.213;  -10.975;18338.736
791.227;10831.252;  -13.375;18508.615
791.795;11136.063;  -12.375;17898.254
792.364;11376.576;  -10.725;17295.133
792.932;11672.849;   -9.715;16822.051
793.500;12070.245;  -12.675;17040.148
794.068;12376.316;  -13.495;17179.787
794.636;12533.083;  -10.885;16664.246
795.204;11941.952;  -11.045;16524.545
795.772;11918.328;  -13.175;17274.564
796.340;11372.701;  -12.445;17891.002
796.908;11091.120;   -9.735;17648.561
797.476;11024.206;   -9.815;17064.080
798.044;10738.077;  -13.985;16672.777
798.612;10061.641;  -13.115;17023.996
799.180; 9604.328;  -10.185;16561.615
799.747; 9379.754;   -9.055;15962.773
800.315; 9094.445;  -12.385;15296.992
800.883; 8905.146;  -15.035;14801.771
801.450; 9060.189;  -10.365;14534.430
802.018; 9122.536;   -9.855;14173.248
802.585; 9143.168;  -11.905;14029.547
803.153; 9241.130;  -11.585;13836.846
803.720; 9076.739;   -9.095;13567.324
804.287; 8506.900;   -9.135;13360.622
804.855; 7988.158;  -11.604;13681.981
805.422; 7835.530;  -11.794;13536.560
805.989; 7849.828;  -10.734;13355.958
806.556; 8057.509;  -10.444;13747.896
807.124; 8359.782;  -12.764;13987.376
807.691; 8336.595;  -12.964;14038.674
808.258; 8122.440;  -11.134;14120.152
808.825; 7716.109;   -9.854;13860.111
809.392; 7833.406;  -10.504;13268.790
809.959; 7461.262;  -13.054;12680.389
810.526; 6986.442;   -8.294;12427.308
811.093; 6928.341;   -8.394;12030.105
811.659; 7499.952;  -12.304;11653.664
812.226; 8083.140;  -13.944;11637.183
812.793; 7882.750;  -10.484;11611.521
813.360; 7230.182;  -10.144;11885.181
813.926; 6877.486;  -11.684;12770.539
814.493; 6672.659;  -13.644;12677.638
815.060; 6312.325;   -9.724;11974.336
815.626; 6271.617;   -9.854;11594.715
816.193; 6629.424;  -13.254;11579.474
816.759; 6652.290;  -13.204;11666.972
817.325; 6671.790;   -9.434;11325.530
817.892; 7029.600;  -10.134;11105.369
818.458; 7443.779;  -13.474;10843.928
819.024; 7076.345;  -11.854;10714.406
819.591; 6787.385;  -10.244;10469.165
820.157; 6641.228;  -10.704;10235.523
820.723; 6184.417;  -12.324;10847.563
821.289; 5917.186;   -9.444;11040.980
821.855; 5859.129;   -8.374;10357.100
822.421; 5794.808;  -10.234; 9978.918
822.987; 5715.573;  -13.294; 9754.177
823.553; 5351.420;  -10.884;10065.755
824.119; 5146.250;   -8.884;10036.294
824.685; 5273.381;   -6.784;10029.192
825.251; 5420.650;  -12.004;10199.230
825.816; 5393.162;  -11.474; 9820.189
826.382; 5097.887;   -9.174; 9297.248
826.948; 5226.347;   -9.214; 9381.347
827.513; 5642.439;  -10.774; 9450.726
828.079; 5568.425;  -11.924; 9472.444
828.645; 5005.260;  -10.543; 9292.643
829.210; 4813.952;  -10.533; 9065.341
829.776; 4782.467;  -10.753; 9132.620
830.341; 4664.952;  -10.173; 9092.878
830.906; 4814.280;  -10.743; 9078.557
831.472; 5163.050;  -11.113; 8534.535
832.037; 4982.969;  -10.603; 8677.874
832.602; 4447.517;  -13.323; 8628.692
833.167; 4150.957;  -10.823; 8879.031
833.733; 4067.314;  -10.113; 9189.790
834.298; 4201.088;  -13.583; 9052.608
834.863; 4352.743;  -12.703; 8895.087
835.428; 4378.943;  -10.523; 8824.266
835.993; 4251.493;   -6.963; 8845.385
836.558; 4101.209;  -10.763; 8888.563
837.123; 4176.177;   -9.903; 8966.582
837.688; 4424.043;   -9.913; 8617.860
838.253; 4660.825;  -10.283; 8590.699
838.817; 4818.438;  -12.963; 8443.797
839.382; 4727.380;  -14.243; 8799.356
839.947; 4428.737;  -10.733; 8810.595
840.511; 4122.824;   -9.383; 8796.394
841.076; 3751.735;  -12.563; 8347.231
841.641; 3815.108;  -12.953; 8224.330
842.205; 3922.343;   -7.043; 8223.349
842.770; 3951.914;   -8.163; 8622.107
843.334; 4089.078;  -12.503; 8410.386
843.898; 4077.406;  -11.693; 8337.465
844.463; 4084.540;  -10.203; 8506.283
845.027; 3887.819;   -9.533; 8280.962
845.591; 3716.081;  -13.443; 8231.141
846.156; 3709.538;  -13.143; 7969.179
846.720; 3630.863;   -9.433; 7768.278
847.284; 3548.526;  -11.033; 7630.957
847.848; 3417.042;  -10.403; 7472.395
848.412; 3299.093;  -11.553; 7437.394
848.976; 3316.310;   -8.393; 7674.592
849.540; 3244.616;   -8.713; 7836.011
850.104; 3290.847;  -12.463; 7913.669
850.668; 3616.067;  -12.973; 7694.508
851.232; 3768.041;  -10.793; 7756.887
851.796; 3647.491;  -10.662; 7926.545
852.359; 3335.287;  -13.082; 7827.844
852.923; 3155.769;  -12.192; 7641.163
853.487; 3027.249;  -11.912; 7342.501
854.050; 2998.683;  -10.892; 7042.820
854.614; 3102.874;  -13.992; 7151.338
855.177; 3188.188;  -11.732; 7105.077
855.741; 3237.354;   -8.962; 6989.675
856.304; 3166.759;   -9.442; 6596.634
856.868; 3153.355;  -14.192; 6356.272
857.431; 3280.480;  -12.702; 6468.571
857.995; 3430.927;   -9.942; 6373.210
858.558; 3473.716;   -9.112; 6324.448
859.121; 3214.581;  -12.932; 6408.327
859.684; 3023.058;  -13.442; 6347.886
860.247; 3086.105;  -10.632; 6321.264
860.810; 3097.752;  -11.272; 6301.903
861.374; 2862.883;   -9.832; 6607.881
861.937; 2604.368;  -11.762; 6408.200
862.500; 2592.231;   -9.722; 6572.639
863.062; 2732.084;  -10.512; 6387.297
863.625; 2854.944;  -11.232; 6190.836
864.188; 3013.174;  -14.112; 5807.254
864.751; 3116.108;  -11.302; 5682.413
865.314; 3049.901;  -10.112; 5547.492
865.876; 2844.407;  -12.182; 5500.150
866.439; 2816.250;  -10.722; 5415.909
867.002; 2787.541;   -9.252; 5501.567
867.564; 2604.300;   -9.572; 5413.946
868.127; 2382.914;  -13.142; 5160.325
868.689; 2250.977;  -12.902; 5133.183
869.252; 2145.367;   -9.732; 5252.382
869.814; 2049.201;   -9.432; 5297.141
870.377; 2059.817;  -11.552; 5390.919
870.939; 2124.659;   -9.052; 5599.898
871.501; 2190.009;  -10.982; 5248.336
872.063; 2194.046;  -12.292; 4854.235
872.626; 2134.015;  -14.912; 4817.074
873.188; 2134.338;  -13.112; 4987.732
873.750; 2124.893;  -13.442; 4868.651
874.312; 2052.344;   -9.402; 4779.330
874.874; 1978.519;  -11.062; 4866.348
875.436; 1894.632;  -13.931; 4718.887
875.998; 1890.553;   -9.561; 4660.005
876.560; 1926.792;  -11.321; 4462.964
877.122; 1875.142;  -12.221; 4145.042
877.683; 1775.785;  -12.191; 4056.481
878.245; 1691.932;  -12.101; 3950.740
878.807; 1719.113;   -8.971; 4058.958
879.369; 1734.942;  -12.071; 3954.677
879.930; 1645.279;  -14.621; 3941.495
880.492; 1587.691;  -10.311; 4067.014
881.053; 1558.871;  -10.901; 3859.633
881.615; 1463.559;  -14.411; 3776.071
882.176; 1366.257;  -13.761; 3734.750
882.738; 1316.271;   -9.181; 3678.489
883.299; 1290.487;  -11.791; 3405.407
883.860; 1281.476;  -13.121; 3351.106
884.422; 1269.443;  -11.211; 3394.044
884.983; 1230.246;  -10.091; 3166.443
885.544; 1157.273;   -8.461; 3189.802
886.105; 1082.746;  -12.361; 3160.360
886.666; 1025.186;  -14.141; 3093.059
887.227;  974.880;  -11.361; 2941.957
887.788;  916.651;  -11.401; 2974.836
888.349;  849.365;  -13.791; 2721.214
888.910;  844.146;  -13.191; 2696.493
889.471;  847.469;   -9.881; 2560.172
890.032;  825.142;   -9.881; 2558.190
890.593;  795.704;  -10.371; 2567.669
891.153;  768.872;  -13.301; 2460.307
891.714;  727.188;  -11.431; 2372.046
892.275;  692.695;  -11.291; 2309.505
892.835;  656.570;  -11.471; 2382.543
893.396;  606.270;  -11.541; 2295.502
893.956;  550.905;  -11.181; 2162.420
894.517;  510.422;  -11.741; 2125.439
895.077;  502.914;  -11.671; 2086.978
895.638;  507.147;  -11.311; 2126.316
896.198;  483.234;   -9.831; 1838.275
896.758;  440.624;   -8.421; 1892.813
897.319;  409.974;  -12.351; 1792.232
897.879;  393.073;  -13.511; 1762.751
898.439;  369.245;  -12.001; 1661.149
898.999;  343.662;  -10.180; 1781.468
899.559;  332.288;  -12.030; 1703.347
900.119;  326.948;  -15.710; 1537.525
900.679;  325.789;   -8.900; 1638.384
901.239;  310.316;   -8.340; 1527.902
901.799;  299.703;  -13.910; 1456.441
902.359;  292.902;  -13.460; 1357.140
902.919;  287.746;  -11.490; 1331.118
903.479;  274.403;  -12.110; 1317.257
904.038;  253.969;  -11.720; 1262.595
904.598;  239.662;  -13.610; 1152.034
905.158;  237.096;  -11.040; 1240.893
905.717;  230.112;  -10.900; 1233.691
906.277;  219.047;  -15.080; 1217.330
906.836;  209.871;  -13.380; 1222.408
907.396;  202.858;  -10.780; 1193.047
907.955;  194.430;   -8.500; 1182.526
908.515;  189.109;  -12.760; 1099.364
909.074;  182.683;  -11.900; 1092.863
909.633;  178.771;   -8.950; 1069.121
910.192;  174.408;   -8.770; 1196.460
910.752;  168.154;  -12.390; 1029.960
911.311;  163.849;  -13.680; 1009.780
911.870;  162.437;  -12.370;  971.460
912.429;  163.926;  -10.900; 1094.080
912.988;  161.935;  -11.690; 1081.060
913.547;  157.483;  -13.240;  940.380
914.106;  153.973;  -11.990;  999.420
914.665;  149.872;   -9.990;  984.020
915.224;  149.416;  -12.880; 1035.760
915.782;  148.787;  -12.350;  922.560
916.341;  149.429;   -9.110; 1049.840
916.900;  143.957;   -9.270;  925.260
917.458;  142.789;  -13.240;  884.220
918.017;  142.046;  -13.550;  942.600
918.576;  143.641;  -12.320;  904.440
919.134;  141.248;  -11.490;  837.980
919.693;  138.310;  -13.670;  893.060
920.251;  136.634;  -15.470;  876.500
920.809;  137.358;  -11.290;  839.580
921.368;  135.776;  -10.210;  885.360
921.926;  134.347;  -12.140;  842.940
922.484;  134.070;  -13.080;  903.360
923.042;  134.089;  -11.720;  880.340
923.601;  135.722;   -7.480;  998.680
924.159;  134.212;  -11.570;  935.560
924.717;  130.133;  -13.840;  841.080
925.275;  131.233;  -10.640;  903.240
925.833;  129.781;  -11.540;  779.320
926.391;  130.542;  -12.960;  938.380
926.949;  128.924;  -14.130;  857.680
927.506;  130.590;  -11.750;  903.500
928.064;  129.607;  -10.250;  877.580
928.622;  128.892;  -13.030;  880.100
929.180;  129.022;  -13.400;  814.180
929.737;  129.849;  -10.700;  808.540
930.295;  132.790;  -10.070;  928.480
930.853;  134.667;  -11.960;  849.100
931.410;  135.476;  -13.120;  821.120
931.968;  135.191;  -10.770;  940.660
932.525;  134.494;  -10.680;  909.380
933.082;  135.345;  -13.130;  811.440
933.640;  136.461;  -13.210;  925.900
934.197;  134.820;  -11.060;  886.360
934.754;  136.127;   -9.580;  897.780
935.312;  137.308;  -14.000;  863.340
935.869;  142.246;  -10.710; 1012.980
936.426;  142.833;   -9.860;  872.800
936.983;  144.909;   -9.710;  889.020
937.540;  144.020;  -13.990;  838.280
938.097;  142.200;  -14.040;  940.120
938.654;  143.956;  -10.310;  898.860
939.211;  145.344;  -10.560;  952.480
939.768;  148.716;  -13.900;  915.420
940.324;  152.328;  -14.760;  904.200
940.881;  154.437;  -10.370;  878.500
941.438;  154.635;   -8.260; 1021.200
941.995;  150.711;  -12.540;  992.560
942.551;  146.749;  -14.670;  875.620
943.108;  147.446;  -10.450;  937.920
943.664;  150.368;  -10.750;  869.340
944.221;  152.562;  -11.550; 1088.140
944.777;  149.944;  -14.770;  869.680
945.334;  150.794;  -12.820;  884.840
945.890;  152.471;  -10.130;  946.480
946.446;  152.217;  -13.470;  947.020
947.003;  153.929;  -12.120;  964.940
947.559;  157.196;   -9.980; 1063.040
948.115;  157.299;   -9.080; 1026.540
948.671;  155.487;  -10.830;  967.300
949.227;  153.400;  -12.440;  859.560
949.783;  151.835;  -12.910;  858.900
950.339;  152.974;  -10.270;  991.000
950.895;  152.290;  -13.630; 1023.840
951.451;  150.895;  -15.100;  925.280
952.007;  151.553;  -11.330;  998.540
952.563;  150.183;  -10.580;  937.780
953.118;  147.634;  -13.440;  904.940
953.674;  147.264;  -12.710;  935.780
954.230;  148.628;  -10.350;  949.640
954.785;  146.635;   -9.190;  936.640
955.341;  143.214;  -11.200;  998.160
955.897;  141.526;  -16.560;  834.660
956.452;  144.350;  -12.570;  953.840
957.008;  143.617;   -7.970; 1083.640
957.563;  141.227;  -11.940; 1009.540
958.118;  134.922;  -13.450;  877.700
958.674;  136.706;  -12.030;  946.780
959.229;  137.764;   -9.410; 1013.980
959.784;  135.496;  -12.000;  832.400
960.339;  135.039;  -14.780; 1001.280
960.894;  131.873;   -9.860;  963.760
961.449;  128.053;   -9.970;  859.960
962.004;  126.615;  -10.900; 1212.840
962.559;  121.922;  -13.150;  860.140
963.114;  120.507;  -13.740;  742.480
963.669;  119.377;   -9.820;  915.500
964.224;  116.836;  -13.890;  874.340
964.779;  115.964;  -12.600;  828.420
965.334;  118.144;  -10.950; 1017.860
965.888;  116.836;  -11.170;  875.360
966.443;  118.846;  -12.540;  972.380
966.998;  119.526;  -15.780;  819.460
967.552;  119.203;   -9.760;  908.380
968.107;  114.585;   -9.060;  868.300
968.661;  115.586;  -11.950;  922.440
969.216;  115.630;  -12.800;  856.280
969.770;  116.890;  -11.210;  917.200
970.324;  115.607;  -11.610;  923.140
970.879;  111.828;  -11.370;  947.180
971.433;  108.246;  -12.540;  952.720
971.987;  104.963;  -11.320;  895.340
972.541;  101.372;  -10.720;  917.100
973.095;   99.878;   -9.680; 1009.460
973.649;   98.060;  -11.440;  809.480
974.203;   98.607;  -11.210;  829.040
974.757;   98.218;  -10.240;  855.220
975.311;   97.493;  -13.720;  872.600
975.865;   97.767;  -13.770;  881.820
976.419;   96.335;  -11.690;  857.400
976.973;   96.240;   -9.510;  849.620
977.526;   97.134;  -12.620;  949.920
978.080;   95.537;  -12.010;  796.780
978.634;   98.335;  -10.170;  921.320
979.187;   95.719;   -9.020;  905.400
979.741;   93.042;   -9.820; 1018.380
980.294;   88.366;  -14.870;  789.160
980.848;   87.343;  -12.380;  717.220
981.401;   89.174;  -10.350;  816.540
981.955;   90.356;  -13.720;  844.300
982.508;   89.358;  -11.490;  746.340
983.061;   90.111;  -10.000;  915.260
983.615;   87.005;  -11.480;  798.800
984.168;   83.333;  -13.220;  770.080
984.721;   82.485;  -13.960;  880.760
985.274;   82.859;  -10.870;  867.500
985.827;   80.826;   -9.790;  834.220
986.380;   78.290;  -13.120;  721.340
986.933;   77.743;  -12.450;  864.800
987.486;   76.938;  -10.210;  861.920
988.039;   76.089;   -8.430;  863.100
988.591;   73.366;  -10.520;  893.260
989.144;   70.772;  -14.860;  737.260
989.697;   69.978;  -13.080;  758.740
990.250;   70.699;  -10.150;  858.100
990.802;   68.746;  -13.430;  755.860
991.355;   70.112;  -12.750;  974.880
991.907;   68.325;  -12.040;  864.320
992.460;   66.538;  -11.330;  753.760
993.012;   65.105;  -13.610;  749.540
993.565;   63.839;  -13.460;  711.360
994.117;   65.721;   -9.360;  950.780
994.669;   62.336;  -11.300;  701.320
995.221;   60.042;  -13.540;  791.920
995.774;   58.492;  -13.430;  787.580
996.326;   57.854;  -12.520;  740.220
996.878;   57.505;  -10.950;  838.420
997.430;   54.903;  -14.300;  699.860
997.982;   54.270;  -13.760;  750.140
998.534;   54.536;  -11.530;  739.060
999.086;   52.901;  -10.310;  738.220
999.638;   51.333;  -12.530;  661.380
1000.190;   50.254;  -11.840;  699.320
1000.741;   50.780;  -10.260;  742.700
1001.293;   50.435;   -8.860;  686.020
1001.845;   48.482;  -13.700;  676.640
1002.396;   49.120;  -12.100;  743.400
1002.948;   49.109;  -12.760;  737.400
1003.500;   47.277;  -10.380;  723.780
1004.051;   47.072;  -11.900;  907.580
1004.603;   46.343;  -12.250;  791.820
1005.154;   42.974;  -13.210;  608.980
1005.705;   41.424;  -10.950;  723.960
1006.257;   40.250;  -13.880;  707.220
1006.808;   39.558;  -12.840;  685.460
1007.359;   40.494;  -10.570;  763.240
1007.910;   39.524;   -9.620;  646.640
1008.461;   38.187;  -13.630;  732.940
1009.013;   36.892;  -17.200;  588.340
1009.564;   39.674;  -10.200;  793.520
1010.115;   36.703;  -12.570;  597.040
1010.665;   36.072;  -15.150;  602.160
1011.216;   36.745;  -14.480;  667.920
1011.767;   36.408;  -11.340;  697.920
1012.318;   36.211;   -9.780;  736.980
1012.869;   34.662;  -12.380;  679.000
1013.419;   34.001;  -15.560;  603.120
1013.970;   35.273;  -11.010;  666.640
1014.521;   33.919;  -11.610;  620.620
1015.071;   33.441;  -13.450;  670.380
1015.622;   33.022;  -13.870;  635.460
1016.172;   33.809;  -11.610;  596.820
1016.723;   33.083;  -12.120;  614.380
1017.273;   32.240;  -13.620;  604.160
1017.823;   32.635;  -14.140;  650.340
1018.374;   32.268;  -12.800;  611.760
1018.924;   32.315;  -12.340;  716.880
1019.474;   32.075;  -11.410;  718.880
1020.024;   31.077;  -14.770;  657.580
1020.574;   32.972;   -9.780;  726.160
1021.124;   32.221;   -8.560;  673.580
1021.674;   29.605;  -15.190;  559.120
1022.224;   31.837;  -13.530;  708.940
1022.774;   31.721;  -13.280;  668.820
1023.324;   31.716;  -10.690;  753.520
1023.874;   32.076;  -10.240;  875.760
1024.423;   29.788;  -12.540;  613.700
1024.973;   30.550;  -10.010;  610.760
1025.523;   29.022;  -10.550;  620.960
1026.072;   28.079;  -13.560;  606.420
1026.622;   28.688;  -15.120;  675.740
1027.172;   30.665;  -11.260;  715.660
1027.721;   28.426;  -11.410;  601.220
1028.270;   28.083;  -13.530;  663.400
1028.820;   28.225;  -13.680;  638.080
1029.369;   28.853;  -13.520;  612.700
1029.918;   28.435;  -10.980;  649.840
1030.468;   27.750;  -13.530;  564.780
1031.017;   27.964;  -13.170;  634.800
1031.566;   27.419;  -12.200;  608.900
1032.115;   27.492;   -9.960;  694.500
1032.664;   26.508;  -13.210;  596.480
1033.213;   27.571;  -12.500;  735.420
1033.762;   27.209;  -11.910;  635.620
1034.311;   26.866;   -9.640;  677.220
1034.860;   26.629;  -13.310;  691.000
1035.408;   26.322;  -11.830;  722.720
1035.957;   27.986;  -12.000;  719.540
1036.506;   25.090;  -11.690;  530.800
1037.055;   27.175;  -10.990;  844.320
1037.603;   25.327;  -15.120;  664.000
1038.152;   24.528;  -12.450;  534.760
1038.700;   25.233;  -10.560;  585.740
1039.249;   23.694;  -11.080;  681.220
1039.797;   24.252;  -12.540;  633.360
1040.345;   25.302;  -11.920;  705.420
1040.894;   24.837;  -11.410;  625.300
1041.442;   24.086;  -14.320;  632.200
1041.990;   22.347;  -16.240;  559.160
1042.538;   23.728;  -11.680;  536.180
1043.087;   23.246;  -10.760;  570.860
1043.635;   24.059;  -11.850;  670.500
1044.183;   22.125;  -15.480;  586.400
1044.731;   22.947;  -11.770;  576.000
1045.279;   22.535;  -13.090;  674.920
1045.827;   24.254;  -12.440;  892.400
1046.374;   21.761;  -13.840;  515.420
1046.922;   21.927;  -13.220;  590.580
1047.470;   23.358;  -10.230;  691.300
1048.018;   22.365;  -14.590;  647.960
1048.565;   22.472;  -12.050;  708.600
1049.113;   21.608;  -11.650;  557.000
1049.660;   21.866;  -10.510;  629.660
1050.208;   20.969;  -13.310;  675.640
1050.755;   20.827;  -15.900;  606.580
1051.303;   21.992;  -11.430;  686.820
1051.850;   20.681;   -8.480;  635.120
1052.397;   19.198;  -15.010;  473.960
1052.945;   20.156;  -13.960;  617.760
1053.492;   22.103;  -13.150;  741.840
1054.039;   21.496;   -9.630;  720.180
1054.586;   19.816;  -13.680;  557.240
1055.133;   19.909;  -14.570;  693.140
1055.680;   21.147;  -13.820;  646.620
1056.227;   19.124;  -11.730;  542.780
1056.774;   20.362;  -12.480;  794.980
1057.321;   19.207;  -13.930;  523.260
1057.868;   20.072;  -11.690;  651.320
1058.415;   19.477;   -9.520;  651.980
1058.961;   19.355;  -13.160;  678.940
1059.508;   19.203;  -12.920;  643.820
1060.055;   19.253;  -11.920;  581.780
1060.601;   19.468;  -11.500;  624.300
1061.148;   18.079;  -14.330;  616.820
1061.694;   17.816;  -16.870;  592.580
1062.241;   18.500;  -10.330;  596.320
1062.787;   19.058;  -10.620;  663.140
1063.334;   19.687;  -10.110;  808.560
1063.880;   18.189;  -13.400;  668.360
1064.426;   19.442;  -10.680;  706.820
1064.972;   17.739;   -9.920;  601.340
1065.518;   15.861;  -10.980;  566.640
1066.065;   16.977;  -14.890;  624.460
1066.611;   16.747;  -12.870;  598.800
1067.157;   18.477;  -12.950;  641.860
1067.703;   17.078;  -13.540;  668.480
1068.249;   17.259;  -13.540;  605.220
1068.794;   17.658;  -12.600;  626.880
1069.340;   16.159;  -10.620;  578.960
1069.886;   15.871;  -12.830;  590.700
1070.432;   14.832;  -14.870;  541.720
1070.977;   15.913;  -11.980;  601.080
1071.523;   15.958;   -8.200;  573.060
1072.068;   15.181;  -12.330;  582.000
1072.614;   15.414;  -16.370;  527.760
1073.160;   17.133;  -11.100;  687.040
1073.705;   15.342;  -10.480;  572.520
1074.250;   15.095;  -14.520;  559.900
1074.796;   15.708;  -11.460;  655.160
1075.341;   16.262;  -11.950;  664.100
1075.886;   15.832;  -11.460;  594.240
1076.431;   14.541;  -13.770;  649.880
1076.976;   14.219;  -12.680;  639.220
1077.521;   14.493;  -13.170;  583.080
1078.067;   13.506;  -10.860;  579.400
1078.612;   14.583;  -13.920;  661.620
1079.156;   13.507;  -13.880;  601.540
1079.701;   14.672;  -13.120;  693.260
1080.246;   14.997;   -9.940;  696.300
1080.791;   13.516;  -14.740;  625.020
1081.336;   14.282;  -13.750;  659.320
1081.880;   14.513;  -13.400;  649.680
1082.425;   13.895;  -12.220;  573.480
1082.970;   14.209;  -11.610;  717.040
1083.514;   13.454;  -13.580;  597.000
1084.059;   13.288;  -12.810;  586.720
1084.603;   12.672;  -12.320;  565.840
1085.147;   12.698;  -13.190;  645.220
1085.692;   14.462;  -12.480;  716.800
1086.236;   12.500;  -13.020;  503.140
1086.780;   14.692;   -9.190;  751.440
1087.325;   12.291;  -12.480;  654.620
1087.869;   12.394;  -12.450;  610.700
1088.413;   13.554;  -12.240;  705.040
1088.957;   11.512;   -9.020;  543.400
1089.501;   12.796;  -10.320;  766.640
1090.045;   12.694;  -12.720;  726.480
1090.589;   11.127;  -13.690;  569.920
1091.133;   12.137;  -10.020;  673.340
1091.676;   11.321;  -12.330;  591.940
1092.220;   11.069;  -14.970;  600.920
1092.764;   13.164;  -12.430;  706.960
1093.307;   12.127;   -9.800;  673.780
1093.851;   10.423;  -14.970;  556.540
1094.395;   11.402;  -15.310;  683.140
1094.938;   11.612;  -10.370;  632.520
1095.482;   11.180;  -11.050;  559.800
1096.025;   11.268;  -11.840;  710.880
1096.568;   11.618;  -12.840;  779.280
1097.112;    9.561;  -14.700;  508.180
1097.655;   11.617;   -8.720;  603.000
1098.198;    9.291;  -13.610;  600.180
1098.741;    9.285;  -13.350;  612.860
1099.285;   10.938;  -11.230;  657.300
1099.828;    8.851;  -11.840;  439.400
1100.371;    9.367;  -10.840;  608.160
1100.914;    9.578;  -14.190;  682.660
1101.457;   10.707;  -11.240;  679.900
1101.999;    8.955;  -11.270;  584.680
1102.542;    9.596;  -11.480;  641.440
1103.085;    9.118;  -11.750;  658.500
1103.628;   10.162;  -11.400;  762.060
1104.170;    8.731;  -10.490;  588.280
1104.713;    8.020;  -10.600;  646.700
1105.256;    8.113;  -14.360;  557.440
1105.798;    8.109;  -13.210;  499.980
1106.341;    9.697;  -10.270;  728.900
1106.883;    7.890;  -12.200;  521.340
1107.425;    8.348;  -13.110;  668.180
1107.968;    8.705;  -12.840;  612.380
1108.510;    9.219;   -6.480;  684.960
1109.052;    6.800;  -13.940;  612.620
1109.594;    7.160;  -13.690;  554.440
1110.136;    9.116;  -11.880;  643.220
1110.679;    7.683;   -9.500;  633.080
1111.221;    7.524;  -14.160;  604.460
1111.763;    7.163;  -13.980;  559.220
1112.304;    7.491;  -13.880;  547.140
1112.846;    8.083;  -12.210;  666.240
1113.388;   10.223;  -11.390;  942.180
1113.930;    6.257;  -14.540;  694.200
1114.472;    6.721;  -12.640;  606.540
1115.013;    6.358;  -11.620;  551.280
1115.555;    5.512;  -13.640;  587.100
1116.097;    5.250;  -15.380;  579.480
1116.638;    7.127;  -12.640;  684.600
1117.180;    7.970;   -9.850;  667.740
1117.721;    6.453;  -13.690;  568.580
1118.262;    6.822;  -12.680;  677.960
1118.804;    7.434;  -12.530;  637.340
1119.345;    6.234;  -11.690;  578.400
1119.886;    6.747;  -13.380;  704.040
1120.427;    5.046;  -14.070;  589.020
1120.969;    6.343;  -13.500;  597.920
1121.510;    5.978;  -11.480;  563.060
1122.051;    5.736;  -12.830;  723.580
1122.592;    4.448;  -14.290;  655.420
1123.133;    4.811;  -12.400;  547.940
1123.673;    6.646;  -10.130;  706.480
1124.214;    4.863;  -12.930;  612.460
1124.755;    5.414;  -14.380;  639.460
1125.296;    5.799;  -14.000;  627.320
1125.836;    6.299;  -10.070;  691.500
1126.377;    4.053;  -12.640;  599.660
1126.918;    4.986;  -12.960;  614.980
1127.458;    5.076;  -13.350;  622.220
1127.999;    5.994;  -10.750;  656.980
1128.539;    5.076;  -12.350;  694.240
1129.079;    3.153;  -14.860;  632.720
1129.620;    4.820;  -13.840;  558.100
1130.160;    3.570;  -12.330;  539.480
1130.700;    4.387;  -14.530;  640.840
1131.240;    4.788;  -12.530;  643.700
1131.781;    5.026;  -14.450;  619.680
1132.321;    5.009;   -9.790;  599.120
1132.861;    2.400;  -14.860;  564.200
1133.401;    2.718;  -14.290;  593.940
1133.941;    4.569;  -11.750;  626.280
1134.481;    3.538;   -9.920;  597.580
1135.020;    2.574;  -12.290;  609.160
1135.560;    3.285;  -11.650;  674.940
1136.100;    2.526;  -16.270;  501.160
1136.640;    3.616;  -10.890;  510.480
1137.179;    2.508;  -14.180;  537.960
1137.719;    2.675;  -16.250;  605.400
1138.258;    3.594;  -14.230;  587.360
1138.798;    3.786;   -9.090;  663.780
1139.337;    1.798;  -15.130;  482.840
1139.877;    2.968;  -13.680;  642.360
1140.416;    5.575;  -11.320;  878.060
1140.955;    2.860;  -10.860;  535.380
1141.494;    2.617;  -12.920;  669.280
1142.034;    1.291;  -13.930;  583.520
1142.573;    3.947;  -11.440;  646.280
1143.112;    2.033;  -12.000;  553.480
1143.651;    1.763;  -13.670;  536.480
1144.190;    2.043;  -12.730;  691.640
1144.729;    2.855;  -14.560;  607.420
1145.267;    1.967;  -11.830;  584.900
1145.806;    2.281;  -12.230;  637.040
1146.345;    1.257;  -14.130;  635.020
1146.884;    2.263;  -11.590;  622.500
1147.422;    1.315;  -12.550;  533.060
1147.961;    2.457;  -11.180;  708.460
1148.500;    2.221;  -11.510;  669.720
1149.038;    2.516;  -11.640;  632.500
1149.577;    2.508;  -10.130;  698.640
1150.115;   -0.633;  -13.970;  452.280
1150.653;    1.029;  -14.520;  607.340
1151.192;    1.892;  -12.810;  552.920
1151.730;    1.981;   -9.100;  652.560
1152.268;   -0.088;  -12.220;  589.520
1152.806;    0.265;  -14.140;  571.180
1153.344;    0.378;  -12.350;  577.640
1153.882;    0.793;   -8.980;  600.060
1154.421;   -0.280;  -15.190;  470.620
1154.958;   -0.481;  -15.210;  595.240
1155.496;    2.001;  -12.850;  645.280
1156.034;    1.627;   -9.940;  721.880
1156.572;    1.611;  -13.570;  667.060
1157.110;   -0.769;  -14.590;  473.940
1157.647;    1.379;  -13.030;  676.960
1158.185;    0.295;  -12.140;  564.320
1158.723;   -1.061;  -14.390;  509.200
1159.260;   -0.531;  -14.090;  701.700
1159.798;    0.869;  -11.920;  658.160
1160.335;    0.543;  -11.110;  631.820

