
Integration time [ms]:   3.276
Averaging Nr. [scans]: 1000
Smoothing Nr. [pixels]: 0
Data measured with spectrometer [name]: 7414430SP
Wave   ;Sample   ;Dark     ;Reference
[nm]   ;[counts] ;[counts] ;[counts] 

288.544;  156.266;    7.793;  793.890
289.143;  157.922;    7.462;  681.602
289.742;  158.641;    8.602;  828.814
290.341;  146.160;    1.321;  789.841
290.940;  136.515;   -0.709;  730.702
291.538;  137.392;    0.881;  881.108
292.137;  135.901;    0.122;  792.581
292.736;  140.078;   -1.929;  975.101
293.335;  136.981;   -8.229;  735.086
293.934;  135.991;   -5.279;  781.677
294.532;  135.423;   -1.369; 1031.958
295.131;  122.397;   -7.641;  834.394
295.730;  122.630;   -8.420;  809.588
296.328;  121.577;   -5.611;  783.442
296.927;  120.694;   -5.781;  779.652
297.525;  121.320;   -6.361;  781.236
298.124;  111.664;  -11.382;  654.009
298.722;  114.897;   -7.641;  761.933
299.321;  113.993;   -6.811;  708.597
299.919;  112.454;   -6.991;  751.918
300.518;  109.000;  -10.362;  689.338
301.116;  109.123;   -9.581;  691.381
301.715;  109.652;   -4.891;  730.222
302.313;  109.706;   -8.801;  704.943
302.911;  104.144;   -8.522;  733.830
303.509;  108.351;   -6.171;  925.627
304.108;  105.930;   -7.311;  760.383
304.706;  105.847;   -8.321;  801.664
305.304;  101.502;  -10.222;  796.707
305.902;  105.571;   -6.021;  784.484
306.500;  100.828;   -4.971;  728.200
307.098;   99.594;   -7.061;  746.560
307.696;   97.648;   -8.801;  780.432
308.294;   98.607;   -6.411;  731.359
308.892;  100.584;   -2.901;  759.769
309.490;   96.730;   -5.041;  712.161
310.088;   94.198;   -5.002;  788.444
310.686;   98.110;   -2.041;  821.749
311.284;   94.090;   -2.351;  766.040
311.882;   92.445;   -4.422;  731.225
312.480;   88.933;   -4.192;  697.167
313.078;   89.735;   -1.172;  808.331
313.675;   91.259;   -2.601;  691.600
314.273;   85.820;   -1.312;  797.837
314.871;   85.751;   -3.942;  589.829
315.468;   83.124;   -2.802;  652.090
316.066;   85.880;   -0.701;  694.427
316.664;   79.195;   -4.362;  656.351
317.261;   82.871;   -2.872;  910.128
317.859;   77.925;   -2.022;  768.735
318.456;   78.965;   -0.531;  830.096
319.054;   74.528;   -3.912;  787.828
319.651;   73.584;   -4.752;  759.928
320.249;   71.901;   -2.602;  810.188
320.846;   70.039;   -0.821;  714.286
321.443;   67.534;   -4.642;  832.135
322.041;   64.386;   -5.002;  812.315
322.638;   61.366;   -3.982;  701.456
323.235;   63.534;   -3.411;  665.683
323.833;   60.773;   -7.361;  740.354
324.430;   55.975;   -8.611;  615.900
325.027;   55.829;   -4.061;  876.855
325.624;   56.059;   -4.031;  644.532
326.221;   54.623;   -7.481;  689.717
326.818;   53.308;   -5.281;  818.332
327.415;   55.490;   -7.460;  748.828
328.012;   54.500;   -5.510;  690.585
328.609;   53.940;   -7.880;  731.389
329.206;   52.493;   -8.331;  778.621
329.803;   51.805;   -5.121;  737.841
330.400;   55.204;   -4.510;  704.260
330.997;   57.862;   -6.441;  817.147
331.594;   56.556;   -8.831;  788.185
332.191;   59.568;   -7.621;  728.722
332.787;   63.227;   -4.591;  844.463
333.384;   63.070;   -7.412;  763.093
333.981;   61.670;   -8.293;  815.687
334.578;   63.277;   -7.052;  708.378
335.174;   66.193;   -3.102;  731.469
335.771;   66.446;   -5.943;  836.456
336.367;   63.273;   -7.393;  710.631
336.964;   66.478;   -4.063;  793.266
337.561;   64.481;   -3.813;  731.112
338.157;   60.099;   -4.654;  911.916
338.754;   58.855;   -7.934;  796.589
339.350;   57.219;   -4.414;  722.493
339.946;   57.801;   -4.664;  773.135
340.543;   51.525;   -6.375;  846.136
341.139;   45.662;   -9.815;  720.836
341.735;   41.459;   -4.526;  772.593
342.332;   41.145;   -4.895;  691.472
342.928;   42.223;   -4.295;  795.394
343.524;   36.248;   -5.476;  761.684
344.120;   31.071;   -5.856;  738.562
344.716;   35.053;   -2.155;  723.717
345.313;   33.417;   -6.275;  795.342
345.909;   27.791;   -8.815;  627.336
346.505;   29.098;   -5.305;  740.247
347.101;   29.803;   -2.674;  827.864
347.697;   30.511;   -4.344;  785.398
348.293;   25.120;   -9.975;  627.244
348.889;   25.367;   -5.774;  745.914
349.485;   24.669;   -5.004;  688.205
350.081;   26.106;   -4.704;  772.592
350.676;   20.772;   -6.635;  691.606
351.272;   24.423;   -4.504;  809.530
351.868;   24.059;   -3.914;  780.497
352.464;   22.434;   -9.044;  723.932
353.059;   18.684;   -8.314;  646.017
353.655;   21.978;   -7.024;  777.063
354.251;   21.702;   -5.343;  759.845
354.846;   17.052;   -8.604;  740.646
355.442;   14.778;   -6.945;  753.071
356.038;   16.420;   -7.564;  751.708
356.633;   16.406;   -5.814;  728.594
357.229;   15.269;   -7.364;  724.757
357.824;   13.507;   -8.024;  703.600
358.420;   12.157;   -9.384;  679.726
359.015;   13.023;   -5.104;  695.357
359.610;   14.591;   -6.854;  763.920
360.206;    8.485;  -10.185;  603.240
360.801;   11.164;   -7.054;  646.503
361.396;   12.476;   -5.034;  725.975
361.992;    8.831;   -8.284;  668.220
362.587;    5.438;   -8.625;  670.160
363.182;    6.539;   -7.674;  689.631
363.777;    7.663;   -5.164;  738.242
364.372;    8.435;   -8.604;  737.314
364.967;    4.416;   -9.055;  680.744
365.563;    8.005;   -6.114;  815.567
366.158;    5.652;   -5.814;  685.161
366.753;    6.269;   -7.854;  649.263
367.348;    5.037;   -7.804;  746.056
367.942;    3.510;   -7.954;  697.298
368.537;    2.776;   -4.984;  754.245
369.132;    3.892;   -8.564;  703.428
369.727;   -0.573;   -8.855;  638.079
370.322;    0.633;   -6.245;  580.186
370.917;   -0.200;   -6.425;  710.646
371.511;    2.947;   -6.294;  861.834
372.106;    0.243;   -7.685;  776.964
372.701;   -3.175;   -7.335;  585.988
373.296;    2.099;   -4.564;  863.135
373.890;   -2.124;  -10.235;  647.840
374.485;   -3.961;   -7.885;  691.199
375.079;   -0.940;   -7.324;  738.685
375.674;    0.826;   -3.494;  812.970
376.268;   -3.434;   -8.525;  691.759
376.863;   -9.237;  -10.086;  580.327
377.457;   -3.715;   -7.025;  662.490
378.052;   -5.305;   -3.585;  764.884
378.646;   -6.138;   -7.595;  741.167
379.240;   -5.656;   -8.335;  721.176
379.835;   -5.810;   -5.785;  636.978
380.429;   -7.133;   -4.335;  562.557
381.023;   -7.064;   -6.805;  779.205
381.617;   -9.307;   -9.195;  680.106
382.212;   -6.396;   -6.905;  685.303
382.806;   -5.908;   -3.745;  760.690
383.400;   -9.029;   -7.745;  672.281
383.994;  -10.392;   -9.765;  664.870
384.588;   -6.900;   -6.564;  697.701
385.182;   -5.595;   -5.344;  726.624
385.776;   -6.258;   -8.514;  706.875
386.370;  -10.266;   -9.555;  681.968
386.964;   -9.323;   -8.715;  684.155
387.558;   -7.692;   -6.174;  598.360
388.152;  -10.616;   -8.725;  681.959
388.745;   -8.571;   -7.965;  814.707
389.339;   -7.346;   -5.924;  747.642
389.933;   -7.065;   -5.524;  695.370
390.527;   -7.694;   -7.114;  859.029
391.120;  -13.301;  -10.725;  595.318
391.714;  -11.045;   -8.035;  711.633
392.308;   -7.929;   -3.574;  780.253
392.901;  -10.758;   -7.245;  642.460
393.495;  -12.360;   -9.285;  595.414
394.089;  -10.580;   -5.895;  760.452
394.682;  -11.960;   -4.295;  697.188
395.275;  -11.789;   -9.875;  719.927
395.869;  -12.638;   -8.485;  667.314
396.462;  -11.769;   -7.455;  616.609
397.056;   -8.523;   -5.424;  776.621
397.649;  -12.014;   -6.605;  731.575
398.242;  -10.074;   -8.224;  712.645
398.836;   -9.781;   -7.474;  766.408
399.429;  -10.990;   -7.094;  631.041
400.022;  -13.618;   -9.475;  665.902
400.615;  -10.576;   -7.145;  805.609
401.208;   -9.412;   -7.174;  691.451
401.802;  -11.470;   -5.515;  699.329
402.395;  -11.822;   -9.875;  683.502
402.988;  -12.997;   -8.845;  696.627
403.581;  -10.632;   -8.874;  646.878
404.174;   -8.042;   -5.324;  686.568
404.767;  -10.797;   -9.575;  638.583
405.360;  -13.319;  -10.965;  621.445
405.953;   -7.661;   -8.764;  759.034
406.545;   -7.652;   -7.514;  725.342
407.138;  -11.786;  -10.025;  618.350
407.731;   -9.830;  -10.034;  613.303
408.324;   -6.386;   -9.374;  660.554
408.917;   -7.764;   -6.534;  681.864
409.509;   -9.020;   -8.004;  740.396
410.102;  -11.010;   -9.875;  643.948
410.695;   -5.474;   -8.604;  665.758
411.287;   -6.149;   -6.794;  599.821
411.880;   -7.869;   -9.334;  585.421
412.472;  -10.187;  -10.254;  613.092
413.065;   -8.324;   -6.714;  629.408
413.657;   -5.601;   -7.234;  576.678
414.250;   -5.476;  -10.544;  646.681
414.842;   -7.407;   -9.744;  676.353
415.434;   -5.746;   -6.994;  570.463
416.027;   -1.305;   -5.893;  652.196
416.619;   -2.862;   -7.264;  713.400
417.211;   -3.704;  -10.374;  599.352
417.804;   -0.200;   -7.993;  628.499
418.396;   -4.078;   -7.234;  607.643
418.988;   -2.094;   -9.443;  659.238
419.580;   -5.035;  -10.724;  568.276
420.172;   -3.759;  -10.323;  536.196
420.764;    1.129;   -8.793;  672.482
421.356;    0.483;  -11.143;  636.898
421.948;   -0.248;   -8.293;  677.661
422.540;    3.144;   -7.893;  680.027
423.132;    3.374;   -7.082;  600.641
423.724;    1.367;   -8.653;  561.267
424.316;    2.792;  -10.213;  621.345
424.908;    5.972;   -9.762;  591.517
425.500;    6.070;   -5.572;  647.978
426.092;    7.229;   -8.422;  648.268
426.683;    5.991;   -9.283;  684.836
427.275;    8.291;   -7.852;  641.471
427.867;   10.155;   -5.272;  668.948
428.458;   10.954;   -7.682;  732.344
429.050;    9.251;  -10.612;  680.749
429.642;   11.074;   -9.882;  743.124
430.233;   11.157;   -6.962;  569.356
430.825;   13.057;   -6.842;  724.809
431.416;   11.581;   -9.672;  698.241
432.008;   14.558;   -6.552;  651.723
432.599;   14.856;   -6.891;  656.073
433.190;   11.988;  -10.912;  637.670
433.782;   11.682;  -11.172;  590.395
434.373;   18.081;   -6.061;  884.765
434.964;   16.914;   -8.251;  602.920
435.556;   14.766;   -9.722;  634.537
436.147;   17.655;   -9.082;  758.490
436.738;   17.361;   -8.041;  701.099
437.329;   23.207;   -7.341;  721.723
437.920;   15.718;   -8.162;  666.688
438.511;   16.023;  -11.802;  564.526
439.103;   22.416;  -10.191;  623.998
439.694;   24.004;   -7.601;  681.583
440.285;   24.993;   -8.541;  764.432
440.876;   22.830;   -9.751;  845.738
441.466;   22.121;   -9.401;  575.162
442.057;   28.029;   -7.760;  665.814
442.648;   26.883;   -9.971;  746.255
443.239;   25.021;  -11.001;  620.477
443.830;   29.944;   -7.990;  704.958
444.421;   31.738;   -7.910;  655.474
445.011;   28.733;   -8.131;  693.619
445.602;   28.682;   -7.111;  743.126
446.193;   29.796;  -10.920;  488.117
446.783;   34.599;   -6.500;  640.397
447.374;   30.057;   -8.671;  692.759
447.964;   30.835;  -10.781;  713.770
448.555;   38.047;   -9.650;  822.742
449.145;   35.234;   -8.660;  662.853
449.736;   36.752;   -8.990;  803.179
450.326;   36.725;   -9.500;  713.626
450.917;   40.764;   -8.680;  675.324
451.507;   39.780;   -7.520;  600.661
452.097;   40.700;   -8.590;  746.267
452.688;   41.997;  -11.340;  742.160
453.278;   41.128;  -10.100;  566.840
453.868;   45.301;   -6.019;  793.550
454.458;   44.518;   -9.440;  651.141
455.048;   44.561;  -10.560;  711.783
455.639;   45.771;  -11.799;  567.096
456.229;   48.443;   -6.899;  710.694
456.819;   51.583;   -7.389;  751.158
457.409;   51.612;  -11.119;  773.993
457.999;   54.108;   -9.289;  737.505
458.589;   53.322;   -6.139;  686.606
459.179;   54.643;   -8.729;  717.658
459.769;   52.738;   -9.789;  627.099
460.358;   57.052;  -10.259;  797.262
460.948;   56.520;   -7.299;  689.503
461.538;   58.621;  -10.289;  660.677
462.128;   57.522;  -11.269;  664.934
462.717;   63.040;   -9.368;  710.326
463.307;   66.143;   -7.908;  705.846
463.897;   62.615;   -9.599;  656.942
464.486;   61.835;   -9.769;  837.128
465.076;   65.092;   -8.048;  733.776
465.666;   68.949;   -9.358;  652.900
466.255;   67.912;   -7.919;  785.651
466.845;   66.822;  -11.689;  666.749
467.434;   69.911;   -7.818;  725.873
468.023;   70.333;   -7.678;  658.357
468.613;   68.818;  -10.939;  713.946
469.202;   73.378;  -10.118;  646.507
469.791;   76.619;   -9.108;  737.811
470.381;   78.549;   -6.058;  742.813
470.970;   78.285;  -10.428;  711.099
471.559;   78.880;  -10.268;  733.291
472.148;   81.522;   -8.448;  675.737
472.738;   83.575;   -6.917;  765.466
473.327;   83.793;  -11.978;  637.529
473.916;   83.594;  -11.888;  737.446
474.505;   87.232;   -9.437;  751.703
475.094;   90.613;   -6.747;  806.570
475.683;   90.030;   -9.367;  797.699
476.272;   91.350;  -12.637;  730.632
476.861;   93.360;  -10.027;  706.754
477.449;   99.931;   -8.716;  728.487
478.038;   95.707;   -9.577;  692.513
478.627;   96.523;   -9.718;  714.852
479.216;  102.701;   -8.947;  769.441
479.805;  106.222;   -6.256;  783.375
480.393;  106.528;   -7.937; 1008.945
480.982;  106.036;   -7.717;  874.501
481.571;  111.225;   -9.266;  858.333
482.159;  112.144;   -7.636;  705.386
482.748;  112.989;   -9.667;  821.385
483.336;  117.530;  -10.376;  858.209
483.925;  118.101;   -7.147;  774.373
484.513;  125.390;   -7.996;  758.962
485.102;  123.279;  -10.027;  810.965
485.690;  131.340;  -10.446; 1011.050
486.278;  133.090;   -8.446;  979.329
486.867;  134.219;   -6.356;  809.662
487.455;  137.907;   -9.136;  898.229
488.043;  138.262;  -10.646;  748.361
488.631;  148.026;   -7.456; 1005.079
489.220;  151.987;   -6.636;  908.626
489.808;  152.891;  -11.036;  741.415
490.396;  163.005;  -10.246;  914.645
490.984;  170.413;   -8.556;  830.161
491.572;  184.477;   -5.886;  940.315
492.160;  194.150;   -9.486;  919.081
492.748;  207.008;  -10.976;  884.341
493.336;  233.349;   -8.776; 1019.693
493.924;  271.991;   -5.465;  958.077
494.512;  319.442;   -9.986; 1066.638
495.100;  373.425;  -10.636; 1103.280
495.687;  451.961;  -10.885; 1206.373
496.275;  553.768;   -8.126; 1150.796
496.863;  651.993;  -10.586; 1281.171
497.451;  784.924;  -11.926; 1386.805
498.038;  911.447;  -10.885; 1556.729
498.626; 1069.007;   -6.315; 1741.407
499.214; 1322.809;   -7.326; 2016.609
499.801; 1608.473;  -11.906; 2220.633
500.389; 1987.097;  -10.466; 2312.494
500.976; 2327.470;   -5.236; 2744.849
501.564; 2894.840;   -8.936; 3148.565
502.151; 3660.022;  -13.176; 3515.999
502.738; 4112.562;  -10.646; 3971.274
503.326; 4581.363;   -9.525; 4403.796
503.913; 5050.545;  -10.856; 5161.749
504.500; 5602.539;  -11.586; 5986.420
505.088; 6318.229;  -10.336; 6381.201
505.675; 7379.675;   -6.355; 6925.547
506.262; 8035.405;   -9.046; 7619.060
506.849; 8480.526;  -10.416; 8733.969
507.436; 9055.326;  -10.305; 9790.121
508.023; 9519.098;   -5.496; 9985.472
508.610; 9540.698;   -7.856;10434.618
509.197;10618.569;  -10.097;11198.435
509.784;12180.420;  -10.886;12391.194
510.371;13754.927;   -9.315;13603.713
510.958;14995.402;   -9.936;14426.586
511.545;15640.773;   -9.326;15243.775
512.132;15890.918;  -10.075;15945.876
512.719;16434.855;   -7.796;16340.369
513.305;17800.027;  -10.606;18011.766
513.892;19459.959;  -11.486;19754.971
514.479;20841.629;   -9.126;20967.805
515.066;22294.328;   -6.026;22299.793
515.652;22365.145;   -8.466;22908.660
516.239;22811.502;  -10.886;23798.875
516.825;24341.918;  -11.496;25567.275
517.412;25997.076;   -5.796;28154.959
517.998;27278.633;  -10.506;28344.111
518.585;28267.920;  -10.076;27134.219
519.171;27602.020;   -8.315;27268.576
519.758;28248.936;   -8.596;28964.129
520.344;31109.875;   -8.466;30664.494
520.930;30036.553;  -11.006;32550.605
521.516;28045.393;  -10.495;35422.895
522.103;29974.107;   -5.526;38280.004
522.689;32663.582;   -8.746;37835.117
523.275;33822.668;  -11.376;37288.613
523.861;36032.711;  -11.156;37281.395
524.447;35654.621;   -8.135;37846.949
525.033;35774.941;   -7.896;38321.949
525.619;36457.016;  -12.476;38579.285
526.205;36630.402;   -9.516;40622.875
526.791;36010.375;   -6.926;42258.836
527.377;35774.316;   -8.346;42966.902
527.963;37468.637;   -8.717;42018.949
528.549;39008.270;  -11.016;42476.828
529.135;37392.281;   -8.536;41854.852
529.721;37339.160;   -9.666;41237.711
530.306;36053.656;  -10.066;41259.445
530.892;37096.625;  -11.356;41506.047
531.478;39138.219;   -6.596;43559.613
532.063;40944.957;   -8.836;47695.563
532.649;39090.578;  -10.047;50808.324
533.235;39391.426;   -9.746;51787.500
533.820;41572.184;   -6.566;52145.035
534.406;43269.117;  -10.817;51133.488
534.991;45458.957;   -9.416;49996.805
535.576;43927.418;   -9.036;48882.852
536.162;40861.305;   -6.156;46942.285
536.747;41220.359;  -11.607;45711.746
537.333;44115.508;  -11.787;48510.180
537.918;44865.695;  -12.437;50439.891
538.503;44133.719;   -7.196;50863.711
539.088;44659.676;  -10.556;50906.922
539.673;45714.824;   -8.767;52621.965
540.259;42513.027;  -10.026;52368.094
540.844;41654.871;   -7.416;50879.109
541.429;41349.836;   -9.467;52077.777
542.014;40837.664;   -9.527;52716.695
542.599;43906.867;   -9.946;52363.281
543.184;45483.566;   -7.927;53187.137
543.769;45682.969;   -9.297;54697.605
544.354;45862.426;  -10.127;53913.914
544.938;43788.016;   -9.267;49680.164
545.523;41832.754;   -6.506;47386.277
546.108;43478.125;   -9.787;49151.949
546.693;44300.449;  -11.587;51384.637
547.278;44577.133;  -10.986;51853.254
547.862;45108.008;   -8.206;51173.750
548.447;43308.992;  -10.067;51691.395
549.031;42872.895;   -9.637;52456.703
549.616;43508.469;   -9.926;52714.516
550.201;42821.820;   -6.347;52414.598
550.785;43935.375;   -7.917;52355.059
551.370;44829.148;  -10.867;54589.453
551.954;47012.746;   -9.047;58267.348
552.538;46226.184;   -7.827;59062.176
553.123;44065.379;  -10.287;58115.285
553.707;42972.629;  -12.178;56556.285
554.291;40703.328;   -8.717;56201.668
554.876;42096.059;   -7.457;55335.762
555.460;44152.094;  -10.387;54155.703
556.044;45664.195;   -9.618;53721.484
556.628;46106.680;  -11.567;53731.016
557.212;46761.680;   -8.097;54312.531
557.796;48745.723;  -11.077;53797.773
558.380;46965.289;  -11.108;56145.984
558.964;45342.871;   -9.057;57277.930
559.548;42850.543;   -6.977;56459.641
560.132;39443.277;  -11.457;54434.543
560.716;40982.660;  -11.378;54800.617
561.300;43367.754;   -9.577;57606.945
561.884;42068.336;   -7.127;58972.445
562.467;40600.660;   -7.118;57327.570
563.051;39281.523;  -13.358;54962.434
563.635;37335.566;  -10.178;52594.473
564.219;39129.590;   -7.837;50610.410
564.802;42673.027;  -11.398;49551.180
565.386;43302.598;  -12.788;48370.953
565.969;44475.254;   -9.077;48178.871
566.553;43606.133;   -6.207;49957.305
567.136;41899.422;   -8.568;50369.594
567.720;42720.875;  -11.868;49492.004
568.303;43941.547;   -8.268;50616.352
568.887;43351.762;   -8.698;50727.148
569.470;41002.699;   -6.808;51698.379
570.053;38577.059;  -13.188;52122.078
570.637;36337.145;  -12.037;52536.438
571.220;36837.262;   -8.577;51186.098
571.803;37052.402;   -8.498;51032.762
572.386;39104.910;  -10.498;49609.887
572.969;40155.887;   -9.388;48285.926
573.552;40673.754;   -8.338;47624.285
574.135;40225.359;   -8.518;45498.641
574.718;36964.625;  -13.628;41970.434
575.301;37084.930;  -10.893;41447.137
575.884;37205.230;   -8.158;40923.836
576.467;41206.676;  -10.328;45267.723
577.050;41251.961;  -13.058;48175.543
577.633;39681.945;   -9.458;47729.328
578.216;36290.094;   -8.928;47579.793
578.799;34043.898;   -9.358;47820.996
579.381;35523.305;  -11.388;48115.551
579.964;35861.320;  -11.718;47333.766
580.547;34660.047;   -8.588;46668.969
581.129;35392.523;   -8.859;44466.141
581.712;37279.570;  -10.729;44164.922
582.294;36995.336;  -11.118;46477.855
582.877;37663.168;   -5.218;48244.254
583.459;37761.301;   -8.679;47437.895
584.042;39297.152;  -10.709;46943.219
584.624;37598.281;  -11.669;46792.227
585.206;36491.484;   -8.218;46557.250
585.789;37408.191;  -10.569;45793.773
586.371;37788.918;  -11.859;43836.391
586.953;38769.965;  -10.719;42972.492
587.536;40262.047;   -7.198;42487.211
588.118;39401.422;   -8.720;42086.414
588.700;38350.238;  -10.439;43389.930
589.282;35448.273;   -9.198;43646.039
589.864;33135.609;   -9.199;43438.109
590.446;33165.008;  -11.319;43151.926
591.028;32865.387;  -11.159;42781.867
591.610;33028.988;  -11.779;42839.098
592.192;34367.488;   -7.668;42820.402
592.774;33631.789;  -11.949;40724.277
593.356;31654.848;  -12.129;39874.789
593.937;31531.994;  -10.669;39980.648
594.519;34154.480;   -6.509;42069.633
595.101;34325.543;  -10.849;42976.031
595.683;32937.840;  -11.679;44084.441
596.264;32105.988;   -9.049;43478.797
596.846;31910.172;   -8.849;43803.672
597.427;31737.285;   -9.570;42986.934
598.009;33506.660;  -12.620;42832.219
598.591;33485.023;  -10.039;42580.086
599.172;35640.688;  -10.369;43061.805
599.753;38105.902;   -9.140;41691.469
600.335;37521.570;  -11.430;40692.520
600.916;35012.758;   -9.939;39982.422
601.498;31667.053;   -8.479;40318.617
602.079;30944.727;  -10.920;40670.609
602.660;30618.918;  -11.480;41450.898
603.241;31513.613;  -11.699;41137.738
603.823;31969.875;   -9.579;38868.797
604.404;31645.557;  -10.620;38182.785
604.985;34545.285;  -10.450;38078.047
605.566;35504.941;   -9.129;38056.633
606.147;36370.297;   -7.510;37020.418
606.728;35150.910;  -10.660;37883.359
607.309;33163.344;  -11.740;38748.273
607.890;32975.477;   -9.759;38850.230
608.471;31640.336;   -8.250;37457.918
609.051;31679.768;   -9.240;36066.457
609.632;31534.211;  -12.120;35991.074
610.213;31052.627;   -9.110;37402.641
610.794;32213.104;   -8.030;38383.363
611.374;31027.363;   -8.110;40562.387
611.955;30877.965;  -13.560;38533.727
612.536;32010.764;  -11.400;36951.789
613.116;31503.135;   -8.070;37197.891
613.697;32273.256;  -10.830;38411.125
614.277;31943.814;  -11.641;38673.938
614.858;31204.406;  -13.310;37075.863
615.438;31331.584;   -7.460;35092.906
616.019;29329.031;   -7.601;33666.301
616.599;30027.023;  -12.020;34189.023
617.179;29961.426;  -11.780;36952.047
617.760;28702.990;   -8.570;39582.574
618.340;28853.459;  -11.471;38943.977
618.920;29252.258;  -11.170;37594.156
619.500;30361.828;  -11.071;37866.938
620.080;30844.447;   -7.750;37869.043
620.660;31170.494;  -12.711;36868.617
621.241;31974.975;  -10.211;36352.309
621.821;31292.750;  -10.961;35459.520
622.401;31411.840;   -7.720;35207.414
622.980;33415.316;   -8.981;35980.422
623.560;32153.953;   -9.331;37351.328
624.140;27808.148;   -9.850;34388.582
624.720;23735.109;   -7.451;32368.764
625.300;23303.111;   -9.070;32638.629
625.880;27551.295;  -12.601;34599.035
626.459;30901.111;  -11.751;36831.738
627.039;30835.273;   -9.281;38299.098
627.619;29931.383;   -8.801;38289.574
628.198;30073.662;  -12.071;37220.695
628.778;30708.848;   -9.461;37632.563
629.357;31237.596;   -8.491;38003.012
629.937;30866.836;   -9.721;38402.039
630.516;31726.910;   -9.951;37868.801
631.096;33213.348;  -11.731;35760.410
631.675;35674.691;   -8.572;35225.219
632.254;35331.582;  -11.282;35130.289
632.834;33862.641;  -13.322;35794.570
633.413;34663.480;  -10.301;35788.922
633.992;34871.453;   -8.582;34532.863
634.571;35604.770;   -8.352;33590.113
635.151;34833.199;  -11.912;34943.863
635.730;32839.680;  -10.511;35352.523
636.309;32756.766;   -7.731;35366.605
636.888;32132.219;   -9.952;36165.637
637.467;31275.645;  -11.672;37515.902
638.046;29784.070;   -8.901;39288.695
638.625;29098.350;   -7.912;38279.699
639.204;28379.078;  -10.022;37741.598
639.782;29788.975;  -12.252;38364.551
640.361;31901.236;  -10.041;36740.621
640.940;31747.141;  -11.161;34950.082
641.519;31325.643;   -9.701;34137.398
642.097;32472.516;  -11.271;35654.258
642.676;32393.773;   -8.651;35637.957
643.255;31362.828;   -8.711;36567.074
643.833;30988.688;   -9.581;37809.434
644.412;31709.605;  -13.711;37337.293
644.990;33149.141;  -11.811;37018.531
645.569;35943.871;   -9.411;36518.469
646.147;36673.742;  -10.291;36186.430
646.726;34857.684;  -12.401;36267.688
647.304;33263.852;  -10.411;36647.625
647.882;33874.309;   -9.651;39286.742
648.461;33595.969;   -9.631;39157.703
649.039;31205.432;  -11.881;35412.883
649.617;31060.682;   -9.661;34744.918
650.195;31559.652;   -9.301;35403.098
650.773;30751.254;  -10.511;35053.797
651.352;30729.514;  -11.521;33756.816
651.930;29684.732;  -12.211;31868.773
652.508;28695.242;   -9.171;33121.551
653.086;30033.943;   -9.371;33564.793
653.663;32107.338;  -13.161;34054.668
654.241;30894.518;  -13.031;35693.309
654.819;29029.146;   -9.371;36422.906
655.397;29633.256;  -10.511;38213.484
655.975;29908.816;  -10.371;39507.625
656.553;30954.639;  -10.051;39498.223
657.130;31678.369;  -10.061;40395.480
657.708;28576.441;   -9.561;39242.020
658.286;25735.410;  -11.511;38920.020
658.863;25955.545;  -10.261;40202.898
659.441;28800.193;   -7.531;39677.938
660.018;31491.139;   -9.501;40413.355
660.596;32107.355;  -13.301;39931.414
661.173;34596.090;  -11.211;39604.531
661.750;33826.340;   -9.951;39700.070
662.328;31358.842;   -9.390;39292.809
662.905;30003.334;  -11.330;38235.648
663.482;27017.207;   -9.050;36212.305
664.060;24821.262;   -8.240;35944.945
664.637;28923.305;  -10.050;35170.785
665.214;33646.625;  -11.760;34197.523
665.791;32423.707;  -10.530;34549.520
666.368;31965.168;   -9.690;35118.578
666.945;32454.678;   -9.320;36019.418
667.522;33374.582;  -11.860;36048.438
668.099;32507.283;  -10.770;36243.914
668.676;32573.535;   -6.260;35958.875
669.253;34507.621;   -7.000;37384.730
669.830;34733.438;  -10.190;36779.629
670.407;33670.449;   -9.550;35231.289
670.984;33046.625;   -9.260;35544.270
671.560;31426.654;   -9.280;35466.867
672.137;29615.318;  -11.810;34280.863
672.714;29552.875;  -11.490;34632.863
673.290;30421.027;   -7.740;35135.422
673.867;30903.641;  -10.660;36114.480
674.443;30115.482;  -12.230;36152.859
675.020;28495.867;  -10.450;35327.238
675.596;27018.293;   -9.260;35795.176
676.173;27775.199;  -10.780;35430.355
676.749;28443.447;  -13.690;33549.516
677.326;29656.018;  -11.980;32210.012
677.902;27855.963;   -8.630;32068.871
678.478;25954.057;  -10.730;32583.891
679.054;27507.855;  -10.520;32088.928
679.631;28969.098;  -11.920;30978.848
680.207;30126.416;   -7.490;33160.887
680.783;31079.164;   -9.860;35570.363
681.359;31655.678;  -13.380;36125.184
681.935;30719.471;  -12.480;35240.922
682.511;31272.211;   -7.900;34429.961
683.087;31765.150;   -7.710;34463.680
683.663;32392.809;  -11.480;34648.898
684.239;31991.734;  -14.090;34546.457
684.815;33034.953;   -7.560;35586.375
685.390;33175.297;   -9.910;35821.895
685.966;32767.920;  -11.159;35085.871
686.542;33201.293;  -11.169;34198.230
687.118;31623.443;   -5.959;32847.707
687.693;31875.504;  -10.329;32794.027
688.269;31217.418;  -12.059;33072.367
688.844;31858.273;  -10.909;33141.664
689.420;32900.895;   -8.019;33965.742
689.995;29637.811;   -8.399;34655.523
690.571;28725.904;  -10.949;33576.742
691.146;28078.848;   -9.619;32657.219
691.722;26146.258;   -8.999;32526.979
692.297;25225.064;  -11.589;33014.617
692.872;25935.131;  -11.739;34012.254
693.448;26279.449;  -11.059;34237.434
694.023;28178.000;  -10.139;34142.672
694.598;30287.176;   -9.029;34132.031
695.173;30003.059;  -13.319;34205.250
695.748;27434.279;  -10.169;32882.488
696.323;25187.037;   -8.339;32864.906
696.898;24780.156;   -8.169;33170.004
697.473;27724.609;  -12.309;32432.984
698.048;27629.072;  -10.989;31649.303
698.623;26679.699;   -9.329;30778.141
699.198;28017.188;   -9.849;31140.119
699.773;29069.125;  -12.329;31764.299
700.348;28827.988;  -10.389;31780.816
700.922;27112.609;   -9.269;32046.375
701.497;25681.355;   -9.329;32603.574
702.072;27458.381;  -10.789;34799.871
702.646;27436.982;  -10.839;35793.172
703.221;28008.416;   -9.099;35201.590
703.795;28533.082;  -10.939;34764.527
704.370;27106.541;  -12.859;34307.367
704.944;28330.164;  -11.559;33509.887
705.519;29472.229;   -7.939;31388.584
706.093;31527.570;  -10.499;31340.104
706.668;32632.094;  -11.289;32630.281
707.242;31607.914;  -11.509;32728.779
707.816;30093.613;   -9.639;32947.238
708.390;29560.271;  -11.429;33277.855
708.965;30657.650;  -11.869;33834.336
709.539;30790.432;  -11.689;33709.273
710.113;30233.168;  -10.478;33044.313
710.687;27483.703;  -10.228;31953.992
711.261;26669.539;  -13.698;30505.949
711.835;26525.605;  -13.378;30262.369
712.409;26475.744;   -9.698;31254.447
712.983;26265.256;  -11.898;32754.986
713.557;25259.646;  -15.138;34018.824
714.131;26503.846;  -14.098;34579.625
714.704;26321.625;   -9.958;33890.262
715.278;25561.143;  -10.028;33531.102
715.852;24750.012;  -11.148;33601.660
716.425;24263.633;   -9.068;33515.117
716.999;25775.025;  -10.038;33185.555
717.573;26394.713;   -9.798;33905.996
718.146;27450.766;  -12.378;35199.293
718.720;28113.637;  -11.918;35060.551
719.293;27204.527;   -8.088;34973.230
719.867;26238.930;  -10.888;36394.449
720.440;27096.893;  -11.938;36663.008
721.013;29183.141;  -12.818;35102.426
721.587;30668.727;  -10.298;33985.266
722.160;30416.059;  -10.048;33524.965
722.733;28535.809;  -12.108;32987.043
723.306;26250.512;  -10.818;33066.301
723.880;26570.873;   -8.908;33399.500
724.453;25709.701;   -9.878;33468.297
725.026;25613.518;  -11.188;33816.637
725.599;25845.174;  -11.678;32797.996
726.172;25358.379;   -9.618;33187.434
726.745;26300.639;   -8.258;35136.613
727.318;29167.775;  -12.978;35751.730
727.891;31326.189;  -12.148;35890.430
728.463;32577.996;   -8.968;34822.090
729.036;32713.313;  -10.188;32895.086
729.609;30338.166;  -11.788;31823.225
730.182;28632.582;  -11.788;31445.283
730.754;27936.305;  -10.268;32373.223
731.327;27686.342;   -9.998;33676.820
731.900;26837.232;  -12.228;33417.000
732.472;25829.336;  -13.848;31978.498
733.045;25679.701;   -8.698;30368.777
733.617;25224.500;  -10.607;30574.215
734.190;23766.641;  -11.507;31280.975
734.762;23902.791;  -13.647;31674.412
735.334;25135.803;   -9.767;31247.291
735.907;25295.617;   -9.897;29876.211
736.479;23367.043;  -11.637;29808.488
737.051;23030.443;   -9.567;30233.547
737.623;24081.361;   -8.187;31469.086
738.195;25969.723;  -11.187;31784.225
738.768;26329.795;  -12.337;32120.523
739.340;25726.418;  -12.227;32094.342
739.912;25287.125;  -11.057;31312.680
740.484;26168.041;  -10.207;31946.238
741.056;27394.357;  -10.047;32984.059
741.628;26852.152;  -13.627;33897.715
742.199;27289.613;   -7.177;33213.016
742.771;25502.793;  -10.797;31369.113
743.343;23782.781;  -11.997;31865.473
743.915;23787.490;  -12.867;32388.631
744.487;24415.389;   -7.617;31079.568
745.058;25876.975;   -9.557;30570.107
745.630;25678.205;   -9.877;29970.127
746.201;24384.133;  -14.177;29186.766
746.773;24033.895;   -9.237;28805.723
747.344;24273.063;   -9.847;29591.223
747.916;24369.322;  -11.657;31412.201
748.487;23844.516;  -10.587;32194.898
749.059;23583.834;   -8.707;32533.719
749.630;22448.270;  -10.537;32158.518
750.201;22602.211;  -11.687;30855.395
750.773;22722.291;  -11.647;28622.555
751.344;24072.520;   -7.147;28405.732
751.915;24079.961;   -9.757;28461.551
752.486;23552.842;  -12.427;27842.850
753.057;21915.959;  -12.227;27845.008
753.628;21397.898;  -10.417;27728.107
754.199;21472.197;  -11.767;27381.086
754.770;21007.824;  -11.187;25882.203
755.341;20653.086;  -10.507;25886.184
755.912;20969.662;   -9.387;26050.861
756.483;21318.307;  -10.647;26798.779
757.054;20771.313;  -11.837;27048.238
757.625;18935.623;  -12.716;26294.838
758.195;18342.271;   -9.666;26142.076
758.766;19277.107;   -8.656;26392.234
759.337;19096.240;  -12.856;26334.594
759.907;18335.602;  -13.366;27579.652
760.478;17468.156;   -8.576;28352.770
761.048;17902.607;  -10.526;27325.088
761.619;18461.375;  -11.116;26460.428
762.189;18059.293;  -12.136;26029.826
762.760;17970.232;   -9.456;26430.145
763.330;18051.852;   -7.136;26670.902
763.900;17983.559;  -11.786;26603.021
764.471;17354.578;  -11.546;25542.740
765.041;17109.221;   -8.096;24358.459
765.611;17130.021;   -8.876;23991.297
766.181;17053.834;  -12.196;24470.236
766.751;17487.813;  -11.636;24845.975
767.321;17421.576;  -10.156;24533.633
767.891;17154.783;  -11.766;24916.492
768.461;16926.873;  -14.936;24776.771
769.031;16161.248;  -12.356;24757.988
769.601;15853.833;   -7.526;24181.088
770.171;16167.364;  -10.766;23670.387
770.741;16777.699;  -13.176;22960.045
771.311;16372.724;  -10.616;22917.523
771.880;15108.397;   -9.576;23562.941
772.450;14552.188;  -10.336;24216.500
773.020;14715.949;  -13.516;24140.398
773.589;14548.153;  -13.466;24414.857
774.159;14042.268;   -8.686;23858.717
774.729;13452.423;   -9.476;22942.135
775.298;13474.382;  -13.666;22324.033
775.867;13574.708;  -11.716;21140.313
776.437;13050.985;   -9.906;20838.092
777.006;12877.413;  -12.166;20599.510
777.576;13988.116;  -12.356;20508.809
778.145;13333.071;  -11.646;20732.947
778.714;12070.002;   -8.226;21062.465
779.283;11624.709;   -9.556;20949.664
779.853;11462.194;  -14.116;20508.623
780.422;11692.992;  -11.506;20649.082
780.991;12079.589;   -9.556;21527.520
781.560;12579.215;   -9.095;22632.658
782.129;11591.206;  -12.135;23048.277
782.698;10498.858;  -10.865;23438.555
783.267; 9962.928;   -9.335;23267.734
783.836;10205.340;  -11.045;22415.133
784.404;10804.331;  -13.865;20443.152
784.973;11004.496;  -13.095;19699.150
785.542;10947.546;  -11.575;19763.828
786.111;10791.477;   -9.705;20341.408
786.679;10652.790;  -12.105;20207.967
787.248;10398.326;  -12.455;19516.465
787.817;10269.365;  -11.535;18900.363
788.385;10122.405;   -9.765;17879.121
788.954;10002.162;  -14.005;17658.301
789.522; 9883.758;  -11.955;17788.879
790.090; 9135.784;  -10.135;18118.277
790.659; 8437.715;  -10.975;18338.736
791.227; 8533.442;  -13.375;18508.615
791.795; 8867.088;  -12.375;17898.254
792.364; 9009.039;  -10.725;17295.133
792.932; 9303.416;   -9.715;16822.051
793.500; 9197.297;  -12.675;17040.148
794.068; 9506.224;  -13.495;17179.787
794.636; 9640.866;  -10.885;16664.246
795.204; 9367.103;  -11.045;16524.545
795.772; 9383.483;  -13.175;17274.564
796.340; 9230.078;  -12.445;17891.002
796.908; 9437.415;   -9.735;17648.561
797.476; 9769.690;   -9.815;17064.080
798.044; 9510.736;  -13.985;16672.777
798.612; 9157.037;  -13.115;17023.996
799.180; 8504.661;  -10.185;16561.615
799.747; 8230.938;   -9.055;15962.773
800.315; 8502.086;  -12.385;15296.992
800.883; 8024.811;  -15.035;14801.771
801.450; 7419.742;  -10.365;14534.430
802.018; 7233.881;   -9.855;14173.248
802.585; 7259.226;  -11.905;14029.547
803.153; 7479.481;  -11.585;13836.846
803.720; 7303.249;   -9.095;13567.324
804.287; 7229.090;   -9.135;13360.622
804.855; 7427.102;  -11.604;13681.981
805.422; 7797.167;  -11.794;13536.560
805.989; 8081.816;  -10.734;13355.958
806.556; 8120.915;  -10.444;13747.896
807.124; 8488.904;  -12.764;13987.376
807.691; 9033.661;  -12.964;14038.674
808.258; 9118.438;  -11.134;14120.152
808.825; 9123.567;   -9.854;13860.111
809.392; 8759.710;  -10.504;13268.790
809.959; 8075.369;  -13.054;12680.389
810.526; 7412.974;   -8.294;12427.308
811.093; 6837.097;   -8.394;12030.105
811.659; 6661.961;  -12.304;11653.664
812.226; 6827.845;  -13.944;11637.183
812.793; 7207.851;  -10.484;11611.521
813.360; 7337.254;  -10.144;11885.181
813.926; 7342.529;  -11.684;12770.539
814.493; 7262.954;  -13.644;12677.638
815.060; 7127.645;   -9.724;11974.336
815.626; 7285.825;   -9.854;11594.715
816.193; 7370.613;  -13.254;11579.474
816.759; 6774.946;  -13.204;11666.972
817.325; 6342.268;   -9.434;11325.530
817.892; 6224.858;  -10.134;11105.369
818.458; 6386.104;  -13.474;10843.928
819.024; 6825.636;  -11.854;10714.406
819.591; 6913.293;  -10.244;10469.165
820.157; 6707.921;  -10.704;10235.523
820.723; 6713.501;  -12.324;10847.563
821.289; 6613.003;   -9.444;11040.980
821.855; 6632.107;   -8.374;10357.100
822.421; 6933.892;  -10.234; 9978.918
822.987; 6909.128;  -13.294; 9754.177
823.553; 6596.914;  -10.884;10065.755
824.119; 6343.160;   -8.884;10036.294
824.685; 5846.607;   -6.784;10029.192
825.251; 5738.417;  -12.004;10199.230
825.816; 5457.338;  -11.474; 9820.189
826.382; 5237.329;   -9.174; 9297.248
826.948; 5537.208;   -9.214; 9381.347
827.513; 5961.594;  -10.774; 9450.726
828.079; 6017.299;  -11.924; 9472.444
828.645; 5777.508;  -10.543; 9292.643
829.210; 5627.294;  -10.533; 9065.341
829.776; 5536.695;  -10.753; 9132.620
830.341; 5674.363;  -10.173; 9092.878
830.906; 5692.088;  -10.743; 9078.557
831.472; 5448.824;  -11.113; 8534.535
832.037; 5068.947;  -10.603; 8677.874
832.602; 4918.049;  -13.323; 8628.692
833.167; 4684.581;  -10.823; 8879.031
833.733; 4533.563;  -10.113; 9189.790
834.298; 4383.743;  -13.583; 9052.608
834.863; 4546.128;  -12.703; 8895.087
835.428; 4742.836;  -10.523; 8824.266
835.993; 4668.374;   -6.963; 8845.385
836.558; 4632.797;  -10.763; 8888.563
837.123; 4774.461;   -9.903; 8966.582
837.688; 5115.558;   -9.913; 8617.860
838.253; 5152.554;  -10.283; 8590.699
838.817; 4798.382;  -12.963; 8443.797
839.382; 4656.193;  -14.243; 8799.356
839.947; 4777.634;  -10.733; 8810.595
840.511; 4792.360;   -9.383; 8796.394
841.076; 4646.448;  -12.563; 8347.231
841.641; 4479.820;  -12.953; 8224.330
842.205; 4345.505;   -7.043; 8223.349
842.770; 4148.596;   -8.163; 8622.107
843.334; 4299.229;  -12.503; 8410.386
843.898; 4453.229;  -11.693; 8337.465
844.463; 4056.426;  -10.203; 8506.283
845.027; 3773.162;   -9.533; 8280.962
845.591; 3793.114;  -13.443; 8231.141
846.156; 3843.746;  -13.143; 7969.179
846.720; 3691.732;   -9.433; 7768.278
847.284; 3621.837;  -11.033; 7630.957
847.848; 3626.538;  -10.403; 7472.395
848.412; 3461.991;  -11.553; 7437.394
848.976; 3363.010;   -8.393; 7674.592
849.540; 3321.594;   -8.713; 7836.011
850.104; 3300.402;  -12.463; 7913.669
850.668; 3371.636;  -12.973; 7694.508
851.232; 3361.972;  -10.793; 7756.887
851.796; 3393.192;  -10.662; 7926.545
852.359; 3483.595;  -13.082; 7827.844
852.923; 3462.838;  -12.192; 7641.163
853.487; 3457.152;  -11.912; 7342.501
854.050; 3301.199;  -10.892; 7042.820
854.614; 3353.639;  -13.992; 7151.338
855.177; 3447.412;  -11.732; 7105.077
855.741; 3334.569;   -8.962; 6989.675
856.304; 3199.651;   -9.442; 6596.634
856.868; 3084.604;  -14.192; 6356.272
857.431; 3026.305;  -12.702; 6468.571
857.995; 3028.382;   -9.942; 6373.210
858.558; 3115.628;   -9.112; 6324.448
859.121; 3018.047;  -12.932; 6408.327
859.684; 2877.824;  -13.442; 6347.886
860.247; 2828.731;  -10.632; 6321.264
860.810; 2786.750;  -11.272; 6301.903
861.374; 2729.664;   -9.832; 6607.881
861.937; 2658.438;  -11.762; 6408.200
862.500; 2660.460;   -9.722; 6572.639
863.062; 2649.193;  -10.512; 6387.297
863.625; 2644.784;  -11.232; 6190.836
864.188; 2679.872;  -14.112; 5807.254
864.751; 2692.713;  -11.302; 5682.413
865.314; 2579.420;  -10.112; 5547.492
865.876; 2417.178;  -12.182; 5500.150
866.439; 2276.960;  -10.722; 5415.909
867.002; 2186.135;   -9.252; 5501.567
867.564; 2245.941;   -9.572; 5413.946
868.127; 2294.209;  -13.142; 5160.325
868.689; 2375.879;  -12.902; 5133.183
869.252; 2494.377;   -9.732; 5252.382
869.814; 2429.192;   -9.432; 5297.141
870.377; 2329.158;  -11.552; 5390.919
870.939; 2315.823;   -9.052; 5599.898
871.501; 2256.134;  -10.982; 5248.336
872.063; 2145.430;  -12.292; 4854.235
872.626; 2089.925;  -14.912; 4817.074
873.188; 2007.609;  -13.112; 4987.732
873.750; 1981.958;  -13.442; 4868.651
874.312; 1946.785;   -9.402; 4779.330
874.874; 1905.948;  -11.062; 4866.348
875.436; 1803.067;  -13.931; 4718.887
875.998; 1690.664;   -9.561; 4660.005
876.560; 1677.777;  -11.321; 4462.964
877.122; 1741.069;  -12.221; 4145.042
877.683; 1855.979;  -12.191; 4056.481
878.245; 1897.332;  -12.101; 3950.740
878.807; 1917.710;   -8.971; 4058.958
879.369; 1853.570;  -12.071; 3954.677
879.930; 1719.079;  -14.621; 3941.495
880.492; 1633.161;  -10.311; 4067.014
881.053; 1639.732;  -10.901; 3859.633
881.615; 1630.772;  -14.411; 3776.071
882.176; 1553.641;  -13.761; 3734.750
882.738; 1470.348;   -9.181; 3678.489
883.299; 1461.140;  -11.791; 3405.407
883.860; 1474.784;  -13.121; 3351.106
884.422; 1421.235;  -11.211; 3394.044
884.983; 1332.657;  -10.091; 3166.443
885.544; 1287.120;   -8.461; 3189.802
886.105; 1223.087;  -12.361; 3160.360
886.666; 1157.573;  -14.141; 3093.059
887.227; 1127.720;  -11.361; 2941.957
887.788; 1073.680;  -11.401; 2974.836
888.349;  981.016;  -13.791; 2721.214
888.910;  940.881;  -13.191; 2696.493
889.471;  905.594;   -9.881; 2560.172
890.032;  912.275;   -9.881; 2558.190
890.593;  903.345;  -10.371; 2567.669
891.153;  814.684;  -13.301; 2460.307
891.714;  702.417;  -11.431; 2372.046
892.275;  656.917;  -11.291; 2309.505
892.835;  668.470;  -11.471; 2382.543
893.396;  659.309;  -11.541; 2295.502
893.956;  631.098;  -11.181; 2162.420
894.517;  590.565;  -11.741; 2125.439
895.077;  537.057;  -11.671; 2086.978
895.638;  499.029;  -11.311; 2126.316
896.198;  484.042;   -9.831; 1838.275
896.758;  470.096;   -8.421; 1892.813
897.319;  448.261;  -12.351; 1792.232
897.879;  427.948;  -13.511; 1762.751
898.439;  395.686;  -12.001; 1661.149
898.999;  373.832;  -10.180; 1781.468
899.559;  369.407;  -12.030; 1703.347
900.119;  361.193;  -15.710; 1537.525
900.679;  346.557;   -8.900; 1638.384
901.239;  327.074;   -8.340; 1527.902
901.799;  299.691;  -13.910; 1456.441
902.359;  278.168;  -13.460; 1357.140
902.919;  268.981;  -11.490; 1331.118
903.479;  268.853;  -12.110; 1317.257
904.038;  263.919;  -11.720; 1262.595
904.598;  255.445;  -13.610; 1152.034
905.158;  243.983;  -11.040; 1240.893
905.717;  229.028;  -10.900; 1233.691
906.277;  220.099;  -15.080; 1217.330
906.836;  217.849;  -13.380; 1222.408
907.396;  213.750;  -10.780; 1193.047
907.955;  207.418;   -8.500; 1182.526
908.515;  202.459;  -12.760; 1099.364
909.074;  200.995;  -11.900; 1092.863
909.633;  199.391;   -8.950; 1069.121
910.192;  197.683;   -8.770; 1196.460
910.752;  187.633;  -12.390; 1029.960
911.311;  177.942;  -13.680; 1009.780
911.870;  168.502;  -12.370;  971.460
912.429;  163.093;  -10.900; 1094.080
912.988;  161.467;  -11.690; 1081.060
913.547;  157.619;  -13.240;  940.380
914.106;  156.317;  -11.990;  999.420
914.665;  155.248;   -9.990;  984.020
915.224;  152.948;  -12.880; 1035.760
915.782;  150.579;  -12.350;  922.560
916.341;  149.897;   -9.110; 1049.840
916.900;  146.758;   -9.270;  925.260
917.458;  146.224;  -13.240;  884.220
918.017;  144.814;  -13.550;  942.600
918.576;  141.933;  -12.320;  904.440
919.134;  141.159;  -11.490;  837.980
919.693;  138.453;  -13.670;  893.060
920.251;  138.454;  -15.470;  876.500
920.809;  137.166;  -11.290;  839.580
921.368;  137.541;  -10.210;  885.360
921.926;  135.603;  -12.140;  842.940
922.484;  132.571;  -13.080;  903.360
923.042;  131.677;  -11.720;  880.340
923.601;  131.678;   -7.480;  998.680
924.159;  130.272;  -11.570;  935.560
924.717;  127.993;  -13.840;  841.080
925.275;  127.570;  -10.640;  903.240
925.833;  126.992;  -11.540;  779.320
926.391;  128.543;  -12.960;  938.380
926.949;  128.522;  -14.130;  857.680
927.506;  127.190;  -11.750;  903.500
928.064;  126.937;  -10.250;  877.580
928.622;  128.454;  -13.030;  880.100
929.180;  130.747;  -13.400;  814.180
929.737;  132.348;  -10.700;  808.540
930.295;  134.840;  -10.070;  928.480
930.853;  134.874;  -11.960;  849.100
931.410;  135.744;  -13.120;  821.120
931.968;  137.160;  -10.770;  940.660
932.525;  138.072;  -10.680;  909.380
933.082;  138.628;  -13.130;  811.440
933.640;  138.595;  -13.210;  925.900
934.197;  137.100;  -11.060;  886.360
934.754;  137.540;   -9.580;  897.780
935.312;  138.845;  -14.000;  863.340
935.869;  140.774;  -10.710; 1012.980
936.426;  138.098;   -9.860;  872.800
936.983;  138.859;   -9.710;  889.020
937.540;  140.283;  -13.990;  838.280
938.097;  145.395;  -14.040;  940.120
938.654;  147.371;  -10.310;  898.860
939.211;  148.195;  -10.560;  952.480
939.768;  148.187;  -13.900;  915.420
940.324;  150.925;  -14.760;  904.200
940.881;  153.417;  -10.370;  878.500
941.438;  157.792;   -8.260; 1021.200
941.995;  156.104;  -12.540;  992.560
942.551;  156.133;  -14.670;  875.620
943.108;  155.868;  -10.450;  937.920
943.664;  156.725;  -10.750;  869.340
944.221;  162.089;  -11.550; 1088.140
944.777;  161.799;  -14.770;  869.680
945.334;  159.449;  -12.820;  884.840
945.890;  155.086;  -10.130;  946.480
946.446;  152.213;  -13.470;  947.020
947.003;  153.419;  -12.120;  964.940
947.559;  152.877;   -9.980; 1063.040
948.115;  150.319;   -9.080; 1026.540
948.671;  148.463;  -10.830;  967.300
949.227;  146.959;  -12.440;  859.560
949.783;  147.236;  -12.910;  858.900
950.339;  150.806;  -10.270;  991.000
950.895;  152.755;  -13.630; 1023.840
951.451;  150.939;  -15.100;  925.280
952.007;  148.827;  -11.330;  998.540
952.563;  145.073;  -10.580;  937.780
953.118;  142.549;  -13.440;  904.940
953.674;  142.742;  -12.710;  935.780
954.230;  144.164;  -10.350;  949.640
954.785;  147.167;   -9.190;  936.640
955.341;  150.141;  -11.200;  998.160
955.897;  144.202;  -16.560;  834.660
956.452;  142.523;  -12.570;  953.840
957.008;  140.104;   -7.970; 1083.640
957.563;  136.233;  -11.940; 1009.540
958.118;  131.622;  -13.450;  877.700
958.674;  130.579;  -12.030;  946.780
959.229;  131.065;   -9.410; 1013.980
959.784;  131.776;  -12.000;  832.400
960.339;  132.267;  -14.780; 1001.280
960.894;  129.171;   -9.860;  963.760
961.449;  126.205;   -9.970;  859.960
962.004;  127.456;  -10.900; 1212.840
962.559;  124.182;  -13.150;  860.140
963.114;  122.099;  -13.740;  742.480
963.669;  121.586;   -9.820;  915.500
964.224;  120.414;  -13.890;  874.340
964.779;  120.641;  -12.600;  828.420
965.334;  121.363;  -10.950; 1017.860
965.888;  120.218;  -11.170;  875.360
966.443;  119.902;  -12.540;  972.380
966.998;  117.291;  -15.780;  819.460
967.552;  115.888;   -9.760;  908.380
968.107;  113.903;   -9.060;  868.300
968.661;  114.505;  -11.950;  922.440
969.216;  111.290;  -12.800;  856.280
969.770;  109.024;  -11.210;  917.200
970.324;  108.768;  -11.610;  923.140
970.879;  109.848;  -11.370;  947.180
971.433;  112.041;  -12.540;  952.720
971.987;  110.207;  -11.320;  895.340
972.541;  108.121;  -10.720;  917.100
973.095;  107.621;   -9.680; 1009.460
973.649;  105.004;  -11.440;  809.480
974.203;  102.512;  -11.210;  829.040
974.757;  102.270;  -10.240;  855.220
975.311;  101.605;  -13.720;  872.600
975.865;  101.557;  -13.770;  881.820
976.419;   97.959;  -11.690;  857.400
976.973;   96.439;   -9.510;  849.620
977.526;   95.316;  -12.620;  949.920
978.080;   93.815;  -12.010;  796.780
978.634;   92.966;  -10.170;  921.320
979.187;   92.379;   -9.020;  905.400
979.741;   93.819;   -9.820; 1018.380
980.294;   92.140;  -14.870;  789.160
980.848;   90.217;  -12.380;  717.220
981.401;   91.181;  -10.350;  816.540
981.955;   90.398;  -13.720;  844.300
982.508;   86.596;  -11.490;  746.340
983.061;   85.185;  -10.000;  915.260
983.615;   83.698;  -11.480;  798.800
984.168;   83.394;  -13.220;  770.080
984.721;   81.486;  -13.960;  880.760
985.274;   79.527;  -10.870;  867.500
985.827;   78.094;   -9.790;  834.220
986.380;   75.752;  -13.120;  721.340
986.933;   75.920;  -12.450;  864.800
987.486;   74.002;  -10.210;  861.920
988.039;   75.068;   -8.430;  863.100
988.591;   73.668;  -10.520;  893.260
989.144;   71.281;  -14.860;  737.260
989.697;   70.008;  -13.080;  758.740
990.250;   70.141;  -10.150;  858.100
990.802;   68.080;  -13.430;  755.860
991.355;   67.470;  -12.750;  974.880
991.907;   65.687;  -12.040;  864.320
992.460;   63.903;  -11.330;  753.760
993.012;   63.391;  -13.610;  749.540
993.565;   61.967;  -13.460;  711.360
994.117;   61.613;   -9.360;  950.780
994.669;   59.016;  -11.300;  701.320
995.221;   58.893;  -13.540;  791.920
995.774;   57.865;  -13.430;  787.580
996.326;   55.531;  -12.520;  740.220
996.878;   55.598;  -10.950;  838.420
997.430;   53.600;  -14.300;  699.860
997.982;   52.985;  -13.760;  750.140
998.534;   51.461;  -11.530;  739.060
999.086;   50.506;  -10.310;  738.220
999.638;   50.067;  -12.530;  661.380
1000.190;   49.355;  -11.840;  699.320
1000.741;   47.687;  -10.260;  742.700
1001.293;   48.618;   -8.860;  686.020
1001.845;   47.959;  -13.700;  676.640
1002.396;   47.498;  -12.100;  743.400
1002.948;   45.000;  -12.760;  737.400
1003.500;   43.911;  -10.380;  723.780
1004.051;   45.615;  -11.900;  907.580
1004.603;   44.126;  -12.250;  791.820
1005.154;   39.984;  -13.210;  608.980
1005.705;   40.557;  -10.950;  723.960
1006.257;   39.543;  -13.880;  707.220
1006.808;   39.416;  -12.840;  685.460
1007.359;   38.075;  -10.570;  763.240
1007.910;   37.621;   -9.620;  646.640
1008.461;   37.128;  -13.630;  732.940
1009.013;   36.882;  -17.200;  588.340
1009.564;   36.968;  -10.200;  793.520
1010.115;   34.537;  -12.570;  597.040
1010.665;   35.800;  -15.150;  602.160
1011.216;   35.957;  -14.480;  667.920
1011.767;   34.155;  -11.340;  697.920
1012.318;   35.005;   -9.780;  736.980
1012.869;   34.350;  -12.380;  679.000
1013.419;   34.010;  -15.560;  603.120
1013.970;   33.725;  -11.010;  666.640
1014.521;   33.118;  -11.610;  620.620
1015.071;   33.965;  -13.450;  670.380
1015.622;   33.199;  -13.870;  635.460
1016.172;   32.018;  -11.610;  596.820
1016.723;   32.663;  -12.120;  614.380
1017.273;   32.446;  -13.620;  604.160
1017.823;   32.213;  -14.140;  650.340
1018.374;   31.324;  -12.800;  611.760
1018.924;   31.531;  -12.340;  716.880
1019.474;   32.261;  -11.410;  718.880
1020.024;   29.783;  -14.770;  657.580
1020.574;   31.097;   -9.780;  726.160
1021.124;   31.012;   -8.560;  673.580
1021.674;   30.216;  -15.190;  559.120
1022.224;   31.300;  -13.530;  708.940
1022.774;   30.595;  -13.280;  668.820
1023.324;   30.708;  -10.690;  753.520
1023.874;   32.159;  -10.240;  875.760
1024.423;   30.274;  -12.540;  613.700
1024.973;   28.150;  -10.010;  610.760
1025.523;   28.286;  -10.550;  620.960
1026.072;   28.405;  -13.560;  606.420
1026.622;   28.391;  -15.120;  675.740
1027.172;   28.444;  -11.260;  715.660
1027.721;   27.921;  -11.410;  601.220
1028.270;   28.915;  -13.530;  663.400
1028.820;   28.059;  -13.680;  638.080
1029.369;   27.574;  -13.520;  612.700
1029.918;   26.992;  -10.980;  649.840
1030.468;   27.372;  -13.530;  564.780
1031.017;   27.056;  -13.170;  634.800
1031.566;   25.905;  -12.200;  608.900
1032.115;   26.672;   -9.960;  694.500
1032.664;   25.685;  -13.210;  596.480
1033.213;   27.014;  -12.500;  735.420
1033.762;   25.624;  -11.910;  635.620
1034.311;   25.500;   -9.640;  677.220
1034.860;   26.422;  -13.310;  691.000
1035.408;   25.983;  -11.830;  722.720
1035.957;   26.502;  -12.000;  719.540
1036.506;   23.690;  -11.690;  530.800
1037.055;   26.763;  -10.990;  844.320
1037.603;   25.570;  -15.120;  664.000
1038.152;   23.578;  -12.450;  534.760
1038.700;   23.650;  -10.560;  585.740
1039.249;   23.443;  -11.080;  681.220
1039.797;   23.953;  -12.540;  633.360
1040.345;   23.501;  -11.920;  705.420
1040.894;   23.224;  -11.410;  625.300
1041.442;   23.634;  -14.320;  632.200
1041.990;   22.782;  -16.240;  559.160
1042.538;   22.388;  -11.680;  536.180
1043.087;   22.139;  -10.760;  570.860
1043.635;   23.440;  -11.850;  670.500
1044.183;   22.565;  -15.480;  586.400
1044.731;   21.832;  -11.770;  576.000
1045.279;   22.312;  -13.090;  674.920
1045.827;   23.819;  -12.440;  892.400
1046.374;   21.722;  -13.840;  515.420
1046.922;   20.763;  -13.220;  590.580
1047.470;   22.128;  -10.230;  691.300
1048.018;   21.817;  -14.590;  647.960
1048.565;   22.385;  -12.050;  708.600
1049.113;   20.315;  -11.650;  557.000
1049.660;   20.073;  -10.510;  629.660
1050.208;   21.221;  -13.310;  675.640
1050.755;   19.726;  -15.900;  606.580
1051.303;   20.164;  -11.430;  686.820
1051.850;   19.932;   -8.480;  635.120
1052.397;   18.940;  -15.010;  473.960
1052.945;   20.266;  -13.960;  617.760
1053.492;   20.674;  -13.150;  741.840
1054.039;   20.616;   -9.630;  720.180
1054.586;   19.541;  -13.680;  557.240
1055.133;   20.530;  -14.570;  693.140
1055.680;   20.043;  -13.820;  646.620
1056.227;   18.370;  -11.730;  542.780
1056.774;   20.438;  -12.480;  794.980
1057.321;   18.217;  -13.930;  523.260
1057.868;   18.295;  -11.690;  651.320
1058.415;   17.761;   -9.520;  651.980
1058.961;   19.924;  -13.160;  678.940
1059.508;   18.716;  -12.920;  643.820
1060.055;   17.576;  -11.920;  581.780
1060.601;   18.189;  -11.500;  624.300
1061.148;   17.858;  -14.330;  616.820
1061.694;   17.773;  -16.870;  592.580
1062.241;   16.599;  -10.330;  596.320
1062.787;   17.766;  -10.620;  663.140
1063.334;   19.390;  -10.110;  808.560
1063.880;   17.864;  -13.400;  668.360
1064.426;   16.937;  -10.680;  706.820
1064.972;   15.729;   -9.920;  601.340
1065.518;   15.727;  -10.980;  566.640
1066.065;   16.757;  -14.890;  624.460
1066.611;   15.978;  -12.870;  598.800
1067.157;   16.185;  -12.950;  641.860
1067.703;   16.930;  -13.540;  668.480
1068.249;   16.172;  -13.540;  605.220
1068.794;   15.487;  -12.600;  626.880
1069.340;   14.259;  -10.620;  578.960
1069.886;   15.558;  -12.830;  590.700
1070.432;   14.700;  -14.870;  541.720
1070.977;   14.334;  -11.980;  601.080
1071.523;   14.178;   -8.200;  573.060
1072.068;   15.188;  -12.330;  582.000
1072.614;   14.882;  -16.370;  527.760
1073.160;   15.055;  -11.100;  687.040
1073.705;   14.012;  -10.480;  572.520
1074.250;   14.343;  -14.520;  559.900
1074.796;   15.139;  -11.460;  655.160
1075.341;   14.790;  -11.950;  664.100
1075.886;   13.302;  -11.460;  594.240
1076.431;   13.830;  -13.770;  649.880
1076.976;   13.750;  -12.680;  639.220
1077.521;   13.028;  -13.170;  583.080
1078.067;   13.061;  -10.860;  579.400
1078.612;   14.314;  -13.920;  661.620
1079.156;   13.673;  -13.880;  601.540
1079.701;   13.366;  -13.120;  693.260
1080.246;   13.637;   -9.940;  696.300
1080.791;   13.289;  -14.740;  625.020
1081.336;   13.392;  -13.750;  659.320
1081.880;   12.269;  -13.400;  649.680
1082.425;   12.004;  -12.220;  573.480
1082.970;   13.284;  -11.610;  717.040
1083.514;   12.791;  -13.580;  597.000
1084.059;   11.635;  -12.810;  586.720
1084.603;   12.131;  -12.320;  565.840
1085.147;   12.180;  -13.190;  645.220
1085.692;   12.899;  -12.480;  716.800
1086.236;   11.018;  -13.020;  503.140
1086.780;   12.663;   -9.190;  751.440
1087.325;   11.643;  -12.480;  654.620
1087.869;   11.792;  -12.450;  610.700
1088.413;   12.244;  -12.240;  705.040
1088.957;    9.617;   -9.020;  543.400
1089.501;   11.975;  -10.320;  766.640
1090.045;   12.682;  -12.720;  726.480
1090.589;    9.139;  -13.690;  569.920
1091.133;   10.806;  -10.020;  673.340
1091.676;   11.740;  -12.330;  591.940
1092.220;   10.822;  -14.970;  600.920
1092.764;   11.319;  -12.430;  706.960
1093.307;   11.075;   -9.800;  673.780
1093.851;   10.239;  -14.970;  556.540
1094.395;   10.710;  -15.310;  683.140
1094.938;    9.493;  -10.370;  632.520
1095.482;    9.129;  -11.050;  559.800
1096.025;   10.562;  -11.840;  710.880
1096.568;   11.286;  -12.840;  779.280
1097.112;    8.128;  -14.700;  508.180
1097.655;   10.131;   -8.720;  603.000
1098.198;    8.448;  -13.610;  600.180
1098.741;    9.092;  -13.350;  612.860
1099.285;    9.433;  -11.230;  657.300
1099.828;    7.429;  -11.840;  439.400
1100.371;    8.842;  -10.840;  608.160
1100.914;    9.115;  -14.190;  682.660
1101.457;    8.776;  -11.240;  679.900
1101.999;    6.995;  -11.270;  584.680
1102.542;    9.527;  -11.480;  641.440
1103.085;    8.278;  -11.750;  658.500
1103.628;    8.819;  -11.400;  762.060
1104.170;    7.640;  -10.490;  588.280
1104.713;    8.192;  -10.600;  646.700
1105.256;    7.612;  -14.360;  557.440
1105.798;    6.944;  -13.210;  499.980
1106.341;    8.470;  -10.270;  728.900
1106.883;    7.237;  -12.200;  521.340
1107.425;    7.111;  -13.110;  668.180
1107.968;    6.927;  -12.840;  612.380
1108.510;    7.630;   -6.480;  684.960
1109.052;    5.978;  -13.940;  612.620
1109.594;    7.178;  -13.690;  554.440
1110.136;    7.755;  -11.880;  643.220
1110.679;    6.125;   -9.500;  633.080
1111.221;    7.881;  -14.160;  604.460
1111.763;    6.726;  -13.980;  559.220
1112.304;    5.837;  -13.880;  547.140
1112.846;    6.163;  -12.210;  666.240
1113.388;    9.798;  -11.390;  942.180
1113.930;    6.638;  -14.540;  694.200
1114.472;    5.811;  -12.640;  606.540
1115.013;    4.205;  -11.620;  551.280
1115.555;    5.699;  -13.640;  587.100
1116.097;    5.348;  -15.380;  579.480
1116.638;    5.929;  -12.640;  684.600
1117.180;    6.036;   -9.850;  667.740
1117.721;    5.847;  -13.690;  568.580
1118.262;    5.817;  -12.680;  677.960
1118.804;    6.134;  -12.530;  637.340
1119.345;    5.300;  -11.690;  578.400
1119.886;    5.498;  -13.380;  704.040
1120.427;    4.848;  -14.070;  589.020
1120.969;    3.950;  -13.500;  597.920
1121.510;    3.784;  -11.480;  563.060
1122.051;    4.922;  -12.830;  723.580
1122.592;    4.368;  -14.290;  655.420
1123.133;    3.636;  -12.400;  547.940
1123.673;    5.064;  -10.130;  706.480
1124.214;    4.871;  -12.930;  612.460
1124.755;    5.043;  -14.380;  639.460
1125.296;    3.489;  -14.000;  627.320
1125.836;    4.656;  -10.070;  691.500
1126.377;    3.917;  -12.640;  599.660
1126.918;    4.996;  -12.960;  614.980
1127.458;    2.886;  -13.350;  622.220
1127.999;    3.910;  -10.750;  656.980
1128.539;    4.383;  -12.350;  694.240
1129.079;    4.022;  -14.860;  632.720
1129.620;    2.188;  -13.840;  558.100
1130.160;    2.741;  -12.330;  539.480
1130.700;    4.027;  -14.530;  640.840
1131.240;    3.908;  -12.530;  643.700
1131.781;    2.306;  -14.450;  619.680
1132.321;    2.331;   -9.790;  599.120
1132.861;    1.993;  -14.860;  564.200
1133.401;    3.225;  -14.290;  593.940
1133.941;    2.915;  -11.750;  626.280
1134.481;    2.599;   -9.920;  597.580
1135.020;    2.801;  -12.290;  609.160
1135.560;    2.991;  -11.650;  674.940
1136.100;    1.688;  -16.270;  501.160
1136.640;    1.616;  -10.890;  510.480
1137.179;    1.886;  -14.180;  537.960
1137.719;    2.612;  -16.250;  605.400
1138.258;    1.517;  -14.230;  587.360
1138.798;    2.236;   -9.090;  663.780
1139.337;    1.159;  -15.130;  482.840
1139.877;    2.472;  -13.680;  642.360
1140.416;    3.828;  -11.320;  878.060
1140.955;    1.137;  -10.860;  535.380
1141.494;    2.141;  -12.920;  669.280
1142.034;    0.851;  -13.930;  583.520
1142.573;    2.308;  -11.440;  646.280
1143.112;    0.997;  -12.000;  553.480
1143.651;    1.458;  -13.670;  536.480
1144.190;    2.315;  -12.730;  691.640
1144.729;    1.152;  -14.560;  607.420
1145.267;    1.126;  -11.830;  584.900
1145.806;    2.265;  -12.230;  637.040
1146.345;    0.857;  -14.130;  635.020
1146.884;    0.743;  -11.590;  622.500
1147.422;   -0.317;  -12.550;  533.060
1147.961;    2.112;  -11.180;  708.460
1148.500;    2.134;  -11.510;  669.720
1149.038;    0.974;  -11.640;  632.500
1149.577;    0.931;  -10.130;  698.640
1150.115;   -0.524;  -13.970;  452.280
1150.653;    0.933;  -14.520;  607.340
1151.192;    0.696;  -12.810;  552.920
1151.730;   -0.470;   -9.100;  652.560
1152.268;    0.195;  -12.220;  589.520
1152.806;   -0.379;  -14.140;  571.180
1153.344;   -0.862;  -12.350;  577.640
1153.882;   -0.342;   -8.980;  600.060
1154.421;   -1.258;  -15.190;  470.620
1154.958;    0.521;  -15.210;  595.240
1155.496;    0.016;  -12.850;  645.280
1156.034;   -0.186;   -9.940;  721.880
1156.572;    0.780;  -13.570;  667.060
1157.110;   -0.719;  -14.590;  473.940
1157.647;   -0.531;  -13.030;  676.960
1158.185;   -0.722;  -12.140;  564.320
1158.723;   -1.682;  -14.390;  509.200
1159.260;   -0.627;  -14.090;  701.700
1159.798;   -0.406;  -11.920;  658.160
1160.335;   -1.066;  -11.110;  631.820

