
Integration time [ms]:   3.276
Averaging Nr. [scans]: 1000
Smoothing Nr. [pixels]: 0
Data measured with spectrometer [name]: 7414430SP
Wave   ;Sample   ;Dark     ;Reference
[nm]   ;[counts] ;[counts] ;[counts] 

288.544;  152.118;    7.793;  793.890
289.143;  155.589;    7.462;  681.602
289.742;  155.651;    8.602;  828.814
290.341;  140.840;    1.321;  789.841
290.940;  130.373;   -0.709;  730.702
291.538;  130.295;    0.881;  881.108
292.137;  130.918;    0.122;  792.581
292.736;  135.721;   -1.929;  975.101
293.335;  132.342;   -8.229;  735.086
293.934;  131.992;   -5.279;  781.677
294.532;  129.908;   -1.369; 1031.958
295.131;  115.875;   -7.641;  834.394
295.730;  116.680;   -8.420;  809.588
296.328;  115.515;   -5.611;  783.442
296.927;  116.538;   -5.781;  779.652
297.525;  117.765;   -6.361;  781.236
298.124;  107.842;  -11.382;  654.009
298.722;  111.366;   -7.641;  761.933
299.321;  109.135;   -6.811;  708.597
299.919;  106.912;   -6.991;  751.918
300.518;  104.998;  -10.362;  689.338
301.116;  105.923;   -9.581;  691.381
301.715;  105.618;   -4.891;  730.222
302.313;  103.395;   -8.801;  704.943
302.911;  100.020;   -8.522;  733.830
303.509;  105.685;   -6.171;  925.627
304.108;  102.668;   -7.311;  760.383
304.706;  102.936;   -8.321;  801.664
305.304;   96.887;  -10.222;  796.707
305.902;  102.963;   -6.021;  784.484
306.500;   97.589;   -4.971;  728.200
307.098;   96.557;   -7.061;  746.560
307.696;   94.879;   -8.801;  780.432
308.294;   94.848;   -6.411;  731.359
308.892;   96.822;   -2.901;  759.769
309.490;   94.217;   -5.041;  712.161
310.088;   91.727;   -5.002;  788.444
310.686;   95.483;   -2.041;  821.749
311.284;   91.280;   -2.351;  766.040
311.882;   89.151;   -4.422;  731.225
312.480;   86.595;   -4.192;  697.167
313.078;   87.395;   -1.172;  808.331
313.675;   88.315;   -2.601;  691.600
314.273;   82.967;   -1.312;  797.837
314.871;   82.896;   -3.942;  589.829
315.468;   80.925;   -2.802;  652.090
316.066;   82.770;   -0.701;  694.427
316.664;   76.238;   -4.362;  656.351
317.261;   79.841;   -2.872;  910.128
317.859;   75.495;   -2.022;  768.735
318.456;   75.933;   -0.531;  830.096
319.054;   72.548;   -3.912;  787.828
319.651;   71.134;   -4.752;  759.928
320.249;   69.875;   -2.602;  810.188
320.846;   67.792;   -0.821;  714.286
321.443;   65.434;   -4.642;  832.135
322.041;   62.260;   -5.002;  812.315
322.638;   60.112;   -3.982;  701.456
323.235;   61.413;   -3.411;  665.683
323.833;   58.767;   -7.361;  740.354
324.430;   53.886;   -8.611;  615.900
325.027;   55.078;   -4.061;  876.855
325.624;   54.550;   -4.031;  644.532
326.221;   51.902;   -7.481;  689.717
326.818;   50.881;   -5.281;  818.332
327.415;   54.308;   -7.460;  748.828
328.012;   53.753;   -5.510;  690.585
328.609;   52.805;   -7.880;  731.389
329.206;   51.060;   -8.331;  778.621
329.803;   51.444;   -5.121;  737.841
330.400;   52.918;   -4.510;  704.260
330.997;   54.515;   -6.441;  817.147
331.594;   53.859;   -8.831;  788.185
332.191;   58.357;   -7.621;  728.722
332.787;   60.722;   -4.591;  844.463
333.384;   60.283;   -7.412;  763.093
333.981;   59.112;   -8.293;  815.687
334.578;   62.128;   -7.052;  708.378
335.174;   64.325;   -3.102;  731.469
335.771;   63.528;   -5.943;  836.456
336.367;   60.436;   -7.393;  710.631
336.964;   64.198;   -4.063;  793.266
337.561;   61.972;   -3.813;  731.112
338.157;   57.281;   -4.654;  911.916
338.754;   56.190;   -7.934;  796.589
339.350;   54.020;   -4.414;  722.493
339.946;   55.771;   -4.664;  773.135
340.543;   47.379;   -6.375;  846.136
341.139;   42.932;   -9.815;  720.836
341.735;   39.633;   -4.526;  772.593
342.332;   37.684;   -4.895;  691.472
342.928;   39.856;   -4.295;  795.394
343.524;   33.251;   -5.476;  761.684
344.120;   29.751;   -5.856;  738.562
344.716;   32.703;   -2.155;  723.717
345.313;   30.551;   -6.275;  795.342
345.909;   25.547;   -8.815;  627.336
346.505;   27.061;   -5.305;  740.247
347.101;   26.810;   -2.674;  827.864
347.697;   27.414;   -4.344;  785.398
348.293;   22.739;   -9.975;  627.244
348.889;   23.554;   -5.774;  745.914
349.485;   22.711;   -5.004;  688.205
350.081;   22.727;   -4.704;  772.592
350.676;   18.759;   -6.635;  691.606
351.272;   23.022;   -4.504;  809.530
351.868;   22.996;   -3.914;  780.497
352.464;   20.123;   -9.044;  723.932
353.059;   15.919;   -8.314;  646.017
353.655;   19.159;   -7.024;  777.063
354.251;   20.416;   -5.343;  759.845
354.846;   14.377;   -8.604;  740.646
355.442;   13.359;   -6.945;  753.071
356.038;   14.270;   -7.564;  751.708
356.633;   14.364;   -5.814;  728.594
357.229;   12.400;   -7.364;  724.757
357.824;   10.916;   -8.024;  703.600
358.420;    9.340;   -9.384;  679.726
359.015;    9.890;   -5.104;  695.357
359.610;   10.541;   -6.854;  763.920
360.206;    5.928;  -10.185;  603.240
360.801;    8.495;   -7.054;  646.503
361.396;   10.888;   -5.034;  725.975
361.992;    5.694;   -8.284;  668.220
362.587;    2.850;   -8.625;  670.160
363.182;    5.373;   -7.674;  689.631
363.777;    6.326;   -5.164;  738.242
364.372;    5.712;   -8.604;  737.314
364.967;    1.942;   -9.055;  680.744
365.563;    5.797;   -6.114;  815.567
366.158;    2.807;   -5.814;  685.161
366.753;    3.720;   -7.854;  649.263
367.348;    2.692;   -7.804;  746.056
367.942;    2.165;   -7.954;  697.298
368.537;    0.909;   -4.984;  754.245
369.132;    1.276;   -8.564;  703.428
369.727;   -2.377;   -8.855;  638.079
370.322;   -0.750;   -6.245;  580.186
370.917;   -2.104;   -6.425;  710.646
371.511;    1.182;   -6.294;  861.834
372.106;   -2.127;   -7.685;  776.964
372.701;   -5.407;   -7.335;  585.988
373.296;    0.074;   -4.564;  863.135
373.890;   -4.623;  -10.235;  647.840
374.485;   -6.707;   -7.885;  691.199
375.079;   -2.703;   -7.324;  738.685
375.674;   -1.984;   -3.494;  812.970
376.268;   -5.733;   -8.525;  691.759
376.863;  -11.031;  -10.086;  580.327
377.457;   -5.261;   -7.025;  662.490
378.052;   -7.212;   -3.585;  764.884
378.646;   -8.524;   -7.595;  741.167
379.240;   -8.239;   -8.335;  721.176
379.835;   -8.129;   -5.785;  636.978
380.429;   -9.758;   -4.335;  562.557
381.023;   -8.959;   -6.805;  779.205
381.617;  -11.366;   -9.195;  680.106
382.212;   -8.659;   -6.905;  685.303
382.806;   -7.854;   -3.745;  760.690
383.400;  -11.999;   -7.745;  672.281
383.994;  -12.476;   -9.765;  664.870
384.588;   -9.146;   -6.564;  697.701
385.182;   -7.598;   -5.344;  726.624
385.776;   -9.249;   -8.514;  706.875
386.370;  -12.112;   -9.555;  681.968
386.964;  -11.164;   -8.715;  684.155
387.558;   -9.751;   -6.174;  598.360
388.152;  -12.849;   -8.725;  681.959
388.745;  -11.120;   -7.965;  814.707
389.339;   -9.419;   -5.924;  747.642
389.933;   -9.052;   -5.524;  695.370
390.527;  -10.163;   -7.114;  859.029
391.120;  -15.853;  -10.725;  595.318
391.714;  -12.938;   -8.035;  711.633
392.308;   -9.776;   -3.574;  780.253
392.901;  -13.592;   -7.245;  642.460
393.495;  -15.110;   -9.285;  595.414
394.089;  -13.913;   -5.895;  760.452
394.682;  -14.168;   -4.295;  697.188
395.275;  -14.280;   -9.875;  719.927
395.869;  -15.152;   -8.485;  667.314
396.462;  -14.074;   -7.455;  616.609
397.056;  -10.805;   -5.424;  776.621
397.649;  -14.651;   -6.605;  731.575
398.242;  -12.225;   -8.224;  712.645
398.836;  -11.712;   -7.474;  766.408
399.429;  -13.044;   -7.094;  631.041
400.022;  -15.589;   -9.475;  665.902
400.615;  -13.439;   -7.145;  805.609
401.208;  -11.836;   -7.174;  691.451
401.802;  -14.181;   -5.515;  699.329
402.395;  -15.210;   -9.875;  683.502
402.988;  -16.177;   -8.845;  696.627
403.581;  -12.641;   -8.874;  646.878
404.174;  -10.699;   -5.324;  686.568
404.767;  -14.193;   -9.575;  638.583
405.360;  -15.726;  -10.965;  621.445
405.953;  -10.614;   -8.764;  759.034
406.545;  -10.226;   -7.514;  725.342
407.138;  -14.572;  -10.025;  618.350
407.731;  -12.591;  -10.034;  613.303
408.324;   -8.869;   -9.374;  660.554
408.917;  -10.593;   -6.534;  681.864
409.509;  -11.858;   -8.004;  740.396
410.102;  -13.556;   -9.875;  643.948
410.695;   -8.390;   -8.604;  665.758
411.287;   -9.311;   -6.794;  599.821
411.880;  -10.667;   -9.334;  585.421
412.472;  -13.362;  -10.254;  613.092
413.065;  -10.483;   -6.714;  629.408
413.657;   -8.787;   -7.234;  576.678
414.250;   -8.366;  -10.544;  646.681
414.842;  -10.430;   -9.744;  676.353
415.434;   -7.705;   -6.994;  570.463
416.027;   -3.641;   -5.893;  652.196
416.619;   -6.342;   -7.264;  713.400
417.211;   -5.894;  -10.374;  599.352
417.804;   -3.181;   -7.993;  628.499
418.396;   -7.378;   -7.234;  607.643
418.988;   -4.294;   -9.443;  659.238
419.580;   -7.421;  -10.724;  568.276
420.172;   -5.318;  -10.323;  536.196
420.764;   -1.283;   -8.793;  672.482
421.356;   -2.679;  -11.143;  636.898
421.948;   -3.175;   -8.293;  677.661
422.540;    2.171;   -7.893;  680.027
423.132;    1.179;   -7.082;  600.641
423.724;   -2.514;   -8.653;  561.267
424.316;   -0.321;  -10.213;  621.345
424.908;    3.962;   -9.762;  591.517
425.500;    3.689;   -5.572;  647.978
426.092;    4.082;   -8.422;  648.268
426.683;    2.987;   -9.283;  684.836
427.275;    5.669;   -7.852;  641.471
427.867;    7.068;   -5.272;  668.948
428.458;    7.826;   -7.682;  732.344
429.050;    7.136;  -10.612;  680.749
429.642;    8.749;   -9.882;  743.124
430.233;    8.717;   -6.962;  569.356
430.825;   10.623;   -6.842;  724.809
431.416;    7.792;   -9.672;  698.241
432.008;   11.681;   -6.552;  651.723
432.599;   12.649;   -6.891;  656.073
433.190;    9.215;  -10.912;  637.670
433.782;    8.191;  -11.172;  590.395
434.373;   15.679;   -6.061;  884.765
434.964;   13.731;   -8.251;  602.920
435.556;   11.826;   -9.722;  634.537
436.147;   15.226;   -9.082;  758.490
436.738;   15.181;   -8.041;  701.099
437.329;   20.151;   -7.341;  721.723
437.920;   12.866;   -8.162;  666.688
438.511;   14.101;  -11.802;  564.526
439.103;   19.751;  -10.191;  623.998
439.694;   21.412;   -7.601;  681.583
440.285;   21.559;   -8.541;  764.432
440.876;   20.520;   -9.751;  845.738
441.466;   19.502;   -9.401;  575.162
442.057;   24.569;   -7.760;  665.814
442.648;   24.097;   -9.971;  746.255
443.239;   22.836;  -11.001;  620.477
443.830;   27.258;   -7.990;  704.958
444.421;   28.635;   -7.910;  655.474
445.011;   25.288;   -8.131;  693.619
445.602;   25.875;   -7.111;  743.126
446.193;   26.968;  -10.920;  488.117
446.783;   31.490;   -6.500;  640.397
447.374;   26.914;   -8.671;  692.759
447.964;   27.628;  -10.781;  713.770
448.555;   36.161;   -9.650;  822.742
449.145;   32.276;   -8.660;  662.853
449.736;   33.031;   -8.990;  803.179
450.326;   34.008;   -9.500;  713.626
450.917;   38.336;   -8.680;  675.324
451.507;   37.214;   -7.520;  600.661
452.097;   37.507;   -8.590;  746.267
452.688;   39.315;  -11.340;  742.160
453.278;   38.234;  -10.100;  566.840
453.868;   43.128;   -6.019;  793.550
454.458;   41.149;   -9.440;  651.141
455.048;   41.630;  -10.560;  711.783
455.639;   42.846;  -11.799;  567.096
456.229;   47.004;   -6.899;  710.694
456.819;   48.799;   -7.389;  751.158
457.409;   49.176;  -11.119;  773.993
457.999;   50.680;   -9.289;  737.505
458.589;   51.958;   -6.139;  686.606
459.179;   51.310;   -8.729;  717.658
459.769;   49.580;   -9.789;  627.099
460.358;   53.879;  -10.259;  797.262
460.948;   54.001;   -7.299;  689.503
461.538;   55.500;  -10.289;  660.677
462.128;   53.652;  -11.269;  664.934
462.717;   60.214;   -9.368;  710.326
463.307;   63.180;   -7.908;  705.846
463.897;   59.278;   -9.599;  656.942
464.486;   58.453;   -9.769;  837.128
465.076;   62.422;   -8.048;  733.776
465.666;   66.356;   -9.358;  652.900
466.255;   63.543;   -7.919;  785.651
466.845;   63.390;  -11.689;  666.749
467.434;   67.116;   -7.818;  725.873
468.023;   67.245;   -7.678;  658.357
468.613;   64.559;  -10.939;  713.946
469.202;   69.518;  -10.118;  646.507
469.791;   73.123;   -9.108;  737.811
470.381;   75.329;   -6.058;  742.813
470.970;   74.498;  -10.428;  711.099
471.559;   74.580;  -10.268;  733.291
472.148;   77.978;   -8.448;  675.737
472.738;   79.981;   -6.917;  765.466
473.327;   79.965;  -11.978;  637.529
473.916;   79.414;  -11.888;  737.446
474.505;   84.156;   -9.437;  751.703
475.094;   86.642;   -6.747;  806.570
475.683;   85.900;   -9.367;  797.699
476.272;   87.779;  -12.637;  730.632
476.861;   89.999;  -10.027;  706.754
477.449;   96.443;   -8.716;  728.487
478.038;   90.564;   -9.577;  692.513
478.627;   91.961;   -9.718;  714.852
479.216;   99.123;   -8.947;  769.441
479.805;  102.127;   -6.256;  783.375
480.393;  101.790;   -7.937; 1008.945
480.982;  100.258;   -7.717;  874.501
481.571;  106.418;   -9.266;  858.333
482.159;  107.165;   -7.636;  705.386
482.748;  106.795;   -9.667;  821.385
483.336;  111.614;  -10.376;  858.209
483.925;  112.177;   -7.147;  774.373
484.513;  118.563;   -7.996;  758.962
485.102;  115.994;  -10.027;  810.965
485.690;  124.625;  -10.446; 1011.050
486.278;  126.294;   -8.446;  979.329
486.867;  126.620;   -6.356;  809.662
487.455;  128.792;   -9.136;  898.229
488.043;  129.673;  -10.646;  748.361
488.631;  139.327;   -7.456; 1005.079
489.220;  142.102;   -6.636;  908.626
489.808;  142.828;  -11.036;  741.415
490.396;  150.901;  -10.246;  914.645
490.984;  156.500;   -8.556;  830.161
491.572;  166.747;   -5.886;  940.315
492.160;  171.962;   -9.486;  919.081
492.748;  184.583;  -10.976;  884.341
493.336;  207.284;   -8.776; 1019.693
493.924;  232.982;   -5.465;  958.077
494.512;  260.353;   -9.986; 1066.638
495.100;  296.255;  -10.636; 1103.280
495.687;  352.540;  -10.885; 1206.373
496.275;  415.059;   -8.126; 1150.796
496.863;  486.143;  -10.586; 1281.171
497.451;  585.980;  -11.926; 1386.805
498.038;  718.910;  -10.885; 1556.729
498.626;  822.664;   -6.315; 1741.407
499.214;  980.622;   -7.326; 2016.609
499.801; 1175.686;  -11.906; 2220.633
500.389; 1419.429;  -10.466; 2312.494
500.976; 1709.323;   -5.236; 2744.849
501.564; 2146.128;   -8.936; 3148.565
502.151; 2500.040;  -13.176; 3515.999
502.738; 2903.731;  -10.646; 3971.274
503.326; 3302.817;   -9.525; 4403.796
503.913; 3710.596;  -10.856; 5161.749
504.500; 4089.715;  -11.586; 5986.420
505.088; 4484.818;  -10.336; 6381.201
505.675; 5008.733;   -6.355; 6925.547
506.262; 5701.770;   -9.046; 7619.060
506.849; 6433.814;  -10.416; 8733.969
507.436; 6966.632;  -10.305; 9790.121
508.023; 7532.908;   -5.496; 9985.472
508.610; 7784.525;   -7.856;10434.618
509.197; 8408.303;  -10.097;11198.435
509.784; 9697.658;  -10.886;12391.194
510.371;10903.252;   -9.315;13603.713
510.958;11698.829;   -9.936;14426.586
511.545;12410.900;   -9.326;15243.775
512.132;13145.141;  -10.075;15945.876
512.719;13596.009;   -7.796;16340.369
513.305;14709.691;  -10.606;18011.766
513.892;15408.184;  -11.486;19754.971
514.479;16594.262;   -9.126;20967.805
515.066;18144.381;   -6.026;22299.793
515.652;19696.977;   -8.466;22908.660
516.239;20884.820;  -10.886;23798.875
516.825;21684.928;  -11.496;25567.275
517.412;22632.152;   -5.796;28154.959
517.998;23349.227;  -10.506;28344.111
518.585;23472.752;  -10.076;27134.219
519.171;24126.188;   -8.315;27268.576
519.758;25815.090;   -8.596;28964.129
520.344;27835.945;   -8.466;30664.494
520.930;27691.805;  -11.006;32550.605
521.516;28497.582;  -10.495;35422.895
522.103;30337.701;   -5.526;38280.004
522.689;30776.184;   -8.746;37835.117
523.275;30477.352;  -11.376;37288.613
523.861;32259.078;  -11.156;37281.395
524.447;33932.270;   -8.135;37846.949
525.033;33736.980;   -7.896;38321.949
525.619;33850.934;  -12.476;38579.285
526.205;35078.637;   -9.516;40622.875
526.791;37581.902;   -6.926;42258.836
527.377;37524.055;   -8.346;42966.902
527.963;38415.891;   -8.717;42018.949
528.549;37488.828;  -11.016;42476.828
529.135;35821.090;   -8.536;41854.852
529.721;33689.805;   -9.666;41237.711
530.306;31277.496;  -10.066;41259.445
530.892;29755.785;  -11.356;41506.047
531.478;31712.938;   -6.596;43559.613
532.063;36860.641;   -8.836;47695.563
532.649;39615.219;  -10.047;50808.324
533.235;40405.285;   -9.746;51787.500
533.820;39878.418;   -6.566;52145.035
534.406;40218.711;  -10.817;51133.488
534.991;38459.035;   -9.416;49996.805
535.576;34407.355;   -9.036;48882.852
536.162;32365.543;   -6.156;46942.285
536.747;33105.520;  -11.607;45711.746
537.333;39208.598;  -11.787;48510.180
537.918;46976.805;  -12.437;50439.891
538.503;49669.023;   -7.196;50863.711
539.088;47119.215;  -10.556;50906.922
539.673;46774.098;   -8.767;52621.965
540.259;47203.316;  -10.026;52368.094
540.844;44835.156;   -7.416;50879.109
541.429;46724.188;   -9.467;52077.777
542.014;48821.895;   -9.527;52716.695
542.599;47602.078;   -9.946;52363.281
543.184;44649.105;   -7.927;53187.137
543.769;45701.035;   -9.297;54697.605
544.354;45718.285;  -10.127;53913.914
544.938;44271.648;   -9.267;49680.164
545.523;46084.367;   -6.506;47386.277
546.108;49350.129;   -9.787;49151.949
546.693;51220.750;  -11.587;51384.637
547.278;51101.684;  -10.986;51853.254
547.862;48327.008;   -8.206;51173.750
548.447;43931.422;  -10.067;51691.395
549.031;42815.219;   -9.637;52456.703
549.616;47371.098;   -9.926;52714.516
550.201;47363.035;   -6.347;52414.598
550.785;48696.309;   -7.917;52355.059
551.370;47708.957;  -10.867;54589.453
551.954;46666.766;   -9.047;58267.348
552.538;47497.695;   -7.827;59062.176
553.123;46026.512;  -10.287;58115.285
553.707;43498.598;  -12.178;56556.285
554.291;44823.117;   -8.717;56201.668
554.876;48041.848;   -7.457;55335.762
555.460;48102.816;  -10.387;54155.703
556.044;48351.059;   -9.618;53721.484
556.628;46578.004;  -11.567;53731.016
557.212;45678.551;   -8.097;54312.531
557.796;44366.680;  -11.077;53797.773
558.380;44492.992;  -11.108;56145.984
558.964;44660.512;   -9.057;57277.930
559.548;45863.758;   -6.977;56459.641
560.132;44029.883;  -11.457;54434.543
560.716;42141.523;  -11.378;54800.617
561.300;43033.805;   -9.577;57606.945
561.884;44345.703;   -7.127;58972.445
562.467;42451.336;   -7.118;57327.570
563.051;41765.785;  -13.358;54962.434
563.635;43416.633;  -10.178;52594.473
564.219;43847.234;   -7.837;50610.410
564.802;44455.664;  -11.398;49551.180
565.386;44085.145;  -12.788;48370.953
565.969;43353.668;   -9.077;48178.871
566.553;41828.449;   -6.207;49957.305
567.136;42653.184;   -8.568;50369.594
567.720;39775.426;  -11.868;49492.004
568.303;37601.848;   -8.268;50616.352
568.887;37374.555;   -8.698;50727.148
569.470;38038.605;   -6.808;51698.379
570.053;37259.461;  -13.188;52122.078
570.637;35024.563;  -12.037;52536.438
571.220;34788.703;   -8.577;51186.098
571.803;35868.832;   -8.498;51032.762
572.386;37953.086;  -10.498;49609.887
572.969;40404.207;   -9.388;48285.926
573.552;39044.223;   -8.338;47624.285
574.135;37456.559;   -8.518;45498.641
574.718;34894.523;  -13.628;41970.434
575.301;34304.703;  -10.893;41447.137
575.884;33714.883;   -8.158;40923.836
576.467;34795.910;  -10.328;45267.723
577.050;35829.008;  -13.058;48175.543
577.633;37050.883;   -9.458;47729.328
578.216;36540.297;   -8.928;47579.793
578.799;35801.707;   -9.358;47820.996
579.381;35013.566;  -11.388;48115.551
579.964;32711.580;  -11.718;47333.766
580.547;34495.816;   -8.588;46668.969
581.129;35414.859;   -8.859;44466.141
581.712;36346.762;  -10.729;44164.922
582.294;36874.320;  -11.118;46477.855
582.877;36806.285;   -5.218;48244.254
583.459;35067.121;   -8.679;47437.895
584.042;32984.590;  -10.709;46943.219
584.624;32645.584;  -11.669;46792.227
585.206;32410.807;   -8.218;46557.250
585.789;32608.131;  -10.569;45793.773
586.371;35018.879;  -11.859;43836.391
586.953;35860.113;  -10.719;42972.492
587.536;36784.527;   -7.198;42487.211
588.118;37572.754;   -8.720;42086.414
588.700;33698.500;  -10.439;43389.930
589.282;32568.533;   -9.198;43646.039
589.864;33501.637;   -9.199;43438.109
590.446;34805.914;  -11.319;43151.926
591.028;34835.926;  -11.159;42781.867
591.610;33508.590;  -11.779;42839.098
592.192;30671.832;   -7.668;42820.402
592.774;29228.029;  -11.949;40724.277
593.356;28186.797;  -12.129;39874.789
593.937;27301.896;  -10.669;39980.648
594.519;29432.107;   -6.509;42069.633
595.101;31341.170;  -10.849;42976.031
595.683;31404.014;  -11.679;44084.441
596.264;32407.248;   -9.049;43478.797
596.846;32379.578;   -8.849;43803.672
597.427;32332.678;   -9.570;42986.934
598.009;33469.172;  -12.620;42832.219
598.591;33920.555;  -10.039;42580.086
599.172;33711.652;  -10.369;43061.805
599.753;34080.762;   -9.140;41691.469
600.335;35400.180;  -11.430;40692.520
600.916;33288.801;   -9.939;39982.422
601.498;30881.730;   -8.479;40318.617
602.079;29447.328;  -10.920;40670.609
602.660;29040.883;  -11.480;41450.898
603.241;30805.701;  -11.699;41137.738
603.823;29636.869;   -9.579;38868.797
604.404;28454.729;  -10.620;38182.785
604.985;30256.793;  -10.450;38078.047
605.566;30676.629;   -9.129;38056.633
606.147;30795.498;   -7.510;37020.418
606.728;32181.283;  -10.660;37883.359
607.309;30716.977;  -11.740;38748.273
607.890;30500.604;   -9.759;38850.230
608.471;30100.105;   -8.250;37457.918
609.051;29456.643;   -9.240;36066.457
609.632;28209.484;  -12.120;35991.074
610.213;28280.295;   -9.110;37402.641
610.794;29189.994;   -8.030;38383.363
611.374;29073.959;   -8.110;40562.387
611.955;29944.949;  -13.560;38533.727
612.536;31463.230;  -11.400;36951.789
613.116;31094.898;   -8.070;37197.891
613.697;31469.623;  -10.830;38411.125
614.277;29521.453;  -11.641;38673.938
614.858;30155.422;  -13.310;37075.863
615.438;29737.197;   -7.460;35092.906
616.019;27597.154;   -7.601;33666.301
616.599;27876.605;  -12.020;34189.023
617.179;29517.193;  -11.780;36952.047
617.760;30621.240;   -8.570;39582.574
618.340;31563.445;  -11.471;38943.977
618.920;32542.275;  -11.170;37594.156
619.500;32391.746;  -11.071;37866.938
620.080;31370.928;   -7.750;37869.043
620.660;32411.209;  -12.711;36868.617
621.241;34041.969;  -10.211;36352.309
621.821;34603.078;  -10.961;35459.520
622.401;33533.680;   -7.720;35207.414
622.980;32567.924;   -8.981;35980.422
623.560;31139.207;   -9.331;37351.328
624.140;29632.896;   -9.850;34388.582
624.720;24922.510;   -7.451;32368.764
625.300;21633.004;   -9.070;32638.629
625.880;24988.273;  -12.601;34599.035
626.459;28922.846;  -11.751;36831.738
627.039;31727.346;   -9.281;38299.098
627.619;31760.533;   -8.801;38289.574
628.198;30337.041;  -12.071;37220.695
628.778;29321.109;   -9.461;37632.563
629.357;29968.838;   -8.491;38003.012
629.937;29990.908;   -9.721;38402.039
630.516;29450.844;   -9.951;37868.801
631.096;29326.959;  -11.731;35760.410
631.675;31210.615;   -8.572;35225.219
632.254;36273.336;  -11.282;35130.289
632.834;35972.957;  -13.322;35794.570
633.413;34356.020;  -10.301;35788.922
633.992;32213.018;   -8.582;34532.863
634.571;32769.086;   -8.352;33590.113
635.151;35581.176;  -11.912;34943.863
635.730;34174.051;  -10.511;35352.523
636.309;30598.600;   -7.731;35366.605
636.888;27906.775;   -9.952;36165.637
637.467;28217.094;  -11.672;37515.902
638.046;29764.297;   -8.901;39288.695
638.625;32677.918;   -7.912;38279.699
639.204;32544.941;  -10.022;37741.598
639.782;31389.316;  -12.252;38364.551
640.361;27827.354;  -10.041;36740.621
640.940;25201.574;  -11.161;34950.082
641.519;26074.465;   -9.701;34137.398
642.097;28750.672;  -11.271;35654.258
642.676;31496.941;   -8.651;35637.957
643.255;32755.135;   -8.711;36567.074
643.833;32039.406;   -9.581;37809.434
644.412;31872.408;  -13.711;37337.293
644.990;30792.457;  -11.811;37018.531
645.569;30414.645;   -9.411;36518.469
646.147;30021.607;  -10.291;36186.430
646.726;30334.477;  -12.401;36267.688
647.304;31455.227;  -10.411;36647.625
647.882;32764.082;   -9.651;39286.742
648.461;34316.758;   -9.631;39157.703
649.039;32798.703;  -11.881;35412.883
649.617;31865.289;   -9.661;34744.918
650.195;31096.895;   -9.301;35403.098
650.773;29834.123;  -10.511;35053.797
651.352;27410.965;  -11.521;33756.816
651.930;24997.859;  -12.211;31868.773
652.508;23519.238;   -9.171;33121.551
653.086;27260.490;   -9.371;33564.793
653.663;30408.748;  -13.161;34054.668
654.241;29107.721;  -13.031;35693.309
654.819;30575.527;   -9.371;36422.906
655.397;30566.539;  -10.511;38213.484
655.975;29900.643;  -10.371;39507.625
656.553;29717.633;  -10.051;39498.223
657.130;28407.904;  -10.061;40395.480
657.708;27574.207;   -9.561;39242.020
658.286;27691.330;  -11.511;38920.020
658.863;29018.834;  -10.261;40202.898
659.441;32310.316;   -7.531;39677.938
660.018;32377.992;   -9.501;40413.355
660.596;30934.098;  -13.301;39931.414
661.173;32364.965;  -11.211;39604.531
661.750;32692.258;   -9.951;39700.070
662.328;31342.871;   -9.390;39292.809
662.905;30502.488;  -11.330;38235.648
663.482;26686.258;   -9.050;36212.305
664.060;24653.131;   -8.240;35944.945
664.637;27369.748;  -10.050;35170.785
665.214;28786.350;  -11.760;34197.523
665.791;30546.879;  -10.530;34549.520
666.368;29956.975;   -9.690;35118.578
666.945;30178.014;   -9.320;36019.418
667.522;31559.348;  -11.860;36048.438
668.099;31325.348;  -10.770;36243.914
668.676;30022.357;   -6.260;35958.875
669.253;28791.963;   -7.000;37384.730
669.830;29216.648;  -10.190;36779.629
670.407;29206.945;   -9.550;35231.289
670.984;28789.273;   -9.260;35544.270
671.560;29574.465;   -9.280;35466.867
672.137;29041.227;  -11.810;34280.863
672.714;29979.670;  -11.490;34632.863
673.290;31284.873;   -7.740;35135.422
673.867;31318.635;  -10.660;36114.480
674.443;31333.803;  -12.230;36152.859
675.020;29335.180;  -10.450;35327.238
675.596;30101.688;   -9.260;35795.176
676.173;30661.334;  -10.780;35430.355
676.749;30225.934;  -13.690;33549.516
677.326;30062.889;  -11.980;32210.012
677.902;30028.121;   -8.630;32068.871
678.478;29350.383;  -10.730;32583.891
679.054;28313.672;  -10.520;32088.928
679.631;28632.047;  -11.920;30978.848
680.207;30194.340;   -7.490;33160.887
680.783;31806.002;   -9.860;35570.363
681.359;31063.838;  -13.380;36125.184
681.935;30774.098;  -12.480;35240.922
682.511;30657.830;   -7.900;34429.961
683.087;30922.080;   -7.710;34463.680
683.663;30104.896;  -11.480;34648.898
684.239;28642.707;  -14.090;34546.457
684.815;27924.680;   -7.560;35586.375
685.390;28059.791;   -9.910;35821.895
685.966;28678.408;  -11.159;35085.871
686.542;31096.557;  -11.169;34198.230
687.118;33574.527;   -5.959;32847.707
687.693;34218.086;  -10.329;32794.027
688.269;33902.230;  -12.059;33072.367
688.844;32123.738;  -10.909;33141.664
689.420;30160.316;   -8.019;33965.742
689.995;28329.643;   -8.399;34655.523
690.571;26829.223;  -10.949;33576.742
691.146;26713.191;   -9.619;32657.219
691.722;26583.105;   -8.999;32526.979
692.297;26180.842;  -11.589;33014.617
692.872;27525.545;  -11.739;34012.254
693.448;27413.818;  -11.059;34237.434
694.023;26405.695;  -10.139;34142.672
694.598;28189.107;   -9.029;34132.031
695.173;28995.467;  -13.319;34205.250
695.748;28031.598;  -10.169;32882.488
696.323;28134.104;   -8.339;32864.906
696.898;28426.723;   -8.169;33170.004
697.473;28617.119;  -12.309;32432.984
698.048;27924.537;  -10.989;31649.303
698.623;27449.852;   -9.329;30778.141
699.198;28854.891;   -9.849;31140.119
699.773;30316.311;  -12.329;31764.299
700.348;29047.557;  -10.389;31780.816
700.922;29007.600;   -9.269;32046.375
701.497;30119.295;   -9.329;32603.574
702.072;30494.408;  -10.789;34799.871
702.646;29127.074;  -10.839;35793.172
703.221;26779.445;   -9.099;35201.590
703.795;28741.576;  -10.939;34764.527
704.370;29342.543;  -12.859;34307.367
704.944;29441.037;  -11.559;33509.887
705.519;29963.865;   -7.939;31388.584
706.093;31122.082;  -10.499;31340.104
706.668;31752.346;  -11.289;32630.281
707.242;30622.789;  -11.509;32728.779
707.816;29247.795;   -9.639;32947.238
708.390;27812.193;  -11.429;33277.855
708.965;28085.939;  -11.869;33834.336
709.539;27672.938;  -11.689;33709.273
710.113;27781.088;  -10.478;33044.313
710.687;27604.125;  -10.228;31953.992
711.261;26282.383;  -13.698;30505.949
711.835;26139.563;  -13.378;30262.369
712.409;26451.404;   -9.698;31254.447
712.983;28463.688;  -11.898;32754.986
713.557;29831.584;  -15.138;34018.824
714.131;29635.660;  -14.098;34579.625
714.704;28543.109;   -9.958;33890.262
715.278;26066.980;  -10.028;33531.102
715.852;24722.313;  -11.148;33601.660
716.425;25587.873;   -9.068;33515.117
716.999;26761.631;  -10.038;33185.555
717.573;27732.393;   -9.798;33905.996
718.146;28739.508;  -12.378;35199.293
718.720;28902.148;  -11.918;35060.551
719.293;28670.068;   -8.088;34973.230
719.867;31536.242;  -10.888;36394.449
720.440;31557.516;  -11.938;36663.008
721.013;29898.775;  -12.818;35102.426
721.587;28232.525;  -10.298;33985.266
722.160;26894.943;  -10.048;33524.965
722.733;25895.707;  -12.108;32987.043
723.306;26153.838;  -10.818;33066.301
723.880;28410.109;   -8.908;33399.500
724.453;30981.035;   -9.878;33468.297
725.026;30416.553;  -11.188;33816.637
725.599;27436.174;  -11.678;32797.996
726.172;27005.998;   -9.618;33187.434
726.745;27824.271;   -8.258;35136.613
727.318;29029.580;  -12.978;35751.730
727.891;30010.979;  -12.148;35890.430
728.463;29727.736;   -8.968;34822.090
729.036;28343.973;  -10.188;32895.086
729.609;28846.088;  -11.788;31823.225
730.182;26093.723;  -11.788;31445.283
730.754;23606.064;  -10.268;32373.223
731.327;23724.367;   -9.998;33676.820
731.900;23869.740;  -12.228;33417.000
732.472;24771.271;  -13.848;31978.498
733.045;26740.324;   -8.698;30368.777
733.617;26916.307;  -10.607;30574.215
734.190;27208.164;  -11.507;31280.975
734.762;24995.100;  -13.647;31674.412
735.334;22885.514;   -9.767;31247.291
735.907;23073.074;   -9.897;29876.211
736.479;23491.342;  -11.637;29808.488
737.051;23299.873;   -9.567;30233.547
737.623;23877.469;   -8.187;31469.086
738.195;24026.918;  -11.187;31784.225
738.768;25849.721;  -12.337;32120.523
739.340;26904.021;  -12.227;32094.342
739.912;26211.338;  -11.057;31312.680
740.484;24814.686;  -10.207;31946.238
741.056;23080.584;  -10.047;32984.059
741.628;24319.342;  -13.627;33897.715
742.199;26521.691;   -7.177;33213.016
742.771;25001.873;  -10.797;31369.113
743.343;22831.809;  -11.997;31865.473
743.915;21848.977;  -12.867;32388.631
744.487;21784.592;   -7.617;31079.568
745.058;21938.689;   -9.557;30570.107
745.630;22567.885;   -9.877;29970.127
746.201;23869.262;  -14.177;29186.766
746.773;24842.645;   -9.237;28805.723
747.344;24679.951;   -9.847;29591.223
747.916;22784.289;  -11.657;31412.201
748.487;22595.189;  -10.587;32194.898
749.059;23798.053;   -8.707;32533.719
749.630;24571.869;  -10.537;32158.518
750.201;23571.221;  -11.687;30855.395
750.773;21807.551;  -11.647;28622.555
751.344;21547.875;   -7.147;28405.732
751.915;22608.736;   -9.757;28461.551
752.486;23024.107;  -12.427;27842.850
753.057;20967.416;  -12.227;27845.008
753.628;19598.635;  -10.417;27728.107
754.199;20491.574;  -11.767;27381.086
754.770;21556.621;  -11.187;25882.203
755.341;21728.975;  -10.507;25886.184
755.912;22011.941;   -9.387;26050.861
756.483;21689.264;  -10.647;26798.779
757.054;20005.445;  -11.837;27048.238
757.625;18551.656;  -12.716;26294.838
758.195;18131.061;   -9.666;26142.076
758.766;17735.455;   -8.656;26392.234
759.337;18340.414;  -12.856;26334.594
759.907;19748.830;  -13.366;27579.652
760.478;20676.303;   -8.576;28352.770
761.048;20324.402;  -10.526;27325.088
761.619;19403.871;  -11.116;26460.428
762.189;19356.879;  -12.136;26029.826
762.760;20094.250;   -9.456;26430.145
763.330;21345.039;   -7.136;26670.902
763.900;21158.779;  -11.786;26603.021
764.471;18837.211;  -11.546;25542.740
765.041;17456.027;   -8.096;24358.459
765.611;17238.508;   -8.876;23991.297
766.181;17486.838;  -12.196;24470.236
766.751;18614.416;  -11.636;24845.975
767.321;18499.938;  -10.156;24533.633
767.891;16629.383;  -11.766;24916.492
768.461;16037.705;  -14.936;24776.771
769.031;16483.658;  -12.356;24757.988
769.601;18202.596;   -7.526;24181.088
770.171;18332.887;  -10.766;23670.387
770.741;17291.889;  -13.176;22960.045
771.311;17182.549;  -10.616;22917.523
771.880;17796.830;   -9.576;23562.941
772.450;17722.217;  -10.336;24216.500
773.020;17572.104;  -13.516;24140.398
773.589;16699.154;  -13.466;24414.857
774.159;15970.204;   -8.686;23858.717
774.729;15603.839;   -9.476;22942.135
775.298;15308.552;  -13.666;22324.033
775.867;14901.808;  -11.716;21140.313
776.437;15107.911;   -9.906;20838.092
777.006;14949.858;  -12.166;20599.510
777.576;14618.946;  -12.356;20508.809
778.145;14492.724;  -11.646;20732.947
778.714;14480.113;   -8.226;21062.465
779.283;13950.978;   -9.556;20949.664
779.853;13386.729;  -14.116;20508.623
780.422;13793.811;  -11.506;20649.082
780.991;13421.736;   -9.556;21527.520
781.560;12156.526;   -9.095;22632.658
782.129;11931.576;  -12.135;23048.277
782.698;11966.491;  -10.865;23438.555
783.267;11568.651;   -9.335;23267.734
783.836;11428.620;  -11.045;22415.133
784.404;12381.247;  -13.865;20443.152
784.973;13087.756;  -13.095;19699.150
785.542;13146.442;  -11.575;19763.828
786.111;12968.897;   -9.705;20341.408
786.679;12481.695;  -12.105;20207.967
787.248;12181.650;  -12.455;19516.465
787.817;12021.811;  -11.535;18900.363
788.385;11716.103;   -9.765;17879.121
788.954;11210.038;  -14.005;17658.301
789.522;10591.791;  -11.955;17788.879
790.090;11028.499;  -10.135;18118.277
790.659;11639.609;  -10.975;18338.736
791.227;11184.989;  -13.375;18508.615
791.795;11492.936;  -12.375;17898.254
792.364;11865.606;  -10.725;17295.133
792.932;12307.449;   -9.715;16822.051
793.500;12587.278;  -12.675;17040.148
794.068;12769.646;  -13.495;17179.787
794.636;12947.974;  -10.885;16664.246
795.204;12207.962;  -11.045;16524.545
795.772;12216.453;  -13.175;17274.564
796.340;11794.026;  -12.445;17891.002
796.908;11544.131;   -9.735;17648.561
797.476;11417.947;   -9.815;17064.080
798.044;10988.976;  -13.985;16672.777
798.612;10222.058;  -13.115;17023.996
799.180; 9807.997;  -10.185;16561.615
799.747; 9655.450;   -9.055;15962.773
800.315; 9364.947;  -12.385;15296.992
800.883; 9141.281;  -15.035;14801.771
801.450; 9339.455;  -10.365;14534.430
802.018; 9494.833;   -9.855;14173.248
802.585; 9535.138;  -11.905;14029.547
803.153; 9483.622;  -11.585;13836.846
803.720; 9253.163;   -9.095;13567.324
804.287; 8781.761;   -9.135;13360.622
804.855; 8300.107;  -11.604;13681.981
805.422; 8169.841;  -11.794;13536.560
805.989; 8275.141;  -10.734;13355.958
806.556; 8441.971;  -10.444;13747.896
807.124; 8651.864;  -12.764;13987.376
807.691; 8595.910;  -12.964;14038.674
808.258; 8435.601;  -11.134;14120.152
808.825; 8137.194;   -9.854;13860.111
809.392; 8233.363;  -10.504;13268.790
809.959; 7748.712;  -13.054;12680.389
810.526; 7228.977;   -8.294;12427.308
811.093; 7190.615;   -8.394;12030.105
811.659; 7840.206;  -12.304;11653.664
812.226; 8451.006;  -13.944;11637.183
812.793; 8226.723;  -10.484;11611.521
813.360; 7588.736;  -10.144;11885.181
813.926; 7269.776;  -11.684;12770.539
814.493; 7070.323;  -13.644;12677.638
815.060; 6665.094;   -9.724;11974.336
815.626; 6579.746;   -9.854;11594.715
816.193; 6941.419;  -13.254;11579.474
816.759; 6971.094;  -13.204;11666.972
817.325; 6970.525;   -9.434;11325.530
817.892; 7298.090;  -10.134;11105.369
818.458; 7726.584;  -13.474;10843.928
819.024; 7396.315;  -11.854;10714.406
819.591; 7094.417;  -10.244;10469.165
820.157; 6897.118;  -10.704;10235.523
820.723; 6365.621;  -12.324;10847.563
821.289; 6046.973;   -9.444;11040.980
821.855; 6003.792;   -8.374;10357.100
822.421; 6025.597;  -10.234; 9978.918
822.987; 6033.710;  -13.294; 9754.177
823.553; 5638.300;  -10.884;10065.755
824.119; 5384.959;   -8.884;10036.294
824.685; 5529.318;   -6.784;10029.192
825.251; 5671.046;  -12.004;10199.230
825.816; 5616.143;  -11.474; 9820.189
826.382; 5321.088;   -9.174; 9297.248
826.948; 5430.734;   -9.214; 9381.347
827.513; 5845.433;  -10.774; 9450.726
828.079; 5739.947;  -11.924; 9472.444
828.645; 5130.317;  -10.543; 9292.643
829.210; 4917.485;  -10.533; 9065.341
829.776; 4885.744;  -10.753; 9132.620
830.341; 4777.011;  -10.173; 9092.878
830.906; 4929.208;  -10.743; 9078.557
831.472; 5294.593;  -11.113; 8534.535
832.037; 5140.910;  -10.603; 8677.874
832.602; 4644.409;  -13.323; 8628.692
833.167; 4370.303;  -10.823; 8879.031
833.733; 4299.107;  -10.113; 9189.790
834.298; 4443.146;  -13.583; 9052.608
834.863; 4591.196;  -12.703; 8895.087
835.428; 4604.601;  -10.523; 8824.266
835.993; 4429.554;   -6.963; 8845.385
836.558; 4216.684;  -10.763; 8888.563
837.123; 4266.599;   -9.903; 8966.582
837.688; 4508.981;   -9.913; 8617.860
838.253; 4788.880;  -10.283; 8590.699
838.817; 4988.458;  -12.963; 8443.797
839.382; 4915.596;  -14.243; 8799.356
839.947; 4614.102;  -10.733; 8810.595
840.511; 4324.297;   -9.383; 8796.394
841.076; 3952.762;  -12.563; 8347.231
841.641; 3993.317;  -12.953; 8224.330
842.205; 4093.873;   -7.043; 8223.349
842.770; 4111.685;   -8.163; 8622.107
843.334; 4229.693;  -12.503; 8410.386
843.898; 4168.937;  -11.693; 8337.465
844.463; 4166.250;  -10.203; 8506.283
845.027; 3966.913;   -9.533; 8280.962
845.591; 3787.759;  -13.443; 8231.141
846.156; 3815.878;  -13.143; 7969.179
846.720; 3736.253;   -9.433; 7768.278
847.284; 3623.169;  -11.033; 7630.957
847.848; 3489.818;  -10.403; 7472.395
848.412; 3407.824;  -11.553; 7437.394
848.976; 3460.735;   -8.393; 7674.592
849.540; 3378.968;   -8.713; 7836.011
850.104; 3426.360;  -12.463; 7913.669
850.668; 3793.319;  -12.973; 7694.508
851.232; 3975.672;  -10.793; 7756.887
851.796; 3849.685;  -10.662; 7926.545
852.359; 3535.604;  -13.082; 7827.844
852.923; 3335.578;  -12.192; 7641.163
853.487; 3168.182;  -11.912; 7342.501
854.050; 3155.926;  -10.892; 7042.820
854.614; 3322.621;  -13.992; 7151.338
855.177; 3450.245;  -11.732; 7105.077
855.741; 3486.163;   -8.962; 6989.675
856.304; 3374.170;   -9.442; 6596.634
856.868; 3332.627;  -14.192; 6356.272
857.431; 3432.673;  -12.702; 6468.571
857.995; 3547.375;   -9.942; 6373.210
858.558; 3576.319;   -9.112; 6324.448
859.121; 3306.841;  -12.932; 6408.327
859.684; 3131.623;  -13.442; 6347.886
860.247; 3244.244;  -10.632; 6321.264
860.810; 3294.407;  -11.272; 6301.903
861.374; 3059.527;   -9.832; 6607.881
861.937; 2790.357;  -11.762; 6408.200
862.500; 2785.253;   -9.722; 6572.639
863.062; 2947.297;  -10.512; 6387.297
863.625; 3102.337;  -11.232; 6190.836
864.188; 3265.114;  -14.112; 5807.254
864.751; 3339.373;  -11.302; 5682.413
865.314; 3247.780;  -10.112; 5547.492
865.876; 3010.006;  -12.182; 5500.150
866.439; 2958.244;  -10.722; 5415.909
867.002; 2923.530;   -9.252; 5501.567
867.564; 2744.796;   -9.572; 5413.946
868.127; 2538.047;  -13.142; 5160.325
868.689; 2421.483;  -12.902; 5133.183
869.252; 2320.498;   -9.732; 5252.382
869.814; 2219.684;   -9.432; 5297.141
870.377; 2220.037;  -11.552; 5390.919
870.939; 2281.169;   -9.052; 5599.898
871.501; 2352.049;  -10.982; 5248.336
872.063; 2365.098;  -12.292; 4854.235
872.626; 2302.070;  -14.912; 4817.074
873.188; 2298.234;  -13.112; 4987.732
873.750; 2272.584;  -13.442; 4868.651
874.312; 2175.522;   -9.402; 4779.330
874.874; 2092.954;  -11.062; 4866.348
875.436; 2016.289;  -13.931; 4718.887
875.998; 2014.103;   -9.561; 4660.005
876.560; 2043.225;  -11.321; 4462.964
877.122; 1985.277;  -12.221; 4145.042
877.683; 1880.243;  -12.191; 4056.481
878.245; 1799.268;  -12.101; 3950.740
878.807; 1843.956;   -8.971; 4058.958
879.369; 1880.712;  -12.071; 3954.677
879.930; 1789.539;  -14.621; 3941.495
880.492; 1722.892;  -10.311; 4067.014
881.053; 1701.950;  -10.901; 3859.633
881.615; 1606.466;  -14.411; 3776.071
882.176; 1496.579;  -13.761; 3734.750
882.738; 1431.755;   -9.181; 3678.489
883.299; 1413.223;  -11.791; 3405.407
883.860; 1426.432;  -13.121; 3351.106
884.422; 1480.564;  -11.211; 3394.044
884.983; 1523.455;  -10.091; 3166.443
885.544; 1471.162;   -8.461; 3189.802
886.105; 1266.354;  -12.361; 3160.360
886.666;  962.618;  -14.141; 3093.059
887.227;  704.807;  -11.361; 2941.957
887.788;  575.817;  -11.401; 2974.836
888.349;  541.102;  -13.791; 2721.214
888.910;  567.906;  -13.191; 2696.493
889.471;  606.130;   -9.881; 2560.172
890.032;  626.721;   -9.881; 2558.190
890.593;  635.323;  -10.371; 2567.669
891.153;  638.095;  -13.301; 2460.307
891.714;  620.152;  -11.431; 2372.046
892.275;  607.784;  -11.291; 2309.505
892.835;  593.229;  -11.471; 2382.543
893.396;  560.933;  -11.541; 2295.502
893.956;  516.102;  -11.181; 2162.420
894.517;  483.395;  -11.741; 2125.439
895.077;  478.209;  -11.671; 2086.978
895.638;  481.864;  -11.311; 2126.316
896.198;  458.297;   -9.831; 1838.275
896.758;  420.998;   -8.421; 1892.813
897.319;  394.663;  -12.351; 1792.232
897.879;  382.386;  -13.511; 1762.751
898.439;  359.649;  -12.001; 1661.149
898.999;  337.927;  -10.180; 1781.468
899.559;  329.467;  -12.030; 1703.347
900.119;  325.990;  -15.710; 1537.525
900.679;  321.061;   -8.900; 1638.384
901.239;  308.732;   -8.340; 1527.902
901.799;  298.304;  -13.910; 1456.441
902.359;  294.291;  -13.460; 1357.140
902.919;  287.585;  -11.490; 1331.118
903.479;  276.085;  -12.110; 1317.257
904.038;  257.565;  -11.720; 1262.595
904.598;  243.571;  -13.610; 1152.034
905.158;  239.055;  -11.040; 1240.893
905.717;  233.328;  -10.900; 1233.691
906.277;  223.018;  -15.080; 1217.330
906.836;  212.507;  -13.380; 1222.408
907.396;  201.464;  -10.780; 1193.047
907.955;  194.000;   -8.500; 1182.526
908.515;  188.535;  -12.760; 1099.364
909.074;  183.089;  -11.900; 1092.863
909.633;  178.920;   -8.950; 1069.121
910.192;  174.922;   -8.770; 1196.460
910.752;  170.363;  -12.390; 1029.960
911.311;  167.575;  -13.680; 1009.780
911.870;  164.892;  -12.370;  971.460
912.429;  165.268;  -10.900; 1094.080
912.988;  165.155;  -11.690; 1081.060
913.547;  160.378;  -13.240;  940.380
914.106;  156.369;  -11.990;  999.420
914.665;  152.514;   -9.990;  984.020
915.224;  151.698;  -12.880; 1035.760
915.782;  151.740;  -12.350;  922.560
916.341;  151.543;   -9.110; 1049.840
916.900;  146.804;   -9.270;  925.260
917.458;  144.779;  -13.240;  884.220
918.017;  145.760;  -13.550;  942.600
918.576;  144.512;  -12.320;  904.440
919.134;  143.468;  -11.490;  837.980
919.693;  141.605;  -13.670;  893.060
920.251;  140.203;  -15.470;  876.500
920.809;  139.325;  -11.290;  839.580
921.368;  138.275;  -10.210;  885.360
921.926;  137.327;  -12.140;  842.940
922.484;  136.508;  -13.080;  903.360
923.042;  135.817;  -11.720;  880.340
923.601;  139.053;   -7.480;  998.680
924.159;  137.406;  -11.570;  935.560
924.717;  133.643;  -13.840;  841.080
925.275;  133.772;  -10.640;  903.240
925.833;  132.512;  -11.540;  779.320
926.391;  133.931;  -12.960;  938.380
926.949;  133.293;  -14.130;  857.680
927.506;  133.512;  -11.750;  903.500
928.064;  133.435;  -10.250;  877.580
928.622;  132.933;  -13.030;  880.100
929.180;  132.434;  -13.400;  814.180
929.737;  133.393;  -10.700;  808.540
930.295;  136.763;  -10.070;  928.480
930.853;  137.884;  -11.960;  849.100
931.410;  138.557;  -13.120;  821.120
931.968;  137.869;  -10.770;  940.660
932.525;  137.893;  -10.680;  909.380
933.082;  137.433;  -13.130;  811.440
933.640;  139.368;  -13.210;  925.900
934.197;  137.602;  -11.060;  886.360
934.754;  138.119;   -9.580;  897.780
935.312;  141.016;  -14.000;  863.340
935.869;  146.060;  -10.710; 1012.980
936.426;  145.946;   -9.860;  872.800
936.983;  146.852;   -9.710;  889.020
937.540;  147.157;  -13.990;  838.280
938.097;  146.294;  -14.040;  940.120
938.654;  146.354;  -10.310;  898.860
939.211;  148.325;  -10.560;  952.480
939.768;  151.498;  -13.900;  915.420
940.324;  154.758;  -14.760;  904.200
940.881;  156.396;  -10.370;  878.500
941.438;  157.694;   -8.260; 1021.200
941.995;  153.948;  -12.540;  992.560
942.551;  151.628;  -14.670;  875.620
943.108;  151.814;  -10.450;  937.920
943.664;  153.344;  -10.750;  869.340
944.221;  157.052;  -11.550; 1088.140
944.777;  154.295;  -14.770;  869.680
945.334;  153.648;  -12.820;  884.840
945.890;  155.869;  -10.130;  946.480
946.446;  156.685;  -13.470;  947.020
947.003;  157.650;  -12.120;  964.940
947.559;  160.924;   -9.980; 1063.040
948.115;  159.056;   -9.080; 1026.540
948.671;  157.207;  -10.830;  967.300
949.227;  155.150;  -12.440;  859.560
949.783;  152.309;  -12.910;  858.900
950.339;  154.178;  -10.270;  991.000
950.895;  154.742;  -13.630; 1023.840
951.451;  153.758;  -15.100;  925.280
952.007;  153.420;  -11.330;  998.540
952.563;  153.272;  -10.580;  937.780
953.118;  151.757;  -13.440;  904.940
953.674;  151.828;  -12.710;  935.780
954.230;  151.936;  -10.350;  949.640
954.785;  148.958;   -9.190;  936.640
955.341;  146.974;  -11.200;  998.160
955.897;  145.148;  -16.560;  834.660
956.452;  146.658;  -12.570;  953.840
957.008;  146.953;   -7.970; 1083.640
957.563;  143.536;  -11.940; 1009.540
958.118;  138.637;  -13.450;  877.700
958.674;  137.830;  -12.030;  946.780
959.229;  139.402;   -9.410; 1013.980
959.784;  138.195;  -12.000;  832.400
960.339;  137.541;  -14.780; 1001.280
960.894;  135.247;   -9.860;  963.760
961.449;  130.508;   -9.970;  859.960
962.004;  130.743;  -10.900; 1212.840
962.559;  125.123;  -13.150;  860.140
963.114;  121.652;  -13.740;  742.480
963.669;  122.115;   -9.820;  915.500
964.224;  120.566;  -13.890;  874.340
964.779;  119.706;  -12.600;  828.420
965.334;  120.531;  -10.950; 1017.860
965.888;  119.566;  -11.170;  875.360
966.443;  122.972;  -12.540;  972.380
966.998;  122.379;  -15.780;  819.460
967.552;  121.670;   -9.760;  908.380
968.107;  117.426;   -9.060;  868.300
968.661;  118.882;  -11.950;  922.440
969.216;  118.183;  -12.800;  856.280
969.770;  118.734;  -11.210;  917.200
970.324;  117.247;  -11.610;  923.140
970.879;  114.295;  -11.370;  947.180
971.433;  111.546;  -12.540;  952.720
971.987;  107.226;  -11.320;  895.340
972.541;  104.157;  -10.720;  917.100
973.095;  103.241;   -9.680; 1009.460
973.649;  102.645;  -11.440;  809.480
974.203;  101.648;  -11.210;  829.040
974.757;  100.938;  -10.240;  855.220
975.311;  101.928;  -13.720;  872.600
975.865;  101.092;  -13.770;  881.820
976.419;   98.893;  -11.690;  857.400
976.973;   97.992;   -9.510;  849.620
977.526;  100.248;  -12.620;  949.920
978.080;  100.074;  -12.010;  796.780
978.634;  100.984;  -10.170;  921.320
979.187;   99.120;   -9.020;  905.400
979.741;   96.850;   -9.820; 1018.380
980.294;   91.694;  -14.870;  789.160
980.848;   89.297;  -12.380;  717.220
981.401;   91.483;  -10.350;  816.540
981.955;   93.158;  -13.720;  844.300
982.508;   92.569;  -11.490;  746.340
983.061;   92.410;  -10.000;  915.260
983.615;   88.324;  -11.480;  798.800
984.168;   85.119;  -13.220;  770.080
984.721;   85.216;  -13.960;  880.760
985.274;   83.331;  -10.870;  867.500
985.827;   82.675;   -9.790;  834.220
986.380;   80.861;  -13.120;  721.340
986.933;   79.861;  -12.450;  864.800
987.486;   78.439;  -10.210;  861.920
988.039;   77.334;   -8.430;  863.100
988.591;   75.483;  -10.520;  893.260
989.144;   73.198;  -14.860;  737.260
989.697;   72.144;  -13.080;  758.740
990.250;   72.443;  -10.150;  858.100
990.802;   70.818;  -13.430;  755.860
991.355;   73.490;  -12.750;  974.880
991.907;   70.278;  -12.040;  864.320
992.460;   67.066;  -11.330;  753.760
993.012;   66.933;  -13.610;  749.540
993.565;   65.699;  -13.460;  711.360
994.117;   67.158;   -9.360;  950.780
994.669;   64.512;  -11.300;  701.320
995.221;   62.951;  -13.540;  791.920
995.774;   61.136;  -13.430;  787.580
996.326;   60.190;  -12.520;  740.220
996.878;   59.418;  -10.950;  838.420
997.430;   56.713;  -14.300;  699.860
997.982;   56.496;  -13.760;  750.140
998.534;   56.333;  -11.530;  739.060
999.086;   53.956;  -10.310;  738.220
999.638;   52.628;  -12.530;  661.380
1000.190;   53.225;  -11.840;  699.320
1000.741;   52.506;  -10.260;  742.700
1001.293;   51.703;   -8.860;  686.020
1001.845;   49.542;  -13.700;  676.640
1002.396;   50.408;  -12.100;  743.400
1002.948;   50.338;  -12.760;  737.400
1003.500;   48.636;  -10.380;  723.780
1004.051;   49.481;  -11.900;  907.580
1004.603;   47.160;  -12.250;  791.820
1005.154;   43.119;  -13.210;  608.980
1005.705;   42.543;  -10.950;  723.960
1006.257;   41.730;  -13.880;  707.220
1006.808;   41.015;  -12.840;  685.460
1007.359;   41.406;  -10.570;  763.240
1007.910;   39.560;   -9.620;  646.640
1008.461;   39.770;  -13.630;  732.940
1009.013;   39.151;  -17.200;  588.340
1009.564;   39.855;  -10.200;  793.520
1010.115;   37.802;  -12.570;  597.040
1010.665;   37.629;  -15.150;  602.160
1011.216;   38.071;  -14.480;  667.920
1011.767;   36.796;  -11.340;  697.920
1012.318;   36.608;   -9.780;  736.980
1012.869;   35.836;  -12.380;  679.000
1013.419;   35.981;  -15.560;  603.120
1013.970;   36.065;  -11.010;  666.640
1014.521;   34.984;  -11.610;  620.620
1015.071;   35.347;  -13.450;  670.380
1015.622;   35.070;  -13.870;  635.460
1016.172;   34.683;  -11.610;  596.820
1016.723;   34.956;  -12.120;  614.380
1017.273;   33.717;  -13.620;  604.160
1017.823;   34.288;  -14.140;  650.340
1018.374;   33.898;  -12.800;  611.760
1018.924;   32.588;  -12.340;  716.880
1019.474;   33.853;  -11.410;  718.880
1020.024;   33.212;  -14.770;  657.580
1020.574;   32.871;   -9.780;  726.160
1021.124;   33.571;   -8.560;  673.580
1021.674;   31.605;  -15.190;  559.120
1022.224;   33.038;  -13.530;  708.940
1022.774;   32.514;  -13.280;  668.820
1023.324;   33.082;  -10.690;  753.520
1023.874;   34.010;  -10.240;  875.760
1024.423;   31.661;  -12.540;  613.700
1024.973;   31.319;  -10.010;  610.760
1025.523;   30.137;  -10.550;  620.960
1026.072;   30.001;  -13.560;  606.420
1026.622;   30.034;  -15.120;  675.740
1027.172;   31.196;  -11.260;  715.660
1027.721;   29.395;  -11.410;  601.220
1028.270;   29.051;  -13.530;  663.400
1028.820;   30.263;  -13.680;  638.080
1029.369;   28.755;  -13.520;  612.700
1029.918;   29.103;  -10.980;  649.840
1030.468;   28.454;  -13.530;  564.780
1031.017;   29.335;  -13.170;  634.800
1031.566;   27.281;  -12.200;  608.900
1032.115;   27.758;   -9.960;  694.500
1032.664;   27.367;  -13.210;  596.480
1033.213;   28.672;  -12.500;  735.420
1033.762;   28.475;  -11.910;  635.620
1034.311;   27.169;   -9.640;  677.220
1034.860;   27.679;  -13.310;  691.000
1035.408;   28.085;  -11.830;  722.720
1035.957;   28.058;  -12.000;  719.540
1036.506;   26.381;  -11.690;  530.800
1037.055;   28.441;  -10.990;  844.320
1037.603;   27.477;  -15.120;  664.000
1038.152;   24.946;  -12.450;  534.760
1038.700;   25.193;  -10.560;  585.740
1039.249;   25.739;  -11.080;  681.220
1039.797;   26.610;  -12.540;  633.360
1040.345;   26.145;  -11.920;  705.420
1040.894;   24.955;  -11.410;  625.300
1041.442;   24.596;  -14.320;  632.200
1041.990;   23.606;  -16.240;  559.160
1042.538;   24.063;  -11.680;  536.180
1043.087;   23.668;  -10.760;  570.860
1043.635;   24.764;  -11.850;  670.500
1044.183;   23.624;  -15.480;  586.400
1044.731;   24.214;  -11.770;  576.000
1045.279;   23.705;  -13.090;  674.920
1045.827;   24.947;  -12.440;  892.400
1046.374;   22.956;  -13.840;  515.420
1046.922;   22.049;  -13.220;  590.580
1047.470;   23.962;  -10.230;  691.300
1048.018;   23.171;  -14.590;  647.960
1048.565;   24.094;  -12.050;  708.600
1049.113;   21.926;  -11.650;  557.000
1049.660;   22.877;  -10.510;  629.660
1050.208;   22.241;  -13.310;  675.640
1050.755;   22.098;  -15.900;  606.580
1051.303;   22.434;  -11.430;  686.820
1051.850;   21.512;   -8.480;  635.120
1052.397;   19.942;  -15.010;  473.960
1052.945;   20.522;  -13.960;  617.760
1053.492;   22.590;  -13.150;  741.840
1054.039;   22.295;   -9.630;  720.180
1054.586;   20.164;  -13.680;  557.240
1055.133;   21.598;  -14.570;  693.140
1055.680;   21.226;  -13.820;  646.620
1056.227;   20.027;  -11.730;  542.780
1056.774;   21.950;  -12.480;  794.980
1057.321;   19.989;  -13.930;  523.260
1057.868;   20.247;  -11.690;  651.320
1058.415;   19.962;   -9.520;  651.980
1058.961;   20.062;  -13.160;  678.940
1059.508;   19.961;  -12.920;  643.820
1060.055;   20.323;  -11.920;  581.780
1060.601;   19.531;  -11.500;  624.300
1061.148;   19.524;  -14.330;  616.820
1061.694;   19.486;  -16.870;  592.580
1062.241;   19.339;  -10.330;  596.320
1062.787;   19.156;  -10.620;  663.140
1063.334;   21.039;  -10.110;  808.560
1063.880;   19.323;  -13.400;  668.360
1064.426;   19.112;  -10.680;  706.820
1064.972;   18.046;   -9.920;  601.340
1065.518;   17.548;  -10.980;  566.640
1066.065;   18.737;  -14.890;  624.460
1066.611;   18.154;  -12.870;  598.800
1067.157;   18.008;  -12.950;  641.860
1067.703;   18.189;  -13.540;  668.480
1068.249;   18.215;  -13.540;  605.220
1068.794;   17.614;  -12.600;  626.880
1069.340;   17.079;  -10.620;  578.960
1069.886;   17.756;  -12.830;  590.700
1070.432;   16.554;  -14.870;  541.720
1070.977;   16.557;  -11.980;  601.080
1071.523;   16.284;   -8.200;  573.060
1072.068;   16.745;  -12.330;  582.000
1072.614;   16.621;  -16.370;  527.760
1073.160;   17.429;  -11.100;  687.040
1073.705;   16.161;  -10.480;  572.520
1074.250;   16.012;  -14.520;  559.900
1074.796;   16.834;  -11.460;  655.160
1075.341;   17.673;  -11.950;  664.100
1075.886;   16.154;  -11.460;  594.240
1076.431;   15.318;  -13.770;  649.880
1076.976;   15.229;  -12.680;  639.220
1077.521;   14.663;  -13.170;  583.080
1078.067;   14.847;  -10.860;  579.400
1078.612;   15.190;  -13.920;  661.620
1079.156;   15.688;  -13.880;  601.540
1079.701;   15.506;  -13.120;  693.260
1080.246;   15.905;   -9.940;  696.300
1080.791;   14.772;  -14.740;  625.020
1081.336;   15.018;  -13.750;  659.320
1081.880;   15.023;  -13.400;  649.680
1082.425;   13.988;  -12.220;  573.480
1082.970;   15.344;  -11.610;  717.040
1083.514;   14.240;  -13.580;  597.000
1084.059;   13.769;  -12.810;  586.720
1084.603;   13.348;  -12.320;  565.840
1085.147;   13.733;  -13.190;  645.220
1085.692;   15.264;  -12.480;  716.800
1086.236;   12.601;  -13.020;  503.140
1086.780;   14.389;   -9.190;  751.440
1087.325;   13.820;  -12.480;  654.620
1087.869;   14.246;  -12.450;  610.700
1088.413;   14.108;  -12.240;  705.040
1088.957;   11.844;   -9.020;  543.400
1089.501;   13.767;  -10.320;  766.640
1090.045;   13.119;  -12.720;  726.480
1090.589;   11.593;  -13.690;  569.920
1091.133;   12.237;  -10.020;  673.340
1091.676;   12.049;  -12.330;  591.940
1092.220;   12.485;  -14.970;  600.920
1092.764;   13.982;  -12.430;  706.960
1093.307;   12.442;   -9.800;  673.780
1093.851;   11.226;  -14.970;  556.540
1094.395;   12.978;  -15.310;  683.140
1094.938;   11.560;  -10.370;  632.520
1095.482;   11.459;  -11.050;  559.800
1096.025;   11.829;  -11.840;  710.880
1096.568;   13.134;  -12.840;  779.280
1097.112;   10.145;  -14.700;  508.180
1097.655;   11.109;   -8.720;  603.000
1098.198;   10.017;  -13.610;  600.180
1098.741;   10.660;  -13.350;  612.860
1099.285;   11.606;  -11.230;  657.300
1099.828;    8.917;  -11.840;  439.400
1100.371;   10.587;  -10.840;  608.160
1100.914;   11.054;  -14.190;  682.660
1101.457;   10.897;  -11.240;  679.900
1101.999;    9.735;  -11.270;  584.680
1102.542;    9.791;  -11.480;  641.440
1103.085;   10.578;  -11.750;  658.500
1103.628;   10.470;  -11.400;  762.060
1104.170;    9.202;  -10.490;  588.280
1104.713;    9.339;  -10.600;  646.700
1105.256;    9.545;  -14.360;  557.440
1105.798;    8.297;  -13.210;  499.980
1106.341;   10.912;  -10.270;  728.900
1106.883;    9.102;  -12.200;  521.340
1107.425;    9.407;  -13.110;  668.180
1107.968;    8.895;  -12.840;  612.380
1108.510;    8.960;   -6.480;  684.960
1109.052;    7.492;  -13.940;  612.620
1109.594;    8.632;  -13.690;  554.440
1110.136;    9.149;  -11.880;  643.220
1110.679;    7.353;   -9.500;  633.080
1111.221;    8.529;  -14.160;  604.460
1111.763;    7.856;  -13.980;  559.220
1112.304;    7.947;  -13.880;  547.140
1112.846;    8.162;  -12.210;  666.240
1113.388;   10.754;  -11.390;  942.180
1113.930;    8.594;  -14.540;  694.200
1114.472;    7.467;  -12.640;  606.540
1115.013;    6.911;  -11.620;  551.280
1115.555;    6.301;  -13.640;  587.100
1116.097;    6.791;  -15.380;  579.480
1116.638;    7.963;  -12.640;  684.600
1117.180;    7.979;   -9.850;  667.740
1117.721;    6.659;  -13.690;  568.580
1118.262;    8.021;  -12.680;  677.960
1118.804;    8.275;  -12.530;  637.340
1119.345;    6.650;  -11.690;  578.400
1119.886;    7.611;  -13.380;  704.040
1120.427;    6.630;  -14.070;  589.020
1120.969;    6.429;  -13.500;  597.920
1121.510;    5.691;  -11.480;  563.060
1122.051;    6.163;  -12.830;  723.580
1122.592;    6.179;  -14.290;  655.420
1123.133;    5.199;  -12.400;  547.940
1123.673;    6.775;  -10.130;  706.480
1124.214;    5.844;  -12.930;  612.460
1124.755;    7.227;  -14.380;  639.460
1125.296;    6.272;  -14.000;  627.320
1125.836;    6.993;  -10.070;  691.500
1126.377;    5.453;  -12.640;  599.660
1126.918;    5.857;  -12.960;  614.980
1127.458;    5.149;  -13.350;  622.220
1127.999;    6.094;  -10.750;  656.980
1128.539;    5.714;  -12.350;  694.240
1129.079;    5.132;  -14.860;  632.720
1129.620;    4.332;  -13.840;  558.100
1130.160;    4.004;  -12.330;  539.480
1130.700;    5.210;  -14.530;  640.840
1131.240;    6.343;  -12.530;  643.700
1131.781;    4.840;  -14.450;  619.680
1132.321;    4.301;   -9.790;  599.120
1132.861;    3.933;  -14.860;  564.200
1133.401;    3.458;  -14.290;  593.940
1133.941;    4.683;  -11.750;  626.280
1134.481;    3.722;   -9.920;  597.580
1135.020;    3.458;  -12.290;  609.160
1135.560;    3.954;  -11.650;  674.940
1136.100;    3.257;  -16.270;  501.160
1136.640;    2.652;  -10.890;  510.480
1137.179;    3.447;  -14.180;  537.960
1137.719;    3.977;  -16.250;  605.400
1138.258;    4.104;  -14.230;  587.360
1138.798;    3.829;   -9.090;  663.780
1139.337;    2.096;  -15.130;  482.840
1139.877;    4.071;  -13.680;  642.360
1140.416;    5.707;  -11.320;  878.060
1140.955;    2.567;  -10.860;  535.380
1141.494;    3.616;  -12.920;  669.280
1142.034;    3.304;  -13.930;  583.520
1142.573;    4.090;  -11.440;  646.280
1143.112;    2.345;  -12.000;  553.480
1143.651;    2.818;  -13.670;  536.480
1144.190;    3.705;  -12.730;  691.640
1144.729;    3.030;  -14.560;  607.420
1145.267;    2.592;  -11.830;  584.900
1145.806;    3.350;  -12.230;  637.040
1146.345;    1.953;  -14.130;  635.020
1146.884;    2.646;  -11.590;  622.500
1147.422;    1.501;  -12.550;  533.060
1147.961;    3.193;  -11.180;  708.460
1148.500;    2.726;  -11.510;  669.720
1149.038;    3.695;  -11.640;  632.500
1149.577;    2.798;  -10.130;  698.640
1150.115;    0.100;  -13.970;  452.280
1150.653;    2.072;  -14.520;  607.340
1151.192;    2.625;  -12.810;  552.920
1151.730;    1.919;   -9.100;  652.560
1152.268;    0.982;  -12.220;  589.520
1152.806;    1.681;  -14.140;  571.180
1153.344;    0.763;  -12.350;  577.640
1153.882;    1.301;   -8.980;  600.060
1154.421;   -0.123;  -15.190;  470.620
1154.958;    1.059;  -15.210;  595.240
1155.496;    2.910;  -12.850;  645.280
1156.034;    1.787;   -9.940;  721.880
1156.572;    2.327;  -13.570;  667.060
1157.110;    0.482;  -14.590;  473.940
1157.647;    1.921;  -13.030;  676.960
1158.185;   -0.063;  -12.140;  564.320
1158.723;   -0.696;  -14.390;  509.200
1159.260;    0.797;  -14.090;  701.700
1159.798;    1.442;  -11.920;  658.160
1160.335;    0.144;  -11.110;  631.820

