
Integration time [ms]:   3.276
Averaging Nr. [scans]: 1000
Smoothing Nr. [pixels]: 0
Data measured with spectrometer [name]: 7414430SP
Wave   ;Sample   ;Dark     ;Reference
[nm]   ;[counts] ;[counts] ;[counts] 

288.544;  151.563;    7.793;  793.890
289.143;  155.519;    7.462;  681.602
289.742;  156.779;    8.602;  828.814
290.341;  141.518;    1.321;  789.841
290.940;  130.880;   -0.709;  730.702
291.538;  131.044;    0.881;  881.108
292.137;  131.755;    0.122;  792.581
292.736;  137.188;   -1.929;  975.101
293.335;  132.837;   -8.229;  735.086
293.934;  132.722;   -5.279;  781.677
294.532;  131.636;   -1.369; 1031.958
295.131;  117.584;   -7.641;  834.394
295.730;  117.011;   -8.420;  809.588
296.328;  116.443;   -5.611;  783.442
296.927;  117.016;   -5.781;  779.652
297.525;  118.176;   -6.361;  781.236
298.124;  107.571;  -11.382;  654.009
298.722;  111.666;   -7.641;  761.933
299.321;  110.167;   -6.811;  708.597
299.919;  108.411;   -6.991;  751.918
300.518;  105.176;  -10.362;  689.338
301.116;  106.634;   -9.581;  691.381
301.715;  106.942;   -4.891;  730.222
302.313;  105.988;   -8.801;  704.943
302.911;  100.977;   -8.522;  733.830
303.509;  105.458;   -6.171;  925.627
304.108;  104.559;   -7.311;  760.383
304.706;  103.365;   -8.321;  801.664
305.304;   97.625;  -10.222;  796.707
305.902;  102.978;   -6.021;  784.484
306.500;   98.973;   -4.971;  728.200
307.098;   97.577;   -7.061;  746.560
307.696;   95.074;   -8.801;  780.432
308.294;   95.150;   -6.411;  731.359
308.892;   98.163;   -2.901;  759.769
309.490;   93.917;   -5.041;  712.161
310.088;   92.068;   -5.002;  788.444
310.686;   96.167;   -2.041;  821.749
311.284;   92.171;   -2.351;  766.040
311.882;   90.138;   -4.422;  731.225
312.480;   87.201;   -4.192;  697.167
313.078;   88.085;   -1.172;  808.331
313.675;   88.415;   -2.601;  691.600
314.273;   84.577;   -1.312;  797.837
314.871;   83.147;   -3.942;  589.829
315.468;   81.088;   -2.802;  652.090
316.066;   85.219;   -0.701;  694.427
316.664;   77.281;   -4.362;  656.351
317.261;   80.961;   -2.872;  910.128
317.859;   76.910;   -2.022;  768.735
318.456;   77.650;   -0.531;  830.096
319.054;   72.735;   -3.912;  787.828
319.651;   71.418;   -4.752;  759.928
320.249;   70.664;   -2.602;  810.188
320.846;   69.535;   -0.821;  714.286
321.443;   66.427;   -4.642;  832.135
322.041;   62.738;   -5.002;  812.315
322.638;   60.897;   -3.982;  701.456
323.235;   62.594;   -3.411;  665.683
323.833;   59.157;   -7.361;  740.354
324.430;   54.408;   -8.611;  615.900
325.027;   55.650;   -4.061;  876.855
325.624;   55.123;   -4.031;  644.532
326.221;   52.611;   -7.481;  689.717
326.818;   52.667;   -5.281;  818.332
327.415;   54.988;   -7.460;  748.828
328.012;   55.121;   -5.510;  690.585
328.609;   54.182;   -7.880;  731.389
329.206;   52.319;   -8.331;  778.621
329.803;   52.433;   -5.121;  737.841
330.400;   54.833;   -4.510;  704.260
330.997;   56.678;   -6.441;  817.147
331.594;   54.382;   -8.831;  788.185
332.191;   60.115;   -7.621;  728.722
332.787;   62.915;   -4.591;  844.463
333.384;   60.941;   -7.412;  763.093
333.981;   59.661;   -8.293;  815.687
334.578;   62.601;   -7.052;  708.378
335.174;   65.982;   -3.102;  731.469
335.771;   65.419;   -5.943;  836.456
336.367;   61.953;   -7.393;  710.631
336.964;   65.771;   -4.063;  793.266
337.561;   63.633;   -3.813;  731.112
338.157;   59.822;   -4.654;  911.916
338.754;   56.758;   -7.934;  796.589
339.350;   55.022;   -4.414;  722.493
339.946;   57.204;   -4.664;  773.135
340.543;   48.561;   -6.375;  846.136
341.139;   42.675;   -9.815;  720.836
341.735;   41.724;   -4.526;  772.593
342.332;   39.896;   -4.895;  691.472
342.928;   40.336;   -4.295;  795.394
343.524;   33.799;   -5.476;  761.684
344.120;   30.545;   -5.856;  738.562
344.716;   33.840;   -2.155;  723.717
345.313;   32.410;   -6.275;  795.342
345.909;   26.227;   -8.815;  627.336
346.505;   28.200;   -5.305;  740.247
347.101;   29.546;   -2.674;  827.864
347.697;   29.255;   -4.344;  785.398
348.293;   23.771;   -9.975;  627.244
348.889;   24.790;   -5.774;  745.914
349.485;   24.883;   -5.004;  688.205
350.081;   24.881;   -4.704;  772.592
350.676;   20.762;   -6.635;  691.606
351.272;   23.781;   -4.504;  809.530
351.868;   24.964;   -3.914;  780.497
352.464;   22.360;   -9.044;  723.932
353.059;   17.356;   -8.314;  646.017
353.655;   20.913;   -7.024;  777.063
354.251;   22.856;   -5.343;  759.845
354.846;   16.375;   -8.604;  740.646
355.442;   13.833;   -6.945;  753.071
356.038;   15.294;   -7.564;  751.708
356.633;   16.762;   -5.814;  728.594
357.229;   14.579;   -7.364;  724.757
357.824;   11.923;   -8.024;  703.600
358.420;   11.688;   -9.384;  679.726
359.015;   12.682;   -5.104;  695.357
359.610;   14.202;   -6.854;  763.920
360.206;    7.206;  -10.185;  603.240
360.801;    9.515;   -7.054;  646.503
361.396;   12.519;   -5.034;  725.975
361.992;    8.408;   -8.284;  668.220
362.587;    4.853;   -8.625;  670.160
363.182;    7.186;   -7.674;  689.631
363.777;    7.575;   -5.164;  738.242
364.372;    8.321;   -8.604;  737.314
364.967;    3.812;   -9.055;  680.744
365.563;    8.609;   -6.114;  815.567
366.158;    6.224;   -5.814;  685.161
366.753;    6.038;   -7.854;  649.263
367.348;    3.672;   -7.804;  746.056
367.942;    3.811;   -7.954;  697.298
368.537;    3.120;   -4.984;  754.245
369.132;    3.365;   -8.564;  703.428
369.727;   -0.251;   -8.855;  638.079
370.322;    0.343;   -6.245;  580.186
370.917;    0.395;   -6.425;  710.646
371.511;    3.361;   -6.294;  861.834
372.106;   -0.786;   -7.685;  776.964
372.701;   -3.656;   -7.335;  585.988
373.296;    2.878;   -4.564;  863.135
373.890;   -2.711;  -10.235;  647.840
374.485;   -5.014;   -7.885;  691.199
375.079;   -0.855;   -7.324;  738.685
375.674;    0.770;   -3.494;  812.970
376.268;   -2.690;   -8.525;  691.759
376.863;   -9.220;  -10.086;  580.327
377.457;   -3.561;   -7.025;  662.490
378.052;   -4.538;   -3.585;  764.884
378.646;   -5.624;   -7.595;  741.167
379.240;   -6.199;   -8.335;  721.176
379.835;   -5.274;   -5.785;  636.978
380.429;   -7.114;   -4.335;  562.557
381.023;   -6.454;   -6.805;  779.205
381.617;   -8.965;   -9.195;  680.106
382.212;   -6.565;   -6.905;  685.303
382.806;   -5.418;   -3.745;  760.690
383.400;   -9.495;   -7.745;  672.281
383.994;  -10.318;   -9.765;  664.870
384.588;   -6.812;   -6.564;  697.701
385.182;   -4.745;   -5.344;  726.624
385.776;   -6.555;   -8.514;  706.875
386.370;  -10.062;   -9.555;  681.968
386.964;   -9.085;   -8.715;  684.155
387.558;   -7.256;   -6.174;  598.360
388.152;  -10.061;   -8.725;  681.959
388.745;   -8.841;   -7.965;  814.707
389.339;   -7.002;   -5.924;  747.642
389.933;   -5.936;   -5.524;  695.370
390.527;   -7.243;   -7.114;  859.029
391.120;  -13.848;  -10.725;  595.318
391.714;  -10.360;   -8.035;  711.633
392.308;   -6.748;   -3.574;  780.253
392.901;  -10.329;   -7.245;  642.460
393.495;  -12.922;   -9.285;  595.414
394.089;  -10.571;   -5.895;  760.452
394.682;  -10.759;   -4.295;  697.188
395.275;  -11.149;   -9.875;  719.927
395.869;  -12.889;   -8.485;  667.314
396.462;  -10.740;   -7.455;  616.609
397.056;   -6.424;   -5.424;  776.621
397.649;  -12.206;   -6.605;  731.575
398.242;   -9.924;   -8.224;  712.645
398.836;   -8.894;   -7.474;  766.408
399.429;   -9.151;   -7.094;  631.041
400.022;  -12.126;   -9.475;  665.902
400.615;  -10.067;   -7.145;  805.609
401.208;   -8.475;   -7.174;  691.451
401.802;  -10.524;   -5.515;  699.329
402.395;  -10.821;   -9.875;  683.502
402.988;  -12.710;   -8.845;  696.627
403.581;   -9.605;   -8.874;  646.878
404.174;   -7.229;   -5.324;  686.568
404.767;   -9.977;   -9.575;  638.583
405.360;  -12.632;  -10.965;  621.445
405.953;   -7.583;   -8.764;  759.034
406.545;   -6.371;   -7.514;  725.342
407.138;  -10.712;  -10.025;  618.350
407.731;  -10.362;  -10.034;  613.303
408.324;   -6.570;   -9.374;  660.554
408.917;   -6.738;   -6.534;  681.864
409.509;   -8.478;   -8.004;  740.396
410.102;  -10.774;   -9.875;  643.948
410.695;   -4.851;   -8.604;  665.758
411.287;   -5.145;   -6.794;  599.821
411.880;   -6.310;   -9.334;  585.421
412.472;   -9.429;  -10.254;  613.092
413.065;   -6.808;   -6.714;  629.408
413.657;   -4.610;   -7.234;  576.678
414.250;   -4.249;  -10.544;  646.681
414.842;   -6.151;   -9.744;  676.353
415.434;   -4.305;   -6.994;  570.463
416.027;    0.359;   -5.893;  652.196
416.619;   -1.562;   -7.264;  713.400
417.211;   -2.211;  -10.374;  599.352
417.804;    0.669;   -7.993;  628.499
418.396;   -2.758;   -7.234;  607.643
418.988;   -0.494;   -9.443;  659.238
419.580;   -3.170;  -10.724;  568.276
420.172;   -1.150;  -10.323;  536.196
420.764;    3.057;   -8.793;  672.482
421.356;    2.216;  -11.143;  636.898
421.948;    0.313;   -8.293;  677.661
422.540;    4.619;   -7.893;  680.027
423.132;    5.238;   -7.082;  600.641
423.724;    2.092;   -8.653;  561.267
424.316;    3.098;  -10.213;  621.345
424.908;    6.953;   -9.762;  591.517
425.500;    7.512;   -5.572;  647.978
426.092;    9.178;   -8.422;  648.268
426.683;    7.262;   -9.283;  684.836
427.275;   10.457;   -7.852;  641.471
427.867;   11.697;   -5.272;  668.948
428.458;   12.718;   -7.682;  732.344
429.050;   10.195;  -10.612;  680.749
429.642;   13.364;   -9.882;  743.124
430.233;   13.351;   -6.962;  569.356
430.825;   14.868;   -6.842;  724.809
431.416;   11.808;   -9.672;  698.241
432.008;   15.672;   -6.552;  651.723
432.599;   17.134;   -6.891;  656.073
433.190;   13.937;  -10.912;  637.670
433.782;   12.919;  -11.172;  590.395
434.373;   19.887;   -6.061;  884.765
434.964;   19.523;   -8.251;  602.920
435.556;   17.408;   -9.722;  634.537
436.147;   19.546;   -9.082;  758.490
436.738;   19.854;   -8.041;  701.099
437.329;   25.032;   -7.341;  721.723
437.920;   18.629;   -8.162;  666.688
438.511;   17.744;  -11.802;  564.526
439.103;   24.724;  -10.191;  623.998
439.694;   27.034;   -7.601;  681.583
440.285;   27.627;   -8.541;  764.432
440.876;   24.500;   -9.751;  845.738
441.466;   24.786;   -9.401;  575.162
442.057;   30.928;   -7.760;  665.814
442.648;   29.503;   -9.971;  746.255
443.239;   26.930;  -11.001;  620.477
443.830;   31.862;   -7.990;  704.958
444.421;   34.118;   -7.910;  655.474
445.011;   31.332;   -8.131;  693.619
445.602;   30.347;   -7.111;  743.126
446.193;   32.042;  -10.920;  488.117
446.783;   37.308;   -6.500;  640.397
447.374;   32.411;   -8.671;  692.759
447.964;   32.479;  -10.781;  713.770
448.555;   41.264;   -9.650;  822.742
449.145;   38.089;   -8.660;  662.853
449.736;   38.834;   -8.990;  803.179
450.326;   38.797;   -9.500;  713.626
450.917;   43.620;   -8.680;  675.324
451.507;   43.477;   -7.520;  600.661
452.097;   43.865;   -8.590;  746.267
452.688;   44.784;  -11.340;  742.160
453.278;   43.917;  -10.100;  566.840
453.868;   49.321;   -6.019;  793.550
454.458;   47.336;   -9.440;  651.141
455.048;   47.514;  -10.560;  711.783
455.639;   47.932;  -11.799;  567.096
456.229;   53.445;   -6.899;  710.694
456.819;   54.435;   -7.389;  751.158
457.409;   54.159;  -11.119;  773.993
457.999;   57.281;   -9.289;  737.505
458.589;   58.252;   -6.139;  686.606
459.179;   57.263;   -8.729;  717.658
459.769;   55.240;   -9.789;  627.099
460.358;   59.778;  -10.259;  797.262
460.948;   60.980;   -7.299;  689.503
461.538;   62.410;  -10.289;  660.677
462.128;   59.912;  -11.269;  664.934
462.717;   66.579;   -9.368;  710.326
463.307;   70.336;   -7.908;  705.846
463.897;   66.228;   -9.599;  656.942
464.486;   65.110;   -9.769;  837.128
465.076;   69.653;   -8.048;  733.776
465.666;   72.690;   -9.358;  652.900
466.255;   70.691;   -7.919;  785.651
466.845;   70.173;  -11.689;  666.749
467.434;   73.427;   -7.818;  725.873
468.023;   75.365;   -7.678;  658.357
468.613;   71.866;  -10.939;  713.946
469.202;   76.270;  -10.118;  646.507
469.791;   79.763;   -9.108;  737.811
470.381;   82.607;   -6.058;  742.813
470.970;   82.444;  -10.428;  711.099
471.559;   82.754;  -10.268;  733.291
472.148;   84.557;   -8.448;  675.737
472.738;   88.465;   -6.917;  765.466
473.327;   87.369;  -11.978;  637.529
473.916;   87.572;  -11.888;  737.446
474.505;   91.354;   -9.437;  751.703
475.094;   94.509;   -6.747;  806.570
475.683;   94.021;   -9.367;  797.699
476.272;   94.951;  -12.637;  730.632
476.861;   97.242;  -10.027;  706.754
477.449;  105.798;   -8.716;  728.487
478.038;   99.145;   -9.577;  692.513
478.627;  100.200;   -9.718;  714.852
479.216;  107.421;   -8.947;  769.441
479.805;  110.186;   -6.256;  783.375
480.393;  110.960;   -7.937; 1008.945
480.982;  108.934;   -7.717;  874.501
481.571;  114.860;   -9.266;  858.333
482.159;  116.134;   -7.636;  705.386
482.748;  116.101;   -9.667;  821.385
483.336;  120.743;  -10.376;  858.209
483.925;  121.372;   -7.147;  774.373
484.513;  128.787;   -7.996;  758.962
485.102;  125.359;  -10.027;  810.965
485.690;  133.981;  -10.446; 1011.050
486.278;  134.859;   -8.446;  979.329
486.867;  137.553;   -6.356;  809.662
487.455;  139.338;   -9.136;  898.229
488.043;  140.788;  -10.646;  748.361
488.631;  148.956;   -7.456; 1005.079
489.220;  153.594;   -6.636;  908.626
489.808;  154.990;  -11.036;  741.415
490.396;  162.735;  -10.246;  914.645
490.984;  168.102;   -8.556;  830.161
491.572;  179.887;   -5.886;  940.315
492.160;  185.695;   -9.486;  919.081
492.748;  198.483;  -10.976;  884.341
493.336;  222.813;   -8.776; 1019.693
493.924;  251.360;   -5.465;  958.077
494.512;  281.371;   -9.986; 1066.638
495.100;  320.450;  -10.636; 1103.280
495.687;  379.655;  -10.885; 1206.373
496.275;  450.649;   -8.126; 1150.796
496.863;  524.205;  -10.586; 1281.171
497.451;  630.088;  -11.926; 1386.805
498.038;  770.720;  -10.885; 1556.729
498.626;  885.448;   -6.315; 1741.407
499.214; 1056.954;   -7.326; 2016.609
499.801; 1269.014;  -11.906; 2220.633
500.389; 1525.157;  -10.466; 2312.494
500.976; 1850.241;   -5.236; 2744.849
501.564; 2331.336;   -8.936; 3148.565
502.151; 2723.248;  -13.176; 3515.999
502.738; 3169.082;  -10.646; 3971.274
503.326; 3594.821;   -9.525; 4403.796
503.913; 4039.170;  -10.856; 5161.749
504.500; 4459.084;  -11.586; 5986.420
505.088; 4903.942;  -10.336; 6381.201
505.675; 5495.198;   -6.355; 6925.547
506.262; 6243.738;   -9.046; 7619.060
506.849; 7017.651;  -10.416; 8733.969
507.436; 7586.729;  -10.305; 9790.121
508.023; 8204.119;   -5.496; 9985.472
508.610; 8489.895;   -7.856;10434.618
509.197; 9188.632;  -10.097;11198.435
509.784;10573.619;  -10.886;12391.194
510.371;11866.485;   -9.315;13603.713
510.958;12737.580;   -9.936;14426.586
511.545;13479.748;   -9.326;15243.775
512.132;14295.511;  -10.075;15945.876
512.719;14862.008;   -7.796;16340.369
513.305;16173.128;  -10.606;18011.766
513.892;17002.152;  -11.486;19754.971
514.479;18255.578;   -9.126;20967.805
515.066;19790.162;   -6.026;22299.793
515.652;21335.994;   -8.466;22908.660
516.239;22681.393;  -10.886;23798.875
516.825;23712.727;  -11.496;25567.275
517.412;24891.609;   -5.796;28154.959
517.998;25659.570;  -10.506;28344.111
518.585;25708.115;  -10.076;27134.219
519.171;26423.643;   -8.315;27268.576
519.758;28369.756;   -8.596;28964.129
520.344;30567.402;   -8.466;30664.494
520.930;30289.725;  -11.006;32550.605
521.516;31182.750;  -10.495;35422.895
522.103;33239.309;   -5.526;38280.004
522.689;33947.582;   -8.746;37835.117
523.275;33536.199;  -11.376;37288.613
523.861;35236.750;  -11.156;37281.395
524.447;37095.781;   -8.135;37846.949
525.033;36942.004;   -7.896;38321.949
525.619;37158.855;  -12.476;38579.285
526.205;38504.590;   -9.516;40622.875
526.791;41540.855;   -6.926;42258.836
527.377;41510.789;   -8.346;42966.902
527.963;42788.410;   -8.717;42018.949
528.549;41929.676;  -11.016;42476.828
529.135;40474.367;   -8.536;41854.852
529.721;39164.438;   -9.666;41237.711
530.306;38324.496;  -10.066;41259.445
530.892;38019.840;  -11.356;41506.047
531.478;39373.512;   -6.596;43559.613
532.063;42885.305;   -8.836;47695.563
532.649;44326.145;  -10.047;50808.324
533.235;44894.145;   -9.746;51787.500
533.820;45073.477;   -6.566;52145.035
534.406;46491.457;  -10.817;51133.488
534.991;46365.574;   -9.416;49996.805
535.576;44582.145;   -9.036;48882.852
536.162;45549.555;   -6.156;46942.285
536.747;46747.086;  -11.607;45711.746
537.333;49699.328;  -11.787;48510.180
537.918;52836.027;  -12.437;50439.891
538.503;52141.809;   -7.196;50863.711
539.088;48519.078;  -10.556;50906.922
539.673;48059.891;   -8.767;52621.965
540.259;48395.391;  -10.026;52368.094
540.844;45899.004;   -7.416;50879.109
541.429;47700.824;   -9.467;52077.777
542.014;50082.652;   -9.527;52716.695
542.599;49187.133;   -9.946;52363.281
543.184;46292.801;   -7.927;53187.137
543.769;47567.410;   -9.297;54697.605
544.354;47615.156;  -10.127;53913.914
544.938;46176.305;   -9.267;49680.164
545.523;48008.320;   -6.506;47386.277
546.108;51131.879;   -9.787;49151.949
546.693;53283.027;  -11.587;51384.637
547.278;53428.195;  -10.986;51853.254
547.862;50508.941;   -8.206;51173.750
548.447;45758.910;  -10.067;51691.395
549.031;44491.332;   -9.637;52456.703
549.616;49370.227;   -9.926;52714.516
550.201;49249.477;   -6.347;52414.598
550.785;50646.414;   -7.917;52355.059
551.370;49731.137;  -10.867;54589.453
551.954;48801.527;   -9.047;58267.348
552.538;49559.828;   -7.827;59062.176
553.123;47889.574;  -10.287;58115.285
553.707;45471.508;  -12.178;56556.285
554.291;47020.145;   -8.717;56201.668
554.876;50346.359;   -7.457;55335.762
555.460;50355.406;  -10.387;54155.703
556.044;50916.152;   -9.618;53721.484
556.628;49018.277;  -11.567;53731.016
557.212;47830.855;   -8.097;54312.531
557.796;46405.133;  -11.077;53797.773
558.380;46549.543;  -11.108;56145.984
558.964;46942.465;   -9.057;57277.930
559.548;48113.840;   -6.977;56459.641
560.132;45844.402;  -11.457;54434.543
560.716;44084.629;  -11.378;54800.617
561.300;45310.836;   -9.577;57606.945
561.884;46708.051;   -7.127;58972.445
562.467;44762.063;   -7.118;57327.570
563.051;43970.691;  -13.358;54962.434
563.635;45618.031;  -10.178;52594.473
564.219;46165.543;   -7.837;50610.410
564.802;46869.121;  -11.398;49551.180
565.386;46374.465;  -12.788;48370.953
565.969;45735.551;   -9.077;48178.871
566.553;44238.258;   -6.207;49957.305
567.136;45020.852;   -8.568;50369.594
567.720;41792.895;  -11.868;49492.004
568.303;39496.039;   -8.268;50616.352
568.887;39238.609;   -8.698;50727.148
569.470;39797.719;   -6.808;51698.379
570.053;38943.180;  -13.188;52122.078
570.637;36557.051;  -12.037;52536.438
571.220;36350.180;   -8.577;51186.098
571.803;37419.730;   -8.498;51032.762
572.386;39822.801;  -10.498;49609.887
572.969;42430.355;   -9.388;48285.926
573.552;40775.969;   -8.338;47624.285
574.135;38913.590;   -8.518;45498.641
574.718;36268.340;  -13.628;41970.434
575.301;35643.223;  -10.893;41447.137
575.884;35018.109;   -8.158;40923.836
576.467;36031.367;  -10.328;45267.723
577.050;37155.359;  -13.058;48175.543
577.633;38481.996;   -9.458;47729.328
578.216;37895.496;   -8.928;47579.793
578.799;37069.141;   -9.358;47820.996
579.381;36302.848;  -11.388;48115.551
579.964;34067.738;  -11.718;47333.766
580.547;35836.672;   -8.588;46668.969
581.129;36635.715;   -8.859;44466.141
581.712;37460.949;  -10.729;44164.922
582.294;37834.762;  -11.118;46477.855
582.877;37913.441;   -5.218;48244.254
583.459;36249.719;   -8.679;47437.895
584.042;34049.406;  -10.709;46943.219
584.624;33707.973;  -11.669;46792.227
585.206;33483.723;   -8.218;46557.250
585.789;33872.387;  -10.569;45793.773
586.371;36531.871;  -11.859;43836.391
586.953;37454.531;  -10.719;42972.492
587.536;38379.250;   -7.198;42487.211
588.118;38864.855;   -8.720;42086.414
588.700;34898.496;  -10.439;43389.930
589.282;33868.664;   -9.198;43646.039
589.864;34719.863;   -9.199;43438.109
590.446;35816.730;  -11.319;43151.926
591.028;35728.531;  -11.159;42781.867
591.610;34497.043;  -11.779;42839.098
592.192;31691.650;   -7.668;42820.402
592.774;30215.896;  -11.949;40724.277
593.356;29204.004;  -12.129;39874.789
593.937;28289.984;  -10.669;39980.648
594.519;30494.051;   -6.509;42069.633
595.101;32500.416;  -10.849;42976.031
595.683;32646.902;  -11.679;44084.441
596.264;33599.633;   -9.049;43478.797
596.846;33425.707;   -8.849;43803.672
597.427;33129.930;   -9.570;42986.934
598.009;34340.012;  -12.620;42832.219
598.591;34850.438;  -10.039;42580.086
599.172;34494.961;  -10.369;43061.805
599.753;34663.555;   -9.140;41691.469
600.335;35785.773;  -11.430;40692.520
600.916;33727.504;   -9.939;39982.422
601.498;31565.818;   -8.479;40318.617
602.079;30177.799;  -10.920;40670.609
602.660;29762.951;  -11.480;41450.898
603.241;31525.355;  -11.699;41137.738
603.823;30321.096;   -9.579;38868.797
604.404;29439.449;  -10.620;38182.785
604.985;31270.061;  -10.450;38078.047
605.566;31426.408;   -9.129;38056.633
606.147;31492.256;   -7.510;37020.418
606.728;33099.727;  -10.660;37883.359
607.309;31688.195;  -11.740;38748.273
607.890;31298.543;   -9.759;38850.230
608.471;30814.566;   -8.250;37457.918
609.051;30153.395;   -9.240;36066.457
609.632;28913.340;  -12.120;35991.074
610.213;29071.404;   -9.110;37402.641
610.794;30067.752;   -8.030;38383.363
611.374;30025.658;   -8.110;40562.387
611.955;30811.082;  -13.560;38533.727
612.536;32296.623;  -11.400;36951.789
613.116;31931.281;   -8.070;37197.891
613.697;32186.668;  -10.830;38411.125
614.277;30216.643;  -11.641;38673.938
614.858;30940.611;  -13.310;37075.863
615.438;30434.361;   -7.460;35092.906
616.019;28054.725;   -7.601;33666.301
616.599;28369.277;  -12.020;34189.023
617.179;30121.297;  -11.780;36952.047
617.760;31194.020;   -8.570;39582.574
618.340;32152.188;  -11.471;38943.977
618.920;33268.656;  -11.170;37594.156
619.500;33251.234;  -11.071;37866.938
620.080;32293.783;   -7.750;37869.043
620.660;33307.832;  -12.711;36868.617
621.241;34985.625;  -10.211;36352.309
621.821;35386.063;  -10.961;35459.520
622.401;34177.098;   -7.720;35207.414
622.980;33193.336;   -8.981;35980.422
623.560;31697.510;   -9.331;37351.328
624.140;30187.213;   -9.850;34388.582
624.720;25287.830;   -7.451;32368.764
625.300;21907.033;   -9.070;32638.629
625.880;25396.881;  -12.601;34599.035
626.459;29571.504;  -11.751;36831.738
627.039;32514.916;   -9.281;38299.098
627.619;32508.969;   -8.801;38289.574
628.198;30938.979;  -12.071;37220.695
628.778;29792.430;   -9.461;37632.563
629.357;30424.748;   -8.491;38003.012
629.937;30462.057;   -9.721;38402.039
630.516;29875.041;   -9.951;37868.801
631.096;29696.297;  -11.731;35760.410
631.675;31968.223;   -8.572;35225.219
632.254;37202.789;  -11.282;35130.289
632.834;36766.836;  -13.322;35794.570
633.413;34948.652;  -10.301;35788.922
633.992;32458.965;   -8.582;34532.863
634.571;32962.520;   -8.352;33590.113
635.151;35698.410;  -11.912;34943.863
635.730;34368.680;  -10.511;35352.523
636.309;30925.090;   -7.731;35366.605
636.888;28388.852;   -9.952;36165.637
637.467;28841.586;  -11.672;37515.902
638.046;30395.518;   -8.901;39288.695
638.625;33370.305;   -7.912;38279.699
639.204;33209.477;  -10.022;37741.598
639.782;31909.482;  -12.252;38364.551
640.361;28026.475;  -10.041;36740.621
640.940;25300.861;  -11.161;34950.082
641.519;26140.299;   -9.701;34137.398
642.097;29042.646;  -11.271;35654.258
642.676;32037.977;   -8.651;35637.957
643.255;33231.926;   -8.711;36567.074
643.833;32476.588;   -9.581;37809.434
644.412;32346.863;  -13.711;37337.293
644.990;31179.787;  -11.811;37018.531
645.569;30955.924;   -9.411;36518.469
646.147;30688.404;  -10.291;36186.430
646.726;30754.504;  -12.401;36267.688
647.304;31686.848;  -10.411;36647.625
647.882;33248.547;   -9.651;39286.742
648.461;35169.426;   -9.631;39157.703
649.039;33529.145;  -11.881;35412.883
649.617;32258.111;   -9.661;34744.918
650.195;31442.197;   -9.301;35403.098
650.773;30164.822;  -10.511;35053.797
651.352;27843.225;  -11.521;33756.816
651.930;25411.215;  -12.211;31868.773
652.508;23781.705;   -9.171;33121.551
653.086;27669.643;   -9.371;33564.793
653.663;30814.953;  -13.161;34054.668
654.241;29555.115;  -13.031;35693.309
654.819;31157.414;   -9.371;36422.906
655.397;31124.770;  -10.511;38213.484
655.975;30443.621;  -10.371;39507.625
656.553;30045.619;  -10.051;39498.223
657.130;28644.270;  -10.061;40395.480
657.708;27795.111;   -9.561;39242.020
658.286;27905.426;  -11.511;38920.020
658.863;29105.023;  -10.261;40202.898
659.441;32548.533;   -7.531;39677.938
660.018;32735.385;   -9.501;40413.355
660.596;31313.441;  -13.301;39931.414
661.173;32839.918;  -11.211;39604.531
661.750;33177.012;   -9.951;39700.070
662.328;31938.508;   -9.390;39292.809
662.905;30998.320;  -11.330;38235.648
663.482;26838.768;   -9.050;36212.305
664.060;24846.115;   -8.240;35944.945
664.637;27824.930;  -10.050;35170.785
665.214;29282.643;  -11.760;34197.523
665.791;30914.928;  -10.530;34549.520
666.368;30169.762;   -9.690;35118.578
666.945;30559.096;   -9.320;36019.418
667.522;32087.574;  -11.860;36048.438
668.099;31774.061;  -10.770;36243.914
668.676;30382.410;   -6.260;35958.875
669.253;29062.098;   -7.000;37384.730
669.830;29512.727;  -10.190;36779.629
670.407;29589.537;   -9.550;35231.289
670.984;29351.027;   -9.260;35544.270
671.560;30053.949;   -9.280;35466.867
672.137;29171.873;  -11.810;34280.863
672.714;29914.539;  -11.490;34632.863
673.290;31272.410;   -7.740;35135.422
673.867;31418.783;  -10.660;36114.480
674.443;31374.170;  -12.230;36152.859
675.020;29286.314;  -10.450;35327.238
675.596;30068.561;   -9.260;35795.176
676.173;30766.789;  -10.780;35430.355
676.749;30481.861;  -13.690;33549.516
677.326;30231.018;  -11.980;32210.012
677.902;30211.426;   -8.630;32068.871
678.478;29497.217;  -10.730;32583.891
679.054;28443.016;  -10.520;32088.928
679.631;28812.229;  -11.920;30978.848
680.207;30249.072;   -7.490;33160.887
680.783;31784.678;   -9.860;35570.363
681.359;31002.721;  -13.380;36125.184
681.935;30682.660;  -12.480;35240.922
682.511;30600.908;   -7.900;34429.961
683.087;30986.207;   -7.710;34463.680
683.663;30241.699;  -11.480;34648.898
684.239;28747.891;  -14.090;34546.457
684.815;28045.529;   -7.560;35586.375
685.390;28178.713;   -9.910;35821.895
685.966;28709.820;  -11.159;35085.871
686.542;31061.516;  -11.169;34198.230
687.118;33315.961;   -5.959;32847.707
687.693;33812.332;  -10.329;32794.027
688.269;33514.766;  -12.059;33072.367
688.844;31821.486;  -10.909;33141.664
689.420;29862.217;   -8.019;33965.742
689.995;28077.025;   -8.399;34655.523
690.571;26739.061;  -10.949;33576.742
691.146;26719.207;   -9.619;32657.219
691.722;26428.412;   -8.999;32526.979
692.297;26078.564;  -11.589;33014.617
692.872;27445.973;  -11.739;34012.254
693.448;27252.055;  -11.059;34237.434
694.023;26302.447;  -10.139;34142.672
694.598;28231.189;   -9.029;34132.031
695.173;29067.143;  -13.319;34205.250
695.748;28164.848;  -10.169;32882.488
696.323;28081.908;   -8.339;32864.906
696.898;28209.057;   -8.169;33170.004
697.473;28344.287;  -12.309;32432.984
698.048;27573.092;  -10.989;31649.303
698.623;27150.748;   -9.329;30778.141
699.198;28548.459;   -9.849;31140.119
699.773;29973.695;  -12.329;31764.299
700.348;28790.182;  -10.389;31780.816
700.922;28782.572;   -9.269;32046.375
701.497;29673.156;   -9.329;32603.574
702.072;29881.246;  -10.789;34799.871
702.646;28688.014;  -10.839;35793.172
703.221;26495.262;   -9.099;35201.590
703.795;28371.178;  -10.939;34764.527
704.370;28920.895;  -12.859;34307.367
704.944;29001.705;  -11.559;33509.887
705.519;29588.832;   -7.939;31388.584
706.093;30764.215;  -10.499;31340.104
706.668;31369.676;  -11.289;32630.281
707.242;30269.688;  -11.509;32728.779
707.816;28910.879;   -9.639;32947.238
708.390;27389.430;  -11.429;33277.855
708.965;27773.635;  -11.869;33834.336
709.539;27545.070;  -11.689;33709.273
710.113;27567.682;  -10.478;33044.313
710.687;27282.598;  -10.228;31953.992
711.261;25887.207;  -13.698;30505.949
711.835;25844.309;  -13.378;30262.369
712.409;26305.307;   -9.698;31254.447
712.983;28291.625;  -11.898;32754.986
713.557;29576.150;  -15.138;34018.824
714.131;29283.715;  -14.098;34579.625
714.704;28249.264;   -9.958;33890.262
715.278;25933.338;  -10.028;33531.102
715.852;24672.480;  -11.148;33601.660
716.425;25495.385;   -9.068;33515.117
716.999;26647.926;  -10.038;33185.555
717.573;27613.508;   -9.798;33905.996
718.146;28598.650;  -12.378;35199.293
718.720;28609.955;  -11.918;35060.551
719.293;28261.479;   -8.088;34973.230
719.867;31187.670;  -10.888;36394.449
720.440;31218.955;  -11.938;36663.008
721.013;29438.248;  -12.818;35102.426
721.587;27684.701;  -10.298;33985.266
722.160;26404.271;  -10.048;33524.965
722.733;25475.578;  -12.108;32987.043
723.306;25870.584;  -10.818;33066.301
723.880;27903.635;   -8.908;33399.500
724.453;30112.361;   -9.878;33468.297
725.026;29468.461;  -11.188;33816.637
725.599;26734.533;  -11.678;32797.996
726.172;26641.039;   -9.618;33187.434
726.745;27709.281;   -8.258;35136.613
727.318;29038.869;  -12.978;35751.730
727.891;29749.107;  -12.148;35890.430
728.463;29267.301;   -8.968;34822.090
729.036;27899.814;  -10.188;32895.086
729.609;28403.307;  -11.788;31823.225
730.182;25742.357;  -11.788;31445.283
730.754;23366.607;  -10.268;32373.223
731.327;23677.389;   -9.998;33676.820
731.900;24070.279;  -12.228;33417.000
732.472;24945.803;  -13.848;31978.498
733.045;26658.738;   -8.698;30368.777
733.617;26575.977;  -10.607;30574.215
734.190;26717.455;  -11.507;31280.975
734.762;24366.186;  -13.647;31674.412
735.334;22334.016;   -9.767;31247.291
735.907;22557.279;   -9.897;29876.211
736.479;23001.680;  -11.637;29808.488
737.051;22858.191;   -9.567;30233.547
737.623;23455.428;   -8.187;31469.086
738.195;23701.168;  -11.187;31784.225
738.768;25639.311;  -12.337;32120.523
739.340;26534.107;  -12.227;32094.342
739.912;25703.520;  -11.057;31312.680
740.484;24351.279;  -10.207;31946.238
741.056;22706.104;  -10.047;32984.059
741.628;23908.885;  -13.627;33897.715
742.199;26192.096;   -7.177;33213.016
742.771;24806.689;  -10.797;31369.113
743.343;22714.838;  -11.997;31865.473
743.915;21834.891;  -12.867;32388.631
744.487;21804.627;   -7.617;31079.568
745.058;21833.188;   -9.557;30570.107
745.630;22236.113;   -9.877;29970.127
746.201;23318.670;  -14.177;29186.766
746.773;24179.080;   -9.237;28805.723
747.344;24120.355;   -9.847;29591.223
747.916;22350.490;  -11.657;31412.201
748.487;22261.227;  -10.587;32194.898
749.059;23507.834;   -8.707;32533.719
749.630;24328.400;  -10.537;32158.518
750.201;23408.740;  -11.687;30855.395
750.773;21566.174;  -11.647;28622.555
751.344;21332.438;   -7.147;28405.732
751.915;22344.727;   -9.757;28461.551
752.486;22571.945;  -12.427;27842.850
753.057;20549.689;  -12.227;27845.008
753.628;19228.322;  -10.417;27728.107
754.199;20097.180;  -11.767;27381.086
754.770;21204.254;  -11.187;25882.203
755.341;21439.828;  -10.507;25886.184
755.912;21663.053;   -9.387;26050.861
756.483;21268.701;  -10.647;26798.779
757.054;19515.250;  -11.837;27048.238
757.625;18053.252;  -12.716;26294.838
758.195;17824.543;   -9.666;26142.076
758.766;17573.352;   -8.656;26392.234
759.337;18150.943;  -12.856;26334.594
759.907;19564.623;  -13.366;27579.652
760.478;20454.105;   -8.576;28352.770
761.048;19997.582;  -10.526;27325.088
761.619;18950.199;  -11.116;26460.428
762.189;18958.609;  -12.136;26029.826
762.760;19920.395;   -9.456;26430.145
763.330;21164.482;   -7.136;26670.902
763.900;20892.488;  -11.786;26603.021
764.471;18506.328;  -11.546;25542.740
765.041;17026.311;   -8.096;24358.459
765.611;16823.346;   -8.876;23991.297
766.181;17136.199;  -12.196;24470.236
766.751;18249.732;  -11.636;24845.975
767.321;18096.779;  -10.156;24533.633
767.891;16184.018;  -11.766;24916.492
768.461;15616.236;  -14.936;24776.771
769.031;16129.297;  -12.356;24757.988
769.601;17747.646;   -7.526;24181.088
770.171;17795.791;  -10.766;23670.387
770.741;16816.865;  -13.176;22960.045
771.311;16805.314;  -10.616;22917.523
771.880;17376.566;   -9.576;23562.941
772.450;17196.301;  -10.336;24216.500
773.020;17091.752;  -13.516;24140.398
773.589;16317.268;  -13.466;24414.857
774.159;15623.695;   -8.686;23858.717
774.729;15224.620;   -9.476;22942.135
775.298;14883.883;  -13.666;22324.033
775.867;14455.484;  -11.716;21140.313
776.437;14674.683;   -9.906;20838.092
777.006;14549.397;  -12.166;20599.510
777.576;14275.410;  -12.356;20508.809
778.145;14236.438;  -11.646;20732.947
778.714;14252.639;   -8.226;21062.465
779.283;13721.572;   -9.556;20949.664
779.853;13098.314;  -14.116;20508.623
780.422;13449.313;  -11.506;20649.082
780.991;13122.758;   -9.556;21527.520
781.560;11901.090;   -9.095;22632.658
782.129;11624.383;  -12.135;23048.277
782.698;11637.038;  -10.865;23438.555
783.267;11254.637;   -9.335;23267.734
783.836;11145.049;  -11.045;22415.133
784.404;12105.456;  -13.865;20443.152
784.973;12796.396;  -13.095;19699.150
785.542;12876.738;  -11.575;19763.828
786.111;12721.548;   -9.705;20341.408
786.679;12232.133;  -12.105;20207.967
787.248;11964.347;  -12.455;19516.465
787.817;11826.303;  -11.535;18900.363
788.385;11431.271;   -9.765;17879.121
788.954;10872.783;  -14.005;17658.301
789.522;10293.996;  -11.955;17788.879
790.090;10725.793;  -10.135;18118.277
790.659;11310.792;  -10.975;18338.736
791.227;10848.519;  -13.375;18508.615
791.795;11125.032;  -12.375;17898.254
792.364;11460.403;  -10.725;17295.133
792.932;11865.550;   -9.715;16822.051
793.500;12187.238;  -12.675;17040.148
794.068;12450.905;  -13.495;17179.787
794.636;12604.692;  -10.885;16664.246
795.204;11887.851;  -11.045;16524.545
795.772;11906.518;  -13.175;17274.564
796.340;11459.488;  -12.445;17891.002
796.908;11178.226;   -9.735;17648.561
797.476;11082.907;   -9.815;17064.080
798.044;10695.172;  -13.985;16672.777
798.612;10000.396;  -13.115;17023.996
799.180; 9581.017;  -10.185;16561.615
799.747; 9408.708;   -9.055;15962.773
800.315; 9148.899;  -12.385;15296.992
800.883; 8927.430;  -15.035;14801.771
801.450; 9090.242;  -10.365;14534.430
802.018; 9217.925;   -9.855;14173.248
802.585; 9256.046;  -11.905;14029.547
803.153; 9243.332;  -11.585;13836.846
803.720; 9030.633;   -9.095;13567.324
804.287; 8524.901;   -9.135;13360.622
804.855; 8048.604;  -11.604;13681.981
805.422; 7918.749;  -11.794;13536.560
805.989; 7982.545;  -10.734;13355.958
806.556; 8155.645;  -10.444;13747.896
807.124; 8397.087;  -12.764;13987.376
807.691; 8362.202;  -12.964;14038.674
808.258; 8162.973;  -11.134;14120.152
808.825; 7800.555;   -9.854;13860.111
809.392; 7900.961;  -10.504;13268.790
809.959; 7490.088;  -13.054;12680.389
810.526; 6996.989;   -8.294;12427.308
811.093; 6945.116;   -8.394;12030.105
811.659; 7549.437;  -12.304;11653.664
812.226; 8129.211;  -13.944;11637.183
812.793; 7918.885;  -10.484;11611.521
813.360; 7288.723;  -10.144;11885.181
813.926; 6945.620;  -11.684;12770.539
814.493; 6735.271;  -13.644;12677.638
815.060; 6348.867;   -9.724;11974.336
815.626; 6294.996;   -9.854;11594.715
816.193; 6667.732;  -13.254;11579.474
816.759; 6699.683;  -13.204;11666.972
817.325; 6683.423;   -9.434;11325.530
817.892; 6980.701;  -10.134;11105.369
818.458; 7388.264;  -13.474;10843.928
819.024; 7045.479;  -11.854;10714.406
819.591; 6752.327;  -10.244;10469.165
820.157; 6588.519;  -10.704;10235.523
820.723; 6102.654;  -12.324;10847.563
821.289; 5814.611;   -9.444;11040.980
821.855; 5770.834;   -8.374;10357.100
822.421; 5751.934;  -10.234; 9978.918
822.987; 5725.962;  -13.294; 9754.177
823.553; 5366.650;  -10.884;10065.755
824.119; 5150.892;   -8.884;10036.294
824.685; 5292.046;   -6.784;10029.192
825.251; 5428.444;  -12.004;10199.230
825.816; 5380.065;  -11.474; 9820.189
826.382; 5106.817;   -9.174; 9297.248
826.948; 5223.543;   -9.214; 9381.347
827.513; 5637.166;  -10.774; 9450.726
828.079; 5544.030;  -11.924; 9472.444
828.645; 4971.051;  -10.543; 9292.643
829.210; 4770.288;  -10.533; 9065.341
829.776; 4742.710;  -10.753; 9132.620
830.341; 4633.082;  -10.173; 9092.878
830.906; 4777.188;  -10.743; 9078.557
831.472; 5128.470;  -11.113; 8534.535
832.037; 4974.020;  -10.603; 8677.874
832.602; 4470.738;  -13.323; 8628.692
833.167; 4199.326;  -10.823; 8879.031
833.733; 4123.349;  -10.113; 9189.790
834.298; 4257.338;  -13.583; 9052.608
834.863; 4405.352;  -12.703; 8895.087
835.428; 4416.083;  -10.523; 8824.266
835.993; 4261.021;   -6.963; 8845.385
836.558; 4068.638;  -10.763; 8888.563
837.123; 4118.385;   -9.903; 8966.582
837.688; 4362.592;   -9.913; 8617.860
838.253; 4621.700;  -10.283; 8590.699
838.817; 4797.186;  -12.963; 8443.797
839.382; 4734.655;  -14.243; 8799.356
839.947; 4432.510;  -10.733; 8810.595
840.511; 4138.141;   -9.383; 8796.394
841.076; 3763.812;  -12.563; 8347.231
841.641; 3798.553;  -12.953; 8224.330
842.205; 3897.786;   -7.043; 8223.349
842.770; 3923.529;   -8.163; 8622.107
843.334; 4044.171;  -12.503; 8410.386
843.898; 4014.316;  -11.693; 8337.465
844.463; 4029.978;  -10.203; 8506.283
845.027; 3855.458;   -9.533; 8280.962
845.591; 3677.596;  -13.443; 8231.141
846.156; 3687.620;  -13.143; 7969.179
846.720; 3603.898;   -9.433; 7768.278
847.284; 3501.366;  -11.033; 7630.957
847.848; 3372.157;  -10.403; 7472.395
848.412; 3275.376;  -11.553; 7437.394
848.976; 3310.567;   -8.393; 7674.592
849.540; 3243.961;   -8.713; 7836.011
850.104; 3287.601;  -12.463; 7913.669
850.668; 3629.911;  -12.973; 7694.508
851.232; 3801.233;  -10.793; 7756.887
851.796; 3682.066;  -10.662; 7926.545
852.359; 3378.188;  -13.082; 7827.844
852.923; 3186.385;  -12.192; 7641.163
853.487; 3024.430;  -11.912; 7342.501
854.050; 2998.921;  -10.892; 7042.820
854.614; 3144.053;  -13.992; 7151.338
855.177; 3255.908;  -11.732; 7105.077
855.741; 3297.730;   -8.962; 6989.675
856.304; 3209.491;   -9.442; 6596.634
856.868; 3178.071;  -14.192; 6356.272
857.431; 3268.179;  -12.702; 6468.571
857.995; 3379.681;   -9.942; 6373.210
858.558; 3407.756;   -9.112; 6324.448
859.121; 3149.620;  -12.932; 6408.327
859.684; 2981.362;  -13.442; 6347.886
860.247; 3071.365;  -10.632; 6321.264
860.810; 3106.807;  -11.272; 6301.903
861.374; 2879.167;   -9.832; 6607.881
861.937; 2624.249;  -11.762; 6408.200
862.500; 2610.698;   -9.722; 6572.639
863.062; 2762.070;  -10.512; 6387.297
863.625; 2901.177;  -11.232; 6190.836
864.188; 3059.091;  -14.112; 5807.254
864.751; 3145.617;  -11.302; 5682.413
865.314; 3073.009;  -10.112; 5547.492
865.876; 2856.048;  -12.182; 5500.150
866.439; 2807.167;  -10.722; 5415.909
867.002; 2771.608;   -9.252; 5501.567
867.564; 2591.732;   -9.572; 5413.946
868.127; 2381.602;  -13.142; 5160.325
868.689; 2263.759;  -12.902; 5133.183
869.252; 2164.291;   -9.732; 5252.382
869.814; 2068.808;   -9.432; 5297.141
870.377; 2072.786;  -11.552; 5390.919
870.939; 2138.307;   -9.052; 5599.898
871.501; 2207.321;  -10.982; 5248.336
872.063; 2213.239;  -12.292; 4854.235
872.626; 2152.460;  -14.912; 4817.074
873.188; 2154.693;  -13.112; 4987.732
873.750; 2138.406;  -13.442; 4868.651
874.312; 2049.101;   -9.402; 4779.330
874.874; 1969.907;  -11.062; 4866.348
875.436; 1888.534;  -13.931; 4718.887
875.998; 1885.722;   -9.561; 4660.005
876.560; 1920.883;  -11.321; 4462.964
877.122; 1867.538;  -12.221; 4145.042
877.683; 1761.758;  -12.191; 4056.481
878.245; 1680.533;  -12.101; 3950.740
878.807; 1711.696;   -8.971; 4058.958
879.369; 1734.955;  -12.071; 3954.677
879.930; 1649.861;  -14.621; 3941.495
880.492; 1587.101;  -10.311; 4067.014
881.053; 1563.047;  -10.901; 3859.633
881.615; 1467.664;  -14.411; 3776.071
882.176; 1363.570;  -13.761; 3734.750
882.738; 1307.165;   -9.181; 3678.489
883.299; 1281.430;  -11.791; 3405.407
883.860; 1271.443;  -13.121; 3351.106
884.422; 1263.044;  -11.211; 3394.044
884.983; 1224.493;  -10.091; 3166.443
885.544; 1157.929;   -8.461; 3189.802
886.105; 1081.240;  -12.361; 3160.360
886.666; 1018.029;  -14.141; 3093.059
887.227;  963.205;  -11.361; 2941.957
887.788;  903.560;  -11.401; 2974.836
888.349;  839.359;  -13.791; 2721.214
888.910;  830.575;  -13.191; 2696.493
889.471;  832.528;   -9.881; 2560.172
890.032;  816.670;   -9.881; 2558.190
890.593;  788.704;  -10.371; 2567.669
891.153;  761.470;  -13.301; 2460.307
891.714;  715.946;  -11.431; 2372.046
892.275;  683.562;  -11.291; 2309.505
892.835;  653.430;  -11.471; 2382.543
893.396;  603.845;  -11.541; 2295.502
893.956;  548.541;  -11.181; 2162.420
894.517;  508.530;  -11.741; 2125.439
895.077;  501.722;  -11.671; 2086.978
895.638;  502.522;  -11.311; 2126.316
896.198;  477.878;   -9.831; 1838.275
896.758;  435.455;   -8.421; 1892.813
897.319;  406.056;  -12.351; 1792.232
897.879;  390.423;  -13.511; 1762.751
898.439;  366.276;  -12.001; 1661.149
898.999;  342.993;  -10.180; 1781.468
899.559;  332.829;  -12.030; 1703.347
900.119;  327.184;  -15.710; 1537.525
900.679;  323.123;   -8.900; 1638.384
901.239;  309.032;   -8.340; 1527.902
901.799;  297.728;  -13.910; 1456.441
902.359;  291.819;  -13.460; 1357.140
902.919;  286.255;  -11.490; 1331.118
903.479;  274.547;  -12.110; 1317.257
904.038;  255.442;  -11.720; 1262.595
904.598;  239.627;  -13.610; 1152.034
905.158;  236.867;  -11.040; 1240.893
905.717;  230.737;  -10.900; 1233.691
906.277;  219.880;  -15.080; 1217.330
906.836;  210.378;  -13.380; 1222.408
907.396;  202.717;  -10.780; 1193.047
907.955;  196.168;   -8.500; 1182.526
908.515;  190.204;  -12.760; 1099.364
909.074;  183.632;  -11.900; 1092.863
909.633;  177.431;   -8.950; 1069.121
910.192;  173.475;   -8.770; 1196.460
910.752;  168.651;  -12.390; 1029.960
911.311;  163.946;  -13.680; 1009.780
911.870;  161.449;  -12.370;  971.460
912.429;  162.978;  -10.900; 1094.080
912.988;  162.620;  -11.690; 1081.060
913.547;  157.593;  -13.240;  940.380
914.106;  153.007;  -11.990;  999.420
914.665;  150.556;   -9.990;  984.020
915.224;  149.283;  -12.880; 1035.760
915.782;  148.845;  -12.350;  922.560
916.341;  147.936;   -9.110; 1049.840
916.900;  144.902;   -9.270;  925.260
917.458;  142.872;  -13.240;  884.220
918.017;  142.097;  -13.550;  942.600
918.576;  141.804;  -12.320;  904.440
919.134;  140.719;  -11.490;  837.980
919.693;  139.088;  -13.670;  893.060
920.251;  135.588;  -15.470;  876.500
920.809;  135.097;  -11.290;  839.580
921.368;  135.667;  -10.210;  885.360
921.926;  135.087;  -12.140;  842.940
922.484;  133.245;  -13.080;  903.360
923.042;  132.647;  -11.720;  880.340
923.601;  135.700;   -7.480;  998.680
924.159;  134.748;  -11.570;  935.560
924.717;  130.243;  -13.840;  841.080
925.275;  130.414;  -10.640;  903.240
925.833;  129.990;  -11.540;  779.320
926.391;  131.419;  -12.960;  938.380
926.949;  128.854;  -14.130;  857.680
927.506;  129.964;  -11.750;  903.500
928.064;  130.594;  -10.250;  877.580
928.622;  128.646;  -13.030;  880.100
929.180;  128.341;  -13.400;  814.180
929.737;  130.113;  -10.700;  808.540
930.295;  133.817;  -10.070;  928.480
930.853;  134.632;  -11.960;  849.100
931.410;  134.495;  -13.120;  821.120
931.968;  134.547;  -10.770;  940.660
932.525;  135.170;  -10.680;  909.380
933.082;  134.934;  -13.130;  811.440
933.640;  135.723;  -13.210;  925.900
934.197;  133.679;  -11.060;  886.360
934.754;  135.970;   -9.580;  897.780
935.312;  138.284;  -14.000;  863.340
935.869;  141.901;  -10.710; 1012.980
936.426;  142.229;   -9.860;  872.800
936.983;  143.910;   -9.710;  889.020
937.540;  143.234;  -13.990;  838.280
938.097;  142.240;  -14.040;  940.120
938.654;  142.814;  -10.310;  898.860
939.211;  145.548;  -10.560;  952.480
939.768;  147.654;  -13.900;  915.420
940.324;  150.959;  -14.760;  904.200
940.881;  152.012;  -10.370;  878.500
941.438;  153.761;   -8.260; 1021.200
941.995;  150.277;  -12.540;  992.560
942.551;  147.509;  -14.670;  875.620
943.108;  147.419;  -10.450;  937.920
943.664;  149.282;  -10.750;  869.340
944.221;  152.336;  -11.550; 1088.140
944.777;  149.564;  -14.770;  869.680
945.334;  149.861;  -12.820;  884.840
945.890;  152.456;  -10.130;  946.480
946.446;  152.397;  -13.470;  947.020
947.003;  153.966;  -12.120;  964.940
947.559;  156.493;   -9.980; 1063.040
948.115;  156.682;   -9.080; 1026.540
948.671;  154.435;  -10.830;  967.300
949.227;  151.846;  -12.440;  859.560
949.783;  149.087;  -12.910;  858.900
950.339;  151.611;  -10.270;  991.000
950.895;  151.348;  -13.630; 1023.840
951.451;  150.226;  -15.100;  925.280
952.007;  149.364;  -11.330;  998.540
952.563;  151.079;  -10.580;  937.780
953.118;  148.676;  -13.440;  904.940
953.674;  147.883;  -12.710;  935.780
954.230;  147.930;  -10.350;  949.640
954.785;  146.729;   -9.190;  936.640
955.341;  143.210;  -11.200;  998.160
955.897;  140.875;  -16.560;  834.660
956.452;  142.893;  -12.570;  953.840
957.008;  143.109;   -7.970; 1083.640
957.563;  140.269;  -11.940; 1009.540
958.118;  134.528;  -13.450;  877.700
958.674;  134.871;  -12.030;  946.780
959.229;  137.153;   -9.410; 1013.980
959.784;  134.595;  -12.000;  832.400
960.339;  134.161;  -14.780; 1001.280
960.894;  130.335;   -9.860;  963.760
961.449;  127.957;   -9.970;  859.960
962.004;  127.385;  -10.900; 1212.840
962.559;  121.514;  -13.150;  860.140
963.114;  118.420;  -13.740;  742.480
963.669;  119.065;   -9.820;  915.500
964.224;  117.939;  -13.890;  874.340
964.779;  116.495;  -12.600;  828.420
965.334;  117.152;  -10.950; 1017.860
965.888;  116.799;  -11.170;  875.360
966.443;  119.895;  -12.540;  972.380
966.998;  118.741;  -15.780;  819.460
967.552;  117.759;   -9.760;  908.380
968.107;  114.895;   -9.060;  868.300
968.661;  116.310;  -11.950;  922.440
969.216;  116.011;  -12.800;  856.280
969.770;  115.130;  -11.210;  917.200
970.324;  115.261;  -11.610;  923.140
970.879;  111.644;  -11.370;  947.180
971.433;  108.450;  -12.540;  952.720
971.987;  103.635;  -11.320;  895.340
972.541;  101.804;  -10.720;  917.100
973.095;  101.130;   -9.680; 1009.460
973.649;   98.730;  -11.440;  809.480
974.203;   98.290;  -11.210;  829.040
974.757;   98.369;  -10.240;  855.220
975.311;   98.547;  -13.720;  872.600
975.865;   97.436;  -13.770;  881.820
976.419;   95.811;  -11.690;  857.400
976.973;   96.621;   -9.510;  849.620
977.526;   97.767;  -12.620;  949.920
978.080;   95.994;  -12.010;  796.780
978.634;   97.482;  -10.170;  921.320
979.187;   95.593;   -9.020;  905.400
979.741;   93.386;   -9.820; 1018.380
980.294;   88.446;  -14.870;  789.160
980.848;   85.593;  -12.380;  717.220
981.401;   88.864;  -10.350;  816.540
981.955;   91.535;  -13.720;  844.300
982.508;   89.303;  -11.490;  746.340
983.061;   90.085;  -10.000;  915.260
983.615;   86.398;  -11.480;  798.800
984.168;   83.730;  -13.220;  770.080
984.721;   82.348;  -13.960;  880.760
985.274;   81.326;  -10.870;  867.500
985.827;   81.057;   -9.790;  834.220
986.380;   79.404;  -13.120;  721.340
986.933;   77.013;  -12.450;  864.800
987.486;   75.359;  -10.210;  861.920
988.039;   75.262;   -8.430;  863.100
988.591;   73.926;  -10.520;  893.260
989.144;   70.318;  -14.860;  737.260
989.697;   69.931;  -13.080;  758.740
990.250;   70.477;  -10.150;  858.100
990.802;   69.567;  -13.430;  755.860
991.355;   69.950;  -12.750;  974.880
991.907;   67.766;  -12.040;  864.320
992.460;   65.582;  -11.330;  753.760
993.012;   65.574;  -13.610;  749.540
993.565;   63.810;  -13.460;  711.360
994.117;   65.257;   -9.360;  950.780
994.669;   62.494;  -11.300;  701.320
995.221;   60.815;  -13.540;  791.920
995.774;   58.449;  -13.430;  787.580
996.326;   57.079;  -12.520;  740.220
996.878;   58.021;  -10.950;  838.420
997.430;   55.706;  -14.300;  699.860
997.982;   54.601;  -13.760;  750.140
998.534;   53.480;  -11.530;  739.060
999.086;   52.691;  -10.310;  738.220
999.638;   51.660;  -12.530;  661.380
1000.190;   50.734;  -11.840;  699.320
1000.741;   50.523;  -10.260;  742.700
1001.293;   50.479;   -8.860;  686.020
1001.845;   48.301;  -13.700;  676.640
1002.396;   48.605;  -12.100;  743.400
1002.948;   47.949;  -12.760;  737.400
1003.500;   47.237;  -10.380;  723.780
1004.051;   47.861;  -11.900;  907.580
1004.603;   45.511;  -12.250;  791.820
1005.154;   41.406;  -13.210;  608.980
1005.705;   42.450;  -10.950;  723.960
1006.257;   40.809;  -13.880;  707.220
1006.808;   40.562;  -12.840;  685.460
1007.359;   39.697;  -10.570;  763.240
1007.910;   38.864;   -9.620;  646.640
1008.461;   38.683;  -13.630;  732.940
1009.013;   37.396;  -17.200;  588.340
1009.564;   38.571;  -10.200;  793.520
1010.115;   37.098;  -12.570;  597.040
1010.665;   36.425;  -15.150;  602.160
1011.216;   35.433;  -14.480;  667.920
1011.767;   36.107;  -11.340;  697.920
1012.318;   36.534;   -9.780;  736.980
1012.869;   35.414;  -12.380;  679.000
1013.419;   34.137;  -15.560;  603.120
1013.970;   34.679;  -11.010;  666.640
1014.521;   34.686;  -11.610;  620.620
1015.071;   34.596;  -13.450;  670.380
1015.622;   33.606;  -13.870;  635.460
1016.172;   32.460;  -11.610;  596.820
1016.723;   33.288;  -12.120;  614.380
1017.273;   33.003;  -13.620;  604.160
1017.823;   32.571;  -14.140;  650.340
1018.374;   31.830;  -12.800;  611.760
1018.924;   32.464;  -12.340;  716.880
1019.474;   32.605;  -11.410;  718.880
1020.024;   30.901;  -14.770;  657.580
1020.574;   31.885;   -9.780;  726.160
1021.124;   32.415;   -8.560;  673.580
1021.674;   30.015;  -15.190;  559.120
1022.224;   31.329;  -13.530;  708.940
1022.774;   30.783;  -13.280;  668.820
1023.324;   31.612;  -10.690;  753.520
1023.874;   33.133;  -10.240;  875.760
1024.423;   29.215;  -12.540;  613.700
1024.973;   29.335;  -10.010;  610.760
1025.523;   29.782;  -10.550;  620.960
1026.072;   28.781;  -13.560;  606.420
1026.622;   28.000;  -15.120;  675.740
1027.172;   29.929;  -11.260;  715.660
1027.721;   28.755;  -11.410;  601.220
1028.270;   29.222;  -13.530;  663.400
1028.820;   28.344;  -13.680;  638.080
1029.369;   27.605;  -13.520;  612.700
1029.918;   28.481;  -10.980;  649.840
1030.468;   27.856;  -13.530;  564.780
1031.017;   27.667;  -13.170;  634.800
1031.566;   26.774;  -12.200;  608.900
1032.115;   27.933;   -9.960;  694.500
1032.664;   26.763;  -13.210;  596.480
1033.213;   27.178;  -12.500;  735.420
1033.762;   26.456;  -11.910;  635.620
1034.311;   26.288;   -9.640;  677.220
1034.860;   27.468;  -13.310;  691.000
1035.408;   26.411;  -11.830;  722.720
1035.957;   26.326;  -12.000;  719.540
1036.506;   25.032;  -11.690;  530.800
1037.055;   27.883;  -10.990;  844.320
1037.603;   25.123;  -15.120;  664.000
1038.152;   23.264;  -12.450;  534.760
1038.700;   25.299;  -10.560;  585.740
1039.249;   25.167;  -11.080;  681.220
1039.797;   24.370;  -12.540;  633.360
1040.345;   24.082;  -11.920;  705.420
1040.894;   25.039;  -11.410;  625.300
1041.442;   24.608;  -14.320;  632.200
1041.990;   22.749;  -16.240;  559.160
1042.538;   22.172;  -11.680;  536.180
1043.087;   23.422;  -10.760;  570.860
1043.635;   23.917;  -11.850;  670.500
1044.183;   22.451;  -15.480;  586.400
1044.731;   21.846;  -11.770;  576.000
1045.279;   22.450;  -13.090;  674.920
1045.827;   24.963;  -12.440;  892.400
1046.374;   21.597;  -13.840;  515.420
1046.922;   21.438;  -13.220;  590.580
1047.470;   23.311;  -10.230;  691.300
1048.018;   23.396;  -14.590;  647.960
1048.565;   23.262;  -12.050;  708.600
1049.113;   20.626;  -11.650;  557.000
1049.660;   21.321;  -10.510;  629.660
1050.208;   22.214;  -13.310;  675.640
1050.755;   20.720;  -15.900;  606.580
1051.303;   20.578;  -11.430;  686.820
1051.850;   21.820;   -8.480;  635.120
1052.397;   19.635;  -15.010;  473.960
1052.945;   19.286;  -13.960;  617.760
1053.492;   21.072;  -13.150;  741.840
1054.039;   21.611;   -9.630;  720.180
1054.586;   20.577;  -13.680;  557.240
1055.133;   19.984;  -14.570;  693.140
1055.680;   20.234;  -13.820;  646.620
1056.227;   19.725;  -11.730;  542.780
1056.774;   20.984;  -12.480;  794.980
1057.321;   19.395;  -13.930;  523.260
1057.868;   19.530;  -11.690;  651.320
1058.415;   19.351;   -9.520;  651.980
1058.961;   19.802;  -13.160;  678.940
1059.508;   18.826;  -12.920;  643.820
1060.055;   18.743;  -11.920;  581.780
1060.601;   20.000;  -11.500;  624.300
1061.148;   19.251;  -14.330;  616.820
1061.694;   17.625;  -16.870;  592.580
1062.241;   17.940;  -10.330;  596.320
1062.787;   18.470;  -10.620;  663.140
1063.334;   20.367;  -10.110;  808.560
1063.880;   18.092;  -13.400;  668.360
1064.426;   18.347;  -10.680;  706.820
1064.972;   18.558;   -9.920;  601.340
1065.518;   16.554;  -10.980;  566.640
1066.065;   16.952;  -14.890;  624.460
1066.611;   16.761;  -12.870;  598.800
1067.157;   17.658;  -12.950;  641.860
1067.703;   17.559;  -13.540;  668.480
1068.249;   17.496;  -13.540;  605.220
1068.794;   16.940;  -12.600;  626.880
1069.340;   16.149;  -10.620;  578.960
1069.886;   17.037;  -12.830;  590.700
1070.432;   14.425;  -14.870;  541.720
1070.977;   15.357;  -11.980;  601.080
1071.523;   16.074;   -8.200;  573.060
1072.068;   16.312;  -12.330;  582.000
1072.614;   15.828;  -16.370;  527.760
1073.160;   16.369;  -11.100;  687.040
1073.705;   15.412;  -10.480;  572.520
1074.250;   15.358;  -14.520;  559.900
1074.796;   16.095;  -11.460;  655.160
1075.341;   15.546;  -11.950;  664.100
1075.886;   15.512;  -11.460;  594.240
1076.431;   15.215;  -13.770;  649.880
1076.976;   14.891;  -12.680;  639.220
1077.521;   14.222;  -13.170;  583.080
1078.067;   14.451;  -10.860;  579.400
1078.612;   14.775;  -13.920;  661.620
1079.156;   14.838;  -13.880;  601.540
1079.701;   14.915;  -13.120;  693.260
1080.246;   15.093;   -9.940;  696.300
1080.791;   14.992;  -14.740;  625.020
1081.336;   13.734;  -13.750;  659.320
1081.880;   13.741;  -13.400;  649.680
1082.425;   13.669;  -12.220;  573.480
1082.970;   15.682;  -11.610;  717.040
1083.514;   13.413;  -13.580;  597.000
1084.059;   12.559;  -12.810;  586.720
1084.603;   12.089;  -12.320;  565.840
1085.147;   13.143;  -13.190;  645.220
1085.692;   13.878;  -12.480;  716.800
1086.236;   11.498;  -13.020;  503.140
1086.780;   13.890;   -9.190;  751.440
1087.325;   13.836;  -12.480;  654.620
1087.869;   13.034;  -12.450;  610.700
1088.413;   13.320;  -12.240;  705.040
1088.957;   11.311;   -9.020;  543.400
1089.501;   13.736;  -10.320;  766.640
1090.045;   12.270;  -12.720;  726.480
1090.589;   10.640;  -13.690;  569.920
1091.133;   12.046;  -10.020;  673.340
1091.676;   12.504;  -12.330;  591.940
1092.220;   11.074;  -14.970;  600.920
1092.764;   11.928;  -12.430;  706.960
1093.307;   12.471;   -9.800;  673.780
1093.851;   11.354;  -14.970;  556.540
1094.395;   11.221;  -15.310;  683.140
1094.938;    9.766;  -10.370;  632.520
1095.482;   11.222;  -11.050;  559.800
1096.025;   12.128;  -11.840;  710.880
1096.568;   11.401;  -12.840;  779.280
1097.112;    9.462;  -14.700;  508.180
1097.655;   11.431;   -8.720;  603.000
1098.198;   10.093;  -13.610;  600.180
1098.741;    9.495;  -13.350;  612.860
1099.285;   10.120;  -11.230;  657.300
1099.828;    8.774;  -11.840;  439.400
1100.371;    9.208;  -10.840;  608.160
1100.914;   10.431;  -14.190;  682.660
1101.457;    8.726;  -11.240;  679.900
1101.999;    9.098;  -11.270;  584.680
1102.542;    9.575;  -11.480;  641.440
1103.085;    8.456;  -11.750;  658.500
1103.628;    9.364;  -11.400;  762.060
1104.170;    9.152;  -10.490;  588.280
1104.713;   10.092;  -10.600;  646.700
1105.256;    8.565;  -14.360;  557.440
1105.798;    7.902;  -13.210;  499.980
1106.341;    9.985;  -10.270;  728.900
1106.883;    8.353;  -12.200;  521.340
1107.425;    8.468;  -13.110;  668.180
1107.968;    8.111;  -12.840;  612.380
1108.510;    9.103;   -6.480;  684.960
1109.052;    7.552;  -13.940;  612.620
1109.594;    7.667;  -13.690;  554.440
1110.136;    8.214;  -11.880;  643.220
1110.679;    7.575;   -9.500;  633.080
1111.221;    8.541;  -14.160;  604.460
1111.763;    7.193;  -13.980;  559.220
1112.304;    6.285;  -13.880;  547.140
1112.846;    7.801;  -12.210;  666.240
1113.388;    9.982;  -11.390;  942.180
1113.930;    7.326;  -14.540;  694.200
1114.472;    6.534;  -12.640;  606.540
1115.013;    6.042;  -11.620;  551.280
1115.555;    6.696;  -13.640;  587.100
1116.097;    5.869;  -15.380;  579.480
1116.638;    7.024;  -12.640;  684.600
1117.180;    6.781;   -9.850;  667.740
1117.721;    6.512;  -13.690;  568.580
1118.262;    7.259;  -12.680;  677.960
1118.804;    6.308;  -12.530;  637.340
1119.345;    5.432;  -11.690;  578.400
1119.886;    7.184;  -13.380;  704.040
1120.427;    5.672;  -14.070;  589.020
1120.969;    4.736;  -13.500;  597.920
1121.510;    5.068;  -11.480;  563.060
1122.051;    6.791;  -12.830;  723.580
1122.592;    4.805;  -14.290;  655.420
1123.133;    3.884;  -12.400;  547.940
1123.673;    6.583;  -10.130;  706.480
1124.214;    5.636;  -12.930;  612.460
1124.755;    5.554;  -14.380;  639.460
1125.296;    4.979;  -14.000;  627.320
1125.836;    6.567;  -10.070;  691.500
1126.377;    4.905;  -12.640;  599.660
1126.918;    5.258;  -12.960;  614.980
1127.458;    4.464;  -13.350;  622.220
1127.999;    5.205;  -10.750;  656.980
1128.539;    5.094;  -12.350;  694.240
1129.079;    4.257;  -14.860;  632.720
1129.620;    4.127;  -13.840;  558.100
1130.160;    4.605;  -12.330;  539.480
1130.700;    4.741;  -14.530;  640.840
1131.240;    5.434;  -12.530;  643.700
1131.781;    3.061;  -14.450;  619.680
1132.321;    3.840;   -9.790;  599.120
1132.861;    3.288;  -14.860;  564.200
1133.401;    2.866;  -14.290;  593.940
1133.941;    3.875;  -11.750;  626.280
1134.481;    3.209;   -9.920;  597.580
1135.020;    3.654;  -12.290;  609.160
1135.560;    3.704;  -11.650;  674.940
1136.100;    2.227;  -16.270;  501.160
1136.640;    2.696;  -10.890;  510.480
1137.179;    2.992;  -14.180;  537.960
1137.719;    2.509;  -16.250;  605.400
1138.258;    2.967;  -14.230;  587.360
1138.798;    3.527;   -9.090;  663.780
1139.337;    2.421;  -15.130;  482.840
1139.877;    2.490;  -13.680;  642.360
1140.416;    4.518;  -11.320;  878.060
1140.955;    2.071;  -10.860;  535.380
1141.494;    3.048;  -12.920;  669.280
1142.034;    1.843;  -13.930;  583.520
1142.573;    2.854;  -11.440;  646.280
1143.112;    1.805;  -12.000;  553.480
1143.651;    2.544;  -13.670;  536.480
1144.190;    2.985;  -12.730;  691.640
1144.729;    1.632;  -14.560;  607.420
1145.267;    2.231;  -11.830;  584.900
1145.806;    3.441;  -12.230;  637.040
1146.345;    1.197;  -14.130;  635.020
1146.884;    1.082;  -11.590;  622.500
1147.422;    1.317;  -12.550;  533.060
1147.961;    3.532;  -11.180;  708.460
1148.500;    3.042;  -11.510;  669.720
1149.038;    2.206;  -11.640;  632.500
1149.577;    2.222;  -10.130;  698.640
1150.115;    0.435;  -13.970;  452.280
1150.653;    1.345;  -14.520;  607.340
1151.192;    0.960;  -12.810;  552.920
1151.730;    1.539;   -9.100;  652.560
1152.268;    0.973;  -12.220;  589.520
1152.806;    0.888;  -14.140;  571.180
1153.344;   -0.458;  -12.350;  577.640
1153.882;    0.299;   -8.980;  600.060
1154.421;   -0.117;  -15.190;  470.620
1154.958;    0.077;  -15.210;  595.240
1155.496;    1.041;  -12.850;  645.280
1156.034;    0.893;   -9.940;  721.880
1156.572;    1.939;  -13.570;  667.060
1157.110;   -0.549;  -14.590;  473.940
1157.647;    0.586;  -13.030;  676.960
1158.185;   -0.097;  -12.140;  564.320
1158.723;   -0.367;  -14.390;  509.200
1159.260;   -0.294;  -14.090;  701.700
1159.798;    0.177;  -11.920;  658.160
1160.335;    0.454;  -11.110;  631.820

