
Integration time [ms]:   3.276
Averaging Nr. [scans]: 1000
Smoothing Nr. [pixels]: 0
Data measured with spectrometer [name]: 7414430SP
Wave   ;Sample   ;Dark     ;Reference
[nm]   ;[counts] ;[counts] ;[counts] 

288.544;  150.949;    7.793;  793.890
289.143;  155.679;    7.462;  681.602
289.742;  156.263;    8.602;  828.814
290.341;  140.672;    1.321;  789.841
290.940;  129.560;   -0.709;  730.702
291.538;  131.639;    0.881;  881.108
292.137;  131.063;    0.122;  792.581
292.736;  135.893;   -1.929;  975.101
293.335;  132.760;   -8.229;  735.086
293.934;  132.942;   -5.279;  781.677
294.532;  131.584;   -1.369; 1031.958
295.131;  116.787;   -7.641;  834.394
295.730;  116.153;   -8.420;  809.588
296.328;  115.918;   -5.611;  783.442
296.927;  116.604;   -5.781;  779.652
297.525;  117.682;   -6.361;  781.236
298.124;  108.198;  -11.382;  654.009
298.722;  111.716;   -7.641;  761.933
299.321;  109.892;   -6.811;  708.597
299.919;  107.684;   -6.991;  751.918
300.518;  104.119;  -10.362;  689.338
301.116;  106.692;   -9.581;  691.381
301.715;  105.834;   -4.891;  730.222
302.313;  104.184;   -8.801;  704.943
302.911;  100.282;   -8.522;  733.830
303.509;  105.984;   -6.171;  925.627
304.108;  103.513;   -7.311;  760.383
304.706;  102.442;   -8.321;  801.664
305.304;   96.361;  -10.222;  796.707
305.902;  102.319;   -6.021;  784.484
306.500;   98.629;   -4.971;  728.200
307.098;   96.994;   -7.061;  746.560
307.696;   94.933;   -8.801;  780.432
308.294;   94.858;   -6.411;  731.359
308.892;   98.112;   -2.901;  759.769
309.490;   93.813;   -5.041;  712.161
310.088;   91.210;   -5.002;  788.444
310.686;   96.006;   -2.041;  821.749
311.284;   93.050;   -2.351;  766.040
311.882;   89.126;   -4.422;  731.225
312.480;   85.965;   -4.192;  697.167
313.078;   87.419;   -1.172;  808.331
313.675;   88.865;   -2.601;  691.600
314.273;   83.929;   -1.312;  797.837
314.871;   83.239;   -3.942;  589.829
315.468;   80.646;   -2.802;  652.090
316.066;   83.914;   -0.701;  694.427
316.664;   75.638;   -4.362;  656.351
317.261;   80.715;   -2.872;  910.128
317.859;   75.750;   -2.022;  768.735
318.456;   76.924;   -0.531;  830.096
319.054;   71.565;   -3.912;  787.828
319.651;   71.012;   -4.752;  759.928
320.249;   70.153;   -2.602;  810.188
320.846;   68.506;   -0.821;  714.286
321.443;   64.630;   -4.642;  832.135
322.041;   62.495;   -5.002;  812.315
322.638;   59.469;   -3.982;  701.456
323.235;   61.376;   -3.411;  665.683
323.833;   58.106;   -7.361;  740.354
324.430;   53.603;   -8.611;  615.900
325.027;   54.661;   -4.061;  876.855
325.624;   54.478;   -4.031;  644.532
326.221;   51.052;   -7.481;  689.717
326.818;   51.143;   -5.281;  818.332
327.415;   53.769;   -7.460;  748.828
328.012;   53.655;   -5.510;  690.585
328.609;   52.236;   -7.880;  731.389
329.206;   50.019;   -8.331;  778.621
329.803;   51.297;   -5.121;  737.841
330.400;   53.345;   -4.510;  704.260
330.997;   54.479;   -6.441;  817.147
331.594;   53.321;   -8.831;  788.185
332.191;   57.663;   -7.621;  728.722
332.787;   61.513;   -4.591;  844.463
333.384;   59.757;   -7.412;  763.093
333.981;   58.572;   -8.293;  815.687
334.578;   61.592;   -7.052;  708.378
335.174;   64.221;   -3.102;  731.469
335.771;   63.910;   -5.943;  836.456
336.367;   60.380;   -7.393;  710.631
336.964;   65.168;   -4.063;  793.266
337.561;   62.564;   -3.813;  731.112
338.157;   58.531;   -4.654;  911.916
338.754;   55.100;   -7.934;  796.589
339.350;   53.165;   -4.414;  722.493
339.946;   56.979;   -4.664;  773.135
340.543;   48.005;   -6.375;  846.136
341.139;   41.863;   -9.815;  720.836
341.735;   40.277;   -4.526;  772.593
342.332;   39.017;   -4.895;  691.472
342.928;   39.046;   -4.295;  795.394
343.524;   32.974;   -5.476;  761.684
344.120;   29.641;   -5.856;  738.562
344.716;   33.394;   -2.155;  723.717
345.313;   30.810;   -6.275;  795.342
345.909;   25.296;   -8.815;  627.336
346.505;   27.156;   -5.305;  740.247
347.101;   26.825;   -2.674;  827.864
347.697;   27.771;   -4.344;  785.398
348.293;   22.153;   -9.975;  627.244
348.889;   22.866;   -5.774;  745.914
349.485;   22.883;   -5.004;  688.205
350.081;   23.130;   -4.704;  772.592
350.676;   17.667;   -6.635;  691.606
351.272;   22.017;   -4.504;  809.530
351.868;   22.409;   -3.914;  780.497
352.464;   19.489;   -9.044;  723.932
353.059;   15.921;   -8.314;  646.017
353.655;   19.557;   -7.024;  777.063
354.251;   19.720;   -5.343;  759.845
354.846;   14.959;   -8.604;  740.646
355.442;   12.324;   -6.945;  753.071
356.038;   14.414;   -7.564;  751.708
356.633;   14.769;   -5.814;  728.594
357.229;   12.026;   -7.364;  724.757
357.824;   11.103;   -8.024;  703.600
358.420;    9.499;   -9.384;  679.726
359.015;   10.763;   -5.104;  695.357
359.610;   11.467;   -6.854;  763.920
360.206;    4.891;  -10.185;  603.240
360.801;    7.668;   -7.054;  646.503
361.396;   10.015;   -5.034;  725.975
361.992;    5.078;   -8.284;  668.220
362.587;    3.322;   -8.625;  670.160
363.182;    4.828;   -7.674;  689.631
363.777;    5.327;   -5.164;  738.242
364.372;    5.533;   -8.604;  737.314
364.967;    1.681;   -9.055;  680.744
365.563;    5.513;   -6.114;  815.567
366.158;    3.497;   -5.814;  685.161
366.753;    2.817;   -7.854;  649.263
367.348;    1.965;   -7.804;  746.056
367.942;    1.601;   -7.954;  697.298
368.537;    1.420;   -4.984;  754.245
369.132;    0.148;   -8.564;  703.428
369.727;   -3.116;   -8.855;  638.079
370.322;   -1.675;   -6.245;  580.186
370.917;   -1.992;   -6.425;  710.646
371.511;    0.206;   -6.294;  861.834
372.106;   -2.995;   -7.685;  776.964
372.701;   -6.168;   -7.335;  585.988
373.296;   -0.862;   -4.564;  863.135
373.890;   -5.240;  -10.235;  647.840
374.485;   -7.387;   -7.885;  691.199
375.079;   -3.758;   -7.324;  738.685
375.674;   -1.851;   -3.494;  812.970
376.268;   -6.686;   -8.525;  691.759
376.863;  -12.291;  -10.086;  580.327
377.457;   -5.740;   -7.025;  662.490
378.052;   -7.445;   -3.585;  764.884
378.646;   -9.405;   -7.595;  741.167
379.240;   -9.637;   -8.335;  721.176
379.835;   -7.975;   -5.785;  636.978
380.429;  -10.015;   -4.335;  562.557
381.023;  -10.409;   -6.805;  779.205
381.617;  -12.597;   -9.195;  680.106
382.212;   -9.358;   -6.905;  685.303
382.806;   -7.652;   -3.745;  760.690
383.400;  -12.301;   -7.745;  672.281
383.994;  -13.507;   -9.765;  664.870
384.588;   -9.735;   -6.564;  697.701
385.182;   -8.297;   -5.344;  726.624
385.776;  -10.404;   -8.514;  706.875
386.370;  -13.731;   -9.555;  681.968
386.964;  -11.725;   -8.715;  684.155
387.558;   -9.464;   -6.174;  598.360
388.152;  -13.808;   -8.725;  681.959
388.745;  -12.139;   -7.965;  814.707
389.339;  -10.330;   -5.924;  747.642
389.933;   -9.142;   -5.524;  695.370
390.527;  -10.530;   -7.114;  859.029
391.120;  -16.407;  -10.725;  595.318
391.714;  -13.428;   -8.035;  711.633
392.308;  -10.327;   -3.574;  780.253
392.901;  -14.539;   -7.245;  642.460
393.495;  -15.630;   -9.285;  595.414
394.089;  -13.929;   -5.895;  760.452
394.682;  -14.345;   -4.295;  697.188
395.275;  -15.249;   -9.875;  719.927
395.869;  -16.415;   -8.485;  667.314
396.462;  -14.540;   -7.455;  616.609
397.056;  -10.887;   -5.424;  776.621
397.649;  -15.256;   -6.605;  731.575
398.242;  -12.939;   -8.224;  712.645
398.836;  -11.860;   -7.474;  766.408
399.429;  -12.623;   -7.094;  631.041
400.022;  -17.351;   -9.475;  665.902
400.615;  -14.812;   -7.145;  805.609
401.208;  -12.590;   -7.174;  691.451
401.802;  -15.285;   -5.515;  699.329
402.395;  -16.208;   -9.875;  683.502
402.988;  -16.149;   -8.845;  696.627
403.581;  -13.441;   -8.874;  646.878
404.174;  -11.711;   -5.324;  686.568
404.767;  -13.973;   -9.575;  638.583
405.360;  -16.486;  -10.965;  621.445
405.953;  -11.569;   -8.764;  759.034
406.545;  -10.813;   -7.514;  725.342
407.138;  -15.901;  -10.025;  618.350
407.731;  -14.304;  -10.034;  613.303
408.324;  -10.416;   -9.374;  660.554
408.917;  -11.015;   -6.534;  681.864
409.509;  -12.734;   -8.004;  740.396
410.102;  -14.453;   -9.875;  643.948
410.695;   -8.533;   -8.604;  665.758
411.287;  -10.300;   -6.794;  599.821
411.880;  -11.026;   -9.334;  585.421
412.472;  -13.973;  -10.254;  613.092
413.065;  -10.766;   -6.714;  629.408
413.657;   -8.117;   -7.234;  576.678
414.250;   -9.011;  -10.544;  646.681
414.842;  -11.077;   -9.744;  676.353
415.434;   -8.354;   -6.994;  570.463
416.027;   -4.260;   -5.893;  652.196
416.619;   -6.504;   -7.264;  713.400
417.211;   -6.727;  -10.374;  599.352
417.804;   -3.195;   -7.993;  628.499
418.396;   -7.621;   -7.234;  607.643
418.988;   -4.621;   -9.443;  659.238
419.580;   -8.510;  -10.724;  568.276
420.172;   -5.864;  -10.323;  536.196
420.764;   -2.057;   -8.793;  672.482
421.356;   -3.431;  -11.143;  636.898
421.948;   -4.337;   -8.293;  677.661
422.540;    0.900;   -7.893;  680.027
423.132;    0.306;   -7.082;  600.641
423.724;   -3.122;   -8.653;  561.267
424.316;   -1.306;  -10.213;  621.345
424.908;    2.180;   -9.762;  591.517
425.500;    3.476;   -5.572;  647.978
426.092;    3.399;   -8.422;  648.268
426.683;    1.853;   -9.283;  684.836
427.275;    5.727;   -7.852;  641.471
427.867;    6.989;   -5.272;  668.948
428.458;    7.468;   -7.682;  732.344
429.050;    5.521;  -10.612;  680.749
429.642;    8.251;   -9.882;  743.124
430.233;    8.841;   -6.962;  569.356
430.825;   10.143;   -6.842;  724.809
431.416;    7.070;   -9.672;  698.241
432.008;   11.411;   -6.552;  651.723
432.599;   11.348;   -6.891;  656.073
433.190;    8.075;  -10.912;  637.670
433.782;    7.980;  -11.172;  590.395
434.373;   14.754;   -6.061;  884.765
434.964;   13.755;   -8.251;  602.920
435.556;   11.647;   -9.722;  634.537
436.147;   13.863;   -9.082;  758.490
436.738;   14.254;   -8.041;  701.099
437.329;   19.466;   -7.341;  721.723
437.920;   12.257;   -8.162;  666.688
438.511;   12.238;  -11.802;  564.526
439.103;   19.007;  -10.191;  623.998
439.694;   20.948;   -7.601;  681.583
440.285;   21.194;   -8.541;  764.432
440.876;   19.331;   -9.751;  845.738
441.466;   18.365;   -9.401;  575.162
442.057;   24.246;   -7.760;  665.814
442.648;   22.882;   -9.971;  746.255
443.239;   21.356;  -11.001;  620.477
443.830;   25.935;   -7.990;  704.958
444.421;   28.295;   -7.910;  655.474
445.011;   24.055;   -8.131;  693.619
445.602;   24.322;   -7.111;  743.126
446.193;   25.979;  -10.920;  488.117
446.783;   30.948;   -6.500;  640.397
447.374;   26.306;   -8.671;  692.759
447.964;   26.750;  -10.781;  713.770
448.555;   34.899;   -9.650;  822.742
449.145;   32.076;   -8.660;  662.853
449.736;   32.249;   -8.990;  803.179
450.326;   32.395;   -9.500;  713.626
450.917;   37.660;   -8.680;  675.324
451.507;   36.172;   -7.520;  600.661
452.097;   36.554;   -8.590;  746.267
452.688;   37.706;  -11.340;  742.160
453.278;   37.333;  -10.100;  566.840
453.868;   42.368;   -6.019;  793.550
454.458;   39.707;   -9.440;  651.141
455.048;   40.250;  -10.560;  711.783
455.639;   41.931;  -11.799;  567.096
456.229;   45.764;   -6.899;  710.694
456.819;   47.287;   -7.389;  751.158
457.409;   48.183;  -11.119;  773.993
457.999;   50.183;   -9.289;  737.505
458.589;   50.551;   -6.139;  686.606
459.179;   49.833;   -8.729;  717.658
459.769;   48.472;   -9.789;  627.099
460.358;   53.234;  -10.259;  797.262
460.948;   53.303;   -7.299;  689.503
461.538;   54.776;  -10.289;  660.677
462.128;   52.563;  -11.269;  664.934
462.717;   59.549;   -9.368;  710.326
463.307;   62.179;   -7.908;  705.846
463.897;   58.258;   -9.599;  656.942
464.486;   58.228;   -9.769;  837.128
465.076;   62.348;   -8.048;  733.776
465.666;   66.283;   -9.358;  652.900
466.255;   63.539;   -7.919;  785.651
466.845;   62.300;  -11.689;  666.749
467.434;   65.132;   -7.818;  725.873
468.023;   66.230;   -7.678;  658.357
468.613;   63.567;  -10.939;  713.946
469.202;   68.135;  -10.118;  646.507
469.791;   72.842;   -9.108;  737.811
470.381;   74.794;   -6.058;  742.813
470.970;   73.665;  -10.428;  711.099
471.559;   73.699;  -10.268;  733.291
472.148;   77.148;   -8.448;  675.737
472.738;   80.255;   -6.917;  765.466
473.327;   78.125;  -11.978;  637.529
473.916;   78.225;  -11.888;  737.446
474.505;   82.687;   -9.437;  751.703
475.094;   86.507;   -6.747;  806.570
475.683;   84.808;   -9.367;  797.699
476.272;   86.365;  -12.637;  730.632
476.861;   88.743;  -10.027;  706.754
477.449;   95.541;   -8.716;  728.487
478.038;   89.524;   -9.577;  692.513
478.627;   90.521;   -9.718;  714.852
479.216;   96.925;   -8.947;  769.441
479.805;   99.987;   -6.256;  783.375
480.393;   99.435;   -7.937; 1008.945
480.982;   99.015;   -7.717;  874.501
481.571;  105.868;   -9.266;  858.333
482.159;  105.569;   -7.636;  705.386
482.748;  104.780;   -9.667;  821.385
483.336;  110.573;  -10.376;  858.209
483.925;  110.834;   -7.147;  774.373
484.513;  117.320;   -7.996;  758.962
485.102;  114.205;  -10.027;  810.965
485.690;  122.119;  -10.446; 1011.050
486.278;  124.136;   -8.446;  979.329
486.867;  125.417;   -6.356;  809.662
487.455;  126.767;   -9.136;  898.229
488.043;  127.518;  -10.646;  748.361
488.631;  136.992;   -7.456; 1005.079
489.220;  139.847;   -6.636;  908.626
489.808;  140.891;  -11.036;  741.415
490.396;  148.788;  -10.246;  914.645
490.984;  154.797;   -8.556;  830.161
491.572;  164.761;   -5.886;  940.315
492.160;  169.573;   -9.486;  919.081
492.748;  181.678;  -10.976;  884.341
493.336;  204.537;   -8.776; 1019.693
493.924;  230.111;   -5.465;  958.077
494.512;  256.720;   -9.986; 1066.638
495.100;  292.956;  -10.636; 1103.280
495.687;  346.601;  -10.885; 1206.373
496.275;  404.578;   -8.126; 1150.796
496.863;  468.428;  -10.586; 1281.171
497.451;  564.508;  -11.926; 1386.805
498.038;  697.433;  -10.885; 1556.729
498.626;  804.504;   -6.315; 1741.407
499.214;  943.456;   -7.326; 2016.609
499.801; 1130.770;  -11.906; 2220.633
500.389; 1372.648;  -10.466; 2312.494
500.976; 1680.067;   -5.236; 2744.849
501.564; 2081.439;   -8.936; 3148.565
502.151; 2433.553;  -13.176; 3515.999
502.738; 2882.716;  -10.646; 3971.274
503.326; 3268.470;   -9.525; 4403.796
503.913; 3639.670;  -10.856; 5161.749
504.500; 3962.164;  -11.586; 5986.420
505.088; 4422.429;  -10.336; 6381.201
505.675; 4942.303;   -6.355; 6925.547
506.262; 5551.115;   -9.046; 7619.060
506.849; 6250.800;  -10.416; 8733.969
507.436; 6717.593;  -10.305; 9790.121
508.023; 7266.270;   -5.496; 9985.472
508.610; 7527.771;   -7.856;10434.618
509.197; 8122.633;  -10.097;11198.435
509.784; 9451.505;  -10.886;12391.194
510.371;10433.884;   -9.315;13603.713
510.958;11174.224;   -9.936;14426.586
511.545;11934.391;   -9.326;15243.775
512.132;12764.806;  -10.075;15945.876
512.719;13302.647;   -7.796;16340.369
513.305;14189.771;  -10.606;18011.766
513.892;15002.619;  -11.486;19754.971
514.479;16457.514;   -9.126;20967.805
515.066;17927.436;   -6.026;22299.793
515.652;19032.268;   -8.466;22908.660
516.239;20142.145;  -10.886;23798.875
516.825;21202.707;  -11.496;25567.275
517.412;22329.729;   -5.796;28154.959
517.998;23187.314;  -10.506;28344.111
518.585;23180.160;  -10.076;27134.219
519.171;23343.029;   -8.315;27268.576
519.758;24523.520;   -8.596;28964.129
520.344;26384.840;   -8.466;30664.494
520.930;26615.918;  -11.006;32550.605
521.516;28186.537;  -10.495;35422.895
522.103;30711.740;   -5.526;38280.004
522.689;31548.262;   -8.746;37835.117
523.275;31229.043;  -11.376;37288.613
523.861;31893.320;  -11.156;37281.395
524.447;32993.809;   -8.135;37846.949
525.033;32557.604;   -7.896;38321.949
525.619;32889.465;  -12.476;38579.285
526.205;34554.090;   -9.516;40622.875
526.791;37356.496;   -6.926;42258.836
527.377;37267.688;   -8.346;42966.902
527.963;39057.320;   -8.717;42018.949
528.549;37919.023;  -11.016;42476.828
529.135;36385.434;   -8.536;41854.852
529.721;35813.273;   -9.666;41237.711
530.306;35266.199;  -10.066;41259.445
530.892;35286.676;  -11.356;41506.047
531.478;36681.898;   -6.596;43559.613
532.063;39060.125;   -8.836;47695.563
532.649;39296.055;  -10.047;50808.324
533.235;40562.453;   -9.746;51787.500
533.820;42018.758;   -6.566;52145.035
534.406;42852.789;  -10.817;51133.488
534.991;42315.605;   -9.416;49996.805
535.576;41119.902;   -9.036;48882.852
536.162;41594.289;   -6.156;46942.285
536.747;42745.648;  -11.607;45711.746
537.333;46136.008;  -11.787;48510.180
537.918;49171.902;  -12.437;50439.891
538.503;47869.324;   -7.196;50863.711
539.088;44743.355;  -10.556;50906.922
539.673;44693.387;   -8.767;52621.965
540.259;44423.383;  -10.026;52368.094
540.844;41897.617;   -7.416;50879.109
541.429;42660.734;   -9.467;52077.777
542.014;46061.352;   -9.527;52716.695
542.599;46060.461;   -9.946;52363.281
543.184;43090.832;   -7.927;53187.137
543.769;43970.695;   -9.297;54697.605
544.354;43607.379;  -10.127;53913.914
544.938;42794.430;   -9.267;49680.164
545.523;44933.375;   -6.506;47386.277
546.108;47298.848;   -9.787;49151.949
546.693;49571.543;  -11.587;51384.637
547.278;49491.355;  -10.986;51853.254
547.862;46395.520;   -8.206;51173.750
548.447;41768.809;  -10.067;51691.395
549.031;41126.625;   -9.637;52456.703
549.616;45666.125;   -9.926;52714.516
550.201;44805.098;   -6.347;52414.598
550.785;45766.883;   -7.917;52355.059
551.370;45378.781;  -10.867;54589.453
551.954;45418.449;   -9.047;58267.348
552.538;46590.086;   -7.827;59062.176
553.123;44918.336;  -10.287;58115.285
553.707;42673.129;  -12.178;56556.285
554.291;43411.316;   -8.717;56201.668
554.876;45128.848;   -7.457;55335.762
555.460;45765.531;  -10.387;54155.703
556.044;47704.777;   -9.618;53721.484
556.628;46066.094;  -11.567;53731.016
557.212;44509.602;   -8.097;54312.531
557.796;42417.203;  -11.077;53797.773
558.380;42634.578;  -11.108;56145.984
558.964;44043.844;   -9.057;57277.930
559.548;45070.246;   -6.977;56459.641
560.132;42955.773;  -11.457;54434.543
560.716;41741.043;  -11.378;54800.617
561.300;42575.145;   -9.577;57606.945
561.884;43724.871;   -7.127;58972.445
562.467;42610.102;   -7.118;57327.570
563.051;42035.188;  -13.358;54962.434
563.635;42455.926;  -10.178;52594.473
564.219;42934.758;   -7.837;50610.410
564.802;43720.680;  -11.398;49551.180
565.386;43929.926;  -12.788;48370.953
565.969;43576.375;   -9.077;48178.871
566.553;42521.023;   -6.207;49957.305
567.136;42654.246;   -8.568;50369.594
567.720;39027.066;  -11.868;49492.004
568.303;37350.582;   -8.268;50616.352
568.887;37264.254;   -8.698;50727.148
569.470;37410.961;   -6.808;51698.379
570.053;36437.469;  -13.188;52122.078
570.637;34905.113;  -12.037;52536.438
571.220;34326.965;   -8.577;51186.098
571.803;34494.504;   -8.498;51032.762
572.386;36411.461;  -10.498;49609.887
572.969;38950.801;   -9.388;48285.926
573.552;37646.254;   -8.338;47624.285
574.135;36421.617;   -8.518;45498.641
574.718;33748.223;  -13.628;41970.434
575.301;31875.727;  -10.893;41447.137
575.884;30003.232;   -8.158;40923.836
576.467;30714.320;  -10.328;45267.723
577.050;33355.336;  -13.058;48175.543
577.633;36090.406;   -9.458;47729.328
578.216;35906.781;   -8.928;47579.793
578.799;35152.172;   -9.358;47820.996
579.381;33764.371;  -11.388;48115.551
579.964;32123.027;  -11.718;47333.766
580.547;33401.508;   -8.588;46668.969
581.129;34340.371;   -8.859;44466.141
581.712;34955.746;  -10.729;44164.922
582.294;35718.070;  -11.118;46477.855
582.877;35848.973;   -5.218;48244.254
583.459;33935.086;   -8.679;47437.895
584.042;32192.771;  -10.709;46943.219
584.624;32533.955;  -11.669;46792.227
585.206;32029.086;   -8.218;46557.250
585.789;32061.975;  -10.569;45793.773
586.371;34855.215;  -11.859;43836.391
586.953;35613.785;  -10.719;42972.492
587.536;36386.281;   -7.198;42487.211
588.118;36225.203;   -8.720;42086.414
588.700;32380.438;  -10.439;43389.930
589.282;31167.270;   -9.198;43646.039
589.864;31490.254;   -9.199;43438.109
590.446;31618.428;  -11.319;43151.926
591.028;29832.746;  -11.159;42781.867
591.610;27802.891;  -11.779;42839.098
592.192;26250.043;   -7.668;42820.402
592.774;26848.859;  -11.949;40724.277
593.356;27260.217;  -12.129;39874.789
593.937;27516.686;  -10.669;39980.648
594.519;29723.797;   -6.509;42069.633
595.101;31926.412;  -10.849;42976.031
595.683;32232.299;  -11.679;44084.441
596.264;33263.469;   -9.049;43478.797
596.846;32153.625;   -8.849;43803.672
597.427;31555.092;   -9.570;42986.934
598.009;33308.684;  -12.620;42832.219
598.591;33720.000;  -10.039;42580.086
599.172;32890.418;  -10.369;43061.805
599.753;32811.355;   -9.140;41691.469
600.335;34549.441;  -11.430;40692.520
600.916;33188.762;   -9.939;39982.422
601.498;30559.811;   -8.479;40318.617
602.079;29212.660;  -10.920;40670.609
602.660;29127.621;  -11.480;41450.898
603.241;30305.518;  -11.699;41137.738
603.823;29258.496;   -9.579;38868.797
604.404;28971.992;  -10.620;38182.785
604.985;30354.307;  -10.450;38078.047
605.566;29686.178;   -9.129;38056.633
606.147;29647.260;   -7.510;37020.418
606.728;31800.609;  -10.660;37883.359
607.309;30887.094;  -11.740;38748.273
607.890;30064.682;   -9.759;38850.230
608.471;29837.967;   -8.250;37457.918
609.051;29264.891;   -9.240;36066.457
609.632;28228.008;  -12.120;35991.074
610.213;28960.680;   -9.110;37402.641
610.794;29561.863;   -8.030;38383.363
611.374;28922.328;   -8.110;40562.387
611.955;29375.045;  -13.560;38533.727
612.536;30918.387;  -11.400;36951.789
613.116;30464.926;   -8.070;37197.891
613.697;30664.525;  -10.830;38411.125
614.277;29138.105;  -11.641;38673.938
614.858;30078.318;  -13.310;37075.863
615.438;29532.016;   -7.460;35092.906
616.019;26751.107;   -7.601;33666.301
616.599;27311.328;  -12.020;34189.023
617.179;29277.357;  -11.780;36952.047
617.760;30069.668;   -8.570;39582.574
618.340;31192.393;  -11.471;38943.977
618.920;32754.713;  -11.170;37594.156
619.500;32578.893;  -11.071;37866.938
620.080;31741.488;   -7.750;37869.043
620.660;32576.543;  -12.711;36868.617
621.241;33397.176;  -10.211;36352.309
621.821;33513.652;  -10.961;35459.520
622.401;33136.395;   -7.720;35207.414
622.980;32208.693;   -8.981;35980.422
623.560;30641.650;   -9.331;37351.328
624.140;29809.303;   -9.850;34388.582
624.720;25102.121;   -7.451;32368.764
625.300;21475.494;   -9.070;32638.629
625.880;24680.283;  -12.601;34599.035
626.459;28434.137;  -11.751;36831.738
627.039;31468.482;   -9.281;38299.098
627.619;31445.064;   -8.801;38289.574
628.198;29654.055;  -12.071;37220.695
628.778;28823.090;   -9.461;37632.563
629.357;29580.604;   -8.491;38003.012
629.937;29511.236;   -9.721;38402.039
630.516;29034.238;   -9.951;37868.801
631.096;28983.611;  -11.731;35760.410
631.675;31866.926;   -8.572;35225.219
632.254;36990.789;  -11.282;35130.289
632.834;36293.613;  -13.322;35794.570
633.413;34344.719;  -10.301;35788.922
633.992;31362.137;   -8.582;34532.863
634.571;32524.748;   -8.352;33590.113
635.151;35310.121;  -11.912;34943.863
635.730;33751.789;  -10.511;35352.523
636.309;30476.334;   -7.731;35366.605
636.888;27910.215;   -9.952;36165.637
637.467;28607.135;  -11.672;37515.902
638.046;30579.408;   -8.901;39288.695
638.625;33728.625;   -7.912;38279.699
639.204;33465.641;  -10.022;37741.598
639.782;31549.713;  -12.252;38364.551
640.361;27825.105;  -10.041;36740.621
640.940;25074.557;  -11.161;34950.082
641.519;25569.814;   -9.701;34137.398
642.097;28076.152;  -11.271;35654.258
642.676;30911.646;   -8.651;35637.957
643.255;32032.643;   -8.711;36567.074
643.833;31238.428;   -9.581;37809.434
644.412;31633.064;  -13.711;37337.293
644.990;30916.496;  -11.811;37018.531
645.569;30704.215;   -9.411;36518.469
646.147;29703.426;  -10.291;36186.430
646.726;28980.949;  -12.401;36267.688
647.304;30181.486;  -10.411;36647.625
647.882;32146.117;   -9.651;39286.742
648.461;33691.148;   -9.631;39157.703
649.039;32185.457;  -11.881;35412.883
649.617;31566.170;   -9.661;34744.918
650.195;31384.443;   -9.301;35403.098
650.773;30270.293;  -10.511;35053.797
651.352;27712.697;  -11.521;33756.816
651.930;25413.697;  -12.211;31868.773
652.508;23720.650;   -9.171;33121.551
653.086;27528.676;   -9.371;33564.793
653.663;30646.225;  -13.161;34054.668
654.241;29434.559;  -13.031;35693.309
654.819;31072.359;   -9.371;36422.906
655.397;31022.982;  -10.511;38213.484
655.975;30761.254;  -10.371;39507.625
656.553;30822.771;  -10.051;39498.223
657.130;29091.701;  -10.061;40395.480
657.708;28459.992;   -9.561;39242.020
658.286;28444.236;  -11.511;38920.020
658.863;29513.561;  -10.261;40202.898
659.441;32317.514;   -7.531;39677.938
660.018;31577.564;   -9.501;40413.355
660.596;30457.371;  -13.301;39931.414
661.173;32455.262;  -11.211;39604.531
661.750;32673.133;   -9.951;39700.070
662.328;31817.805;   -9.390;39292.809
662.905;31059.416;  -11.330;38235.648
663.482;26614.939;   -9.050;36212.305
664.060;24622.664;   -8.240;35944.945
664.637;27320.090;  -10.050;35170.785
665.214;29319.020;  -11.760;34197.523
665.791;31195.295;  -10.530;34549.520
666.368;29627.873;   -9.690;35118.578
666.945;30055.479;   -9.320;36019.418
667.522;31701.004;  -11.860;36048.438
668.099;32091.729;  -10.770;36243.914
668.676;31461.730;   -6.260;35958.875
669.253;29682.355;   -7.000;37384.730
669.830;30013.510;  -10.190;36779.629
670.407;29730.914;   -9.550;35231.289
670.984;30007.633;   -9.260;35544.270
671.560;30350.643;   -9.280;35466.867
672.137;28962.820;  -11.810;34280.863
672.714;29658.592;  -11.490;34632.863
673.290;30027.721;   -7.740;35135.422
673.867;30207.145;  -10.660;36114.480
674.443;30604.557;  -12.230;36152.859
675.020;28981.418;  -10.450;35327.238
675.596;29956.068;   -9.260;35795.176
676.173;30398.416;  -10.780;35430.355
676.749;30050.945;  -13.690;33549.516
677.326;30310.457;  -11.980;32210.012
677.902;30651.906;   -8.630;32068.871
678.478;29866.266;  -10.730;32583.891
679.054;29480.797;  -10.520;32088.928
679.631;30209.469;  -11.920;30978.848
680.207;31093.422;   -7.490;33160.887
680.783;32251.383;   -9.860;35570.363
681.359;31380.811;  -13.380;36125.184
681.935;30551.406;  -12.480;35240.922
682.511;29552.580;   -7.900;34429.961
683.087;29553.186;   -7.710;34463.680
683.663;29454.781;  -11.480;34648.898
684.239;28602.543;  -14.090;34546.457
684.815;28185.803;   -7.560;35586.375
685.390;28646.143;   -9.910;35821.895
685.966;29172.781;  -11.159;35085.871
686.542;31839.572;  -11.169;34198.230
687.118;33912.324;   -5.959;32847.707
687.693;33860.047;  -10.329;32794.027
688.269;33044.828;  -12.059;33072.367
688.844;30971.932;  -10.909;33141.664
689.420;29024.850;   -8.019;33965.742
689.995;26785.627;   -8.399;34655.523
690.571;25609.037;  -10.949;33576.742
691.146;26137.025;   -9.619;32657.219
691.722;25419.098;   -8.999;32526.979
692.297;25218.037;  -11.589;33014.617
692.872;27209.773;  -11.739;34012.254
693.448;26729.430;  -11.059;34237.434
694.023;25956.801;  -10.139;34142.672
694.598;28223.295;   -9.029;34132.031
695.173;28477.645;  -13.319;34205.250
695.748;27924.340;  -10.169;32882.488
696.323;27682.877;   -8.339;32864.906
696.898;27576.096;   -8.169;33170.004
697.473;27411.479;  -12.309;32432.984
698.048;27183.533;  -10.989;31649.303
698.623;27560.980;   -9.329;30778.141
699.198;29495.889;   -9.849;31140.119
699.773;30352.516;  -12.329;31764.299
700.348;28795.451;  -10.389;31780.816
700.922;28928.725;   -9.269;32046.375
701.497;29434.137;   -9.329;32603.574
702.072;29469.826;  -10.789;34799.871
702.646;28604.076;  -10.839;35793.172
703.221;26624.613;   -9.099;35201.590
703.795;28564.457;  -10.939;34764.527
704.370;28991.496;  -12.859;34307.367
704.944;29458.672;  -11.559;33509.887
705.519;30638.334;   -7.939;31388.584
706.093;31731.727;  -10.499;31340.104
706.668;31850.400;  -11.289;32630.281
707.242;30377.109;  -11.509;32728.779
707.816;28706.541;   -9.639;32947.238
708.390;27368.199;  -11.429;33277.855
708.965;28467.760;  -11.869;33834.336
709.539;29180.430;  -11.689;33709.273
710.113;29652.889;  -10.478;33044.313
710.687;28856.189;  -10.228;31953.992
711.261;26581.543;  -13.698;30505.949
711.835;26273.445;  -13.378;30262.369
712.409;27258.184;   -9.698;31254.447
712.983;28829.072;  -11.898;32754.986
713.557;29698.627;  -15.138;34018.824
714.131;29551.209;  -14.098;34579.625
714.704;28796.529;   -9.958;33890.262
715.278;26344.730;  -10.028;33531.102
715.852;25683.275;  -11.148;33601.660
716.425;26502.959;   -9.068;33515.117
716.999;27107.377;  -10.038;33185.555
717.573;28258.340;   -9.798;33905.996
718.146;29504.115;  -12.378;35199.293
718.720;28998.186;  -11.918;35060.551
719.293;28382.586;   -8.088;34973.230
719.867;31318.957;  -10.888;36394.449
720.440;31234.305;  -11.938;36663.008
721.013;29719.236;  -12.818;35102.426
721.587;28317.836;  -10.298;33985.266
722.160;26591.191;  -10.048;33524.965
722.733;25741.701;  -12.108;32987.043
723.306;26654.221;  -10.818;33066.301
723.880;28737.895;   -8.908;33399.500
724.453;30350.277;   -9.878;33468.297
725.026;29231.084;  -11.188;33816.637
725.599;26618.285;  -11.678;32797.996
726.172;27117.430;   -9.618;33187.434
726.745;28567.551;   -8.258;35136.613
727.318;30273.121;  -12.978;35751.730
727.891;30848.990;  -12.148;35890.430
728.463;30613.326;   -8.968;34822.090
729.036;29517.408;  -10.188;32895.086
729.609;29751.316;  -11.788;31823.225
730.182;26441.484;  -11.788;31445.283
730.754;23930.080;  -10.268;32373.223
731.327;23999.559;   -9.998;33676.820
731.900;24087.436;  -12.228;33417.000
732.472;25462.994;  -13.848;31978.498
733.045;27630.816;   -8.698;30368.777
733.617;27552.072;  -10.607;30574.215
734.190;27036.758;  -11.507;31280.975
734.762;24120.627;  -13.647;31674.412
735.334;22469.576;   -9.767;31247.291
735.907;22925.951;   -9.897;29876.211
736.479;22664.248;  -11.637;29808.488
737.051;22383.830;   -9.567;30233.547
737.623;23917.258;   -8.187;31469.086
738.195;25105.086;  -11.187;31784.225
738.768;26811.145;  -12.337;32120.523
739.340;26607.277;  -12.227;32094.342
739.912;25367.877;  -11.057;31312.680
740.484;24248.031;  -10.207;31946.238
741.056;23205.178;  -10.047;32984.059
741.628;25009.367;  -13.627;33897.715
742.199;27459.861;   -7.177;33213.016
742.771;25740.045;  -10.797;31369.113
743.343;23261.730;  -11.997;31865.473
743.915;22034.645;  -12.867;32388.631
744.487;22179.598;   -7.617;31079.568
745.058;22395.855;   -9.557;30570.107
745.630;23100.088;   -9.877;29970.127
746.201;23959.326;  -14.177;29186.766
746.773;24235.221;   -9.237;28805.723
747.344;24170.646;   -9.847;29591.223
747.916;22783.363;  -11.657;31412.201
748.487;22637.893;  -10.587;32194.898
749.059;23913.102;   -8.707;32533.719
749.630;25061.502;  -10.537;32158.518
750.201;24080.756;  -11.687;30855.395
750.773;22334.234;  -11.647;28622.555
751.344;22419.867;   -7.147;28405.732
751.915;23418.293;   -9.757;28461.551
752.486;22594.143;  -12.427;27842.850
753.057;20358.172;  -12.227;27845.008
753.628;19330.771;  -10.417;27728.107
754.199;20624.529;  -11.767;27381.086
754.770;21801.764;  -11.187;25882.203
755.341;21723.459;  -10.507;25886.184
755.912;21869.354;   -9.387;26050.861
756.483;21172.352;  -10.647;26798.779
757.054;19194.748;  -11.837;27048.238
757.625;17890.297;  -12.716;26294.838
758.195;17690.045;   -9.666;26142.076
758.766;17421.691;   -8.656;26392.234
759.337;18399.975;  -12.856;26334.594
759.907;20387.277;  -13.366;27579.652
760.478;21266.559;   -8.576;28352.770
761.048;20629.279;  -10.526;27325.088
761.619;19795.121;  -11.116;26460.428
762.189;19667.023;  -12.136;26029.826
762.760;20679.873;   -9.456;26430.145
763.330;21864.850;   -7.136;26670.902
763.900;21195.148;  -11.786;26603.021
764.471;18380.693;  -11.546;25542.740
765.041;17068.422;   -8.096;24358.459
765.611;17325.910;   -8.876;23991.297
766.181;17911.896;  -12.196;24470.236
766.751;18729.670;  -11.636;24845.975
767.321;18543.801;  -10.156;24533.633
767.891;16540.988;  -11.766;24916.492
768.461;15943.922;  -14.936;24776.771
769.031;16439.363;  -12.356;24757.988
769.601;18170.701;   -7.526;24181.088
770.171;18141.391;  -10.766;23670.387
770.741;17222.721;  -13.176;22960.045
771.311;17407.551;  -10.616;22917.523
771.880;17755.965;   -9.576;23562.941
772.450;17188.547;  -10.336;24216.500
773.020;17065.756;  -13.516;24140.398
773.589;16694.729;  -13.466;24414.857
774.159;16288.074;   -8.686;23858.717
774.729;15948.889;   -9.476;22942.135
775.298;15457.126;  -13.666;22324.033
775.867;15043.551;  -11.716;21140.313
776.437;15062.043;   -9.906;20838.092
777.006;14706.443;  -12.166;20599.510
777.576;14661.294;  -12.356;20508.809
778.145;14912.441;  -11.646;20732.947
778.714;14820.998;   -8.226;21062.465
779.283;13973.400;   -9.556;20949.664
779.853;13522.858;  -14.116;20508.623
780.422;13958.731;  -11.506;20649.082
780.991;13539.822;   -9.556;21527.520
781.560;12509.475;   -9.095;22632.658
782.129;12320.319;  -12.135;23048.277
782.698;12305.503;  -10.865;23438.555
783.267;11943.379;   -9.335;23267.734
783.836;11884.533;  -11.045;22415.133
784.404;12874.186;  -13.865;20443.152
784.973;13265.153;  -13.095;19699.150
785.542;13116.131;  -11.575;19763.828
786.111;13073.526;   -9.705;20341.408
786.679;12706.146;  -12.105;20207.967
787.248;12451.898;  -12.455;19516.465
787.817;12213.678;  -11.535;18900.363
788.385;11753.325;   -9.765;17879.121
788.954;11095.550;  -14.005;17658.301
789.522;10655.103;  -11.955;17788.879
790.090;11270.823;  -10.135;18118.277
790.659;11640.594;  -10.975;18338.736
791.227;10977.604;  -13.375;18508.615
791.795;11416.574;  -12.375;17898.254
792.364;11818.589;  -10.725;17295.133
792.932;12104.231;   -9.715;16822.051
793.500;12338.310;  -12.675;17040.148
794.068;12673.709;  -13.495;17179.787
794.636;12840.165;  -10.885;16664.246
795.204;12302.115;  -11.045;16524.545
795.772;12286.162;  -13.175;17274.564
796.340;11727.957;  -12.445;17891.002
796.908;11536.826;   -9.735;17648.561
797.476;11583.198;   -9.815;17064.080
798.044;11213.256;  -13.985;16672.777
798.612;10335.315;  -13.115;17023.996
799.180; 9922.225;  -10.185;16561.615
799.747; 9800.964;   -9.055;15962.773
800.315; 9500.535;  -12.385;15296.992
800.883; 9162.148;  -15.035;14801.771
801.450; 9118.982;  -10.365;14534.430
802.018; 9137.643;   -9.855;14173.248
802.585; 9172.771;  -11.905;14029.547
803.153; 9248.352;  -11.585;13836.846
803.720; 9220.547;   -9.095;13567.324
804.287; 8910.569;   -9.135;13360.622
804.855; 8462.351;  -11.604;13681.981
805.422; 8303.184;  -11.794;13536.560
805.989; 8239.941;  -10.734;13355.958
806.556; 8371.545;  -10.444;13747.896
807.124; 8676.960;  -12.764;13987.376
807.691; 8615.084;  -12.964;14038.674
808.258; 8417.695;  -11.134;14120.152
808.825; 8074.613;   -9.854;13860.111
809.392; 8143.522;  -10.504;13268.790
809.959; 7677.796;  -13.054;12680.389
810.526; 7221.834;   -8.294;12427.308
811.093; 7240.831;   -8.394;12030.105
811.659; 7817.908;  -12.304;11653.664
812.226; 8243.402;  -13.944;11637.183
812.793; 7919.272;  -10.484;11611.521
813.360; 7301.470;  -10.144;11885.181
813.926; 6927.949;  -11.684;12770.539
814.493; 6676.846;  -13.644;12677.638
815.060; 6306.943;   -9.724;11974.336
815.626; 6389.905;   -9.854;11594.715
816.193; 6844.440;  -13.254;11579.474
816.759; 6879.114;  -13.204;11666.972
817.325; 7003.444;   -9.434;11325.530
817.892; 7374.720;  -10.134;11105.369
818.458; 7785.999;  -13.474;10843.928
819.024; 7443.193;  -11.854;10714.406
819.591; 7107.791;  -10.244;10469.165
820.157; 6829.305;  -10.704;10235.523
820.723; 6281.107;  -12.324;10847.563
821.289; 6010.169;   -9.444;11040.980
821.855; 5954.438;   -8.374;10357.100
822.421; 5989.186;  -10.234; 9978.918
822.987; 5960.803;  -13.294; 9754.177
823.553; 5627.749;  -10.884;10065.755
824.119; 5446.506;   -8.884;10036.294
824.685; 5539.806;   -6.784;10029.192
825.251; 5629.292;  -12.004;10199.230
825.816; 5585.116;  -11.474; 9820.189
826.382; 5376.601;   -9.174; 9297.248
826.948; 5596.873;   -9.214; 9381.347
827.513; 6014.682;  -10.774; 9450.726
828.079; 5831.749;  -11.924; 9472.444
828.645; 5246.141;  -10.543; 9292.643
829.210; 5132.271;  -10.533; 9065.341
829.776; 5083.857;  -10.753; 9132.620
830.341; 4938.192;  -10.173; 9092.878
830.906; 5128.044;  -10.743; 9078.557
831.472; 5518.970;  -11.113; 8534.535
832.037; 5292.646;  -10.603; 8677.874
832.602; 4706.405;  -13.323; 8628.692
833.167; 4358.473;  -10.823; 8879.031
833.733; 4289.717;  -10.113; 9189.790
834.298; 4400.322;  -13.583; 9052.608
834.863; 4423.529;  -12.703; 8895.087
835.428; 4391.955;  -10.523; 8824.266
835.993; 4314.792;   -6.963; 8845.385
836.558; 4189.740;  -10.763; 8888.563
837.123; 4304.617;   -9.903; 8966.582
837.688; 4513.213;   -9.913; 8617.860
838.253; 4720.169;  -10.283; 8590.699
838.817; 4925.369;  -12.963; 8443.797
839.382; 4854.803;  -14.243; 8799.356
839.947; 4545.981;  -10.733; 8810.595
840.511; 4232.264;   -9.383; 8796.394
841.076; 3866.116;  -12.563; 8347.231
841.641; 3920.174;  -12.953; 8224.330
842.205; 3999.533;   -7.043; 8223.349
842.770; 4107.223;   -8.163; 8622.107
843.334; 4345.926;  -12.503; 8410.386
843.898; 4352.623;  -11.693; 8337.465
844.463; 4389.076;  -10.203; 8506.283
845.027; 4127.760;   -9.533; 8280.962
845.591; 3906.272;  -13.443; 8231.141
846.156; 3898.023;  -13.143; 7969.179
846.720; 3766.160;   -9.433; 7768.278
847.284; 3633.307;  -11.033; 7630.957
847.848; 3465.006;  -10.403; 7472.395
848.412; 3374.162;  -11.553; 7437.394
848.976; 3443.290;   -8.393; 7674.592
849.540; 3411.278;   -8.713; 7836.011
850.104; 3509.503;  -12.463; 7913.669
850.668; 3859.855;  -12.973; 7694.508
851.232; 3976.553;  -10.793; 7756.887
851.796; 3792.740;  -10.662; 7926.545
852.359; 3472.362;  -13.082; 7827.844
852.923; 3321.660;  -12.192; 7641.163
853.487; 3158.152;  -11.912; 7342.501
854.050; 3089.166;  -10.892; 7042.820
854.614; 3220.196;  -13.992; 7151.338
855.177; 3329.102;  -11.732; 7105.077
855.741; 3386.533;   -8.962; 6989.675
856.304; 3284.799;   -9.442; 6596.634
856.868; 3212.787;  -14.192; 6356.272
857.431; 3322.294;  -12.702; 6468.571
857.995; 3433.859;   -9.942; 6373.210
858.558; 3453.044;   -9.112; 6324.448
859.121; 3202.228;  -12.932; 6408.327
859.684; 3091.477;  -13.442; 6347.886
860.247; 3221.016;  -10.632; 6321.264
860.810; 3196.797;  -11.272; 6301.903
861.374; 2941.805;   -9.832; 6607.881
861.937; 2677.284;  -11.762; 6408.200
862.500; 2645.502;   -9.722; 6572.639
863.062; 2801.471;  -10.512; 6387.297
863.625; 2984.791;  -11.232; 6190.836
864.188; 3164.084;  -14.112; 5807.254
864.751; 3218.712;  -11.302; 5682.413
865.314; 3100.952;  -10.112; 5547.492
865.876; 2917.297;  -12.182; 5500.150
866.439; 2921.189;  -10.722; 5415.909
867.002; 2874.091;   -9.252; 5501.567
867.564; 2655.324;   -9.572; 5413.946
868.127; 2429.911;  -13.142; 5160.325
868.689; 2339.830;  -12.902; 5133.183
869.252; 2269.375;   -9.732; 5252.382
869.814; 2184.729;   -9.432; 5297.141
870.377; 2204.924;  -11.552; 5390.919
870.939; 2280.401;   -9.052; 5599.898
871.501; 2330.309;  -10.982; 5248.336
872.063; 2322.620;  -12.292; 4854.235
872.626; 2277.410;  -14.912; 4817.074
873.188; 2282.816;  -13.112; 4987.732
873.750; 2240.071;  -13.442; 4868.651
874.312; 2141.185;   -9.402; 4779.330
874.874; 2052.199;  -11.062; 4866.348
875.436; 1975.297;  -13.931; 4718.887
875.998; 1970.512;   -9.561; 4660.005
876.560; 1989.204;  -11.321; 4462.964
877.122; 1933.977;  -12.221; 4145.042
877.683; 1836.039;  -12.191; 4056.481
878.245; 1758.534;  -12.101; 3950.740
878.807; 1787.689;   -8.971; 4058.958
879.369; 1801.283;  -12.071; 3954.677
879.930; 1711.102;  -14.621; 3941.495
880.492; 1658.241;  -10.311; 4067.014
881.053; 1623.271;  -10.901; 3859.633
881.615; 1502.479;  -14.411; 3776.071
882.176; 1408.777;  -13.761; 3734.750
882.738; 1377.736;   -9.181; 3678.489
883.299; 1356.498;  -11.791; 3405.407
883.860; 1360.592;  -13.121; 3351.106
884.422; 1370.505;  -11.211; 3394.044
884.983; 1328.226;  -10.091; 3166.443
885.544; 1227.449;   -8.461; 3189.802
886.105; 1142.112;  -12.361; 3160.360
886.666; 1076.842;  -14.141; 3093.059
887.227; 1017.680;  -11.361; 2941.957
887.788;  951.848;  -11.401; 2974.836
888.349;  890.549;  -13.791; 2721.214
888.910;  892.962;  -13.191; 2696.493
889.471;  901.844;   -9.881; 2560.172
890.032;  884.017;   -9.881; 2558.190
890.593;  856.842;  -10.371; 2567.669
891.153;  827.415;  -13.301; 2460.307
891.714;  778.581;  -11.431; 2372.046
892.275;  739.046;  -11.291; 2309.505
892.835;  700.175;  -11.471; 2382.543
893.396;  640.097;  -11.541; 2295.502
893.956;  583.204;  -11.181; 2162.420
894.517;  546.194;  -11.741; 2125.439
895.077;  539.987;  -11.671; 2086.978
895.638;  541.230;  -11.311; 2126.316
896.198;  511.729;   -9.831; 1838.275
896.758;  467.585;   -8.421; 1892.813
897.319;  433.534;  -12.351; 1792.232
897.879;  413.414;  -13.511; 1762.751
898.439;  387.652;  -12.001; 1661.149
898.999;  361.068;  -10.180; 1781.468
899.559;  350.964;  -12.030; 1703.347
900.119;  346.391;  -15.710; 1537.525
900.679;  343.902;   -8.900; 1638.384
901.239;  328.712;   -8.340; 1527.902
901.799;  318.534;  -13.910; 1456.441
902.359;  312.161;  -13.460; 1357.140
902.919;  305.486;  -11.490; 1331.118
903.479;  291.257;  -12.110; 1317.257
904.038;  268.928;  -11.720; 1262.595
904.598;  251.719;  -13.610; 1152.034
905.158;  246.711;  -11.040; 1240.893
905.717;  239.586;  -10.900; 1233.691
906.277;  228.649;  -15.080; 1217.330
906.836;  219.844;  -13.380; 1222.408
907.396;  211.317;  -10.780; 1193.047
907.955;  203.638;   -8.500; 1182.526
908.515;  198.425;  -12.760; 1099.364
909.074;  191.937;  -11.900; 1092.863
909.633;  185.030;   -8.950; 1069.121
910.192;  181.387;   -8.770; 1196.460
910.752;  175.785;  -12.390; 1029.960
911.311;  171.309;  -13.680; 1009.780
911.870;  168.869;  -12.370;  971.460
912.429;  169.444;  -10.900; 1094.080
912.988;  167.558;  -11.690; 1081.060
913.547;  161.836;  -13.240;  940.380
914.106;  157.795;  -11.990;  999.420
914.665;  154.844;   -9.990;  984.020
915.224;  153.567;  -12.880; 1035.760
915.782;  153.978;  -12.350;  922.560
916.341;  153.911;   -9.110; 1049.840
916.900;  148.919;   -9.270;  925.260
917.458;  147.480;  -13.240;  884.220
918.017;  146.641;  -13.550;  942.600
918.576;  145.797;  -12.320;  904.440
919.134;  144.082;  -11.490;  837.980
919.693;  142.081;  -13.670;  893.060
920.251;  140.147;  -15.470;  876.500
920.809;  139.705;  -11.290;  839.580
921.368;  138.943;  -10.210;  885.360
921.926;  138.297;  -12.140;  842.940
922.484;  136.439;  -13.080;  903.360
923.042;  135.572;  -11.720;  880.340
923.601;  138.005;   -7.480;  998.680
924.159;  136.490;  -11.570;  935.560
924.717;  133.699;  -13.840;  841.080
925.275;  134.171;  -10.640;  903.240
925.833;  134.005;  -11.540;  779.320
926.391;  134.541;  -12.960;  938.380
926.949;  133.218;  -14.130;  857.680
927.506;  133.171;  -11.750;  903.500
928.064;  133.053;  -10.250;  877.580
928.622;  132.803;  -13.030;  880.100
929.180;  131.922;  -13.400;  814.180
929.737;  133.880;  -10.700;  808.540
930.295;  137.002;  -10.070;  928.480
930.853;  138.622;  -11.960;  849.100
931.410;  139.518;  -13.120;  821.120
931.968;  138.974;  -10.770;  940.660
932.525;  138.258;  -10.680;  909.380
933.082;  138.921;  -13.130;  811.440
933.640;  139.850;  -13.210;  925.900
934.197;  138.042;  -11.060;  886.360
934.754;  138.448;   -9.580;  897.780
935.312;  141.267;  -14.000;  863.340
935.869;  146.484;  -10.710; 1012.980
936.426;  147.003;   -9.860;  872.800
936.983;  147.525;   -9.710;  889.020
937.540;  147.004;  -13.990;  838.280
938.097;  145.767;  -14.040;  940.120
938.654;  147.528;  -10.310;  898.860
939.211;  149.691;  -10.560;  952.480
939.768;  153.240;  -13.900;  915.420
940.324;  156.648;  -14.760;  904.200
940.881;  158.109;  -10.370;  878.500
941.438;  158.399;   -8.260; 1021.200
941.995;  153.395;  -12.540;  992.560
942.551;  151.255;  -14.670;  875.620
943.108;  151.512;  -10.450;  937.920
943.664;  154.290;  -10.750;  869.340
944.221;  157.148;  -11.550; 1088.140
944.777;  156.222;  -14.770;  869.680
945.334;  157.295;  -12.820;  884.840
945.890;  160.488;  -10.130;  946.480
946.446;  160.296;  -13.470;  947.020
947.003;  161.243;  -12.120;  964.940
947.559;  164.165;   -9.980; 1063.040
948.115;  163.394;   -9.080; 1026.540
948.671;  160.911;  -10.830;  967.300
949.227;  158.426;  -12.440;  859.560
949.783;  155.524;  -12.910;  858.900
950.339;  156.610;  -10.270;  991.000
950.895;  157.235;  -13.630; 1023.840
951.451;  156.553;  -15.100;  925.280
952.007;  158.449;  -11.330;  998.540
952.563;  159.768;  -10.580;  937.780
953.118;  159.432;  -13.440;  904.940
953.674;  158.441;  -12.710;  935.780
954.230;  158.675;  -10.350;  949.640
954.785;  155.170;   -9.190;  936.640
955.341;  152.895;  -11.200;  998.160
955.897;  151.957;  -16.560;  834.660
956.452;  152.999;  -12.570;  953.840
957.008;  151.994;   -7.970; 1083.640
957.563;  149.685;  -11.940; 1009.540
958.118;  144.188;  -13.450;  877.700
958.674;  146.064;  -12.030;  946.780
959.229;  147.978;   -9.410; 1013.980
959.784;  144.517;  -12.000;  832.400
960.339;  144.294;  -14.780; 1001.280
960.894;  140.880;   -9.860;  963.760
961.449;  135.561;   -9.970;  859.960
962.004;  136.398;  -10.900; 1212.840
962.559;  131.983;  -13.150;  860.140
963.114;  129.963;  -13.740;  742.480
963.669;  128.559;   -9.820;  915.500
964.224;  127.329;  -13.890;  874.340
964.779;  126.971;  -12.600;  828.420
965.334;  127.285;  -10.950; 1017.860
965.888;  127.544;  -11.170;  875.360
966.443;  131.415;  -12.540;  972.380
966.998;  133.676;  -15.780;  819.460
967.552;  133.510;   -9.760;  908.380
968.107;  126.970;   -9.060;  868.300
968.661;  121.859;  -11.950;  922.440
969.216;  114.375;  -12.800;  856.280
969.770;  105.262;  -11.210;  917.200
970.324;   96.037;  -11.610;  923.140
970.879;   90.308;  -11.370;  947.180
971.433;   89.259;  -12.540;  952.720
971.987;   89.817;  -11.320;  895.340
972.541;   90.372;  -10.720;  917.100
973.095;   92.244;   -9.680; 1009.460
973.649;   92.592;  -11.440;  809.480
974.203;   92.802;  -11.210;  829.040
974.757;   94.149;  -10.240;  855.220
975.311;   94.258;  -13.720;  872.600
975.865;   95.365;  -13.770;  881.820
976.419;   94.246;  -11.690;  857.400
976.973;   94.682;   -9.510;  849.620
977.526;   96.832;  -12.620;  949.920
978.080;   96.685;  -12.010;  796.780
978.634;   98.860;  -10.170;  921.320
979.187;   95.867;   -9.020;  905.400
979.741;   93.572;   -9.820; 1018.380
980.294;   89.367;  -14.870;  789.160
980.848;   87.713;  -12.380;  717.220
981.401;   90.735;  -10.350;  816.540
981.955;   91.416;  -13.720;  844.300
982.508;   90.860;  -11.490;  746.340
983.061;   91.311;  -10.000;  915.260
983.615;   88.017;  -11.480;  798.800
984.168;   85.350;  -13.220;  770.080
984.721;   84.488;  -13.960;  880.760
985.274;   84.251;  -10.870;  867.500
985.827;   82.899;   -9.790;  834.220
986.380;   81.014;  -13.120;  721.340
986.933;   80.247;  -12.450;  864.800
987.486;   78.424;  -10.210;  861.920
988.039;   77.183;   -8.430;  863.100
988.591;   75.473;  -10.520;  893.260
989.144;   73.234;  -14.860;  737.260
989.697;   72.263;  -13.080;  758.740
990.250;   73.439;  -10.150;  858.100
990.802;   71.928;  -13.430;  755.860
991.355;   73.993;  -12.750;  974.880
991.907;   70.940;  -12.040;  864.320
992.460;   67.887;  -11.330;  753.760
993.012;   67.854;  -13.610;  749.540
993.565;   66.687;  -13.460;  711.360
994.117;   68.897;   -9.360;  950.780
994.669;   64.801;  -11.300;  701.320
995.221;   63.176;  -13.540;  791.920
995.774;   60.877;  -13.430;  787.580
996.326;   59.376;  -12.520;  740.220
996.878;   59.379;  -10.950;  838.420
997.430;   57.630;  -14.300;  699.860
997.982;   56.909;  -13.760;  750.140
998.534;   56.218;  -11.530;  739.060
999.086;   55.510;  -10.310;  738.220
999.638;   54.257;  -12.530;  661.380
1000.190;   53.521;  -11.840;  699.320
1000.741;   52.970;  -10.260;  742.700
1001.293;   52.296;   -8.860;  686.020
1001.845;   49.930;  -13.700;  676.640
1002.396;   49.290;  -12.100;  743.400
1002.948;   47.346;  -12.760;  737.400
1003.500;   46.334;  -10.380;  723.780
1004.051;   46.186;  -11.900;  907.580
1004.603;   45.519;  -12.250;  791.820
1005.154;   42.537;  -13.210;  608.980
1005.705;   41.614;  -10.950;  723.960
1006.257;   41.304;  -13.880;  707.220
1006.808;   41.391;  -12.840;  685.460
1007.359;   40.973;  -10.570;  763.240
1007.910;   40.330;   -9.620;  646.640
1008.461;   39.881;  -13.630;  732.940
1009.013;   38.307;  -17.200;  588.340
1009.564;   40.159;  -10.200;  793.520
1010.115;   37.727;  -12.570;  597.040
1010.665;   37.331;  -15.150;  602.160
1011.216;   37.652;  -14.480;  667.920
1011.767;   37.322;  -11.340;  697.920
1012.318;   36.787;   -9.780;  736.980
1012.869;   36.104;  -12.380;  679.000
1013.419;   35.801;  -15.560;  603.120
1013.970;   35.911;  -11.010;  666.640
1014.521;   35.576;  -11.610;  620.620
1015.071;   35.104;  -13.450;  670.380
1015.622;   34.520;  -13.870;  635.460
1016.172;   34.854;  -11.610;  596.820
1016.723;   33.563;  -12.120;  614.380
1017.273;   34.073;  -13.620;  604.160
1017.823;   33.970;  -14.140;  650.340
1018.374;   33.387;  -12.800;  611.760
1018.924;   32.796;  -12.340;  716.880
1019.474;   33.479;  -11.410;  718.880
1020.024;   32.322;  -14.770;  657.580
1020.574;   33.260;   -9.780;  726.160
1021.124;   33.206;   -8.560;  673.580
1021.674;   32.105;  -15.190;  559.120
1022.224;   33.056;  -13.530;  708.940
1022.774;   32.504;  -13.280;  668.820
1023.324;   32.887;  -10.690;  753.520
1023.874;   33.203;  -10.240;  875.760
1024.423;   31.304;  -12.540;  613.700
1024.973;   31.436;  -10.010;  610.760
1025.523;   29.999;  -10.550;  620.960
1026.072;   30.218;  -13.560;  606.420
1026.622;   29.454;  -15.120;  675.740
1027.172;   31.039;  -11.260;  715.660
1027.721;   29.559;  -11.410;  601.220
1028.270;   29.430;  -13.530;  663.400
1028.820;   29.325;  -13.680;  638.080
1029.369;   28.289;  -13.520;  612.700
1029.918;   29.682;  -10.980;  649.840
1030.468;   28.678;  -13.530;  564.780
1031.017;   29.381;  -13.170;  634.800
1031.566;   28.503;  -12.200;  608.900
1032.115;   28.123;   -9.960;  694.500
1032.664;   26.894;  -13.210;  596.480
1033.213;   28.441;  -12.500;  735.420
1033.762;   28.499;  -11.910;  635.620
1034.311;   27.726;   -9.640;  677.220
1034.860;   27.702;  -13.310;  691.000
1035.408;   27.636;  -11.830;  722.720
1035.957;   27.579;  -12.000;  719.540
1036.506;   26.056;  -11.690;  530.800
1037.055;   28.503;  -10.990;  844.320
1037.603;   26.914;  -15.120;  664.000
1038.152;   25.498;  -12.450;  534.760
1038.700;   25.984;  -10.560;  585.740
1039.249;   25.024;  -11.080;  681.220
1039.797;   25.661;  -12.540;  633.360
1040.345;   25.364;  -11.920;  705.420
1040.894;   25.212;  -11.410;  625.300
1041.442;   25.088;  -14.320;  632.200
1041.990;   24.302;  -16.240;  559.160
1042.538;   24.049;  -11.680;  536.180
1043.087;   23.984;  -10.760;  570.860
1043.635;   25.689;  -11.850;  670.500
1044.183;   24.199;  -15.480;  586.400
1044.731;   23.291;  -11.770;  576.000
1045.279;   23.664;  -13.090;  674.920
1045.827;   25.708;  -12.440;  892.400
1046.374;   22.756;  -13.840;  515.420
1046.922;   21.901;  -13.220;  590.580
1047.470;   24.155;  -10.230;  691.300
1048.018;   23.239;  -14.590;  647.960
1048.565;   24.552;  -12.050;  708.600
1049.113;   22.333;  -11.650;  557.000
1049.660;   22.983;  -10.510;  629.660
1050.208;   22.704;  -13.310;  675.640
1050.755;   21.657;  -15.900;  606.580
1051.303;   22.698;  -11.430;  686.820
1051.850;   21.879;   -8.480;  635.120
1052.397;   19.808;  -15.010;  473.960
1052.945;   21.052;  -13.960;  617.760
1053.492;   22.089;  -13.150;  741.840
1054.039;   22.096;   -9.630;  720.180
1054.586;   20.897;  -13.680;  557.240
1055.133;   21.354;  -14.570;  693.140
1055.680;   20.985;  -13.820;  646.620
1056.227;   20.086;  -11.730;  542.780
1056.774;   21.515;  -12.480;  794.980
1057.321;   19.707;  -13.930;  523.260
1057.868;   20.771;  -11.690;  651.320
1058.415;   20.881;   -9.520;  651.980
1058.961;   20.209;  -13.160;  678.940
1059.508;   19.933;  -12.920;  643.820
1060.055;   20.307;  -11.920;  581.780
1060.601;   20.593;  -11.500;  624.300
1061.148;   19.612;  -14.330;  616.820
1061.694;   18.744;  -16.870;  592.580
1062.241;   19.116;  -10.330;  596.320
1062.787;   19.596;  -10.620;  663.140
1063.334;   20.401;  -10.110;  808.560
1063.880;   19.153;  -13.400;  668.360
1064.426;   18.585;  -10.680;  706.820
1064.972;   17.424;   -9.920;  601.340
1065.518;   17.494;  -10.980;  566.640
1066.065;   18.664;  -14.890;  624.460
1066.611;   18.061;  -12.870;  598.800
1067.157;   18.497;  -12.950;  641.860
1067.703;   18.109;  -13.540;  668.480
1068.249;   18.097;  -13.540;  605.220
1068.794;   17.935;  -12.600;  626.880
1069.340;   17.398;  -10.620;  578.960
1069.886;   17.051;  -12.830;  590.700
1070.432;   16.456;  -14.870;  541.720
1070.977;   16.324;  -11.980;  601.080
1071.523;   17.012;   -8.200;  573.060
1072.068;   17.310;  -12.330;  582.000
1072.614;   16.922;  -16.370;  527.760
1073.160;   17.387;  -11.100;  687.040
1073.705;   16.159;  -10.480;  572.520
1074.250;   16.165;  -14.520;  559.900
1074.796;   16.960;  -11.460;  655.160
1075.341;   17.021;  -11.950;  664.100
1075.886;   15.803;  -11.460;  594.240
1076.431;   15.329;  -13.770;  649.880
1076.976;   15.303;  -12.680;  639.220
1077.521;   15.355;  -13.170;  583.080
1078.067;   14.983;  -10.860;  579.400
1078.612;   15.219;  -13.920;  661.620
1079.156;   15.121;  -13.880;  601.540
1079.701;   15.429;  -13.120;  693.260
1080.246;   16.322;   -9.940;  696.300
1080.791;   15.342;  -14.740;  625.020
1081.336;   15.167;  -13.750;  659.320
1081.880;   15.356;  -13.400;  649.680
1082.425;   13.885;  -12.220;  573.480
1082.970;   14.824;  -11.610;  717.040
1083.514;   14.463;  -13.580;  597.000
1084.059;   12.880;  -12.810;  586.720
1084.603;   13.732;  -12.320;  565.840
1085.147;   14.015;  -13.190;  645.220
1085.692;   15.027;  -12.480;  716.800
1086.236;   13.145;  -13.020;  503.140
1086.780;   15.069;   -9.190;  751.440
1087.325;   13.824;  -12.480;  654.620
1087.869;   12.728;  -12.450;  610.700
1088.413;   13.835;  -12.240;  705.040
1088.957;   12.358;   -9.020;  543.400
1089.501;   13.492;  -10.320;  766.640
1090.045;   12.814;  -12.720;  726.480
1090.589;   11.484;  -13.690;  569.920
1091.133;   12.392;  -10.020;  673.340
1091.676;   12.392;  -12.330;  591.940
1092.220;   11.573;  -14.970;  600.920
1092.764;   13.021;  -12.430;  706.960
1093.307;   12.686;   -9.800;  673.780
1093.851;   10.838;  -14.970;  556.540
1094.395;   12.517;  -15.310;  683.140
1094.938;   11.097;  -10.370;  632.520
1095.482;   11.479;  -11.050;  559.800
1096.025;   12.443;  -11.840;  710.880
1096.568;   12.690;  -12.840;  779.280
1097.112;   10.636;  -14.700;  508.180
1097.655;   11.873;   -8.720;  603.000
1098.198;   10.255;  -13.610;  600.180
1098.741;   10.830;  -13.350;  612.860
1099.285;   11.433;  -11.230;  657.300
1099.828;    9.415;  -11.840;  439.400
1100.371;   11.136;  -10.840;  608.160
1100.914;   11.546;  -14.190;  682.660
1101.457;   11.224;  -11.240;  679.900
1101.999;    9.153;  -11.270;  584.680
1102.542;   10.386;  -11.480;  641.440
1103.085;    9.712;  -11.750;  658.500
1103.628;   11.600;  -11.400;  762.060
1104.170;    9.653;  -10.490;  588.280
1104.713;   10.203;  -10.600;  646.700
1105.256;    9.624;  -14.360;  557.440
1105.798;    8.433;  -13.210;  499.980
1106.341;   11.118;  -10.270;  728.900
1106.883;    8.277;  -12.200;  521.340
1107.425;    9.495;  -13.110;  668.180
1107.968;   10.044;  -12.840;  612.380
1108.510;    9.743;   -6.480;  684.960
1109.052;    7.223;  -13.940;  612.620
1109.594;    8.590;  -13.690;  554.440
1110.136;    9.245;  -11.880;  643.220
1110.679;    8.542;   -9.500;  633.080
1111.221;    9.274;  -14.160;  604.460
1111.763;    7.742;  -13.980;  559.220
1112.304;    7.944;  -13.880;  547.140
1112.846;    8.053;  -12.210;  666.240
1113.388;   10.735;  -11.390;  942.180
1113.930;    8.137;  -14.540;  694.200
1114.472;    7.550;  -12.640;  606.540
1115.013;    6.860;  -11.620;  551.280
1115.555;    6.081;  -13.640;  587.100
1116.097;    6.439;  -15.380;  579.480
1116.638;    7.163;  -12.640;  684.600
1117.180;    7.792;   -9.850;  667.740
1117.721;    7.152;  -13.690;  568.580
1118.262;    7.423;  -12.680;  677.960
1118.804;    7.607;  -12.530;  637.340
1119.345;    6.344;  -11.690;  578.400
1119.886;    7.526;  -13.380;  704.040
1120.427;    6.126;  -14.070;  589.020
1120.969;    6.402;  -13.500;  597.920
1121.510;    5.552;  -11.480;  563.060
1122.051;    6.080;  -12.830;  723.580
1122.592;    6.233;  -14.290;  655.420
1123.133;    4.770;  -12.400;  547.940
1123.673;    7.243;  -10.130;  706.480
1124.214;    5.262;  -12.930;  612.460
1124.755;    6.311;  -14.380;  639.460
1125.296;    6.539;  -14.000;  627.320
1125.836;    6.745;  -10.070;  691.500
1126.377;    5.275;  -12.640;  599.660
1126.918;    6.165;  -12.960;  614.980
1127.458;    5.316;  -13.350;  622.220
1127.999;    5.769;  -10.750;  656.980
1128.539;    5.337;  -12.350;  694.240
1129.079;    4.385;  -14.860;  632.720
1129.620;    4.837;  -13.840;  558.100
1130.160;    4.810;  -12.330;  539.480
1130.700;    5.455;  -14.530;  640.840
1131.240;    5.240;  -12.530;  643.700
1131.781;    4.537;  -14.450;  619.680
1132.321;    4.493;   -9.790;  599.120
1132.861;    3.378;  -14.860;  564.200
1133.401;    3.724;  -14.290;  593.940
1133.941;    3.978;  -11.750;  626.280
1134.481;    3.093;   -9.920;  597.580
1135.020;    3.946;  -12.290;  609.160
1135.560;    4.409;  -11.650;  674.940
1136.100;    3.323;  -16.270;  501.160
1136.640;    2.833;  -10.890;  510.480
1137.179;    3.924;  -14.180;  537.960
1137.719;    3.941;  -16.250;  605.400
1138.258;    4.004;  -14.230;  587.360
1138.798;    3.928;   -9.090;  663.780
1139.337;    2.407;  -15.130;  482.840
1139.877;    4.086;  -13.680;  642.360
1140.416;    5.628;  -11.320;  878.060
1140.955;    2.363;  -10.860;  535.380
1141.494;    2.718;  -12.920;  669.280
1142.034;    2.481;  -13.930;  583.520
1142.573;    3.434;  -11.440;  646.280
1143.112;    2.785;  -12.000;  553.480
1143.651;    2.443;  -13.670;  536.480
1144.190;    3.856;  -12.730;  691.640
1144.729;    2.340;  -14.560;  607.420
1145.267;    3.199;  -11.830;  584.900
1145.806;    3.433;  -12.230;  637.040
1146.345;    2.315;  -14.130;  635.020
1146.884;    1.584;  -11.590;  622.500
1147.422;    1.717;  -12.550;  533.060
1147.961;    3.154;  -11.180;  708.460
1148.500;    2.745;  -11.510;  669.720
1149.038;    2.931;  -11.640;  632.500
1149.577;    2.732;  -10.130;  698.640
1150.115;   -0.221;  -13.970;  452.280
1150.653;    2.490;  -14.520;  607.340
1151.192;    1.670;  -12.810;  552.920
1151.730;    2.350;   -9.100;  652.560
1152.268;    1.144;  -12.220;  589.520
1152.806;    1.202;  -14.140;  571.180
1153.344;   -0.150;  -12.350;  577.640
1153.882;    1.679;   -8.980;  600.060
1154.421;   -0.233;  -15.190;  470.620
1154.958;    1.063;  -15.210;  595.240
1155.496;    2.374;  -12.850;  645.280
1156.034;    1.982;   -9.940;  721.880
1156.572;    1.671;  -13.570;  667.060
1157.110;    0.402;  -14.590;  473.940
1157.647;    1.577;  -13.030;  676.960
1158.185;    0.209;  -12.140;  564.320
1158.723;   -1.107;  -14.390;  509.200
1159.260;    0.790;  -14.090;  701.700
1159.798;    1.311;  -11.920;  658.160
1160.335;    0.417;  -11.110;  631.820

