
Integration time [ms]:   3.276
Averaging Nr. [scans]: 1000
Smoothing Nr. [pixels]: 0
Data measured with spectrometer [name]: 7414430SP
Wave   ;Sample   ;Dark     ;Reference
[nm]   ;[counts] ;[counts] ;[counts] 

288.544;  151.973;    7.793;  793.890
289.143;  155.148;    7.462;  681.602
289.742;  156.249;    8.602;  828.814
290.341;  141.555;    1.321;  789.841
290.940;  130.723;   -0.709;  730.702
291.538;  131.892;    0.881;  881.108
292.137;  131.535;    0.122;  792.581
292.736;  136.400;   -1.929;  975.101
293.335;  132.685;   -8.229;  735.086
293.934;  132.985;   -5.279;  781.677
294.532;  131.657;   -1.369; 1031.958
295.131;  117.656;   -7.641;  834.394
295.730;  118.007;   -8.420;  809.588
296.328;  115.725;   -5.611;  783.442
296.927;  116.653;   -5.781;  779.652
297.525;  118.378;   -6.361;  781.236
298.124;  108.559;  -11.382;  654.009
298.722;  111.975;   -7.641;  761.933
299.321;  110.550;   -6.811;  708.597
299.919;  108.947;   -6.991;  751.918
300.518;  105.189;  -10.362;  689.338
301.116;  107.487;   -9.581;  691.381
301.715;  106.963;   -4.891;  730.222
302.313;  105.558;   -8.801;  704.943
302.911;  101.233;   -8.522;  733.830
303.509;  106.599;   -6.171;  925.627
304.108;  103.755;   -7.311;  760.383
304.706;  103.856;   -8.321;  801.664
305.304;   98.315;  -10.222;  796.707
305.902;  102.675;   -6.021;  784.484
306.500;   98.148;   -4.971;  728.200
307.098;   97.485;   -7.061;  746.560
307.696;   95.776;   -8.801;  780.432
308.294;   95.376;   -6.411;  731.359
308.892;   97.578;   -2.901;  759.769
309.490;   95.170;   -5.041;  712.161
310.088;   92.763;   -5.002;  788.444
310.686;   96.313;   -2.041;  821.749
311.284;   91.968;   -2.351;  766.040
311.882;   90.750;   -4.422;  731.225
312.480;   88.199;   -4.192;  697.167
313.078;   88.824;   -1.172;  808.331
313.675;   89.344;   -2.601;  691.600
314.273;   84.617;   -1.312;  797.837
314.871;   83.361;   -3.942;  589.829
315.468;   81.243;   -2.802;  652.090
316.066;   84.871;   -0.701;  694.427
316.664;   78.077;   -4.362;  656.351
317.261;   82.065;   -2.872;  910.128
317.859;   77.252;   -2.022;  768.735
318.456;   76.934;   -0.531;  830.096
319.054;   73.255;   -3.912;  787.828
319.651;   73.117;   -4.752;  759.928
320.249;   70.601;   -2.602;  810.188
320.846;   68.452;   -0.821;  714.286
321.443;   67.277;   -4.642;  832.135
322.041;   63.420;   -5.002;  812.315
322.638;   60.851;   -3.982;  701.456
323.235;   62.916;   -3.411;  665.683
323.833;   59.835;   -7.361;  740.354
324.430;   55.121;   -8.611;  615.900
325.027;   55.646;   -4.061;  876.855
325.624;   55.864;   -4.031;  644.532
326.221;   53.407;   -7.481;  689.717
326.818;   52.837;   -5.281;  818.332
327.415;   55.740;   -7.460;  748.828
328.012;   54.810;   -5.510;  690.585
328.609;   53.759;   -7.880;  731.389
329.206;   52.383;   -8.331;  778.621
329.803;   52.294;   -5.121;  737.841
330.400;   54.452;   -4.510;  704.260
330.997;   56.083;   -6.441;  817.147
331.594;   55.258;   -8.831;  788.185
332.191;   59.837;   -7.621;  728.722
332.787;   62.724;   -4.591;  844.463
333.384;   61.705;   -7.412;  763.093
333.981;   60.023;   -8.293;  815.687
334.578;   62.946;   -7.052;  708.378
335.174;   65.500;   -3.102;  731.469
335.771;   65.431;   -5.943;  836.456
336.367;   61.953;   -7.393;  710.631
336.964;   66.018;   -4.063;  793.266
337.561;   63.451;   -3.813;  731.112
338.157;   59.960;   -4.654;  911.916
338.754;   57.211;   -7.934;  796.589
339.350;   55.003;   -4.414;  722.493
339.946;   56.674;   -4.664;  773.135
340.543;   48.657;   -6.375;  846.136
341.139;   44.402;   -9.815;  720.836
341.735;   41.668;   -4.526;  772.593
342.332;   39.968;   -4.895;  691.472
342.928;   41.109;   -4.295;  795.394
343.524;   34.588;   -5.476;  761.684
344.120;   31.454;   -5.856;  738.562
344.716;   33.841;   -2.155;  723.717
345.313;   32.003;   -6.275;  795.342
345.909;   27.077;   -8.815;  627.336
346.505;   28.094;   -5.305;  740.247
347.101;   29.462;   -2.674;  827.864
347.697;   29.576;   -4.344;  785.398
348.293;   24.105;   -9.975;  627.244
348.889;   25.484;   -5.774;  745.914
349.485;   24.129;   -5.004;  688.205
350.081;   25.338;   -4.704;  772.592
350.676;   19.781;   -6.635;  691.606
351.272;   24.168;   -4.504;  809.530
351.868;   23.515;   -3.914;  780.497
352.464;   21.848;   -9.044;  723.932
353.059;   18.080;   -8.314;  646.017
353.655;   20.965;   -7.024;  777.063
354.251;   21.984;   -5.343;  759.845
354.846;   16.863;   -8.604;  740.646
355.442;   14.298;   -6.945;  753.071
356.038;   16.869;   -7.564;  751.708
356.633;   16.644;   -5.814;  728.594
357.229;   14.482;   -7.364;  724.757
357.824;   12.744;   -8.024;  703.600
358.420;   11.643;   -9.384;  679.726
359.015;   12.641;   -5.104;  695.357
359.610;   13.817;   -6.854;  763.920
360.206;    7.085;  -10.185;  603.240
360.801;   10.507;   -7.054;  646.503
361.396;   12.665;   -5.034;  725.975
361.992;    7.784;   -8.284;  668.220
362.587;    5.661;   -8.625;  670.160
363.182;    7.819;   -7.674;  689.631
363.777;    7.905;   -5.164;  738.242
364.372;    7.394;   -8.604;  737.314
364.967;    4.398;   -9.055;  680.744
365.563;    8.000;   -6.114;  815.567
366.158;    5.737;   -5.814;  685.161
366.753;    5.479;   -7.854;  649.263
367.348;    4.866;   -7.804;  746.056
367.942;    4.335;   -7.954;  697.298
368.537;    2.641;   -4.984;  754.245
369.132;    3.411;   -8.564;  703.428
369.727;   -0.493;   -8.855;  638.079
370.322;    0.500;   -6.245;  580.186
370.917;    0.508;   -6.425;  710.646
371.511;    3.368;   -6.294;  861.834
372.106;   -0.265;   -7.685;  776.964
372.701;   -2.889;   -7.335;  585.988
373.296;    1.948;   -4.564;  863.135
373.890;   -2.775;  -10.235;  647.840
374.485;   -4.933;   -7.885;  691.199
375.079;   -0.651;   -7.324;  738.685
375.674;    0.302;   -3.494;  812.970
376.268;   -3.466;   -8.525;  691.759
376.863;   -9.186;  -10.086;  580.327
377.457;   -3.340;   -7.025;  662.490
378.052;   -5.460;   -3.585;  764.884
378.646;   -5.751;   -7.595;  741.167
379.240;   -6.483;   -8.335;  721.176
379.835;   -6.140;   -5.785;  636.978
380.429;   -7.346;   -4.335;  562.557
381.023;   -6.878;   -6.805;  779.205
381.617;   -9.228;   -9.195;  680.106
382.212;   -6.281;   -6.905;  685.303
382.806;   -5.892;   -3.745;  760.690
383.400;   -9.512;   -7.745;  672.281
383.994;  -10.360;   -9.765;  664.870
384.588;   -6.851;   -6.564;  697.701
385.182;   -5.181;   -5.344;  726.624
385.776;   -6.712;   -8.514;  706.875
386.370;  -10.238;   -9.555;  681.968
386.964;   -9.056;   -8.715;  684.155
387.558;   -7.349;   -6.174;  598.360
388.152;  -10.437;   -8.725;  681.959
388.745;   -8.570;   -7.965;  814.707
389.339;   -7.167;   -5.924;  747.642
389.933;   -6.783;   -5.524;  695.370
390.527;   -7.373;   -7.114;  859.029
391.120;  -13.464;  -10.725;  595.318
391.714;  -10.909;   -8.035;  711.633
392.308;   -7.626;   -3.574;  780.253
392.901;  -10.884;   -7.245;  642.460
393.495;  -12.351;   -9.285;  595.414
394.089;  -10.832;   -5.895;  760.452
394.682;  -11.350;   -4.295;  697.188
395.275;  -11.679;   -9.875;  719.927
395.869;  -12.806;   -8.485;  667.314
396.462;  -10.780;   -7.455;  616.609
397.056;   -7.824;   -5.424;  776.621
397.649;  -11.538;   -6.605;  731.575
398.242;  -10.330;   -8.224;  712.645
398.836;   -8.667;   -7.474;  766.408
399.429;  -10.571;   -7.094;  631.041
400.022;  -12.915;   -9.475;  665.902
400.615;  -10.856;   -7.145;  805.609
401.208;   -9.442;   -7.174;  691.451
401.802;  -11.833;   -5.515;  699.329
402.395;  -11.882;   -9.875;  683.502
402.988;  -13.301;   -8.845;  696.627
403.581;  -10.616;   -8.874;  646.878
404.174;   -7.674;   -5.324;  686.568
404.767;  -10.814;   -9.575;  638.583
405.360;  -12.747;  -10.965;  621.445
405.953;   -7.230;   -8.764;  759.034
406.545;   -7.719;   -7.514;  725.342
407.138;  -11.232;  -10.025;  618.350
407.731;   -9.597;  -10.034;  613.303
408.324;   -6.043;   -9.374;  660.554
408.917;   -7.917;   -6.534;  681.864
409.509;   -9.116;   -8.004;  740.396
410.102;  -10.619;   -9.875;  643.948
410.695;   -4.666;   -8.604;  665.758
411.287;   -6.480;   -6.794;  599.821
411.880;   -7.175;   -9.334;  585.421
412.472;   -9.809;  -10.254;  613.092
413.065;   -7.221;   -6.714;  629.408
413.657;   -5.374;   -7.234;  576.678
414.250;   -4.529;  -10.544;  646.681
414.842;   -6.548;   -9.744;  676.353
415.434;   -4.497;   -6.994;  570.463
416.027;   -0.620;   -5.893;  652.196
416.619;   -1.857;   -7.264;  713.400
417.211;   -3.399;  -10.374;  599.352
417.804;    0.946;   -7.993;  628.499
418.396;   -3.133;   -7.234;  607.643
418.988;   -0.736;   -9.443;  659.238
419.580;   -3.961;  -10.724;  568.276
420.172;   -2.251;  -10.323;  536.196
420.764;    2.404;   -8.793;  672.482
421.356;    0.837;  -11.143;  636.898
421.948;   -0.002;   -8.293;  677.661
422.540;    5.039;   -7.893;  680.027
423.132;    3.653;   -7.082;  600.641
423.724;    1.114;   -8.653;  561.267
424.316;    2.697;  -10.213;  621.345
424.908;    6.406;   -9.762;  591.517
425.500;    7.572;   -5.572;  647.978
426.092;    8.135;   -8.422;  648.268
426.683;    6.446;   -9.283;  684.836
427.275;    9.912;   -7.852;  641.471
427.867;   11.268;   -5.272;  668.948
428.458;   12.045;   -7.682;  732.344
429.050;    9.997;  -10.612;  680.749
429.642;   12.115;   -9.882;  743.124
430.233;   13.021;   -6.962;  569.356
430.825;   14.727;   -6.842;  724.809
431.416;   11.543;   -9.672;  698.241
432.008;   15.298;   -6.552;  651.723
432.599;   15.973;   -6.891;  656.073
433.190;   13.575;  -10.912;  637.670
433.782;   12.118;  -11.172;  590.395
434.373;   19.418;   -6.061;  884.765
434.964;   18.312;   -8.251;  602.920
435.556;   16.344;   -9.722;  634.537
436.147;   19.299;   -9.082;  758.490
436.738;   19.152;   -8.041;  701.099
437.329;   24.407;   -7.341;  721.723
437.920;   17.948;   -8.162;  666.688
438.511;   17.524;  -11.802;  564.526
439.103;   24.389;  -10.191;  623.998
439.694;   25.203;   -7.601;  681.583
440.285;   27.124;   -8.541;  764.432
440.876;   24.058;   -9.751;  845.738
441.466;   24.326;   -9.401;  575.162
442.057;   29.402;   -7.760;  665.814
442.648;   28.844;   -9.971;  746.255
443.239;   27.060;  -11.001;  620.477
443.830;   30.948;   -7.990;  704.958
444.421;   33.391;   -7.910;  655.474
445.011;   29.628;   -8.131;  693.619
445.602;   30.248;   -7.111;  743.126
446.193;   31.917;  -10.920;  488.117
446.783;   35.927;   -6.500;  640.397
447.374;   32.166;   -8.671;  692.759
447.964;   32.409;  -10.781;  713.770
448.555;   40.232;   -9.650;  822.742
449.145;   37.382;   -8.660;  662.853
449.736;   38.353;   -8.990;  803.179
450.326;   38.799;   -9.500;  713.626
450.917;   42.902;   -8.680;  675.324
451.507;   42.272;   -7.520;  600.661
452.097;   43.218;   -8.590;  746.267
452.688;   44.033;  -11.340;  742.160
453.278;   43.885;  -10.100;  566.840
453.868;   47.927;   -6.019;  793.550
454.458;   46.409;   -9.440;  651.141
455.048;   46.196;  -10.560;  711.783
455.639;   48.840;  -11.799;  567.096
456.229;   51.799;   -6.899;  710.694
456.819;   53.847;   -7.389;  751.158
457.409;   53.817;  -11.119;  773.993
457.999;   56.622;   -9.289;  737.505
458.589;   56.188;   -6.139;  686.606
459.179;   56.916;   -8.729;  717.658
459.769;   55.001;   -9.789;  627.099
460.358;   59.254;  -10.259;  797.262
460.948;   59.531;   -7.299;  689.503
461.538;   60.395;  -10.289;  660.677
462.128;   60.265;  -11.269;  664.934
462.717;   66.042;   -9.368;  710.326
463.307;   69.357;   -7.908;  705.846
463.897;   64.807;   -9.599;  656.942
464.486;   63.707;   -9.769;  837.128
465.076;   69.275;   -8.048;  733.776
465.666;   72.161;   -9.358;  652.900
466.255;   70.261;   -7.919;  785.651
466.845;   69.612;  -11.689;  666.749
467.434;   72.025;   -7.818;  725.873
468.023;   73.389;   -7.678;  658.357
468.613;   71.571;  -10.939;  713.946
469.202;   75.561;  -10.118;  646.507
469.791;   79.621;   -9.108;  737.811
470.381;   81.742;   -6.058;  742.813
470.970;   81.441;  -10.428;  711.099
471.559;   81.312;  -10.268;  733.291
472.148;   84.118;   -8.448;  675.737
472.738;   86.755;   -6.917;  765.466
473.327;   87.021;  -11.978;  637.529
473.916;   86.255;  -11.888;  737.446
474.505;   90.335;   -9.437;  751.703
475.094;   93.950;   -6.747;  806.570
475.683;   93.866;   -9.367;  797.699
476.272;   94.564;  -12.637;  730.632
476.861;   96.808;  -10.027;  706.754
477.449;  103.465;   -8.716;  728.487
478.038;   98.112;   -9.577;  692.513
478.627;   98.751;   -9.718;  714.852
479.216;  105.968;   -8.947;  769.441
479.805;  108.539;   -6.256;  783.375
480.393;  109.240;   -7.937; 1008.945
480.982;  108.480;   -7.717;  874.501
481.571;  114.226;   -9.266;  858.333
482.159;  114.943;   -7.636;  705.386
482.748;  114.690;   -9.667;  821.385
483.336;  119.638;  -10.376;  858.209
483.925;  121.058;   -7.147;  774.373
484.513;  127.307;   -7.996;  758.962
485.102;  124.593;  -10.027;  810.965
485.690;  132.985;  -10.446; 1011.050
486.278;  135.397;   -8.446;  979.329
486.867;  135.595;   -6.356;  809.662
487.455;  137.397;   -9.136;  898.229
488.043;  139.208;  -10.646;  748.361
488.631;  147.874;   -7.456; 1005.079
489.220;  152.496;   -6.636;  908.626
489.808;  153.078;  -11.036;  741.415
490.396;  161.308;  -10.246;  914.645
490.984;  167.371;   -8.556;  830.161
491.572;  177.739;   -5.886;  940.315
492.160;  184.668;   -9.486;  919.081
492.748;  198.679;  -10.976;  884.341
493.336;  223.753;   -8.776; 1019.693
493.924;  251.709;   -5.465;  958.077
494.512;  281.385;   -9.986; 1066.638
495.100;  322.244;  -10.636; 1103.280
495.687;  377.902;  -10.885; 1206.373
496.275;  443.526;   -8.126; 1150.796
496.863;  516.024;  -10.586; 1281.171
497.451;  621.900;  -11.926; 1386.805
498.038;  765.846;  -10.885; 1556.729
498.626;  886.677;   -6.315; 1741.407
499.214; 1044.388;   -7.326; 2016.609
499.801; 1246.850;  -11.906; 2220.633
500.389; 1516.070;  -10.466; 2312.494
500.976; 1848.903;   -5.236; 2744.849
501.564; 2293.842;   -8.936; 3148.565
502.151; 2677.913;  -13.176; 3515.999
502.738; 3170.811;  -10.646; 3971.274
503.326; 3599.008;   -9.525; 4403.796
503.913; 4011.849;  -10.856; 5161.749
504.500; 4361.658;  -11.586; 5986.420
505.088; 4877.591;  -10.336; 6381.201
505.675; 5439.575;   -6.355; 6925.547
506.262; 6115.311;   -9.046; 7619.060
506.849; 6909.268;  -10.416; 8733.969
507.436; 7424.305;  -10.305; 9790.121
508.023; 8013.739;   -5.496; 9985.472
508.610; 8302.779;   -7.856;10434.618
509.197; 9001.188;  -10.097;11198.435
509.784;10439.438;  -10.886;12391.194
510.371;11528.246;   -9.315;13603.713
510.958;12378.064;   -9.936;14426.586
511.545;13188.481;   -9.326;15243.775
512.132;14011.708;  -10.075;15945.876
512.719;14555.887;   -7.796;16340.369
513.305;15512.110;  -10.606;18011.766
513.892;16395.504;  -11.486;19754.971
514.479;18008.074;   -9.126;20967.805
515.066;19718.473;   -6.026;22299.793
515.652;21008.643;   -8.466;22908.660
516.239;22135.650;  -10.886;23798.875
516.825;23218.275;  -11.496;25567.275
517.412;24341.469;   -5.796;28154.959
517.998;25279.281;  -10.506;28344.111
518.585;25424.246;  -10.076;27134.219
519.171;25677.963;   -8.315;27268.576
519.758;26906.455;   -8.596;28964.129
520.344;28969.742;   -8.466;30664.494
520.930;29229.744;  -11.006;32550.605
521.516;30803.627;  -10.495;35422.895
522.103;33577.484;   -5.526;38280.004
522.689;34432.375;   -8.746;37835.117
523.275;34139.137;  -11.376;37288.613
523.861;35064.941;  -11.156;37281.395
524.447;36212.918;   -8.135;37846.949
525.033;35744.797;   -7.896;38321.949
525.619;36114.305;  -12.476;38579.285
526.205;37868.703;   -9.516;40622.875
526.791;40893.270;   -6.926;42258.836
527.377;40847.047;   -8.346;42966.902
527.963;42683.398;   -8.717;42018.949
528.549;41517.004;  -11.016;42476.828
529.135;39701.102;   -8.536;41854.852
529.721;38886.453;   -9.666;41237.711
530.306;38224.871;  -10.066;41259.445
530.892;38350.770;  -11.356;41506.047
531.478;39833.828;   -6.596;43559.613
532.063;42421.473;   -8.836;47695.563
532.649;42936.496;  -10.047;50808.324
533.235;44153.391;   -9.746;51787.500
533.820;45525.320;   -6.566;52145.035
534.406;46447.828;  -10.817;51133.488
534.991;45874.141;   -9.416;49996.805
535.576;44625.387;   -9.036;48882.852
536.162;45035.313;   -6.156;46942.285
536.747;46236.699;  -11.607;45711.746
537.333;49719.484;  -11.787;48510.180
537.918;53260.773;  -12.437;50439.891
538.503;51934.527;   -7.196;50863.711
539.088;48209.734;  -10.556;50906.922
539.673;47907.063;   -8.767;52621.965
540.259;47952.930;  -10.026;52368.094
540.844;45417.438;   -7.416;50879.109
541.429;46307.465;   -9.467;52077.777
542.014;49736.480;   -9.527;52716.695
542.599;49660.477;   -9.946;52363.281
543.184;46422.246;   -7.927;53187.137
543.769;47046.395;   -9.297;54697.605
544.354;46861.488;  -10.127;53913.914
544.938;45993.785;   -9.267;49680.164
545.523;48275.020;   -6.506;47386.277
546.108;51063.625;   -9.787;49151.949
546.693;53411.180;  -11.587;51384.637
547.278;53030.605;  -10.986;51853.254
547.862;49722.859;   -8.206;51173.750
548.447;44758.848;  -10.067;51691.395
549.031;44118.070;   -9.637;52456.703
549.616;48950.516;   -9.926;52714.516
550.201;48296.488;   -6.347;52414.598
550.785;49265.176;   -7.917;52355.059
551.370;48628.488;  -10.867;54589.453
551.954;48284.926;   -9.047;58267.348
552.538;49549.598;   -7.827;59062.176
553.123;47848.105;  -10.287;58115.285
553.707;45457.000;  -12.178;56556.285
554.291;46290.480;   -8.717;56201.668
554.876;48226.078;   -7.457;55335.762
555.460;48740.613;  -10.387;54155.703
556.044;50620.816;   -9.618;53721.484
556.628;49052.820;  -11.567;53731.016
557.212;47617.941;   -8.097;54312.531
557.796;45334.332;  -11.077;53797.773
558.380;45628.910;  -11.108;56145.984
558.964;47132.961;   -9.057;57277.930
559.548;48314.992;   -6.977;56459.641
560.132;46049.219;  -11.457;54434.543
560.716;44464.395;  -11.378;54800.617
561.300;45181.789;   -9.577;57606.945
561.884;46411.070;   -7.127;58972.445
562.467;44980.387;   -7.118;57327.570
563.051;44329.840;  -13.358;54962.434
563.635;44868.207;  -10.178;52594.473
564.219;45340.680;   -7.837;50610.410
564.802;46276.000;  -11.398;49551.180
565.386;46365.301;  -12.788;48370.953
565.969;45807.566;   -9.077;48178.871
566.553;44525.020;   -6.207;49957.305
567.136;44891.805;   -8.568;50369.594
567.720;41338.953;  -11.868;49492.004
568.303;39658.070;   -8.268;50616.352
568.887;39506.641;   -8.698;50727.148
569.470;39654.449;   -6.808;51698.379
570.053;38609.531;  -13.188;52122.078
570.637;37081.055;  -12.037;52536.438
571.220;36616.043;   -8.577;51186.098
571.803;36864.066;   -8.498;51032.762
572.386;38618.867;  -10.498;49609.887
572.969;41394.789;   -9.388;48285.926
573.552;40478.250;   -8.338;47624.285
574.135;39374.039;   -8.518;45498.641
574.718;36713.320;  -13.628;41970.434
575.301;35521.422;  -10.893;41447.137
575.884;34329.523;   -8.158;40923.836
576.467;35434.039;  -10.328;45267.723
577.050;37363.906;  -13.058;48175.543
577.633;39059.230;   -9.458;47729.328
578.216;38181.023;   -8.928;47579.793
578.799;37105.414;   -9.358;47820.996
579.381;35622.027;  -11.388;48115.551
579.964;33654.859;  -11.718;47333.766
580.547;34975.043;   -8.588;46668.969
581.129;35999.219;   -8.859;44466.141
581.712;36878.770;  -10.729;44164.922
582.294;37710.809;  -11.118;46477.855
582.877;37724.867;   -5.218;48244.254
583.459;35864.660;   -8.679;47437.895
584.042;34046.203;  -10.709;46943.219
584.624;34259.625;  -11.669;46792.227
585.206;33825.293;   -8.218;46557.250
585.789;33726.367;  -10.569;45793.773
586.371;36597.230;  -11.859;43836.391
586.953;37788.953;  -10.719;42972.492
587.536;38747.992;   -7.198;42487.211
588.118;39058.848;   -8.720;42086.414
588.700;34904.172;  -10.439;43389.930
589.282;33711.957;   -9.198;43646.039
589.864;34804.516;   -9.199;43438.109
590.446;36416.172;  -11.319;43151.926
591.028;36331.203;  -11.159;42781.867
591.610;35145.059;  -11.779;42839.098
592.192;31876.090;   -7.668;42820.402
592.774;29951.232;  -11.949;40724.277
593.356;28803.705;  -12.129;39874.789
593.937;28412.508;  -10.669;39980.648
594.519;30460.400;   -6.509;42069.633
595.101;32675.041;  -10.849;42976.031
595.683;33006.348;  -11.679;44084.441
596.264;34030.227;   -9.049;43478.797
596.846;33075.816;   -8.849;43803.672
597.427;32606.512;   -9.570;42986.934
598.009;34364.305;  -12.620;42832.219
598.591;34846.449;  -10.039;42580.086
599.172;34153.871;  -10.369;43061.805
599.753;34188.168;   -9.140;41691.469
600.335;36029.586;  -11.430;40692.520
600.916;34477.777;   -9.939;39982.422
601.498;31616.080;   -8.479;40318.617
602.079;30140.482;  -10.920;40670.609
602.660;29889.252;  -11.480;41450.898
603.241;30998.941;  -11.699;41137.738
603.823;30052.139;   -9.579;38868.797
604.404;29574.957;  -10.620;38182.785
604.985;31153.992;  -10.450;38078.047
605.566;30605.063;   -9.129;38056.633
606.147;30539.947;   -7.510;37020.418
606.728;32572.504;  -10.660;37883.359
607.309;31552.828;  -11.740;38748.273
607.890;30865.309;   -9.759;38850.230
608.471;30707.639;   -8.250;37457.918
609.051;30181.309;   -9.240;36066.457
609.632;29091.789;  -12.120;35991.074
610.213;29643.229;   -9.110;37402.641
610.794;30294.404;   -8.030;38383.363
611.374;29694.563;   -8.110;40562.387
611.955;30314.545;  -13.560;38533.727
612.536;31972.131;  -11.400;36951.789
613.116;31264.434;   -8.070;37197.891
613.697;31445.256;  -10.830;38411.125
614.277;29773.105;  -11.641;38673.938
614.858;30791.164;  -13.310;37075.863
615.438;30311.285;   -7.460;35092.906
616.019;27609.865;   -7.601;33666.301
616.599;28078.746;  -12.020;34189.023
617.179;30145.533;  -11.780;36952.047
617.760;31043.557;   -8.570;39582.574
618.340;32187.375;  -11.471;38943.977
618.920;33644.316;  -11.170;37594.156
619.500;33288.191;  -11.071;37866.938
620.080;32356.314;   -7.750;37869.043
620.660;33127.898;  -12.711;36868.617
621.241;33957.902;  -10.211;36352.309
621.821;34189.055;  -10.961;35459.520
622.401;33967.445;   -7.720;35207.414
622.980;33091.684;   -8.981;35980.422
623.560;31372.379;   -9.331;37351.328
624.140;30253.770;   -9.850;34388.582
624.720;25572.766;   -7.451;32368.764
625.300;21939.053;   -9.070;32638.629
625.880;25155.201;  -12.601;34599.035
626.459;28895.977;  -11.751;36831.738
627.039;31948.619;   -9.281;38299.098
627.619;31986.689;   -8.801;38289.574
628.198;30239.818;  -12.071;37220.695
628.778;29458.758;   -9.461;37632.563
629.357;30191.990;   -8.491;38003.012
629.937;30069.111;   -9.721;38402.039
630.516;29640.570;   -9.951;37868.801
631.096;29714.563;  -11.731;35760.410
631.675;32174.438;   -8.572;35225.219
632.254;37305.703;  -11.282;35130.289
632.834;36770.188;  -13.322;35794.570
633.413;34944.605;  -10.301;35788.922
633.992;32099.039;   -8.582;34532.863
634.571;33294.164;   -8.352;33590.113
635.151;36225.055;  -11.912;34943.863
635.730;34571.734;  -10.511;35352.523
636.309;31035.117;   -7.731;35366.605
636.888;28229.701;   -9.952;36165.637
637.467;28746.648;  -11.672;37515.902
638.046;30840.170;   -8.901;39288.695
638.625;33986.840;   -7.912;38279.699
639.204;33767.352;  -10.022;37741.598
639.782;31848.268;  -12.252;38364.551
640.361;28281.299;  -10.041;36740.621
640.940;25466.406;  -11.161;34950.082
641.519;26058.691;   -9.701;34137.398
642.097;28543.402;  -11.271;35654.258
642.676;31289.750;   -8.651;35637.957
643.255;32536.650;   -8.711;36567.074
643.833;31693.242;   -9.581;37809.434
644.412;31867.223;  -13.711;37337.293
644.990;31088.104;  -11.811;37018.531
645.569;30691.805;   -9.411;36518.469
646.147;29732.760;  -10.291;36186.430
646.726;29367.943;  -12.401;36267.688
647.304;30832.273;  -10.411;36647.625
647.882;32617.529;   -9.651;39286.742
648.461;33975.695;   -9.631;39157.703
649.039;32505.172;  -11.881;35412.883
649.617;31907.350;   -9.661;34744.918
650.195;31684.139;   -9.301;35403.098
650.773;30591.488;  -10.511;35053.797
651.352;27958.680;  -11.521;33756.816
651.930;25603.152;  -12.211;31868.773
652.508;23983.604;   -9.171;33121.551
653.086;27731.852;   -9.371;33564.793
653.663;31022.605;  -13.161;34054.668
654.241;29662.508;  -13.031;35693.309
654.819;31128.686;   -9.371;36422.906
655.397;31098.818;  -10.511;38213.484
655.975;30722.330;  -10.371;39507.625
656.553;30994.299;  -10.051;39498.223
657.130;29305.211;  -10.061;40395.480
657.708;28533.639;   -9.561;39242.020
658.286;28513.691;  -11.511;38920.020
658.863;29801.438;  -10.261;40202.898
659.441;32674.553;   -7.531;39677.938
660.018;31958.078;   -9.501;40413.355
660.596;30689.645;  -13.301;39931.414
661.173;32596.314;  -11.211;39604.531
661.750;32781.305;   -9.951;39700.070
662.328;31822.148;   -9.390;39292.809
662.905;31146.670;  -11.330;38235.648
663.482;26964.213;   -9.050;36212.305
664.060;24893.914;   -8.240;35944.945
664.637;27493.625;  -10.050;35170.785
665.214;29436.430;  -11.760;34197.523
665.791;31477.719;  -10.530;34549.520
666.368;30029.926;   -9.690;35118.578
666.945;30148.246;   -9.320;36019.418
667.522;31711.652;  -11.860;36048.438
668.099;32121.623;  -10.770;36243.914
668.676;31461.164;   -6.260;35958.875
669.253;29708.912;   -7.000;37384.730
669.830;30004.236;  -10.190;36779.629
670.407;29759.117;   -9.550;35231.289
670.984;29871.086;   -9.260;35544.270
671.560;30294.381;   -9.280;35466.867
672.137;29087.064;  -11.810;34280.863
672.714;29759.469;  -11.490;34632.863
673.290;30131.029;   -7.740;35135.422
673.867;30216.619;  -10.660;36114.480
674.443;30782.984;  -12.230;36152.859
675.020;29063.809;  -10.450;35327.238
675.596;29923.350;   -9.260;35795.176
676.173;30299.928;  -10.780;35430.355
676.749;29842.744;  -13.690;33549.516
677.326;30151.301;  -11.980;32210.012
677.902;30579.213;   -8.630;32068.871
678.478;29841.545;  -10.730;32583.891
679.054;29292.580;  -10.520;32088.928
679.631;30022.109;  -11.920;30978.848
680.207;30984.844;   -7.490;33160.887
680.783;32180.398;   -9.860;35570.363
681.359;31365.066;  -13.380;36125.184
681.935;30572.539;  -12.480;35240.922
682.511;29687.072;   -7.900;34429.961
683.087;29636.908;   -7.710;34463.680
683.663;29447.441;  -11.480;34648.898
684.239;28604.859;  -14.090;34546.457
684.815;28109.455;   -7.560;35586.375
685.390;28495.512;   -9.910;35821.895
685.966;29080.086;  -11.159;35085.871
686.542;31680.846;  -11.169;34198.230
687.118;33859.441;   -5.959;32847.707
687.693;34005.492;  -10.329;32794.027
688.269;33188.484;  -12.059;33072.367
688.844;31087.820;  -10.909;33141.664
689.420;29214.436;   -8.019;33965.742
689.995;27072.619;   -8.399;34655.523
690.571;25729.170;  -10.949;33576.742
691.146;26063.180;   -9.619;32657.219
691.722;25407.133;   -8.999;32526.979
692.297;25080.408;  -11.589;33014.617
692.872;26995.869;  -11.739;34012.254
693.448;26636.760;  -11.059;34237.434
694.023;25821.559;  -10.139;34142.672
694.598;27964.111;   -9.029;34132.031
695.173;28294.188;  -13.319;34205.250
695.748;27675.715;  -10.169;32882.488
696.323;27560.590;   -8.339;32864.906
696.898;27430.688;   -8.169;33170.004
697.473;27358.453;  -12.309;32432.984
698.048;27242.416;  -10.989;31649.303
698.623;27516.000;   -9.329;30778.141
699.198;29332.129;   -9.849;31140.119
699.773;30278.744;  -12.329;31764.299
700.348;28633.412;  -10.389;31780.816
700.922;28748.131;   -9.269;32046.375
701.497;29457.869;   -9.329;32603.574
702.072;29683.828;  -10.789;34799.871
702.646;28743.168;  -10.839;35793.172
703.221;26540.313;   -9.099;35201.590
703.795;28461.439;  -10.939;34764.527
704.370;28975.898;  -12.859;34307.367
704.944;29427.012;  -11.559;33509.887
705.519;30575.316;   -7.939;31388.584
706.093;31492.865;  -10.499;31340.104
706.668;31614.996;  -11.289;32630.281
707.242;30199.273;  -11.509;32728.779
707.816;28600.471;   -9.639;32947.238
708.390;27279.674;  -11.429;33277.855
708.965;28155.363;  -11.869;33834.336
709.539;28646.639;  -11.689;33709.273
710.113;29112.602;  -10.478;33044.313
710.687;28522.215;  -10.228;31953.992
711.261;26313.313;  -13.698;30505.949
711.835;25883.313;  -13.378;30262.369
712.409;26702.912;   -9.698;31254.447
712.983;28372.611;  -11.898;32754.986
713.557;29404.465;  -15.138;34018.824
714.131;29313.492;  -14.098;34579.625
714.704;28562.125;   -9.958;33890.262
715.278;26064.004;  -10.028;33531.102
715.852;25264.980;  -11.148;33601.660
716.425;25962.766;   -9.068;33515.117
716.999;26548.438;  -10.038;33185.555
717.573;27716.242;   -9.798;33905.996
718.146;28943.604;  -12.378;35199.293
718.720;28614.154;  -11.918;35060.551
719.293;27961.406;   -8.088;34973.230
719.867;30805.422;  -10.888;36394.449
720.440;30858.604;  -11.938;36663.008
721.013;29430.416;  -12.818;35102.426
721.587;28104.451;  -10.298;33985.266
722.160;26268.492;  -10.048;33524.965
722.733;25351.334;  -12.108;32987.043
723.306;26213.525;  -10.818;33066.301
723.880;28372.463;   -8.908;33399.500
724.453;30282.352;   -9.878;33468.297
725.026;29360.414;  -11.188;33816.637
725.599;26533.570;  -11.678;32797.996
726.172;26591.166;   -9.618;33187.434
726.745;27864.248;   -8.258;35136.613
727.318;29458.451;  -12.978;35751.730
727.891;30301.041;  -12.148;35890.430
728.463;30191.656;   -8.968;34822.090
729.036;29024.066;  -10.188;32895.086
729.609;29248.150;  -11.788;31823.225
730.182;26003.818;  -11.788;31445.283
730.754;23564.740;  -10.268;32373.223
731.327;23645.896;   -9.998;33676.820
731.900;23574.947;  -12.228;33417.000
732.472;24874.844;  -13.848;31978.498
733.045;27164.242;   -8.698;30368.777
733.617;27170.670;  -10.607;30574.215
734.190;26806.311;  -11.507;31280.975
734.762;24016.482;  -13.647;31674.412
735.334;22174.305;   -9.767;31247.291
735.907;22526.834;   -9.897;29876.211
736.479;22327.941;  -11.637;29808.488
737.051;22076.719;   -9.567;30233.547
737.623;23595.455;   -8.187;31469.086
738.195;24612.857;  -11.187;31784.225
738.768;26099.328;  -12.337;32120.523
739.340;26179.000;  -12.227;32094.342
739.912;25197.953;  -11.057;31312.680
740.484;24027.879;  -10.207;31946.238
741.056;22794.449;  -10.047;32984.059
741.628;24535.256;  -13.627;33897.715
742.199;26935.982;   -7.177;33213.016
742.771;25236.691;  -10.797;31369.113
743.343;22831.383;  -11.997;31865.473
743.915;21597.227;  -12.867;32388.631
744.487;21669.736;   -7.617;31079.568
745.058;21931.488;   -9.557;30570.107
745.630;22657.338;   -9.877;29970.127
746.201;23641.914;  -14.177;29186.766
746.773;24007.377;   -9.237;28805.723
747.344;23896.006;   -9.847;29591.223
747.916;22489.121;  -11.657;31412.201
748.487;22221.615;  -10.587;32194.898
749.059;23398.297;   -8.707;32533.719
749.630;24501.725;  -10.537;32158.518
750.201;23432.441;  -11.687;30855.395
750.773;21674.926;  -11.647;28622.555
751.344;21706.957;   -7.147;28405.732
751.915;22801.344;   -9.757;28461.551
752.486;22306.094;  -12.427;27842.850
753.057;20090.963;  -12.227;27845.008
753.628;18949.350;  -10.417;27728.107
754.199;20150.582;  -11.767;27381.086
754.770;21319.654;  -11.187;25882.203
755.341;21225.645;  -10.507;25886.184
755.912;21466.711;   -9.387;26050.861
756.483;20865.781;  -10.647;26798.779
757.054;18989.076;  -11.837;27048.238
757.625;17640.777;  -12.716;26294.838
758.195;17253.844;   -9.666;26142.076
758.766;16926.967;   -8.656;26392.234
759.337;17931.424;  -12.856;26334.594
759.907;19843.016;  -13.366;27579.652
760.478;20728.684;   -8.576;28352.770
761.048;20170.371;  -10.526;27325.088
761.619;19374.893;  -11.116;26460.428
762.189;19194.945;  -12.136;26029.826
762.760;20024.857;   -9.456;26430.145
763.330;21262.770;   -7.136;26670.902
763.900;20774.371;  -11.786;26603.021
764.471;18053.572;  -11.546;25542.740
765.041;16721.801;   -8.096;24358.459
765.611;16948.506;   -8.876;23991.297
766.181;17509.480;  -12.196;24470.236
766.751;18299.770;  -11.636;24845.975
767.321;18186.102;  -10.156;24533.633
767.891;16304.935;  -11.766;24916.492
768.461;15696.217;  -14.936;24776.771
769.031;16119.443;  -12.356;24757.988
769.601;17866.430;   -7.526;24181.088
770.171;17939.426;  -10.766;23670.387
770.741;16939.893;  -13.176;22960.045
771.311;17003.525;  -10.616;22917.523
771.880;17404.820;   -9.576;23562.941
772.450;16877.268;  -10.336;24216.500
773.020;16599.389;  -13.516;24140.398
773.589;16126.729;  -13.466;24414.857
774.159;15740.272;   -8.686;23858.717
774.729;15499.614;   -9.476;22942.135
775.298;15118.905;  -13.666;22324.033
775.867;14706.804;  -11.716;21140.313
776.437;14715.815;   -9.906;20838.092
777.006;14373.151;  -12.166;20599.510
777.576;14288.234;  -12.356;20508.809
778.145;14451.512;  -11.646;20732.947
778.714;14362.975;   -8.226;21062.465
779.283;13537.007;   -9.556;20949.664
779.853;13084.926;  -14.116;20508.623
780.422;13522.673;  -11.506;20649.082
780.991;13119.118;   -9.556;21527.520
781.560;12108.411;   -9.095;22632.658
782.129;11955.828;  -12.135;23048.277
782.698;11938.007;  -10.865;23438.555
783.267;11588.648;   -9.335;23267.734
783.836;11478.522;  -11.045;22415.133
784.404;12387.385;  -13.865;20443.152
784.973;12825.150;  -13.095;19699.150
785.542;12683.997;  -11.575;19763.828
786.111;12614.450;   -9.705;20341.408
786.679;12270.524;  -12.105;20207.967
787.248;11995.545;  -12.455;19516.465
787.817;11754.654;  -11.535;18900.363
788.385;11356.363;   -9.765;17879.121
788.954;10737.059;  -14.005;17658.301
789.522;10269.730;  -11.955;17788.879
790.090;10855.711;  -10.135;18118.277
790.659;11266.979;  -10.975;18338.736
791.227;10642.667;  -13.375;18508.615
791.795;11048.994;  -12.375;17898.254
792.364;11468.902;  -10.725;17295.133
792.932;11766.488;   -9.715;16822.051
793.500;11962.260;  -12.675;17040.148
794.068;12268.089;  -13.495;17179.787
794.636;12466.997;  -10.885;16664.246
795.204;11889.306;  -11.045;16524.545
795.772;11836.409;  -13.175;17274.564
796.340;11317.983;  -12.445;17891.002
796.908;11140.845;   -9.735;17648.561
797.476;11232.442;   -9.815;17064.080
798.044;10912.164;  -13.985;16672.777
798.612;10042.265;  -13.115;17023.996
799.180; 9608.769;  -10.185;16561.615
799.747; 9466.232;   -9.055;15962.773
800.315; 9135.577;  -12.385;15296.992
800.883; 8841.855;  -15.035;14801.771
801.450; 8856.438;  -10.365;14534.430
802.018; 8885.429;   -9.855;14173.248
802.585; 8887.949;  -11.905;14029.547
803.153; 8909.783;  -11.585;13836.846
803.720; 8874.514;   -9.095;13567.324
804.287; 8612.207;   -9.135;13360.622
804.855; 8184.070;  -11.604;13681.981
805.422; 8029.527;  -11.794;13536.560
805.989; 7991.958;  -10.734;13355.958
806.556; 8096.020;  -10.444;13747.896
807.124; 8368.767;  -12.764;13987.376
807.691; 8293.478;  -12.964;14038.674
808.258; 8104.150;  -11.134;14120.152
808.825; 7818.815;   -9.854;13860.111
809.392; 7896.433;  -10.504;13268.790
809.959; 7450.774;  -13.054;12680.389
810.526; 7020.368;   -8.294;12427.308
811.093; 7057.624;   -8.394;12030.105
811.659; 7675.123;  -12.304;11653.664
812.226; 8135.173;  -13.944;11637.183
812.793; 7831.792;  -10.484;11611.521
813.360; 7199.570;  -10.144;11885.181
813.926; 6770.382;  -11.684;12770.539
814.493; 6483.546;  -13.644;12677.638
815.060; 6105.728;   -9.724;11974.336
815.626; 6166.891;   -9.854;11594.715
816.193; 6603.723;  -13.254;11579.474
816.759; 6636.144;  -13.204;11666.972
817.325; 6727.136;   -9.434;11325.530
817.892; 7076.763;  -10.134;11105.369
818.458; 7469.599;  -13.474;10843.928
819.024; 7161.034;  -11.854;10714.406
819.591; 6862.600;  -10.244;10469.165
820.157; 6589.421;  -10.704;10235.523
820.723; 6030.959;  -12.324;10847.563
821.289; 5758.843;   -9.444;11040.980
821.855; 5732.547;   -8.374;10357.100
822.421; 5819.668;  -10.234; 9978.918
822.987; 5812.176;  -13.294; 9754.177
823.553; 5460.593;  -10.884;10065.755
824.119; 5249.291;   -8.884;10036.294
824.685; 5323.329;   -6.784;10029.192
825.251; 5421.855;  -12.004;10199.230
825.816; 5397.215;  -11.474; 9820.189
826.382; 5189.743;   -9.174; 9297.248
826.948; 5364.259;   -9.214; 9381.347
827.513; 5775.160;  -10.774; 9450.726
828.079; 5622.011;  -11.924; 9472.444
828.645; 5048.376;  -10.543; 9292.643
829.210; 4915.689;  -10.533; 9065.341
829.776; 4872.905;  -10.753; 9132.620
830.341; 4727.683;  -10.173; 9092.878
830.906; 4894.858;  -10.743; 9078.557
831.472; 5290.861;  -11.113; 8534.535
832.037; 5120.548;  -10.603; 8677.874
832.602; 4577.413;  -13.323; 8628.692
833.167; 4216.294;  -10.823; 8879.031
833.733; 4139.182;  -10.113; 9189.790
834.298; 4251.752;  -13.583; 9052.608
834.863; 4272.792;  -12.703; 8895.087
835.428; 4233.445;  -10.523; 8824.266
835.993; 4136.260;   -6.963; 8845.385
836.558; 4008.126;  -10.763; 8888.563
837.123; 4108.279;   -9.903; 8966.582
837.688; 4308.937;   -9.913; 8617.860
838.253; 4534.931;  -10.283; 8590.699
838.817; 4748.333;  -12.963; 8443.797
839.382; 4684.397;  -14.243; 8799.356
839.947; 4379.405;  -10.733; 8810.595
840.511; 4087.993;   -9.383; 8796.394
841.076; 3743.396;  -12.563; 8347.231
841.641; 3782.575;  -12.953; 8224.330
842.205; 3853.136;   -7.043; 8223.349
842.770; 3937.547;   -8.163; 8622.107
843.334; 4150.895;  -12.503; 8410.386
843.898; 4136.318;  -11.693; 8337.465
844.463; 4153.311;  -10.203; 8506.283
845.027; 3913.885;   -9.533; 8280.962
845.591; 3706.635;  -13.443; 8231.141
846.156; 3740.025;  -13.143; 7969.179
846.720; 3637.727;   -9.433; 7768.278
847.284; 3523.418;  -11.033; 7630.957
847.848; 3360.892;  -10.403; 7472.395
848.412; 3282.089;  -11.553; 7437.394
848.976; 3345.482;   -8.393; 7674.592
849.540; 3292.240;   -8.713; 7836.011
850.104; 3357.664;  -12.463; 7913.669
850.668; 3693.974;  -12.973; 7694.508
851.232; 3812.310;  -10.793; 7756.887
851.796; 3645.656;  -10.662; 7926.545
852.359; 3342.791;  -13.082; 7827.844
852.923; 3192.563;  -12.192; 7641.163
853.487; 3042.515;  -11.912; 7342.501
854.050; 2983.222;  -10.892; 7042.820
854.614; 3122.426;  -13.992; 7151.338
855.177; 3236.032;  -11.732; 7105.077
855.741; 3284.247;   -8.962; 6989.675
856.304; 3173.383;   -9.442; 6596.634
856.868; 3096.220;  -14.192; 6356.272
857.431; 3190.341;  -12.702; 6468.571
857.995; 3279.534;   -9.942; 6373.210
858.558; 3291.842;   -9.112; 6324.448
859.121; 3049.722;  -12.932; 6408.327
859.684; 2944.124;  -13.442; 6347.886
860.247; 3083.882;  -10.632; 6321.264
860.810; 3083.434;  -11.272; 6301.903
861.374; 2845.092;   -9.832; 6607.881
861.937; 2592.793;  -11.762; 6408.200
862.500; 2554.362;   -9.722; 6572.639
863.062; 2695.770;  -10.512; 6387.297
863.625; 2880.417;  -11.232; 6190.836
864.188; 3055.265;  -14.112; 5807.254
864.751; 3098.294;  -11.302; 5682.413
865.314; 2978.969;  -10.112; 5547.492
865.876; 2790.798;  -12.182; 5500.150
866.439; 2782.140;  -10.722; 5415.909
867.002; 2742.131;   -9.252; 5501.567
867.564; 2538.291;   -9.572; 5413.946
868.127; 2336.124;  -13.142; 5160.325
868.689; 2251.841;  -12.902; 5133.183
869.252; 2186.658;   -9.732; 5252.382
869.814; 2106.639;   -9.432; 5297.141
870.377; 2116.915;  -11.552; 5390.919
870.939; 2178.130;   -9.052; 5599.898
871.501; 2228.020;  -10.982; 5248.336
872.063; 2224.639;  -12.292; 4854.235
872.626; 2181.214;  -14.912; 4817.074
873.188; 2182.566;  -13.112; 4987.732
873.750; 2137.677;  -13.442; 4868.651
874.312; 2036.132;   -9.402; 4779.330
874.874; 1953.604;  -11.062; 4866.348
875.436; 1883.344;  -13.931; 4718.887
875.998; 1880.522;   -9.561; 4660.005
876.560; 1900.882;  -11.321; 4462.964
877.122; 1852.350;  -12.221; 4145.042
877.683; 1757.426;  -12.191; 4056.481
878.245; 1679.459;  -12.101; 3950.740
878.807; 1705.720;   -8.971; 4058.958
879.369; 1719.811;  -12.071; 3954.677
879.930; 1630.855;  -14.621; 3941.495
880.492; 1575.810;  -10.311; 4067.014
881.053; 1550.407;  -10.901; 3859.633
881.615; 1438.610;  -14.411; 3776.071
882.176; 1344.855;  -13.761; 3734.750
882.738; 1309.636;   -9.181; 3678.489
883.299; 1287.687;  -11.791; 3405.407
883.860; 1283.718;  -13.121; 3351.106
884.422; 1294.416;  -11.211; 3394.044
884.983; 1259.504;  -10.091; 3166.443
885.544; 1169.005;   -8.461; 3189.802
886.105; 1089.001;  -12.361; 3160.360
886.666; 1024.122;  -14.141; 3093.059
887.227;  966.646;  -11.361; 2941.957
887.788;  904.324;  -11.401; 2974.836
888.349;  845.244;  -13.791; 2721.214
888.910;  844.394;  -13.191; 2696.493
889.471;  852.469;   -9.881; 2560.172
890.032;  837.058;   -9.881; 2558.190
890.593;  813.285;  -10.371; 2567.669
891.153;  784.995;  -13.301; 2460.307
891.714;  738.491;  -11.431; 2372.046
892.275;  704.246;  -11.291; 2309.505
892.835;  669.859;  -11.471; 2382.543
893.396;  615.895;  -11.541; 2295.502
893.956;  560.517;  -11.181; 2162.420
894.517;  524.991;  -11.741; 2125.439
895.077;  516.998;  -11.671; 2086.978
895.638;  516.050;  -11.311; 2126.316
896.198;  488.099;   -9.831; 1838.275
896.758;  446.558;   -8.421; 1892.813
897.319;  413.126;  -12.351; 1792.232
897.879;  394.118;  -13.511; 1762.751
898.439;  369.877;  -12.001; 1661.149
898.999;  344.776;  -10.180; 1781.468
899.559;  336.400;  -12.030; 1703.347
900.119;  332.097;  -15.710; 1537.525
900.679;  328.887;   -8.900; 1638.384
901.239;  317.639;   -8.340; 1527.902
901.799;  306.425;  -13.910; 1456.441
902.359;  299.077;  -13.460; 1357.140
902.919;  293.302;  -11.490; 1331.118
903.479;  279.752;  -12.110; 1317.257
904.038;  257.859;  -11.720; 1262.595
904.598;  242.308;  -13.610; 1152.034
905.158;  237.253;  -11.040; 1240.893
905.717;  230.186;  -10.900; 1233.691
906.277;  219.901;  -15.080; 1217.330
906.836;  211.647;  -13.380; 1222.408
907.396;  203.046;  -10.780; 1193.047
907.955;  196.125;   -8.500; 1182.526
908.515;  190.838;  -12.760; 1099.364
909.074;  185.263;  -11.900; 1092.863
909.633;  178.465;   -8.950; 1069.121
910.192;  174.793;   -8.770; 1196.460
910.752;  169.858;  -12.390; 1029.960
911.311;  165.628;  -13.680; 1009.780
911.870;  162.981;  -12.370;  971.460
912.429;  163.983;  -10.900; 1094.080
912.988;  162.190;  -11.690; 1081.060
913.547;  156.904;  -13.240;  940.380
914.106;  152.416;  -11.990;  999.420
914.665;  149.399;   -9.990;  984.020
915.224;  149.091;  -12.880; 1035.760
915.782;  148.754;  -12.350;  922.560
916.341;  148.296;   -9.110; 1049.840
916.900;  144.387;   -9.270;  925.260
917.458;  141.881;  -13.240;  884.220
918.017;  141.512;  -13.550;  942.600
918.576;  140.745;  -12.320;  904.440
919.134;  139.575;  -11.490;  837.980
919.693;  137.018;  -13.670;  893.060
920.251;  134.767;  -15.470;  876.500
920.809;  135.471;  -11.290;  839.580
921.368;  133.698;  -10.210;  885.360
921.926;  133.686;  -12.140;  842.940
922.484;  131.886;  -13.080;  903.360
923.042;  130.588;  -11.720;  880.340
923.601;  134.371;   -7.480;  998.680
924.159;  133.136;  -11.570;  935.560
924.717;  129.473;  -13.840;  841.080
925.275;  128.844;  -10.640;  903.240
925.833;  130.389;  -11.540;  779.320
926.391;  130.517;  -12.960;  938.380
926.949;  127.779;  -14.130;  857.680
927.506;  128.891;  -11.750;  903.500
928.064;  128.686;  -10.250;  877.580
928.622;  127.863;  -13.030;  880.100
929.180;  127.132;  -13.400;  814.180
929.737;  128.331;  -10.700;  808.540
930.295;  132.488;  -10.070;  928.480
930.853;  134.780;  -11.960;  849.100
931.410;  133.474;  -13.120;  821.120
931.968;  133.402;  -10.770;  940.660
932.525;  133.182;  -10.680;  909.380
933.082;  132.836;  -13.130;  811.440
933.640;  134.498;  -13.210;  925.900
934.197;  132.051;  -11.060;  886.360
934.754;  133.603;   -9.580;  897.780
935.312;  136.620;  -14.000;  863.340
935.869;  139.673;  -10.710; 1012.980
936.426;  139.992;   -9.860;  872.800
936.983;  141.175;   -9.710;  889.020
937.540;  141.241;  -13.990;  838.280
938.097;  140.047;  -14.040;  940.120
938.654;  140.626;  -10.310;  898.860
939.211;  143.459;  -10.560;  952.480
939.768;  146.824;  -13.900;  915.420
940.324;  150.135;  -14.760;  904.200
940.881;  150.066;  -10.370;  878.500
941.438;  151.351;   -8.260; 1021.200
941.995;  147.207;  -12.540;  992.560
942.551;  144.339;  -14.670;  875.620
943.108;  144.844;  -10.450;  937.920
943.664;  147.847;  -10.750;  869.340
944.221;  150.284;  -11.550; 1088.140
944.777;  146.988;  -14.770;  869.680
945.334;  149.142;  -12.820;  884.840
945.890;  151.966;  -10.130;  946.480
946.446;  152.087;  -13.470;  947.020
947.003;  153.111;  -12.120;  964.940
947.559;  155.076;   -9.980; 1063.040
948.115;  154.204;   -9.080; 1026.540
948.671;  152.683;  -10.830;  967.300
949.227;  149.305;  -12.440;  859.560
949.783;  146.228;  -12.910;  858.900
950.339;  147.881;  -10.270;  991.000
950.895;  147.971;  -13.630; 1023.840
951.451;  148.102;  -15.100;  925.280
952.007;  148.881;  -11.330;  998.540
952.563;  150.177;  -10.580;  937.780
953.118;  149.553;  -13.440;  904.940
953.674;  148.783;  -12.710;  935.780
954.230;  148.098;  -10.350;  949.640
954.785;  144.985;   -9.190;  936.640
955.341;  143.649;  -11.200;  998.160
955.897;  140.542;  -16.560;  834.660
956.452;  143.283;  -12.570;  953.840
957.008;  141.834;   -7.970; 1083.640
957.563;  139.153;  -11.940; 1009.540
958.118;  134.260;  -13.450;  877.700
958.674;  135.349;  -12.030;  946.780
959.229;  135.677;   -9.410; 1013.980
959.784;  134.406;  -12.000;  832.400
960.339;  132.883;  -14.780; 1001.280
960.894;  129.470;   -9.860;  963.760
961.449;  126.205;   -9.970;  859.960
962.004;  126.312;  -10.900; 1212.840
962.559;  120.530;  -13.150;  860.140
963.114;  118.560;  -13.740;  742.480
963.669;  119.486;   -9.820;  915.500
964.224;  118.334;  -13.890;  874.340
964.779;  116.398;  -12.600;  828.420
965.334;  117.671;  -10.950; 1017.860
965.888;  116.310;  -11.170;  875.360
966.443;  119.697;  -12.540;  972.380
966.998;  118.772;  -15.780;  819.460
967.552;  118.040;   -9.760;  908.380
968.107;  114.470;   -9.060;  868.300
968.661;  115.344;  -11.950;  922.440
969.216;  115.507;  -12.800;  856.280
969.770;  116.045;  -11.210;  917.200
970.324;  114.413;  -11.610;  923.140
970.879;  112.669;  -11.370;  947.180
971.433;  107.714;  -12.540;  952.720
971.987;  103.784;  -11.320;  895.340
972.541;  100.858;  -10.720;  917.100
973.095;  101.483;   -9.680; 1009.460
973.649;   99.715;  -11.440;  809.480
974.203;   99.343;  -11.210;  829.040
974.757;   98.852;  -10.240;  855.220
975.311;   99.359;  -13.720;  872.600
975.865;   98.392;  -13.770;  881.820
976.419;   96.504;  -11.690;  857.400
976.973;   97.246;   -9.510;  849.620
977.526;   99.289;  -12.620;  949.920
978.080;   98.052;  -12.010;  796.780
978.634;   99.501;  -10.170;  921.320
979.187;   97.577;   -9.020;  905.400
979.741;   94.334;   -9.820; 1018.380
980.294;   89.789;  -14.870;  789.160
980.848;   86.746;  -12.380;  717.220
981.401;   89.687;  -10.350;  816.540
981.955;   91.521;  -13.720;  844.300
982.508;   90.359;  -11.490;  746.340
983.061;   90.974;  -10.000;  915.260
983.615;   86.909;  -11.480;  798.800
984.168;   84.377;  -13.220;  770.080
984.721;   83.247;  -13.960;  880.760
985.274;   81.599;  -10.870;  867.500
985.827;   80.953;   -9.790;  834.220
986.380;   79.613;  -13.120;  721.340
986.933;   78.551;  -12.450;  864.800
987.486;   77.006;  -10.210;  861.920
988.039;   75.567;   -8.430;  863.100
988.591;   74.636;  -10.520;  893.260
989.144;   71.833;  -14.860;  737.260
989.697;   70.037;  -13.080;  758.740
990.250;   71.620;  -10.150;  858.100
990.802;   70.547;  -13.430;  755.860
991.355;   71.340;  -12.750;  974.880
991.907;   68.858;  -12.040;  864.320
992.460;   66.376;  -11.330;  753.760
993.012;   65.717;  -13.610;  749.540
993.565;   64.643;  -13.460;  711.360
994.117;   65.756;   -9.360;  950.780
994.669;   62.703;  -11.300;  701.320
995.221;   61.957;  -13.540;  791.920
995.774;   58.802;  -13.430;  787.580
996.326;   57.766;  -12.520;  740.220
996.878;   56.949;  -10.950;  838.420
997.430;   55.182;  -14.300;  699.860
997.982;   54.388;  -13.760;  750.140
998.534;   53.804;  -11.530;  739.060
999.086;   52.960;  -10.310;  738.220
999.638;   51.279;  -12.530;  661.380
1000.190;   49.852;  -11.840;  699.320
1000.741;   50.377;  -10.260;  742.700
1001.293;   51.239;   -8.860;  686.020
1001.845;   49.578;  -13.700;  676.640
1002.396;   48.532;  -12.100;  743.400
1002.948;   48.260;  -12.760;  737.400
1003.500;   47.235;  -10.380;  723.780
1004.051;   47.390;  -11.900;  907.580
1004.603;   46.009;  -12.250;  791.820
1005.154;   41.707;  -13.210;  608.980
1005.705;   41.297;  -10.950;  723.960
1006.257;   41.268;  -13.880;  707.220
1006.808;   39.638;  -12.840;  685.460
1007.359;   39.218;  -10.570;  763.240
1007.910;   38.842;   -9.620;  646.640
1008.461;   38.763;  -13.630;  732.940
1009.013;   37.704;  -17.200;  588.340
1009.564;   38.946;  -10.200;  793.520
1010.115;   36.144;  -12.570;  597.040
1010.665;   36.401;  -15.150;  602.160
1011.216;   36.614;  -14.480;  667.920
1011.767;   36.527;  -11.340;  697.920
1012.318;   36.202;   -9.780;  736.980
1012.869;   35.277;  -12.380;  679.000
1013.419;   33.952;  -15.560;  603.120
1013.970;   34.462;  -11.010;  666.640
1014.521;   34.475;  -11.610;  620.620
1015.071;   34.595;  -13.450;  670.380
1015.622;   33.471;  -13.870;  635.460
1016.172;   33.696;  -11.610;  596.820
1016.723;   33.303;  -12.120;  614.380
1017.273;   32.630;  -13.620;  604.160
1017.823;   32.875;  -14.140;  650.340
1018.374;   32.435;  -12.800;  611.760
1018.924;   31.813;  -12.340;  716.880
1019.474;   32.647;  -11.410;  718.880
1020.024;   31.232;  -14.770;  657.580
1020.574;   32.083;   -9.780;  726.160
1021.124;   32.534;   -8.560;  673.580
1021.674;   31.328;  -15.190;  559.120
1022.224;   31.801;  -13.530;  708.940
1022.774;   31.073;  -13.280;  668.820
1023.324;   31.344;  -10.690;  753.520
1023.874;   32.885;  -10.240;  875.760
1024.423;   30.015;  -12.540;  613.700
1024.973;   30.045;  -10.010;  610.760
1025.523;   29.403;  -10.550;  620.960
1026.072;   29.466;  -13.560;  606.420
1026.622;   28.606;  -15.120;  675.740
1027.172;   30.115;  -11.260;  715.660
1027.721;   28.239;  -11.410;  601.220
1028.270;   28.711;  -13.530;  663.400
1028.820;   28.520;  -13.680;  638.080
1029.369;   27.945;  -13.520;  612.700
1029.918;   28.641;  -10.980;  649.840
1030.468;   28.228;  -13.530;  564.780
1031.017;   28.249;  -13.170;  634.800
1031.566;   27.038;  -12.200;  608.900
1032.115;   27.653;   -9.960;  694.500
1032.664;   27.062;  -13.210;  596.480
1033.213;   27.871;  -12.500;  735.420
1033.762;   26.878;  -11.910;  635.620
1034.311;   27.024;   -9.640;  677.220
1034.860;   26.917;  -13.310;  691.000
1035.408;   26.642;  -11.830;  722.720
1035.957;   26.534;  -12.000;  719.540
1036.506;   24.798;  -11.690;  530.800
1037.055;   27.469;  -10.990;  844.320
1037.603;   25.406;  -15.120;  664.000
1038.152;   23.843;  -12.450;  534.760
1038.700;   25.113;  -10.560;  585.740
1039.249;   24.640;  -11.080;  681.220
1039.797;   24.991;  -12.540;  633.360
1040.345;   24.931;  -11.920;  705.420
1040.894;   24.469;  -11.410;  625.300
1041.442;   24.388;  -14.320;  632.200
1041.990;   23.166;  -16.240;  559.160
1042.538;   22.766;  -11.680;  536.180
1043.087;   22.984;  -10.760;  570.860
1043.635;   24.663;  -11.850;  670.500
1044.183;   22.641;  -15.480;  586.400
1044.731;   23.163;  -11.770;  576.000
1045.279;   22.139;  -13.090;  674.920
1045.827;   25.183;  -12.440;  892.400
1046.374;   22.368;  -13.840;  515.420
1046.922;   20.788;  -13.220;  590.580
1047.470;   22.870;  -10.230;  691.300
1048.018;   22.468;  -14.590;  647.960
1048.565;   23.749;  -12.050;  708.600
1049.113;   21.343;  -11.650;  557.000
1049.660;   21.488;  -10.510;  629.660
1050.208;   21.767;  -13.310;  675.640
1050.755;   21.086;  -15.900;  606.580
1051.303;   21.552;  -11.430;  686.820
1051.850;   20.930;   -8.480;  635.120
1052.397;   19.310;  -15.010;  473.960
1052.945;   19.845;  -13.960;  617.760
1053.492;   21.541;  -13.150;  741.840
1054.039;   22.283;   -9.630;  720.180
1054.586;   20.425;  -13.680;  557.240
1055.133;   20.576;  -14.570;  693.140
1055.680;   20.143;  -13.820;  646.620
1056.227;   19.477;  -11.730;  542.780
1056.774;   21.117;  -12.480;  794.980
1057.321;   18.856;  -13.930;  523.260
1057.868;   19.372;  -11.690;  651.320
1058.415;   19.601;   -9.520;  651.980
1058.961;   19.623;  -13.160;  678.940
1059.508;   19.463;  -12.920;  643.820
1060.055;   19.388;  -11.920;  581.780
1060.601;   19.197;  -11.500;  624.300
1061.148;   19.191;  -14.330;  616.820
1061.694;   18.052;  -16.870;  592.580
1062.241;   19.124;  -10.330;  596.320
1062.787;   18.517;  -10.620;  663.140
1063.334;   20.574;  -10.110;  808.560
1063.880;   18.577;  -13.400;  668.360
1064.426;   18.004;  -10.680;  706.820
1064.972;   17.189;   -9.920;  601.340
1065.518;   16.909;  -10.980;  566.640
1066.065;   17.967;  -14.890;  624.460
1066.611;   17.320;  -12.870;  598.800
1067.157;   18.263;  -12.950;  641.860
1067.703;   18.102;  -13.540;  668.480
1068.249;   17.680;  -13.540;  605.220
1068.794;   17.181;  -12.600;  626.880
1069.340;   16.441;  -10.620;  578.960
1069.886;   17.237;  -12.830;  590.700
1070.432;   15.402;  -14.870;  541.720
1070.977;   15.699;  -11.980;  601.080
1071.523;   16.263;   -8.200;  573.060
1072.068;   16.479;  -12.330;  582.000
1072.614;   16.196;  -16.370;  527.760
1073.160;   16.474;  -11.100;  687.040
1073.705;   15.160;  -10.480;  572.520
1074.250;   15.401;  -14.520;  559.900
1074.796;   16.118;  -11.460;  655.160
1075.341;   16.614;  -11.950;  664.100
1075.886;   15.197;  -11.460;  594.240
1076.431;   14.821;  -13.770;  649.880
1076.976;   14.249;  -12.680;  639.220
1077.521;   14.396;  -13.170;  583.080
1078.067;   15.007;  -10.860;  579.400
1078.612;   14.599;  -13.920;  661.620
1079.156;   15.156;  -13.880;  601.540
1079.701;   14.629;  -13.120;  693.260
1080.246;   15.328;   -9.940;  696.300
1080.791;   14.484;  -14.740;  625.020
1081.336;   14.295;  -13.750;  659.320
1081.880;   14.143;  -13.400;  649.680
1082.425;   12.965;  -12.220;  573.480
1082.970;   15.134;  -11.610;  717.040
1083.514;   13.026;  -13.580;  597.000
1084.059;   12.875;  -12.810;  586.720
1084.603;   12.959;  -12.320;  565.840
1085.147;   12.993;  -13.190;  645.220
1085.692;   13.763;  -12.480;  716.800
1086.236;   12.383;  -13.020;  503.140
1086.780;   14.106;   -9.190;  751.440
1087.325;   13.298;  -12.480;  654.620
1087.869;   13.128;  -12.450;  610.700
1088.413;   13.669;  -12.240;  705.040
1088.957;   11.357;   -9.020;  543.400
1089.501;   13.407;  -10.320;  766.640
1090.045;   13.212;  -12.720;  726.480
1090.589;   10.632;  -13.690;  569.920
1091.133;   12.700;  -10.020;  673.340
1091.676;   12.696;  -12.330;  591.940
1092.220;   11.975;  -14.970;  600.920
1092.764;   12.380;  -12.430;  706.960
1093.307;   12.576;   -9.800;  673.780
1093.851;   10.469;  -14.970;  556.540
1094.395;   11.909;  -15.310;  683.140
1094.938;   10.657;  -10.370;  632.520
1095.482;   11.099;  -11.050;  559.800
1096.025;   12.104;  -11.840;  710.880
1096.568;   12.049;  -12.840;  779.280
1097.112;    9.797;  -14.700;  508.180
1097.655;   10.770;   -8.720;  603.000
1098.198;   10.084;  -13.610;  600.180
1098.741;    9.603;  -13.350;  612.860
1099.285;   11.181;  -11.230;  657.300
1099.828;    8.883;  -11.840;  439.400
1100.371;   10.403;  -10.840;  608.160
1100.914;    9.839;  -14.190;  682.660
1101.457;    9.985;  -11.240;  679.900
1101.999;    8.797;  -11.270;  584.680
1102.542;   10.575;  -11.480;  641.440
1103.085;    9.603;  -11.750;  658.500
1103.628;   10.048;  -11.400;  762.060
1104.170;    8.975;  -10.490;  588.280
1104.713;    9.704;  -10.600;  646.700
1105.256;    9.282;  -14.360;  557.440
1105.798;    7.664;  -13.210;  499.980
1106.341;    9.553;  -10.270;  728.900
1106.883;    9.291;  -12.200;  521.340
1107.425;    8.228;  -13.110;  668.180
1107.968;    8.345;  -12.840;  612.380
1108.510;    9.462;   -6.480;  684.960
1109.052;    7.368;  -13.940;  612.620
1109.594;    8.128;  -13.690;  554.440
1110.136;    8.461;  -11.880;  643.220
1110.679;    7.748;   -9.500;  633.080
1111.221;    8.957;  -14.160;  604.460
1111.763;    8.195;  -13.980;  559.220
1112.304;    7.038;  -13.880;  547.140
1112.846;    8.830;  -12.210;  666.240
1113.388;   11.012;  -11.390;  942.180
1113.930;    7.920;  -14.540;  694.200
1114.472;    7.544;  -12.640;  606.540
1115.013;    5.966;  -11.620;  551.280
1115.555;    6.291;  -13.640;  587.100
1116.097;    6.068;  -15.380;  579.480
1116.638;    6.741;  -12.640;  684.600
1117.180;    7.600;   -9.850;  667.740
1117.721;    7.443;  -13.690;  568.580
1118.262;    7.027;  -12.680;  677.960
1118.804;    7.605;  -12.530;  637.340
1119.345;    5.578;  -11.690;  578.400
1119.886;    7.524;  -13.380;  704.040
1120.427;    5.077;  -14.070;  589.020
1120.969;    5.082;  -13.500;  597.920
1121.510;    5.307;  -11.480;  563.060
1122.051;    6.257;  -12.830;  723.580
1122.592;    5.656;  -14.290;  655.420
1123.133;    4.631;  -12.400;  547.940
1123.673;    6.378;  -10.130;  706.480
1124.214;    5.854;  -12.930;  612.460
1124.755;    5.757;  -14.380;  639.460
1125.296;    5.583;  -14.000;  627.320
1125.836;    5.924;  -10.070;  691.500
1126.377;    4.604;  -12.640;  599.660
1126.918;    5.536;  -12.960;  614.980
1127.458;    4.839;  -13.350;  622.220
1127.999;    4.832;  -10.750;  656.980
1128.539;    5.605;  -12.350;  694.240
1129.079;    4.817;  -14.860;  632.720
1129.620;    4.283;  -13.840;  558.100
1130.160;    3.686;  -12.330;  539.480
1130.700;    5.405;  -14.530;  640.840
1131.240;    5.245;  -12.530;  643.700
1131.781;    4.223;  -14.450;  619.680
1132.321;    4.256;   -9.790;  599.120
1132.861;    3.108;  -14.860;  564.200
1133.401;    3.387;  -14.290;  593.940
1133.941;    3.688;  -11.750;  626.280
1134.481;    3.234;   -9.920;  597.580
1135.020;    3.770;  -12.290;  609.160
1135.560;    3.767;  -11.650;  674.940
1136.100;    3.362;  -16.270;  501.160
1136.640;    3.178;  -10.890;  510.480
1137.179;    3.005;  -14.180;  537.960
1137.719;    3.122;  -16.250;  605.400
1138.258;    3.653;  -14.230;  587.360
1138.798;    3.681;   -9.090;  663.780
1139.337;    1.773;  -15.130;  482.840
1139.877;    3.272;  -13.680;  642.360
1140.416;    4.711;  -11.320;  878.060
1140.955;    2.146;  -10.860;  535.380
1141.494;    2.769;  -12.920;  669.280
1142.034;    2.299;  -13.930;  583.520
1142.573;    3.340;  -11.440;  646.280
1143.112;    2.298;  -12.000;  553.480
1143.651;    3.067;  -13.670;  536.480
1144.190;    3.317;  -12.730;  691.640
1144.729;    2.071;  -14.560;  607.420
1145.267;    2.216;  -11.830;  584.900
1145.806;    2.446;  -12.230;  637.040
1146.345;    1.690;  -14.130;  635.020
1146.884;    1.363;  -11.590;  622.500
1147.422;    1.313;  -12.550;  533.060
1147.961;    3.408;  -11.180;  708.460
1148.500;    2.704;  -11.510;  669.720
1149.038;    2.492;  -11.640;  632.500
1149.577;    2.528;  -10.130;  698.640
1150.115;    0.307;  -13.970;  452.280
1150.653;    1.278;  -14.520;  607.340
1151.192;    1.483;  -12.810;  552.920
1151.730;    1.997;   -9.100;  652.560
1152.268;    0.546;  -12.220;  589.520
1152.806;    1.081;  -14.140;  571.180
1153.344;    0.105;  -12.350;  577.640
1153.882;    0.956;   -8.980;  600.060
1154.421;   -0.396;  -15.190;  470.620
1154.958;    0.345;  -15.210;  595.240
1155.496;    1.572;  -12.850;  645.280
1156.034;    0.811;   -9.940;  721.880
1156.572;    2.127;  -13.570;  667.060
1157.110;   -0.537;  -14.590;  473.940
1157.647;    1.247;  -13.030;  676.960
1158.185;   -0.033;  -12.140;  564.320
1158.723;   -1.051;  -14.390;  509.200
1159.260;    0.555;  -14.090;  701.700
1159.798;    0.924;  -11.920;  658.160
1160.335;    0.427;  -11.110;  631.820

