gmr_right
Integration time [ms]:   3.882
Averaging Nr. [scans]: 1000
Smoothing Nr. [pixels]: 0
Data measured with spectrometer [name]: 7414430SP
Wave   ;Sample   ;Dark     ;Reference
[nm]   ;[counts] ;[counts] ;[counts] 

288.544;  125.291;   10.292;  793.890
289.143;  129.110;    4.564;  681.602
289.742;  130.742;    6.144;  828.814
290.341;  118.261;    4.396;  789.841
290.940;  108.411;    0.938;  730.702
291.538;  109.854;   -0.684;  881.108
292.137;  109.113;   -2.845;  792.581
292.736;  112.825;   -0.144;  975.101
293.335;  110.497;   -6.352;  735.086
293.934;  111.857;   -7.642;  781.677
294.532;  111.555;   -4.992; 1031.958
295.131;   96.516;   -5.478;  834.394
295.730;   96.262;   -6.549;  809.588
296.328;   94.600;   -9.558;  783.442
296.927;   95.200;   -8.118;  779.652
297.525;   96.062;   -6.908;  781.236
298.124;   86.462;   -9.195;  654.009
298.722;   91.565;   -8.198;  761.933
299.321;   89.479;   -8.817;  708.597
299.919;   86.171;   -7.716;  751.918
300.518;   82.954;  -10.745;  689.338
301.116;   85.283;   -9.647;  691.381
301.715;   85.334;  -10.828;  730.222
302.313;   84.571;   -6.087;  704.943
302.911;   78.730;   -6.824;  733.830
303.509;   85.961;   -8.807;  925.627
304.108;   82.085;   -8.198;  760.383
304.706;   81.458;   -6.218;  801.664
305.304;   76.932;   -7.185;  796.707
305.902;   83.645;   -8.568;  784.484
306.500;   79.199;   -7.737;  728.200
307.098;   76.362;   -6.026;  746.560
307.696;   75.499;   -7.176;  780.432
308.294;   76.784;   -8.656;  731.359
308.892;   77.518;   -6.838;  759.769
309.490;   72.839;   -2.596;  712.161
310.088;   71.351;   -4.485;  788.444
310.686;   76.588;   -3.907;  821.749
311.284;   72.656;   -2.806;  766.040
311.882;   68.948;   -2.845;  731.225
312.480;   67.195;   -3.274;  697.167
313.078;   69.141;   -3.645;  808.331
313.675;   70.983;   -4.997;  691.600
314.273;   65.022;   -0.894;  797.837
314.871;   64.277;   -2.854;  589.829
315.468;   62.773;   -3.644;  652.090
316.066;   65.733;   -3.947;  694.427
316.664;   58.219;   -1.824;  656.351
317.261;   63.076;    1.565;  910.128
317.859;   59.321;   -3.955;  768.735
318.456;   60.339;   -2.886;  830.096
319.054;   55.717;   -0.995;  787.828
319.651;   54.465;   -1.765;  759.928
320.249;   55.157;   -3.685;  810.188
320.846;   53.446;   -3.736;  714.286
321.443;   50.257;   -2.065;  832.135
322.041;   47.651;   -5.635;  812.315
322.638;   46.282;   -5.985;  701.456
323.235;   48.491;   -6.677;  665.683
323.833;   45.505;   -3.497;  740.354
324.430;   41.336;   -6.756;  615.900
325.027;   43.559;   -7.647;  876.855
325.624;   43.605;   -7.598;  644.532
326.221;   39.990;   -5.848;  689.717
326.818;   39.508;   -5.777;  818.332
327.415;   42.505;   -8.769;  748.828
328.012;   42.321;   -6.299;  690.585
328.609;   40.355;   -6.639;  731.389
329.206;   37.614;   -6.358;  778.621
329.803;   38.365;   -8.698;  737.841
330.400;   39.510;   -8.379;  704.260
330.997;   40.456;   -6.178;  817.147
331.594;   37.819;   -5.646;  788.185
332.191;   43.357;   -6.928;  728.722
332.787;   45.187;   -6.057;  844.463
333.384;   41.609;   -6.445;  763.093
333.981;   39.247;   -8.002;  815.687
334.578;   41.850;   -8.443;  708.378
335.174;   43.989;   -6.053;  731.469
335.771;   43.904;   -5.791;  836.456
336.367;   40.091;   -6.570;  710.631
336.964;   43.530;   -6.741;  793.266
337.561;   44.635;   -5.710;  731.112
338.157;   39.707;   -3.928;  911.916
338.754;   35.248;   -5.577;  796.589
339.350;   36.107;   -9.667;  722.493
339.946;   39.534;   -5.269;  773.135
340.543;   30.246;   -4.485;  846.136
341.139;   25.108;   -7.584;  720.836
341.735;   23.317;   -8.553;  772.593
342.332;   22.814;   -4.984;  691.472
342.928;   23.215;   -3.475;  795.394
343.524;   17.823;   -6.653;  761.684
344.120;   14.237;   -7.173;  738.562
344.716;   18.419;   -4.385;  723.717
345.313;   15.736;   -3.565;  795.342
345.909;   10.808;   -7.495;  627.336
346.505;   13.454;   -8.276;  740.247
347.101;   13.911;   -5.697;  827.864
347.697;   14.416;   -4.767;  785.398
348.293;    8.574;   -7.226;  627.244
348.889;   10.422;   -7.547;  745.914
349.485;    9.571;   -9.147;  688.205
350.081;   10.304;   -6.568;  772.592
350.676;    5.913;   -6.516;  691.606
351.272;   10.749;   -7.378;  809.530
351.868;   10.847;   -6.759;  780.497
352.464;    6.859;   -4.798;  723.932
353.059;    3.622;   -7.977;  646.017
353.655;    8.362;   -8.769;  777.063
354.251;    8.656;   -5.920;  759.845
354.846;    2.760;   -7.647;  740.646
355.442;    1.099;   -6.956;  753.071
356.038;    3.954;   -9.928;  751.708
356.633;    3.278;   -7.698;  728.594
357.229;    1.215;   -6.307;  724.757
357.824;   -0.428;   -7.647;  703.600
358.420;   -1.033;  -10.047;  679.726
359.015;    0.099;   -7.458;  695.357
359.610;    0.483;   -5.748;  763.920
360.206;   -5.695;   -9.346;  603.240
360.801;   -2.553;  -11.268;  646.503
361.396;   -0.578;   -8.789;  725.975
361.992;   -4.861;   -6.347;  668.220
362.587;   -7.174;   -6.476;  670.160
363.182;   -4.805;   -9.457;  689.631
363.777;   -3.235;   -7.147;  738.242
364.372;   -3.968;   -5.507;  737.314
364.967;   -7.832;   -6.386;  680.744
365.563;   -3.164;   -7.858;  815.567
366.158;   -5.473;   -8.517;  685.161
366.753;   -6.692;   -8.728;  649.263
367.348;   -7.273;   -7.677;  746.056
367.942;   -6.898;  -10.387;  697.298
368.537;   -7.846;   -7.187;  754.245
369.132;   -8.865;   -8.587;  703.428
369.727;  -12.650;   -8.606;  638.079
370.322;  -10.325;  -10.426;  580.186
370.917;  -10.054;   -5.776;  710.646
371.511;   -7.632;   -6.007;  861.834
372.106;  -11.611;   -6.686;  776.964
372.701;  -14.442;   -9.335;  585.988
373.296;   -8.506;   -6.777;  863.135
373.890;  -13.910;   -7.546;  647.840
374.485;  -16.199;   -8.755;  691.199
375.079;  -10.977;   -9.797;  738.685
375.674;   -9.729;   -6.327;  812.970
376.268;  -14.234;   -9.046;  691.759
376.863;  -19.846;   -7.993;  580.327
377.457;  -12.574;   -9.206;  662.490
378.052;  -14.802;   -5.345;  764.884
378.646;  -15.881;   -5.605;  741.167
379.240;  -16.431;   -6.825;  721.176
379.835;  -15.271;  -10.476;  636.978
380.429;  -17.208;   -8.676;  562.557
381.023;  -17.409;   -4.945;  779.205
381.617;  -19.267;   -8.094;  680.106
382.212;  -16.328;  -10.646;  685.303
382.806;  -14.817;   -8.136;  760.690
383.400;  -19.860;   -7.855;  672.281
383.994;  -20.151;   -8.125;  664.870
384.588;  -15.776;   -7.637;  697.701
385.182;  -15.277;   -7.458;  726.624
385.776;  -16.505;   -6.277;  706.875
386.370;  -20.215;   -7.485;  681.968
386.964;  -16.916;   -9.416;  684.155
387.558;  -15.994;   -8.518;  598.360
388.152;  -20.143;   -7.096;  681.959
388.745;  -17.329;   -7.656;  814.707
389.339;  -15.633;   -8.927;  747.642
389.933;  -14.580;   -9.538;  695.370
390.527;  -16.584;   -5.857;  859.029
391.120;  -21.879;   -9.455;  595.318
391.714;  -19.535;   -9.746;  711.633
392.308;  -16.029;   -7.857;  780.253
392.901;  -19.836;   -9.106;  642.460
393.495;  -21.568;  -10.365;  595.414
394.089;  -19.095;   -9.696;  760.452
394.682;  -19.080;   -7.016;  697.188
395.275;  -21.337;   -8.466;  719.927
395.869;  -22.145;   -8.985;  667.314
396.462;  -19.556;  -11.496;  616.609
397.056;  -15.993;   -7.838;  776.621
397.649;  -21.543;   -6.895;  731.575
398.242;  -17.708;   -5.017;  712.645
398.836;  -16.993;   -8.787;  766.408
399.429;  -18.488;   -8.967;  631.041
400.022;  -22.018;   -8.815;  665.902
400.615;  -19.274;   -6.276;  805.609
401.208;  -16.728;   -8.407;  691.451
401.802;  -19.661;   -7.296;  699.329
402.395;  -21.002;   -7.585;  683.502
402.988;  -21.585;   -8.015;  696.627
403.581;  -17.225;   -9.577;  646.878
404.174;  -14.837;   -7.588;  686.568
404.767;  -19.104;   -7.906;  638.583
405.360;  -21.609;   -7.875;  621.445
405.953;  -14.704;   -8.127;  759.034
406.545;  -14.293;   -7.198;  725.342
407.138;  -19.497;   -8.916;  618.350
407.731;  -18.091;   -9.767;  613.303
408.324;  -13.272;  -10.659;  660.554
408.917;  -14.658;   -8.068;  681.864
409.509;  -16.868;   -9.837;  740.396
410.102;  -18.143;   -8.146;  643.948
410.695;  -11.658;   -7.969;  665.758
411.287;  -12.913;   -8.579;  599.821
411.880;  -14.729;   -6.968;  585.421
412.472;  -18.088;   -9.487;  613.092
413.065;  -13.451;  -10.338;  629.408
413.657;  -11.640;   -9.169;  576.678
414.250;  -11.727;  -10.119;  646.681
414.842;  -14.370;   -9.938;  676.353
415.434;  -11.552;  -10.409;  570.463
416.027;   -6.894;   -9.591;  652.196
416.619;   -9.774;   -7.379;  713.400
417.211;  -10.093;   -9.159;  599.352
417.804;   -5.283;   -9.191;  628.499
418.396;  -10.536;   -8.159;  607.643
418.988;   -8.378;   -6.960;  659.238
419.580;  -11.345;  -11.389;  568.276
420.172;   -8.387;  -13.460;  536.196
420.764;   -4.945;  -10.701;  672.482
421.356;   -6.080;   -8.961;  636.898
421.948;   -7.509;   -9.770;  677.661
422.540;   -1.538;   -8.832;  680.027
423.132;   -2.084;   -8.153;  600.641
423.724;   -6.174;   -8.481;  561.267
424.316;   -4.150;   -9.261;  621.345
424.908;    0.433;   -9.643;  591.517
425.500;    0.850;   -8.663;  647.978
426.092;    1.357;   -8.503;  648.268
426.683;    0.084;  -10.522;  684.836
427.275;    3.856;  -11.734;  641.471
427.867;    5.944;  -10.264;  668.948
428.458;    5.384;   -7.644;  732.344
429.050;    3.646;   -7.853;  680.749
429.642;    6.552;   -8.904;  743.124
430.233;    6.136;  -10.795;  569.356
430.825;    8.711;   -7.665;  724.809
431.416;    5.725;   -8.843;  698.241
432.008;    8.829;   -9.885;  651.723
432.599;   10.303;   -9.966;  656.073
433.190;    6.170;   -9.164;  637.670
433.782;    5.403;   -8.584;  590.395
434.373;   14.381;   -8.296;  884.765
434.964;   12.226;   -9.896;  602.920
435.556;    9.074;   -8.255;  634.537
436.147;   12.870;   -8.075;  758.490
436.738;   12.478;   -9.716;  701.099
437.329;   18.001;   -7.318;  721.723
437.920;   11.165;   -6.694;  666.688
438.511;   10.786;   -9.644;  564.526
439.103;   18.512;   -9.427;  623.998
439.694;   19.303;  -10.748;  681.583
440.285;   20.021;   -7.997;  764.432
440.876;   18.581;  -10.046;  845.738
441.466;   18.109;  -13.467;  575.162
442.057;   24.250;   -9.329;  665.814
442.648;   22.011;   -7.707;  746.255
443.239;   20.005;   -9.017;  620.477
443.830;   25.538;  -10.279;  704.958
444.421;   26.845;  -12.630;  655.474
445.011;   23.351;   -8.697;  693.619
445.602;   23.400;   -7.787;  743.126
446.193;   25.501;  -13.329;  488.117
446.783;   30.858;   -9.171;  640.397
447.374;   24.958;   -7.457;  692.759
447.964;   25.963;   -9.277;  713.770
448.555;   34.717;   -9.041;  822.742
449.145;   30.795;   -8.969;  662.853
449.736;   31.340;   -6.809;  803.179
450.326;   31.737;   -7.229;  713.626
450.917;   37.409;  -11.391;  675.324
451.507;   36.374;   -9.501;  600.661
452.097;   35.954;   -8.460;  746.267
452.688;   37.248;  -10.080;  742.160
453.278;   37.709;  -12.861;  566.840
453.868;   43.166;   -8.372;  793.550
454.458;   38.963;   -8.131;  651.141
455.048;   39.879;   -8.520;  711.783
455.639;   41.845;  -13.632;  567.096
456.229;   45.331;  -10.143;  710.694
456.819;   47.269;   -9.163;  751.158
457.409;   47.911;   -8.652;  773.993
457.999;   51.004;   -9.933;  737.505
458.589;   50.292;  -10.363;  686.606
459.179;   50.579;  -10.633;  717.658
459.769;   48.072;  -12.442;  627.099
460.358;   53.247;   -9.844;  797.262
460.948;   52.939;   -9.924;  689.503
461.538;   54.715;  -10.484;  660.677
462.128;   52.480;  -10.703;  664.934
462.717;   59.782;  -11.486;  710.326
463.307;   62.434;  -10.767;  705.846
463.897;   57.180;   -8.814;  656.942
464.486;   57.304;   -8.182;  837.128
465.076;   62.448;   -9.985;  733.776
465.666;   66.190;  -10.447;  652.900
466.255;   63.741;   -7.754;  785.651
466.845;   61.976;  -10.884;  666.749
467.434;   65.490;  -12.525;  725.873
468.023;   66.373;  -11.456;  658.357
468.613;   63.385;   -9.173;  713.946
469.202;   67.793;   -9.306;  646.507
469.791;   73.401;   -8.917;  737.811
470.381;   74.468;   -9.657;  742.813
470.970;   73.498;   -9.947;  711.099
471.559;   74.101;   -9.256;  733.291
472.148;   76.994;  -13.397;  675.737
472.738;   79.759;   -9.928;  765.466
473.327;   78.028;  -10.897;  637.529
473.916;   77.612;   -8.526;  737.446
474.505;   83.581;  -11.078;  751.703
475.094;   87.045;   -9.559;  806.570
475.683;   85.198;   -8.838;  797.699
476.272;   85.677;  -10.198;  730.632
476.861;   88.952;  -11.489;  706.754
477.449;   95.966;  -10.721;  728.487
478.038;   89.635;   -9.818;  692.513
478.627;   89.964;   -9.887;  714.852
479.216;   98.343;  -10.030;  769.441
479.805;  100.784;   -9.401;  783.375
480.393;   99.705;   -5.739; 1008.945
480.982;   98.840;   -7.838;  874.501
481.571;  105.527;   -9.111;  858.333
482.159;  106.221;  -10.601;  705.386
482.748;  104.660;   -8.500;  821.385
483.336;  110.113;   -9.241;  858.209
483.925;  110.670;  -10.440;  774.373
484.513;  118.527;  -11.063;  758.962
485.102;  113.480;   -9.540;  810.965
485.690;  122.986;   -6.742; 1011.050
486.278;  124.855;   -8.442;  979.329
486.867;  125.796;  -10.472;  809.662
487.455;  127.136;   -8.811;  898.229
488.043;  128.015;  -10.721;  748.361
488.631;  137.951;  -10.393; 1005.079
489.220;  141.133;  -10.843;  908.626
489.808;  139.279;  -10.572;  741.415
490.396;  148.337;  -10.482;  914.645
490.984;  155.265;  -11.542;  830.161
491.572;  164.477;   -8.463;  940.315
492.160;  167.448;   -8.491;  919.081
492.748;  176.569;   -9.681;  884.341
493.336;  195.573;  -10.493; 1019.693
493.924;  219.916;   -9.354;  958.077
494.512;  246.632;   -9.132; 1066.638
495.100;  279.370;   -9.001; 1103.280
495.687;  327.678;  -11.924; 1206.373
496.275;  389.482;  -11.193; 1150.796
496.863;  478.789;   -9.241; 1281.171
497.451;  582.400;  -11.341; 1386.805
498.038;  672.825;  -11.364; 1556.729
498.626;  774.456;   -8.104; 1741.407
499.214;  937.812;   -8.842; 2016.609
499.801; 1110.326;  -10.112; 2220.633
500.389; 1295.618;  -11.953; 2312.494
500.976; 1525.005;  -10.023; 2744.849
501.564; 1805.212;   -8.662; 3148.565
502.151; 2149.676;  -10.531; 3515.999
502.738; 2499.258;  -13.853; 3971.274
503.326; 3001.791;  -10.794; 4403.796
503.913; 3529.663;   -8.663; 5161.749
504.500; 3854.913;  -10.172; 5986.420
505.088; 4174.349;  -13.472; 6381.201
505.675; 4826.595;  -10.924; 6925.547
506.262; 5562.463;   -8.551; 7619.060
506.849; 6340.524;  -10.523; 8733.969
507.436; 6970.861;  -10.834; 9790.121
508.023; 7186.328;   -9.093; 9985.472
508.610; 7547.314;  -10.073;10434.618
509.197; 8063.907;   -9.500;11198.435
509.784; 9296.671;  -13.242;12391.194
510.371;10055.551;  -10.964;13603.713
510.958; 9919.003;   -9.772;14426.586
511.545;10956.042;   -7.842;15243.775
512.132;11286.808;  -12.184;15945.876
512.719;11409.217;   -9.733;16340.369
513.305;13116.761;   -9.172;18011.766
513.892;14664.194;   -9.581;19754.971
514.479;16416.326;  -10.253;20967.805
515.066;18512.223;   -8.183;22299.793
515.652;19821.596;   -9.253;22908.660
516.239;20838.346;   -9.412;23798.875
516.825;23297.045;  -11.153;25567.275
517.412;23409.436;  -10.263;28154.959
517.998;23578.295;   -8.802;28344.111
518.585;23129.996;  -10.401;27134.219
519.171;22925.973;  -12.744;27268.576
519.758;24699.563;  -11.793;28964.129
520.344;26876.533;   -8.912;30664.494
520.930;26707.926;  -10.901;32550.605
521.516;27365.398;  -12.034;35422.895
522.103;28463.961;  -10.473;38280.004
522.689;29819.979;   -8.311;37835.117
523.275;33373.688;  -10.691;37288.613
523.861;34936.664;  -11.193;37281.395
524.447;35692.750;  -11.484;37846.949
525.033;35823.078;   -7.702;38321.949
525.619;35783.309;  -11.241;38579.285
526.205;37068.004;  -12.152;40622.875
526.791;36822.496;  -11.423;42258.836
527.377;34155.613;   -7.981;42966.902
527.963;34594.070;   -9.450;42018.949
528.549;38264.789;  -11.351;42476.828
529.135;40133.730;  -10.202;41854.852
529.721;39244.480;   -8.672;41237.711
530.306;37507.543;   -9.111;41259.445
530.892;38884.445;  -11.252;41506.047
531.478;41103.594;  -10.432;43559.613
532.063;43867.922;  -10.721;47695.563
532.649;45904.734;   -7.450;50808.324
533.235;46497.609;  -11.811;51787.500
533.820;46583.586;   -9.383;52145.035
534.406;45971.934;   -9.400;51133.488
534.991;45091.777;   -8.861;49996.805
535.576;43578.051;  -10.612;48882.852
536.162;42042.793;   -7.322;46942.285
536.747;43263.219;   -9.360;45711.746
537.333;45540.035;  -10.450;48510.180
537.918;47140.832;  -12.610;50439.891
538.503;48257.195;  -12.132;50863.711
539.088;45692.648;  -10.831;50906.922
539.673;43023.488;  -11.220;52621.965
540.259;44691.793;  -11.481;52368.094
540.844;47661.688;  -11.462;50879.109
541.429;49232.797;   -7.869;52077.777
542.014;50106.879;  -11.859;52716.695
542.599;49735.391;  -11.061;52363.281
543.184;49155.289;  -12.300;53187.137
543.769;48620.965;   -9.369;54697.605
544.354;48530.324;  -12.020;53913.914
544.938;45614.227;  -10.350;49680.164
545.523;43289.699;  -10.841;47386.277
546.108;44846.027;   -8.579;49151.949
546.693;47247.371;   -8.818;51384.637
547.278;48360.359;  -11.331;51853.254
547.862;44974.820;  -10.292;51173.750
548.447;40920.551;   -8.349;51691.395
549.031;42033.328;  -10.838;52456.703
549.616;47609.898;  -11.681;52714.516
550.201;50893.141;  -11.140;52414.598
550.785;48821.973;   -8.649;52355.059
551.370;48473.055;  -11.889;54589.453
551.954;48631.953;  -11.239;58267.348
552.538;48340.586;   -8.850;59062.176
553.123;49518.738;  -10.829;58115.285
553.707;49705.750;   -8.887;56556.285
554.291;48673.648;  -10.430;56201.668
554.876;46758.500;   -9.799;55335.762
555.460;47683.078;  -10.018;54155.703
556.044;48912.168;   -7.307;53721.484
556.628;46036.789;  -12.229;53731.016
557.212;43032.953;   -9.820;54312.531
557.796;42450.574;   -9.109;53797.773
558.380;44508.559;   -9.707;56145.984
558.964;43466.496;  -10.980;57277.930
559.548;43391.969;  -12.010;56459.641
560.132;46812.887;   -7.928;54434.543
560.716;48591.598;  -10.247;54800.617
561.300;48488.602;  -11.250;57606.945
561.884;50327.828;  -10.568;58972.445
562.467;48714.852;   -9.727;57327.570
563.051;47215.410;  -11.847;54962.434
563.635;45995.727;  -10.747;52594.473
564.219;42772.980;  -13.108;50610.410
564.802;39744.906;  -11.417;49551.180
565.386;40804.051;  -10.457;48370.953
565.969;42531.563;   -8.959;48178.871
566.553;41828.992;  -10.328;49957.305
567.136;40433.840;  -10.257;50369.594
567.720;40375.082;  -10.186;49492.004
568.303;40779.773;  -10.027;50616.352
568.887;41742.441;  -10.397;50727.148
569.470;40043.371;   -8.185;51698.379
570.053;38948.082;  -11.596;52122.078
570.637;38714.961;  -11.378;52536.438
571.220;38560.781;   -9.138;51186.098
571.803;37821.832;   -7.675;51032.762
572.386;36394.313;   -8.976;49609.887
572.969;33982.984;  -12.477;48285.926
573.552;34851.719;   -9.767;47624.285
574.135;35360.918;   -8.175;45498.641
574.718;32073.193;  -11.096;41970.434
575.301;30254.920;  -11.966;41447.137
575.884;28436.645;  -12.836;40923.836
576.467;32373.324;   -9.116;45267.723
577.050;33261.703;  -10.536;48175.543
577.633;34258.664;  -11.027;47729.328
578.216;35227.578;   -9.946;47579.793
578.799;35194.914;   -9.645;47820.996
579.381;36224.035;   -9.446;48115.551
579.964;37808.816;  -12.217;47333.766
580.547;38593.285;  -10.586;46668.969
581.129;38640.234;   -8.374;44466.141
581.712;36400.441;  -10.434;44164.922
582.294;34281.977;  -10.896;46477.855
582.877;34173.383;   -8.906;48244.254
583.459;34747.297;   -9.994;47437.895
584.042;35146.777;  -10.084;46943.219
584.624;34948.047;  -13.534;46792.227
585.206;32277.941;  -12.716;46557.250
585.789;30900.258;  -11.614;45793.773
586.371;27331.676;  -10.203;43836.391
586.953;23865.359;  -10.314;42972.492
587.536;25720.227;   -9.776;42487.211
588.118;30170.096;   -9.821;42086.414
588.700;33475.305;  -10.073;43389.930
589.282;32866.578;  -12.395;43646.039
589.864;32388.697;  -11.514;43438.109
590.446;32562.238;  -10.803;43151.926
591.028;31923.650;  -11.043;42781.867
591.610;32012.680;  -13.244;42839.098
592.192;31696.848;  -11.095;42820.402
592.774;30285.039;  -10.823;40724.277
593.356;29397.850;  -11.052;39874.789
593.937;30803.098;  -11.664;39980.648
594.519;34520.379;  -10.454;42069.633
595.101;37225.738;  -10.322;42976.031
595.683;36332.371;  -10.042;44084.441
596.264;32619.076;  -14.334;43478.797
596.846;33824.398;  -10.863;43803.672
597.427;32914.773;   -9.901;42986.934
598.009;31466.764;  -10.911;42832.219
598.591;31882.580;  -10.483;42580.086
599.172;33544.055;   -9.663;43061.805
599.753;34661.844;  -10.631;41691.469
600.335;35123.398;   -9.371;40692.520
600.916;33022.441;  -13.992;39982.422
601.498;32305.080;   -8.352;40318.617
602.079;32899.297;   -8.411;40670.609
602.660;32654.873;  -10.841;41450.898
603.241;32233.223;  -12.963;41137.738
603.823;32634.125;  -11.523;38868.797
604.404;32408.416;  -11.881;38182.785
604.985;33395.469;  -11.721;38078.047
605.566;33422.586;   -9.293;38056.633
606.147;31843.385;  -10.940;37020.418
606.728;33412.262;  -11.840;37883.359
607.309;34570.074;  -11.781;38748.273
607.890;34865.969;  -11.262;38850.230
608.471;32873.914;  -10.111;37457.918
609.051;32381.521;   -7.709;36066.457
609.632;29813.742;  -12.409;35991.074
610.213;30132.340;  -10.811;37402.641
610.794;31722.957;  -11.630;38383.363
611.374;35243.801;   -8.030;40562.387
611.955;35454.313;  -10.809;38533.727
612.536;33963.656;  -10.531;36951.789
613.116;33890.625;  -12.820;37197.891
613.697;34846.977;  -11.419;38411.125
614.277;36078.723;   -9.768;38673.938
614.858;33105.699;  -10.251;37075.863
615.438;29608.855;  -11.981;35092.906
616.019;27336.725;   -8.978;33666.301
616.599;29656.570;  -12.219;34189.023
617.179;31789.322;  -14.170;36952.047
617.760;32599.707;   -9.211;39582.574
618.340;32806.566;   -9.018;38943.977
618.920;33114.984;   -9.249;37594.156
619.500;33116.750;  -12.728;37866.938
620.080;33488.855;  -12.939;37869.043
620.660;34435.527;  -11.586;36868.617
621.241;33979.879;  -11.538;36352.309
621.821;32645.422;  -11.398;35459.520
622.401;31313.949;  -10.179;35207.414
622.980;31399.639;  -11.587;35980.422
623.560;32873.684;  -12.888;37351.328
624.140;31139.361;  -13.149;34388.582
624.720;26962.492;   -9.928;32368.764
625.300;26491.410;  -10.869;32638.629
625.880;29337.588;   -8.617;34599.035
626.459;30453.977;  -12.138;36831.738
627.039;32836.176;  -12.267;38299.098
627.619;36041.344;   -7.476;38289.574
628.198;37644.504;  -11.347;37220.695
628.778;35192.262;  -11.678;37632.563
629.357;32565.236;  -12.438;38003.012
629.937;31709.283;   -9.576;38402.039
630.516;31506.816;  -11.096;37868.801
631.096;32566.105;  -11.828;35760.410
631.675;33883.668;  -11.565;35225.219
632.254;34369.871;  -11.845;35130.289
632.834;35791.195;  -11.545;35794.570
633.413;35349.465;  -10.887;35788.922
633.992;34847.031;  -10.175;34532.863
634.571;35458.574;   -9.704;33590.113
635.151;34008.738;  -10.815;34943.863
635.730;32634.635;  -11.617;35352.523
636.309;32339.963;  -10.836;35366.605
636.888;32920.207;   -9.755;36165.637
637.467;33061.672;  -11.684;37515.902
638.046;33399.605;  -11.987;39288.695
638.625;32916.004;  -10.455;38279.699
639.204;32582.381;  -11.234;37741.598
639.782;33409.637;  -12.023;38364.551
640.361;31801.086;  -11.506;36740.621
640.940;28790.645;  -12.316;34950.082
641.519;26668.158;  -11.616;34137.398
642.097;28642.869;   -9.266;35654.258
642.676;32520.346;  -12.936;35637.957
643.255;33325.152;   -9.966;36567.074
643.833;33898.492;   -8.916;37809.434
644.412;31902.092;  -10.936;37337.293
644.990;31247.371;  -12.176;37018.531
645.569;32231.697;  -12.246;36518.469
646.147;34919.012;  -12.107;36186.430
646.726;37494.316;  -12.937;36267.688
647.304;34634.398;  -12.547;36647.625
647.882;33615.375;  -12.597;39286.742
648.461;32918.246;   -9.427;39157.703
649.039;32961.016;   -8.937;35412.883
649.617;33704.738;  -11.067;34744.918
650.195;31978.090;  -10.657;35403.098
650.773;29413.500;  -10.097;35053.797
651.352;28968.713;  -11.887;33756.816
651.930;28021.617;  -13.557;31868.773
652.508;27939.018;  -11.767;33121.551
653.086;30678.281;  -10.777;33564.793
653.663;33571.281;  -12.067;34054.668
654.241;36218.301;  -14.918;35693.309
654.819;35841.117;  -11.788;36422.906
655.397;33806.414;  -11.268;38213.484
655.975;31954.750;  -11.738;39507.625
656.553;30016.008;  -11.018;39498.223
657.130;28826.215;  -12.848;40395.480
657.708;27693.480;  -10.098;39242.020
658.286;28665.648;  -11.678;38920.020
658.863;31256.000;  -11.498;40202.898
659.441;33999.598;  -11.008;39677.938
660.018;35849.215;  -11.048;40413.355
660.596;36749.594;  -12.058;39931.414
661.173;37380.500;  -14.158;39604.531
661.750;36753.301;  -12.298;39700.070
662.328;36210.582;  -10.699;39292.809
662.905;35517.098;  -12.119;38235.648
663.482;31576.934;  -11.829;36212.305
664.060;27862.311;  -11.009;35944.945
664.637;31019.670;  -10.369;35170.785
665.214;33579.086;  -10.459;34197.523
665.791;32771.957;  -12.599;34549.520
666.368;30325.717;  -12.919;35118.578
666.945;28682.404;  -10.699;36019.418
667.522;29814.682;  -11.359;36048.438
668.099;30381.961;  -13.529;36243.914
668.676;28936.340;  -10.229;35958.875
669.253;28495.625;   -9.279;37384.730
669.830;28218.805;  -11.370;36779.629
670.407;28189.998;  -10.950;35231.289
670.984;29268.613;  -12.850;35544.270
671.560;28027.725;   -8.440;35466.867
672.137;28734.967;  -13.520;34280.863
672.714;30189.578;  -13.620;34632.863
673.290;30667.182;  -10.450;35135.422
673.867;29775.051;  -10.960;36114.480
674.443;30760.242;  -13.300;36152.859
675.020;29044.779;  -12.370;35327.238
675.596;28334.537;  -11.250;35795.176
676.173;29059.861;  -11.080;35430.355
676.749;28939.322;  -13.220;33549.516
677.326;29968.504;  -13.000;32210.012
677.902;29777.582;  -12.701;32068.871
678.478;28335.379;  -12.801;32583.891
679.054;29225.133;   -8.601;32088.928
679.631;30358.436;  -12.631;30978.848
680.207;31097.713;   -9.451;33160.887
680.783;30590.600;  -11.701;35570.363
681.359;31008.697;  -12.701;36125.184
681.935;32947.660;  -13.271;35240.922
682.511;35048.309;  -10.791;34429.961
683.087;33024.484;  -10.791;34463.680
683.663;29534.639;   -8.121;34648.898
684.239;27264.549;  -13.261;34546.457
684.815;27776.693;  -10.581;35586.375
685.390;29693.541;   -9.961;35821.895
685.966;29284.643;  -11.182;35085.871
686.542;28509.750;  -13.512;34198.230
687.118;26508.773;  -11.472;32847.707
687.693;25345.717;  -10.152;32794.027
688.269;25757.996;  -14.442;33072.367
688.844;24852.762;  -11.852;33141.664
689.420;23842.670;  -13.942;33965.742
689.995;25158.889;   -9.702;34655.523
690.571;27033.434;  -11.312;33576.742
691.146;27230.811;  -14.332;32657.219
691.722;26945.814;  -11.192;32526.979
692.297;27751.631;  -10.962;33014.617
692.872;29056.695;  -11.082;34012.254
693.448;29736.268;  -14.732;34237.434
694.023;29217.510;  -12.363;34142.672
694.598;27395.934;  -12.393;34132.031
695.173;27855.303;  -11.023;34205.250
695.748;29390.697;  -12.743;32882.488
696.323;28751.629;  -11.103;32864.906
696.898;27905.514;   -8.123;33170.004
697.473;27670.164;  -12.603;32432.984
698.048;28194.797;  -12.553;31649.303
698.623;29610.713;  -12.573;30778.141
699.198;29384.254;  -12.743;31140.119
699.773;28645.129;  -12.843;31764.299
700.348;28974.953;  -16.683;31780.816
700.922;30013.018;  -11.403;32046.375
701.497;31614.516;  -11.253;32603.574
702.072;31077.664;  -10.044;34799.871
702.646;30415.006;  -13.054;35793.172
703.221;31012.324;  -11.414;35201.590
703.795;30492.277;  -10.644;34764.527
704.370;28664.135;  -13.484;34307.367
704.944;27712.377;  -12.144;33509.887
705.519;27047.883;  -12.024;31388.584
706.093;28662.383;  -11.234;31340.104
706.668;29914.408;   -9.874;32630.281
707.242;29170.215;  -12.404;32728.779
707.816;27609.160;  -10.644;32947.238
708.390;27129.979;  -11.174;33277.855
708.965;26901.953;  -10.324;33834.336
709.539;27320.352;  -12.014;33709.273
710.113;27730.406;  -12.295;33044.313
710.687;29291.619;  -10.965;31953.992
711.261;31396.842;  -13.685;30505.949
711.835;29870.525;  -15.335;30262.369
712.409;28507.824;  -13.785;31254.447
712.983;28793.729;  -10.525;32754.986
713.557;27239.926;  -13.175;34018.824
714.131;27025.244;  -13.245;34579.625
714.704;30221.326;  -13.175;33890.262
715.278;32612.961;  -11.545;33531.102
715.852;31000.203;  -10.975;33601.660
716.425;29097.738;  -10.075;33515.117
716.999;29279.820;  -12.185;33185.555
717.573;31602.221;   -9.685;33905.996
718.146;32628.334;  -10.516;35199.293
718.720;31330.234;  -12.106;35060.551
719.293;29726.797;  -12.386;34973.230
719.867;29607.477;  -12.456;36394.449
720.440;29438.367;  -10.686;36663.008
721.013;29632.139;  -12.596;35102.426
721.587;31250.547;  -13.956;33985.266
722.160;33334.488;   -9.806;33524.965
722.733;33989.770;  -11.676;32987.043
723.306;33359.602;  -14.276;33066.301
723.880;31032.625;  -12.126;33399.500
724.453;28719.135;  -10.156;33468.297
725.026;28398.727;  -12.956;33816.637
725.599;28606.457;  -11.676;32797.996
726.172;28943.094;  -12.337;33187.434
726.745;29060.016;  -11.277;35136.613
727.318;28973.406;  -11.927;35751.730
727.891;28201.779;  -13.607;35890.430
728.463;25896.666;  -11.327;34822.090
729.036;25748.766;  -11.917;32895.086
729.609;27553.393;  -12.697;31823.225
730.182;28477.070;  -11.787;31445.283
730.754;28054.922;  -12.957;32373.223
731.327;27636.715;  -11.017;33676.820
731.900;27257.238;  -12.797;33417.000
732.472;26698.758;  -10.677;31978.498
733.045;26111.313;  -12.797;30368.777
733.617;26150.314;  -13.908;30574.215
734.190;25078.813;  -12.258;31280.975
734.762;25048.344;  -13.438;31674.412
735.334;26256.256;  -11.758;31247.291
735.907;29193.803;  -11.158;29876.211
736.479;32738.094;  -11.258;29808.488
737.051;33186.688;  -10.918;30233.547
737.623;31940.168;  -11.038;31469.086
738.195;33062.121;  -12.188;31784.225
738.768;31073.189;  -11.378;32120.523
739.340;25309.289;  -12.598;32094.342
739.912;23317.672;  -11.568;31312.680
740.484;24991.055;   -9.348;31946.238
741.056;27618.320;  -12.628;32984.059
741.628;29656.141;  -13.349;33897.715
742.199;28647.580;  -11.309;33213.016
742.771;28851.520;  -12.699;31369.113
743.343;29886.250;  -11.919;31865.473
743.915;29763.787;  -11.679;32388.631
744.487;28345.555;  -12.249;31079.568
745.058;26096.133;  -11.119;30570.107
745.630;24790.732;   -9.439;29970.127
746.201;23911.084;  -11.949;29186.766
746.773;23991.506;  -12.639;28805.723
747.344;25182.092;  -11.039;29591.223
747.916;27333.482;  -12.549;31412.201
748.487;26339.463;  -12.659;32194.898
749.059;24555.164;  -13.059;32533.719
749.630;23720.582;  -12.080;32158.518
750.201;22094.803;  -13.100;30855.395
750.773;21308.637;  -15.310;28622.555
751.344;21044.824;  -12.240;28405.732
751.915;21099.053;  -11.960;28461.551
752.486;20160.559;  -13.200;27842.850
753.057;18924.654;  -15.230;27845.008
753.628;20039.547;  -13.130;27728.107
754.199;22550.156;  -12.720;27381.086
754.770;22789.896;  -10.680;25882.203
755.341;21434.318;  -11.010;25886.184
755.912;20892.633;  -12.990;26050.861
756.483;20308.020;  -11.110;26798.779
757.054;19830.635;  -12.190;27048.238
757.625;19800.721;  -13.981;26294.838
758.195;19892.441;  -11.041;26142.076
758.766;20995.875;  -11.861;26392.234
759.337;21436.105;  -11.461;26334.594
759.907;20809.385;  -15.001;27579.652
760.478;19576.293;   -9.681;28352.770
761.048;18345.697;  -12.421;27325.088
761.619;19275.010;  -11.761;26460.428
762.189;19968.240;  -12.391;26029.826
762.760;19333.570;  -10.201;26430.145
763.330;19795.877;  -10.811;26670.902
763.900;20305.443;  -10.261;26603.021
764.471;19277.146;  -13.061;25542.740
765.041;17905.826;  -11.051;24358.459
765.611;17806.182;  -11.032;23991.297
766.181;18031.031;  -10.532;24470.236
766.751;18350.563;  -13.502;24845.975
767.321;19473.951;  -11.392;24533.633
767.891;21191.180;  -11.522;24916.492
768.461;22469.084;  -13.672;24776.771
769.031;20092.309;  -14.652;24757.988
769.601;17282.563;  -10.182;24181.088
770.171;16202.832;  -11.752;23670.387
770.741;15328.116;  -12.272;22960.045
771.311;15022.250;  -13.112;22917.523
771.880;15911.591;  -14.122;23562.941
772.450;16597.361;  -11.782;24216.500
773.020;16813.621;  -12.642;24140.398
773.589;15950.439;  -13.043;24414.857
774.159;15380.247;  -11.783;23858.717
774.729;16243.290;  -13.473;22942.135
775.298;17072.725;  -14.523;22324.033
775.867;16701.658;  -12.013;21140.313
776.437;15996.585;  -12.113;20838.092
777.006;15564.237;  -13.543;20599.510
777.576;16167.258;  -12.523;20508.809
778.145;16419.162;  -12.173;20732.947
778.714;15753.952;  -12.153;21062.465
779.283;15005.973;  -11.833;20949.664
779.853;15182.567;  -13.483;20508.623
780.422;15404.209;  -12.933;20649.082
780.991;14940.524;  -13.173;21527.520
781.560;14614.463;  -10.224;22632.658
782.129;15037.790;  -12.684;23048.277
782.698;15158.620;  -11.284;23438.555
783.267;15046.635;  -11.684;23267.734
783.836;14774.640;  -10.974;22415.133
784.404;14354.422;  -13.534;20443.152
784.973;13610.215;  -16.734;19699.150
785.542;12492.906;  -12.594;19763.828
786.111;12056.869;  -11.644;20341.408
786.679;13096.750;  -11.384;20207.967
787.248;13369.955;  -12.014;19516.465
787.817;12182.951;  -12.804;18900.363
788.385;10905.438;  -11.994;17879.121
788.954;11200.530;  -12.564;17658.301
789.522;12213.132;  -12.225;17788.879
790.090;12275.515;  -13.775;18118.277
790.659;12113.662;  -12.485;18338.736
791.227;12821.203;  -12.295;18508.615
791.795;13479.144;  -13.415;17898.254
792.364;13980.994;  -12.995;17295.133
792.932;13785.331;   -8.365;16822.051
793.500;12695.539;  -11.925;17040.148
794.068;12786.260;  -13.245;17179.787
794.636;13643.761;  -13.815;16664.246
795.204;13727.554;  -13.375;16524.545
795.772;13492.600;  -12.125;17274.564
796.340;12642.776;  -13.855;17891.002
796.908;10998.306;  -13.456;17648.561
797.476;10092.702;  -13.116;17064.080
798.044;10273.823;  -13.226;16672.777
798.612;10590.640;  -11.236;17023.996
799.180;10513.360;  -10.476;16561.615
799.747;10143.014;  -11.746;15962.773
800.315; 9724.829;  -12.366;15296.992
800.883; 9122.251;  -14.616;14801.771
801.450; 9226.335;  -11.996;14534.430
802.018;10105.104;  -11.206;14173.248
802.585;10556.245;  -12.466;14029.547
803.153;10054.627;  -12.846;13836.846
803.720; 9419.902;  -12.136;13567.324
804.287; 9586.050;  -10.966;13360.622
804.855; 9762.518;   -9.797;13681.981
805.422; 8973.034;  -13.037;13536.560
805.989; 8209.830;  -12.697;13355.958
806.556; 8346.368;  -11.737;13747.896
807.124; 9033.379;  -11.997;13987.376
807.691; 8832.117;  -13.997;14038.674
808.258; 8243.970;  -10.927;14120.152
808.825; 8528.665;  -13.727;13860.111
809.392; 8638.136;  -11.847;13268.790
809.959; 8623.647;  -14.217;12680.389
810.526; 8590.285;   -8.277;12427.308
811.093; 8707.440;   -9.647;12030.105
811.659; 8731.525;  -10.987;11653.664
812.226; 8134.837;  -13.447;11637.183
812.793; 7652.306;  -14.418;11611.521
813.360; 7799.501;  -13.908;11885.181
813.926; 8291.543;  -12.918;12770.539
814.493; 8543.807;  -14.888;12677.638
815.060; 8114.961;  -12.758;11974.336
815.626; 7794.767;  -13.478;11594.715
816.193; 7742.443;  -13.898;11579.474
816.759; 7866.889;  -13.588;11666.972
817.325; 7883.835;  -12.018;11325.530
817.892; 7519.317;  -14.068;11105.369
818.458; 7527.692;  -13.458;10843.928
819.024; 7405.935;  -11.968;10714.406
819.591; 7176.950;  -11.028;10469.165
820.157; 7258.402;  -12.088;10235.523
820.723; 7348.574;  -12.599;10847.563
821.289; 7035.607;  -10.419;11040.980
821.855; 6812.643;  -10.939;10357.100
822.421; 6789.115;  -12.539; 9978.918
822.987; 6705.502;  -13.259; 9754.177
823.553; 6491.168;  -15.369;10065.755
824.119; 6340.698;  -10.779;10036.294
824.685; 6316.461;   -9.999;10029.192
825.251; 6179.023;  -11.819;10199.230
825.816; 6135.848;  -13.369; 9820.189
826.382; 6008.614;  -12.679; 9297.248
826.948; 5532.944;  -11.199; 9381.347
827.513; 5315.806;  -11.179; 9450.726
828.079; 5410.060;  -13.489; 9472.444
828.645; 5511.021;  -12.500; 9292.643
829.210; 5495.887;  -15.120; 9065.341
829.776; 5453.063;  -12.590; 9132.620
830.341; 5556.368;  -11.540; 9092.878
830.906; 5837.877;  -12.400; 9078.557
831.472; 5721.423;  -12.720; 8534.535
832.037; 5017.483;  -11.490; 8677.874
832.602; 4476.005;  -14.380; 8628.692
833.167; 4285.928;  -12.780; 8879.031
833.733; 4500.172;  -11.100; 9189.790
834.298; 4839.027;  -12.080; 9052.608
834.863; 4667.458;  -13.910; 8895.087
835.428; 4386.271;  -13.470; 8824.266
835.993; 4217.479;  -11.760; 8845.385
836.558; 4393.295;  -12.731; 8888.563
837.123; 4562.123;  -12.431; 8966.582
837.688; 4407.890;  -11.241; 8617.860
838.253; 4221.866;  -13.681; 8590.699
838.817; 4331.174;  -12.531; 8443.797
839.382; 4468.113;  -12.671; 8799.356
839.947; 4528.851;  -11.541; 8810.595
840.511; 4648.127;  -12.021; 8796.394
841.076; 4707.479;  -13.071; 8347.231
841.641; 4895.115;  -11.411; 8224.330
842.205; 5105.612;  -13.671; 8223.349
842.770; 4984.841;  -11.291; 8622.107
843.334; 4705.501;  -12.951; 8410.386
843.898; 4467.199;  -11.221; 8337.465
844.463; 4521.693;  -11.322; 8506.283
845.027; 4507.662;  -11.412; 8280.962
845.591; 4255.279;  -11.512; 8231.141
846.156; 4121.935;  -14.042; 7969.179
846.720; 4180.531;  -12.152; 7768.278
847.284; 3998.853;  -10.922; 7630.957
847.848; 3807.386;  -10.962; 7472.395
848.412; 3594.851;  -14.612; 7437.394
848.976; 3595.126;  -11.492; 7674.592
849.540; 3881.195;   -9.172; 7836.011
850.104; 4086.552;  -11.232; 7913.669
850.668; 4002.458;  -15.182; 7694.508
851.232; 3859.188;  -15.332; 7756.887
851.796; 3790.679;  -13.703; 7926.545
852.359; 3843.196;  -11.113; 7827.844
852.923; 3933.751;  -11.843; 7641.163
853.487; 3901.935;  -11.173; 7342.501
854.050; 3778.718;  -13.443; 7042.820
854.614; 3738.396;  -13.823; 7151.338
855.177; 3669.584;  -16.393; 7105.077
855.741; 3616.473;  -11.693; 6989.675
856.304; 3596.163;  -10.843; 6596.634
856.868; 3489.391;  -13.783; 6356.272
857.431; 3273.751;  -11.953; 6468.571
857.995; 3030.205;  -13.683; 6373.210
858.558; 2995.008;  -11.433; 6324.448
859.121; 3107.332;  -12.493; 6408.327
859.684; 3043.674;  -12.384; 6347.886
860.247; 2724.180;  -14.774; 6321.264
860.810; 2460.944;  -13.154; 6301.903
861.374; 2453.244;  -11.264; 6607.881
861.937; 2524.329;  -15.424; 6408.200
862.500; 2516.967;  -12.854; 6572.639
863.062; 2496.792;  -12.344; 6387.297
863.625; 2491.509;  -13.314; 6190.836
864.188; 2572.521;  -14.724; 5807.254
864.751; 2755.412;  -13.464; 5682.413
865.314; 3100.105;  -11.684; 5547.492
865.876; 3333.542;  -11.104; 5500.150
866.439; 3287.854;  -12.344; 5415.909
867.002; 3104.903;  -13.494; 5501.567
867.564; 2839.490;  -10.935; 5413.946
868.127; 2646.453;  -12.665; 5160.325
868.689; 2608.694;  -14.515; 5133.183
869.252; 2652.145;  -13.425; 5252.382
869.814; 2804.571;  -11.595; 5297.141
870.377; 2908.224;  -12.175; 5390.919
870.939; 2804.734;  -10.265; 5599.898
871.501; 2679.345;  -12.375; 5248.336
872.063; 2605.700;  -14.355; 4854.235
872.626; 2536.256;  -14.435; 4817.074
873.188; 2449.097;  -12.415; 4987.732
873.750; 2467.412;  -14.555; 4868.651
874.312; 2400.144;  -11.185; 4779.330
874.874; 2209.778;  -12.715; 4866.348
875.436; 2119.291;  -13.196; 4718.887
875.998; 2112.719;  -11.426; 4660.005
876.560; 2029.264;   -9.786; 4462.964
877.122; 1966.169;  -12.796; 4145.042
877.683; 1944.280;  -13.226; 4056.481
878.245; 1929.912;  -12.036; 3950.740
878.807; 1927.782;  -11.536; 4058.958
879.369; 1918.517;  -10.806; 3954.677
879.930; 1825.561;  -13.946; 3941.495
880.492; 1685.982;  -11.876; 4067.014
881.053; 1645.820;  -13.216; 3859.633
881.615; 1709.127;  -12.226; 3776.071
882.176; 1754.905;  -12.946; 3734.750
882.738; 1703.272;  -10.736; 3678.489
883.299; 1631.190;  -12.057; 3405.407
883.860; 1593.894;  -12.677; 3351.106
884.422; 1557.619;  -14.097; 3394.044
884.983; 1449.422;  -13.667; 3166.443
885.544; 1295.843;  -10.717; 3189.802
886.105; 1176.898;  -14.357; 3160.360
886.666; 1151.179;  -14.287; 3093.059
887.227; 1155.175;  -14.297; 2941.957
887.788; 1143.016;  -13.137; 2974.836
888.349; 1056.215;  -14.637; 2721.214
888.910;  968.193;  -12.247; 2696.493
889.471;  959.640;  -10.577; 2560.172
890.032;  955.112;  -12.937; 2558.190
890.593;  903.836;  -12.487; 2567.669
891.153;  830.110;  -11.898; 2460.307
891.714;  815.209;  -14.278; 2372.046
892.275;  817.680;  -13.308; 2309.505
892.835;  763.038;  -12.058; 2382.543
893.396;  680.562;  -15.268; 2295.502
893.956;  625.308;  -13.278; 2162.420
894.517;  590.214;  -11.968; 2125.439
895.077;  577.190;  -12.798; 2086.978
895.638;  554.775;  -11.908; 2126.316
896.198;  528.468;  -13.288; 1838.275
896.758;  503.837;  -12.198; 1892.813
897.319;  477.533;  -13.048; 1792.232
897.879;  438.623;  -13.718; 1762.751
898.439;  398.752;  -14.138; 1661.149
898.999;  385.445;  -13.659; 1781.468
899.559;  375.273;  -14.699; 1703.347
900.119;  352.758;  -14.339; 1537.525
900.679;  329.169;  -11.789; 1638.384
901.239;  304.642;  -13.629; 1527.902
901.799;  288.549;  -13.679; 1456.441
902.359;  273.547;  -13.679; 1357.140
902.919;  264.234;  -14.159; 1331.118
903.479;  254.470;  -13.419; 1317.257
904.038;  241.216;  -14.899; 1262.595
904.598;  228.998;  -14.339; 1152.034
905.158;  222.659;  -13.959; 1240.893
905.717;  219.057;  -12.749; 1233.691
906.277;  211.263;  -11.889; 1217.330
906.836;  204.856;  -12.870; 1222.408
907.396;  202.723;  -11.790; 1193.047
907.955;  198.132;  -13.750; 1182.526
908.515;  191.798;  -14.760; 1099.364
909.074;  184.258;  -12.540; 1092.863
909.633;  179.237;  -12.120; 1069.121
910.192;  176.113;  -12.550; 1196.460
910.752;  174.027;  -12.760; 1029.960
911.311;  171.170;  -14.750; 1009.780
911.870;  167.380;  -13.860;  971.460
912.429;  165.012;  -13.480; 1094.080
912.988;  162.080;  -12.370; 1081.060
913.547;  156.389;  -14.670;  940.380
914.106;  154.125;  -12.800;  999.420
914.665;  152.862;  -11.370;  984.020
915.224;  149.260;  -11.430; 1035.760
915.782;  149.657;  -12.260;  922.560
916.341;  151.349;  -12.540; 1049.840
916.900;  148.168;  -12.540;  925.260
917.458;  145.961;  -13.480;  884.220
918.017;  145.797;  -12.470;  942.600
918.576;  145.645;  -13.450;  904.440
919.134;  142.849;  -12.890;  837.980
919.693;  140.796;  -15.480;  893.060
920.251;  139.581;  -14.420;  876.500
920.809;  139.456;  -12.170;  839.580
921.368;  139.273;  -13.650;  885.360
921.926;  138.721;  -12.750;  842.940
922.484;  139.403;  -14.150;  903.360
923.042;  140.458;  -15.100;  880.340
923.601;  143.559;  -10.990;  998.680
924.159;  143.268;  -12.470;  935.560
924.717;  142.442;  -15.640;  841.080
925.275;  143.837;  -12.380;  903.240
925.833;  142.696;  -12.710;  779.320
926.391;  145.524;  -11.200;  938.380
926.949;  145.185;  -16.000;  857.680
927.506;  147.394;  -12.260;  903.500
928.064;  147.561;  -11.300;  877.580
928.622;  148.136;  -13.750;  880.100
929.180;  146.919;  -15.290;  814.180
929.737;  146.039;  -14.500;  808.540
930.295;  147.523;  -10.630;  928.480
930.853;  150.700;  -14.590;  849.100
931.410;  153.353;  -14.450;  821.120
931.968;  156.296;  -14.390;  940.660
932.525;  157.267;  -13.050;  909.380
933.082;  156.322;  -15.620;  811.440
933.640;  158.918;  -15.650;  925.900
934.197;  161.597;  -13.610;  886.360
934.754;  165.152;  -13.320;  897.780
935.312;  169.366;  -13.370;  863.340
935.869;  172.851;  -12.780; 1012.980
936.426;  171.016;  -14.480;  872.800
936.983;  171.573;  -13.180;  889.020
937.540;  171.289;  -15.710;  838.280
938.097;  174.341;  -14.980;  940.120
938.654;  176.271;  -13.060;  898.860
939.211;  177.829;  -12.760;  952.480
939.768;  176.871;  -16.230;  915.420
940.324;  177.786;  -10.940;  904.200
940.881;  177.702;  -12.570;  878.500
941.438;  175.600;  -13.650; 1021.200
941.995;  175.611;  -13.300;  992.560
942.551;  178.524;  -15.800;  875.620
943.108;  178.318;  -14.180;  937.920
943.664;  176.415;  -13.890;  869.340
944.221;  179.452;  -12.640; 1088.140
944.777;  177.978;  -14.700;  869.680
945.334;  176.404;  -13.010;  884.840
945.890;  178.153;  -13.480;  946.480
946.446;  177.219;  -14.920;  947.020
947.003;  176.411;  -13.860;  964.940
947.559;  175.979;  -12.000; 1063.040
948.115;  176.507;  -10.510; 1026.540
948.671;  175.377;  -12.760;  967.300
949.227;  172.296;  -15.390;  859.560
949.783;  168.501;  -15.570;  858.900
950.339;  167.986;  -12.800;  991.000
950.895;  165.373;  -13.780; 1023.840
951.451;  165.389;  -13.810;  925.280
952.007;  168.421;  -12.390;  998.540
952.563;  167.942;  -11.980;  937.780
953.118;  165.106;  -14.070;  904.940
953.674;  167.920;  -14.140;  935.780
954.230;  172.040;  -12.680;  949.640
954.785;  173.589;  -12.770;  936.640
955.341;  170.227;  -11.450;  998.160
955.897;  162.617;  -15.350;  834.660
956.452;  158.781;  -14.200;  953.840
957.008;  153.703;  -10.820; 1083.640
957.563;  150.712;  -13.200; 1009.540
958.118;  150.496;  -14.460;  877.700
958.674;  152.776;  -13.840;  946.780
959.229;  152.926;  -10.670; 1013.980
959.784;  151.865;  -17.040;  832.400
960.339;  154.827;  -12.970; 1001.280
960.894;  159.007;  -12.700;  963.760
961.449;  162.362;  -13.790;  859.960
962.004;  170.073;  -11.760; 1212.840
962.559;  167.790;  -14.840;  860.140
963.114;  163.400;  -14.530;  742.480
963.669;  160.341;  -12.780;  915.500
964.224;  155.430;  -14.330;  874.340
964.779;  149.064;  -14.380;  828.420
965.334;  145.240;  -12.460; 1017.860
965.888;  140.334;  -13.490;  875.360
966.443;  140.331;  -14.140;  972.380
966.998;  136.984;  -16.240;  819.460
967.552;  137.240;  -12.730;  908.380
968.107;  133.832;  -14.510;  868.300
968.661;  134.475;  -11.850;  922.440
969.216;  132.305;  -14.370;  856.280
969.770;  129.448;  -13.010;  917.200
970.324;  128.878;  -12.460;  923.140
970.879;  129.010;  -11.580;  947.180
971.433;  131.629;  -13.130;  952.720
971.987;  131.046;  -12.360;  895.340
972.541;  127.656;  -14.330;  917.100
973.095;  124.062;  -13.310; 1009.460
973.649;  121.028;  -15.830;  809.480
974.203;  122.001;  -15.830;  829.040
974.757;  125.076;  -13.480;  855.220
975.311;  126.791;  -13.720;  872.600
975.865;  128.357;  -15.780;  881.820
976.419;  128.581;  -14.290;  857.400
976.973;  124.771;  -13.210;  849.620
977.526;  119.200;  -12.300;  949.920
978.080;  109.463;  -14.840;  796.780
978.634;  103.268;  -13.100;  921.320
979.187;   93.105;  -12.300;  905.400
979.741;   85.769;  -12.020; 1018.380
980.294;   80.006;  -14.590;  789.160
980.848;   78.832;  -14.390;  717.220
981.401;   79.614;  -14.280;  816.540
981.955;   80.887;  -11.920;  844.300
982.508;   80.642;  -15.790;  746.340
983.061;   82.846;  -12.070;  915.260
983.615;   82.204;  -13.260;  798.800
984.168;   80.373;  -15.540;  770.080
984.721;   80.679;  -13.230;  880.760
985.274;   79.698;  -11.820;  867.500
985.827;   78.105;  -13.510;  834.220
986.380;   76.572;  -14.840;  721.340
986.933;   78.145;  -13.970;  864.800
987.486;   78.788;  -12.450;  861.920
988.039;   76.525;  -11.170;  863.100
988.591;   73.774;  -13.070;  893.260
989.144;   71.305;  -15.530;  737.260
989.697;   71.216;  -14.300;  758.740
990.250;   70.323;  -13.310;  858.100
990.802;   67.090;  -14.490;  755.860
991.355;   68.834;  -12.980;  974.880
991.907;   67.064;  -13.715;  864.320
992.460;   65.295;  -14.450;  753.760
993.012;   63.718;  -12.590;  749.540
993.565;   62.148;  -15.180;  711.360
994.117;   63.942;  -11.630;  950.780
994.669;   60.719;  -13.760;  701.320
995.221;   59.893;  -12.710;  791.920
995.774;   60.152;  -14.620;  787.580
996.326;   59.092;  -13.150;  740.220
996.878;   59.202;  -12.880;  838.420
997.430;   56.399;  -14.580;  699.860
997.982;   56.755;  -14.030;  750.140
998.534;   56.338;  -12.190;  739.060
999.086;   54.696;  -12.990;  738.220
999.638;   53.222;  -13.180;  661.380
1000.190;   52.594;  -14.970;  699.320
1000.741;   52.576;  -12.200;  742.700
1001.293;   52.050;  -13.400;  686.020
1001.845;   50.548;  -14.490;  676.640
1002.396;   51.248;  -15.280;  743.400
1002.948;   51.382;  -12.380;  737.400
1003.500;   50.149;  -13.260;  723.780
1004.051;   50.841;  -13.730;  907.580
1004.603;   50.288;  -12.300;  791.820
1005.154;   47.113;  -15.330;  608.980
1005.705;   46.456;  -12.800;  723.960
1006.257;   44.796;  -13.900;  707.220
1006.808;   44.064;  -14.430;  685.460
1007.359;   44.338;  -12.010;  763.240
1007.910;   42.345;  -12.690;  646.640
1008.461;   41.386;  -13.610;  732.940
1009.013;   40.904;  -14.990;  588.340
1009.564;   42.258;  -11.860;  793.520
1010.115;   39.298;  -12.640;  597.040
1010.665;   39.195;  -14.570;  602.160
1011.216;   39.500;  -15.190;  667.920
1011.767;   39.242;  -13.470;  697.920
1012.318;   39.611;  -13.760;  736.980
1012.869;   38.821;  -15.950;  679.000
1013.419;   37.837;  -15.880;  603.120
1013.970;   38.343;  -14.540;  666.640
1014.521;   37.355;  -13.220;  620.620
1015.071;   37.113;  -15.020;  670.380
1015.622;   36.662;  -17.510;  635.460
1016.172;   36.608;  -14.130;  596.820
1016.723;   35.481;  -14.220;  614.380
1017.273;   35.153;  -15.370;  604.160
1017.823;   35.688;  -15.290;  650.340
1018.374;   36.217;  -13.420;  611.760
1018.924;   35.840;  -11.740;  716.880
1019.474;   35.747;  -12.250;  718.880
1020.024;   34.368;  -15.850;  657.580
1020.574;   34.953;  -13.280;  726.160
1021.124;   35.591;  -13.560;  673.580
1021.674;   32.688;  -13.790;  559.120
1022.224;   35.363;  -14.610;  708.940
1022.774;   34.590;  -13.100;  668.820
1023.324;   34.217;  -11.470;  753.520
1023.874;   35.563;  -11.990;  875.760
1024.423;   32.665;  -14.550;  613.700
1024.973;   32.496;  -14.440;  610.760
1025.523;   32.094;  -13.250;  620.960
1026.072;   31.801;  -15.200;  606.420
1026.622;   31.493;  -14.590;  675.740
1027.172;   33.619;  -11.080;  715.660
1027.721;   31.166;  -14.010;  601.220
1028.270;   31.434;  -13.690;  663.400
1028.820;   30.793;  -15.380;  638.080
1029.369;   31.272;  -14.980;  612.700
1029.918;   31.151;  -13.100;  649.840
1030.468;   30.579;  -13.680;  564.780
1031.017;   30.590;  -13.770;  634.800
1031.566;   29.934;  -14.100;  608.900
1032.115;   30.836;  -11.770;  694.500
1032.664;   29.110;  -14.940;  596.480
1033.213;   30.213;  -13.370;  735.420
1033.762;   29.231;  -13.660;  635.620
1034.311;   29.359;  -13.650;  677.220
1034.860;   29.138;  -13.820;  691.000
1035.408;   29.136;  -12.860;  722.720
1035.957;   29.819;  -13.060;  719.540
1036.506;   26.592;  -14.510;  530.800
1037.055;   29.924;  -13.470;  844.320
1037.603;   27.828;  -14.800;  664.000
1038.152;   26.483;  -14.190;  534.760
1038.700;   26.966;  -11.810;  585.740
1039.249;   26.846;  -12.850;  681.220
1039.797;   27.238;  -14.610;  633.360
1040.345;   27.216;  -15.220;  705.420
1040.894;   26.373;  -13.480;  625.300
1041.442;   25.245;  -13.310;  632.200
1041.990;   24.742;  -14.510;  559.160
1042.538;   25.429;  -15.700;  536.180
1043.087;   25.943;  -13.910;  570.860
1043.635;   26.530;  -13.620;  670.500
1044.183;   25.356;  -14.230;  586.400
1044.731;   25.893;  -13.730;  576.000
1045.279;   25.984;  -13.970;  674.920
1045.827;   26.870;  -10.750;  892.400
1046.374;   23.898;  -15.230;  515.420
1046.922;   24.226;  -15.390;  590.580
1047.470;   25.588;  -12.320;  691.300
1048.018;   23.917;  -13.230;  647.960
1048.565;   25.429;  -13.390;  708.600
1049.113;   23.537;  -15.030;  557.000
1049.660;   24.052;  -12.540;  629.660
1050.208;   24.100;  -15.040;  675.640
1050.755;   23.275;  -14.680;  606.580
1051.303;   24.449;  -13.610;  686.820
1051.850;   22.912;  -14.340;  635.120
1052.397;   20.479;  -16.330;  473.960
1052.945;   21.704;  -15.710;  617.760
1053.492;   24.246;  -12.320;  741.840
1054.039;   23.789;  -13.730;  720.180
1054.586;   21.907;  -16.140;  557.240
1055.133;   23.325;  -14.020;  693.140
1055.680;   22.373;  -13.430;  646.620
1056.227;   21.938;  -14.570;  542.780
1056.774;   22.875;  -14.400;  794.980
1057.321;   20.727;  -14.230;  523.260
1057.868;   21.945;  -14.220;  651.320
1058.415;   21.448;  -14.060;  651.980
1058.961;   21.553;  -14.640;  678.940
1059.508;   21.039;  -13.970;  643.820
1060.055;   21.482;  -15.100;  581.780
1060.601;   21.546;  -12.180;  624.300
1061.148;   20.120;  -15.010;  616.820
1061.694;   19.870;  -14.750;  592.580
1062.241;   21.176;  -14.130;  596.320
1062.787;   20.675;  -14.770;  663.140
1063.334;   21.678;  -13.130;  808.560
1063.880;   20.105;  -14.420;  668.360
1064.426;   20.857;  -13.130;  706.820
1064.972;   19.276;  -13.960;  601.340
1065.518;   18.409;  -13.680;  566.640
1066.065;   18.609;  -15.720;  624.460
1066.611;   18.746;  -13.970;  598.800
1067.157;   19.614;  -13.920;  641.860
1067.703;   18.723;  -14.760;  668.480
1068.249;   18.474;  -14.490;  605.220
1068.794;   18.475;  -14.740;  626.880
1069.340;   18.069;  -13.220;  578.960
1069.886;   18.004;  -14.930;  590.700
1070.432;   16.854;  -14.700;  541.720
1070.977;   17.197;  -14.470;  601.080
1071.523;   18.025;  -14.330;  573.060
1072.068;   17.503;  -14.960;  582.000
1072.614;   17.382;  -16.220;  527.760
1073.160;   18.624;  -11.280;  687.040
1073.705;   16.911;  -15.990;  572.520
1074.250;   17.063;  -16.550;  559.900
1074.796;   17.520;  -14.600;  655.160
1075.341;   18.497;  -13.440;  664.100
1075.886;   17.120;  -14.450;  594.240
1076.431;   16.345;  -13.160;  649.880
1076.976;   16.703;  -14.710;  639.220
1077.521;   16.461;  -14.000;  583.080
1078.067;   16.053;  -14.470;  579.400
1078.612;   16.397;  -14.530;  661.620
1079.156;   15.904;  -15.660;  601.540
1079.701;   16.737;  -16.120;  693.260
1080.246;   17.021;  -12.960;  696.300
1080.791;   15.780;  -13.700;  625.020
1081.336;   15.461;  -15.540;  659.320
1081.880;   15.997;  -14.640;  649.680
1082.425;   14.970;  -14.220;  573.480
1082.970;   16.367;  -11.890;  717.040
1083.514;   15.236;  -13.820;  597.000
1084.059;   14.394;  -14.280;  586.720
1084.603;   14.294;  -12.890;  565.840
1085.147;   14.534;  -13.590;  645.220
1085.692;   15.219;  -14.050;  716.800
1086.236;   13.446;  -14.990;  503.140
1086.780;   16.015;  -12.640;  751.440
1087.325;   14.319;  -15.550;  654.620
1087.869;   14.526;  -14.980;  610.700
1088.413;   15.472;  -13.440;  705.040
1088.957;   13.307;  -12.170;  543.400
1089.501;   14.800;  -12.730;  766.640
1090.045;   14.543;  -14.650;  726.480
1090.589;   12.129;  -14.500;  569.920
1091.133;   13.522;  -12.320;  673.340
1091.676;   13.675;  -16.130;  591.940
1092.220;   12.883;  -13.930;  600.920
1092.764;   14.577;  -12.820;  706.960
1093.307;   14.027;  -11.700;  673.780
1093.851;   11.779;  -15.600;  556.540
1094.395;   13.145;  -13.920;  683.140
1094.938;   12.763;  -16.090;  632.520
1095.482;   12.412;  -13.820;  559.800
1096.025;   13.271;  -12.720;  710.880
1096.568;   13.634;  -12.100;  779.280
1097.112;   10.371;  -15.450;  508.180
1097.655;   12.794;  -14.310;  603.000
1098.198;   10.203;  -14.740;  600.180
1098.741;   10.290;  -15.550;  612.860
1099.285;   12.751;  -12.600;  657.300
1099.828;   10.039;  -15.050;  439.400
1100.371;   11.388;  -14.800;  608.160
1100.914;   10.977;  -16.480;  682.660
1101.457;   12.269;  -12.990;  679.900
1101.999;   10.786;  -14.110;  584.680
1102.542;   11.495;  -11.450;  641.440
1103.085;   10.189;  -13.350;  658.500
1103.628;   12.501;  -13.200;  762.060
1104.170;    9.525;  -12.310;  588.280
1104.713;    9.920;  -14.320;  646.700
1105.256;    9.379;  -16.110;  557.440
1105.798;    8.871;  -15.910;  499.980
1106.341;   11.107;  -12.200;  728.900
1106.883;    8.813;  -14.910;  521.340
1107.425;    9.612;  -14.960;  668.180
1107.968;    9.345;  -13.440;  612.380
1108.510;   11.208;  -14.010;  684.960
1109.052;    8.582;  -15.430;  612.620
1109.594;    8.482;  -15.290;  554.440
1110.136;   10.624;  -13.360;  643.220
1110.679;    8.828;  -13.820;  633.080
1111.221;    9.176;  -13.690;  604.460
1111.763;    7.965;  -14.890;  559.220
1112.304;    9.009;  -14.550;  547.140
1112.846;    9.299;  -12.760;  666.240
1113.388;   11.905;  -10.780;  942.180
1113.930;    8.779;  -12.690;  694.200
1114.472;    9.045;  -15.730;  606.540
1115.013;    7.523;  -14.620;  551.280
1115.555;    7.316;  -14.950;  587.100
1116.097;    6.969;  -16.460;  579.480
1116.638;    8.236;  -13.730;  684.600
1117.180;    8.723;  -13.810;  667.740
1117.721;    7.025;  -13.280;  568.580
1118.262;    8.396;  -15.080;  677.960
1118.804;    8.287;  -14.040;  637.340
1119.345;    7.000;  -15.430;  578.400
1119.886;    7.839;  -15.240;  704.040
1120.427;    6.798;  -15.820;  589.020
1120.969;    6.799;  -14.550;  597.920
1121.510;    6.404;  -14.030;  563.060
1122.051;    7.683;  -11.990;  723.580
1122.592;    6.137;  -16.490;  655.420
1123.133;    5.649;  -15.580;  547.940
1123.673;    7.486;  -12.850;  706.480
1124.214;    5.770;  -13.630;  612.460
1124.755;    7.000;  -14.830;  639.460
1125.296;    7.219;  -13.110;  627.320
1125.836;    8.425;  -11.320;  691.500
1126.377;    5.797;  -14.330;  599.660
1126.918;    6.907;  -12.800;  614.980
1127.458;    6.296;  -13.580;  622.220
1127.999;    6.867;  -10.330;  656.980
1128.539;    6.322;  -13.390;  694.240
1129.079;    5.498;  -16.420;  632.720
1129.620;    4.911;  -15.700;  558.100
1130.160;    4.691;  -14.790;  539.480
1130.700;    5.409;  -12.910;  640.840
1131.240;    6.084;  -15.610;  643.700
1131.781;    5.800;  -12.920;  619.680
1132.321;    4.904;  -15.300;  599.120
1132.861;    4.076;  -14.760;  564.200
1133.401;    4.152;  -15.470;  593.940
1133.941;    5.296;  -13.710;  626.280
1134.481;    4.361;  -11.820;  597.580
1135.020;    3.860;  -14.810;  609.160
1135.560;    5.082;  -13.660;  674.940
1136.100;    3.514;  -13.940;  501.160
1136.640;    3.590;  -15.410;  510.480
1137.179;    3.748;  -16.920;  537.960
1137.719;    4.374;  -16.430;  605.400
1138.258;    4.242;  -16.300;  587.360
1138.798;    5.359;  -13.710;  663.780
1139.337;    2.868;  -13.840;  482.840
1139.877;    4.301;  -16.140;  642.360
1140.416;    6.930;  -11.410;  878.060
1140.955;    3.825;  -12.820;  535.380
1141.494;    3.871;  -12.310;  669.280
1142.034;    2.960;  -16.280;  583.520
1142.573;    4.242;  -13.090;  646.280
1143.112;    2.072;  -13.770;  553.480
1143.651;    2.544;  -15.830;  536.480
1144.190;    4.130;  -15.010;  691.640
1144.729;    3.547;  -13.650;  607.420
1145.267;    3.621;  -13.670;  584.900
1145.806;    3.305;  -13.630;  637.040
1146.345;    3.344;  -14.160;  635.020
1146.884;    3.297;  -11.180;  622.500
1147.422;    2.773;  -15.890;  533.060
1147.961;    3.656;  -12.760;  708.460
1148.500;    3.421;  -15.220;  669.720
1149.038;    3.953;  -13.720;  632.500
1149.577;    3.591;  -13.250;  698.640
1150.115;    0.369;  -16.790;  452.280
1150.653;    2.526;  -15.810;  607.340
1151.192;    2.785;  -14.730;  552.920
1151.730;    2.640;  -13.660;  652.560
1152.268;    1.990;  -15.120;  589.520
1152.806;    1.976;  -15.580;  571.180
1153.344;    1.035;  -16.210;  577.640
1153.882;    2.499;  -12.810;  600.060
1154.421;    0.630;  -14.150;  470.620
1154.958;    1.110;  -15.360;  595.240
1155.496;    2.747;  -14.710;  645.280
1156.034;    2.057;  -13.640;  721.880
1156.572;    2.462;  -13.740;  667.060
1157.110;    0.092;  -16.960;  473.940
1157.647;    2.966;  -11.940;  676.960
1158.185;    1.206;  -14.090;  564.320
1158.723;   -0.767;  -13.610;  509.200
1159.260;    1.901;  -14.760;  701.700
1159.798;    2.387;  -13.700;  658.160
1160.335;    0.987;  -13.820;  631.820

