
Integration time [ms]:   3.276
Averaging Nr. [scans]: 1000
Smoothing Nr. [pixels]: 0
Data measured with spectrometer [name]: 7414430SP
Wave   ;Sample   ;Dark     ;Reference
[nm]   ;[counts] ;[counts] ;[counts] 

288.544;  149.338;    7.793;  793.890
289.143;  153.156;    7.462;  681.602
289.742;  154.290;    8.602;  828.814
290.341;  138.193;    1.321;  789.841
290.940;  128.512;   -0.709;  730.702
291.538;  128.591;    0.881;  881.108
292.137;  128.498;    0.122;  792.581
292.736;  133.753;   -1.929;  975.101
293.335;  129.394;   -8.229;  735.086
293.934;  129.308;   -5.279;  781.677
294.532;  128.341;   -1.369; 1031.958
295.131;  114.525;   -7.641;  834.394
295.730;  114.408;   -8.420;  809.588
296.328;  114.387;   -5.611;  783.442
296.927;  114.434;   -5.781;  779.652
297.525;  114.856;   -6.361;  781.236
298.124;  104.935;  -11.382;  654.009
298.722;  109.969;   -7.641;  761.933
299.321;  108.466;   -6.811;  708.597
299.919;  105.610;   -6.991;  751.918
300.518;  102.342;  -10.362;  689.338
301.116;  104.275;   -9.581;  691.381
301.715;  104.337;   -4.891;  730.222
302.313;  103.415;   -8.801;  704.943
302.911;   98.398;   -8.522;  733.830
303.509;  103.196;   -6.171;  925.627
304.108;  101.727;   -7.311;  760.383
304.706;  100.149;   -8.321;  801.664
305.304;   94.288;  -10.222;  796.707
305.902;  101.062;   -6.021;  784.484
306.500;   96.328;   -4.971;  728.200
307.098;   94.280;   -7.061;  746.560
307.696;   92.518;   -8.801;  780.432
308.294;   92.835;   -6.411;  731.359
308.892;   96.350;   -2.901;  759.769
309.490;   91.426;   -5.041;  712.161
310.088;   89.537;   -5.002;  788.444
310.686;   93.424;   -2.041;  821.749
311.284;   90.321;   -2.351;  766.040
311.882;   87.535;   -4.422;  731.225
312.480;   84.776;   -4.192;  697.167
313.078;   86.354;   -1.172;  808.331
313.675;   85.667;   -2.601;  691.600
314.273;   81.705;   -1.312;  797.837
314.871;   81.343;   -3.942;  589.829
315.468;   78.863;   -2.802;  652.090
316.066;   81.592;   -0.701;  694.427
316.664;   73.938;   -4.362;  656.351
317.261;   78.593;   -2.872;  910.128
317.859;   73.885;   -2.022;  768.735
318.456;   74.948;   -0.531;  830.096
319.054;   70.387;   -3.912;  787.828
319.651;   69.770;   -4.752;  759.928
320.249;   68.387;   -2.602;  810.188
320.846;   66.133;   -0.821;  714.286
321.443;   63.436;   -4.642;  832.135
322.041;   61.114;   -5.002;  812.315
322.638;   58.702;   -3.982;  701.456
323.235;   60.006;   -3.411;  665.683
323.833;   56.652;   -7.361;  740.354
324.430;   53.307;   -8.611;  615.900
325.027;   53.748;   -4.061;  876.855
325.624;   53.642;   -4.031;  644.532
326.221;   50.196;   -7.481;  689.717
326.818;   49.652;   -5.281;  818.332
327.415;   53.317;   -7.460;  748.828
328.012;   52.252;   -5.510;  690.585
328.609;   50.719;   -7.880;  731.389
329.206;   49.640;   -8.331;  778.621
329.803;   49.697;   -5.121;  737.841
330.400;   52.817;   -4.510;  704.260
330.997;   53.979;   -6.441;  817.147
331.594;   52.367;   -8.831;  788.185
332.191;   57.270;   -7.621;  728.722
332.787;   60.344;   -4.591;  844.463
333.384;   59.102;   -7.412;  763.093
333.981;   57.456;   -8.293;  815.687
334.578;   60.340;   -7.052;  708.378
335.174;   62.880;   -3.102;  731.469
335.771;   61.847;   -5.943;  836.456
336.367;   59.288;   -7.393;  710.631
336.964;   63.051;   -4.063;  793.266
337.561;   61.263;   -3.813;  731.112
338.157;   56.588;   -4.654;  911.916
338.754;   54.407;   -7.934;  796.589
339.350;   52.531;   -4.414;  722.493
339.946;   54.351;   -4.664;  773.135
340.543;   46.266;   -6.375;  846.136
341.139;   41.014;   -9.815;  720.836
341.735;   39.265;   -4.526;  772.593
342.332;   37.544;   -4.895;  691.472
342.928;   38.366;   -4.295;  795.394
343.524;   32.508;   -5.476;  761.684
344.120;   28.640;   -5.856;  738.562
344.716;   31.483;   -2.155;  723.717
345.313;   29.319;   -6.275;  795.342
345.909;   24.449;   -8.815;  627.336
346.505;   26.251;   -5.305;  740.247
347.101;   27.331;   -2.674;  827.864
347.697;   26.636;   -4.344;  785.398
348.293;   22.093;   -9.975;  627.244
348.889;   22.556;   -5.774;  745.914
349.485;   21.778;   -5.004;  688.205
350.081;   22.105;   -4.704;  772.592
350.676;   17.481;   -6.635;  691.606
351.272;   21.780;   -4.504;  809.530
351.868;   21.640;   -3.914;  780.497
352.464;   18.552;   -9.044;  723.932
353.059;   15.552;   -8.314;  646.017
353.655;   18.370;   -7.024;  777.063
354.251;   19.375;   -5.343;  759.845
354.846;   13.452;   -8.604;  740.646
355.442;   11.556;   -6.945;  753.071
356.038;   13.777;   -7.564;  751.708
356.633;   14.006;   -5.814;  728.594
357.229;   12.100;   -7.364;  724.757
357.824;    9.908;   -8.024;  703.600
358.420;    9.487;   -9.384;  679.726
359.015;   10.179;   -5.104;  695.357
359.610;   11.206;   -6.854;  763.920
360.206;    5.496;  -10.185;  603.240
360.801;    7.842;   -7.054;  646.503
361.396;   10.209;   -5.034;  725.975
361.992;    5.402;   -8.284;  668.220
362.587;    2.322;   -8.625;  670.160
363.182;    4.606;   -7.674;  689.631
363.777;    5.612;   -5.164;  738.242
364.372;    5.104;   -8.604;  737.314
364.967;    1.287;   -9.055;  680.744
365.563;    5.258;   -6.114;  815.567
366.158;    3.103;   -5.814;  685.161
366.753;    3.004;   -7.854;  649.263
367.348;    1.674;   -7.804;  746.056
367.942;    1.888;   -7.954;  697.298
368.537;    0.310;   -4.984;  754.245
369.132;    0.834;   -8.564;  703.428
369.727;   -3.325;   -8.855;  638.079
370.322;   -1.985;   -6.245;  580.186
370.917;   -2.199;   -6.425;  710.646
371.511;    0.494;   -6.294;  861.834
372.106;   -2.698;   -7.685;  776.964
372.701;   -5.859;   -7.335;  585.988
373.296;   -0.550;   -4.564;  863.135
373.890;   -5.564;  -10.235;  647.840
374.485;   -7.603;   -7.885;  691.199
375.079;   -3.068;   -7.324;  738.685
375.674;   -1.709;   -3.494;  812.970
376.268;   -6.138;   -8.525;  691.759
376.863;  -11.841;  -10.086;  580.327
377.457;   -6.043;   -7.025;  662.490
378.052;   -7.275;   -3.585;  764.884
378.646;   -8.941;   -7.595;  741.167
379.240;   -9.180;   -8.335;  721.176
379.835;   -7.650;   -5.785;  636.978
380.429;   -9.684;   -4.335;  562.557
381.023;  -10.895;   -6.805;  779.205
381.617;  -12.116;   -9.195;  680.106
382.212;   -8.769;   -6.905;  685.303
382.806;   -7.779;   -3.745;  760.690
383.400;  -12.239;   -7.745;  672.281
383.994;  -13.374;   -9.765;  664.870
384.588;   -9.662;   -6.564;  697.701
385.182;   -8.252;   -5.344;  726.624
385.776;   -9.593;   -8.514;  706.875
386.370;  -12.685;   -9.555;  681.968
386.964;  -11.789;   -8.715;  684.155
387.558;  -10.036;   -6.174;  598.360
388.152;  -13.510;   -8.725;  681.959
388.745;  -11.613;   -7.965;  814.707
389.339;   -9.780;   -5.924;  747.642
389.933;   -8.773;   -5.524;  695.370
390.527;  -10.391;   -7.114;  859.029
391.120;  -16.511;  -10.725;  595.318
391.714;  -12.365;   -8.035;  711.633
392.308;   -9.705;   -3.574;  780.253
392.901;  -14.138;   -7.245;  642.460
393.495;  -15.609;   -9.285;  595.414
394.089;  -14.849;   -5.895;  760.452
394.682;  -14.249;   -4.295;  697.188
395.275;  -14.590;   -9.875;  719.927
395.869;  -16.363;   -8.485;  667.314
396.462;  -14.540;   -7.455;  616.609
397.056;  -10.438;   -5.424;  776.621
397.649;  -15.369;   -6.605;  731.575
398.242;  -13.373;   -8.224;  712.645
398.836;  -11.825;   -7.474;  766.408
399.429;  -13.136;   -7.094;  631.041
400.022;  -16.307;   -9.475;  665.902
400.615;  -13.868;   -7.145;  805.609
401.208;  -11.459;   -7.174;  691.451
401.802;  -13.735;   -5.515;  699.329
402.395;  -15.243;   -9.875;  683.502
402.988;  -15.900;   -8.845;  696.627
403.581;  -13.100;   -8.874;  646.878
404.174;  -10.450;   -5.324;  686.568
404.767;  -13.889;   -9.575;  638.583
405.360;  -16.072;  -10.965;  621.445
405.953;  -11.009;   -8.764;  759.034
406.545;  -10.425;   -7.514;  725.342
407.138;  -14.941;  -10.025;  618.350
407.731;  -13.734;  -10.034;  613.303
408.324;   -8.756;   -9.374;  660.554
408.917;   -9.942;   -6.534;  681.864
409.509;  -12.353;   -8.004;  740.396
410.102;  -14.000;   -9.875;  643.948
410.695;   -7.589;   -8.604;  665.758
411.287;   -9.055;   -6.794;  599.821
411.880;  -10.343;   -9.334;  585.421
412.472;  -13.879;  -10.254;  613.092
413.065;  -10.656;   -6.714;  629.408
413.657;   -8.835;   -7.234;  576.678
414.250;   -8.543;  -10.544;  646.681
414.842;   -9.848;   -9.744;  676.353
415.434;   -8.477;   -6.994;  570.463
416.027;   -3.597;   -5.893;  652.196
416.619;   -5.495;   -7.264;  713.400
417.211;   -6.221;  -10.374;  599.352
417.804;   -2.154;   -7.993;  628.499
418.396;   -7.025;   -7.234;  607.643
418.988;   -4.316;   -9.443;  659.238
419.580;   -7.506;  -10.724;  568.276
420.172;   -6.335;  -10.323;  536.196
420.764;   -1.592;   -8.793;  672.482
421.356;   -2.815;  -11.143;  636.898
421.948;   -3.661;   -8.293;  677.661
422.540;    0.802;   -7.893;  680.027
423.132;    0.704;   -7.082;  600.641
423.724;   -2.479;   -8.653;  561.267
424.316;   -1.160;  -10.213;  621.345
424.908;    2.448;   -9.762;  591.517
425.500;    3.967;   -5.572;  647.978
426.092;    3.858;   -8.422;  648.268
426.683;    3.257;   -9.283;  684.836
427.275;    5.585;   -7.852;  641.471
427.867;    7.223;   -5.272;  668.948
428.458;    7.572;   -7.682;  732.344
429.050;    6.242;  -10.612;  680.749
429.642;    8.580;   -9.882;  743.124
430.233;    8.763;   -6.962;  569.356
430.825;   10.005;   -6.842;  724.809
431.416;    7.167;   -9.672;  698.241
432.008;   10.688;   -6.552;  651.723
432.599;   11.983;   -6.891;  656.073
433.190;    8.763;  -10.912;  637.670
433.782;    7.624;  -11.172;  590.395
434.373;   14.883;   -6.061;  884.765
434.964;   14.296;   -8.251;  602.920
435.556;   11.849;   -9.722;  634.537
436.147;   14.521;   -9.082;  758.490
436.738;   15.056;   -8.041;  701.099
437.329;   19.395;   -7.341;  721.723
437.920;   12.982;   -8.162;  666.688
438.511;   12.996;  -11.802;  564.526
439.103;   19.442;  -10.191;  623.998
439.694;   21.805;   -7.601;  681.583
440.285;   21.670;   -8.541;  764.432
440.876;   20.057;   -9.751;  845.738
441.466;   19.801;   -9.401;  575.162
442.057;   24.890;   -7.760;  665.814
442.648;   23.430;   -9.971;  746.255
443.239;   21.355;  -11.001;  620.477
443.830;   26.650;   -7.990;  704.958
444.421;   28.580;   -7.910;  655.474
445.011;   25.097;   -8.131;  693.619
445.602;   25.085;   -7.111;  743.126
446.193;   26.176;  -10.920;  488.117
446.783;   30.996;   -6.500;  640.397
447.374;   26.456;   -8.671;  692.759
447.964;   27.183;  -10.781;  713.770
448.555;   35.606;   -9.650;  822.742
449.145;   32.241;   -8.660;  662.853
449.736;   32.564;   -8.990;  803.179
450.326;   32.603;   -9.500;  713.626
450.917;   37.946;   -8.680;  675.324
451.507;   36.593;   -7.520;  600.661
452.097;   36.929;   -8.590;  746.267
452.688;   38.461;  -11.340;  742.160
453.278;   37.859;  -10.100;  566.840
453.868;   42.995;   -6.019;  793.550
454.458;   40.179;   -9.440;  651.141
455.048;   40.748;  -10.560;  711.783
455.639;   42.056;  -11.799;  567.096
456.229;   45.538;   -6.899;  710.694
456.819;   47.768;   -7.389;  751.158
457.409;   47.182;  -11.119;  773.993
457.999;   51.289;   -9.289;  737.505
458.589;   50.107;   -6.139;  686.606
459.179;   50.020;   -8.729;  717.658
459.769;   47.947;   -9.789;  627.099
460.358;   53.188;  -10.259;  797.262
460.948;   53.527;   -7.299;  689.503
461.538;   54.894;  -10.289;  660.677
462.128;   52.875;  -11.269;  664.934
462.717;   58.540;   -9.368;  710.326
463.307;   62.241;   -7.908;  705.846
463.897;   57.438;   -9.599;  656.942
464.486;   57.142;   -9.769;  837.128
465.076;   61.554;   -8.048;  733.776
465.666;   65.337;   -9.358;  652.900
466.255;   62.669;   -7.919;  785.651
466.845;   62.602;  -11.689;  666.749
467.434;   66.070;   -7.818;  725.873
468.023;   66.675;   -7.678;  658.357
468.613;   63.706;  -10.939;  713.946
469.202;   67.697;  -10.118;  646.507
469.791;   72.285;   -9.108;  737.811
470.381;   74.456;   -6.058;  742.813
470.970;   73.397;  -10.428;  711.099
471.559;   73.744;  -10.268;  733.291
472.148;   76.090;   -8.448;  675.737
472.738;   79.685;   -6.917;  765.466
473.327;   78.303;  -11.978;  637.529
473.916;   78.118;  -11.888;  737.446
474.505;   82.508;   -9.437;  751.703
475.094;   86.147;   -6.747;  806.570
475.683;   85.240;   -9.367;  797.699
476.272;   86.454;  -12.637;  730.632
476.861;   88.545;  -10.027;  706.754
477.449;   95.435;   -8.716;  728.487
478.038;   89.389;   -9.577;  692.513
478.627;   91.125;   -9.718;  714.852
479.216;   97.965;   -8.947;  769.441
479.805;  100.349;   -6.256;  783.375
480.393;   99.884;   -7.937; 1008.945
480.982;   98.965;   -7.717;  874.501
481.571;  105.309;   -9.266;  858.333
482.159;  106.126;   -7.636;  705.386
482.748;  106.241;   -9.667;  821.385
483.336;  110.614;  -10.376;  858.209
483.925;  111.745;   -7.147;  774.373
484.513;  118.278;   -7.996;  758.962
485.102;  113.852;  -10.027;  810.965
485.690;  122.751;  -10.446; 1011.050
486.278;  125.364;   -8.446;  979.329
486.867;  126.257;   -6.356;  809.662
487.455;  128.133;   -9.136;  898.229
488.043;  129.135;  -10.646;  748.361
488.631;  138.585;   -7.456; 1005.079
489.220;  142.142;   -6.636;  908.626
489.808;  143.152;  -11.036;  741.415
490.396;  150.707;  -10.246;  914.645
490.984;  157.573;   -8.556;  830.161
491.572;  167.971;   -5.886;  940.315
492.160;  174.072;   -9.486;  919.081
492.748;  187.255;  -10.976;  884.341
493.336;  211.953;   -8.776; 1019.693
493.924;  240.949;   -5.465;  958.077
494.512;  269.992;   -9.986; 1066.638
495.100;  310.138;  -10.636; 1103.280
495.687;  368.311;  -10.885; 1206.373
496.275;  435.341;   -8.126; 1150.796
496.863;  511.112;  -10.586; 1281.171
497.451;  619.171;  -11.926; 1386.805
498.038;  756.605;  -10.885; 1556.729
498.626;  872.132;   -6.315; 1741.407
499.214; 1033.229;   -7.326; 2016.609
499.801; 1236.431;  -11.906; 2220.633
500.389; 1503.446;  -10.466; 2312.494
500.976; 1818.851;   -5.236; 2744.849
501.564; 2280.856;   -8.936; 3148.565
502.151; 2664.052;  -13.176; 3515.999
502.738; 3127.394;  -10.646; 3971.274
503.326; 3538.842;   -9.525; 4403.796
503.913; 3946.211;  -10.856; 5161.749
504.500; 4332.555;  -11.586; 5986.420
505.088; 4769.568;  -10.336; 6381.201
505.675; 5314.309;   -6.355; 6925.547
506.262; 6053.617;   -9.046; 7619.060
506.849; 6793.120;  -10.416; 8733.969
507.436; 7280.630;  -10.305; 9790.121
508.023; 7862.973;   -5.496; 9985.472
508.610; 8124.447;   -7.856;10434.618
509.197; 8755.192;  -10.097;11198.435
509.784;10116.440;  -10.886;12391.194
510.371;11236.114;   -9.315;13603.713
510.958;11989.378;   -9.936;14426.586
511.545;12743.611;   -9.326;15243.775
512.132;13528.223;  -10.075;15945.876
512.719;13989.650;   -7.796;16340.369
513.305;14912.557;  -10.606;18011.766
513.892;15658.479;  -11.486;19754.971
514.479;16983.313;   -9.126;20967.805
515.066;18587.998;   -6.026;22299.793
515.652;20007.270;   -8.466;22908.660
516.239;21096.971;  -10.886;23798.875
516.825;21868.910;  -11.496;25567.275
517.412;22757.783;   -5.796;28154.959
517.998;23391.656;  -10.506;28344.111
518.585;23546.369;  -10.076;27134.219
519.171;23990.033;   -8.315;27268.576
519.758;25423.430;   -8.596;28964.129
520.344;27260.557;   -8.466;30664.494
520.930;27219.973;  -11.006;32550.605
521.516;28149.416;  -10.495;35422.895
522.103;30213.596;   -5.526;38280.004
522.689;30478.123;   -8.746;37835.117
523.275;30109.523;  -11.376;37288.613
523.861;31613.037;  -11.156;37281.395
524.447;33000.590;   -8.135;37846.949
525.033;32624.566;   -7.896;38321.949
525.619;32542.742;  -12.476;38579.285
526.205;33649.797;   -9.516;40622.875
526.791;35329.246;   -6.926;42258.836
527.377;34070.383;   -8.346;42966.902
527.963;32770.813;   -8.717;42018.949
528.549;30716.623;  -11.016;42476.828
529.135;31305.959;   -8.536;41854.852
529.721;33303.074;   -9.666;41237.711
530.306;34271.523;  -10.066;41259.445
530.892;34623.270;  -11.356;41506.047
531.478;36137.543;   -6.596;43559.613
532.063;38952.680;   -8.836;47695.563
532.649;39591.527;  -10.047;50808.324
533.235;40063.934;   -9.746;51787.500
533.820;40087.531;   -6.566;52145.035
534.406;41386.879;  -10.817;51133.488
534.991;40941.801;   -9.416;49996.805
535.576;39089.258;   -9.036;48882.852
536.162;39124.926;   -6.156;46942.285
536.747;39185.383;  -11.607;45711.746
537.333;40764.281;  -11.787;48510.180
537.918;41293.555;  -12.437;50439.891
538.503;37992.582;   -7.196;50863.711
539.088;34184.223;  -10.556;50906.922
539.673;36317.031;   -8.767;52621.965
540.259;40451.082;  -10.026;52368.094
540.844;41030.730;   -7.416;50879.109
541.429;43727.359;   -9.467;52077.777
542.014;46666.691;   -9.527;52716.695
542.599;45838.250;   -9.946;52363.281
543.184;43418.289;   -7.927;53187.137
543.769;44741.250;   -9.297;54697.605
544.354;44425.969;  -10.127;53913.914
544.938;43130.484;   -9.267;49680.164
545.523;44936.238;   -6.506;47386.277
546.108;47956.813;   -9.787;49151.949
546.693;49798.070;  -11.587;51384.637
547.278;49471.984;  -10.986;51853.254
547.862;46734.086;   -8.206;51173.750
548.447;42419.922;  -10.067;51691.395
549.031;41866.094;   -9.637;52456.703
549.616;46575.934;   -9.926;52714.516
550.201;46098.496;   -6.347;52414.598
550.785;47223.117;   -7.917;52355.059
551.370;46208.406;  -10.867;54589.453
551.954;45549.332;   -9.047;58267.348
552.538;46456.504;   -7.827;59062.176
553.123;44971.703;  -10.287;58115.285
553.707;42552.773;  -12.178;56556.285
554.291;44146.914;   -8.717;56201.668
554.876;46950.410;   -7.457;55335.762
555.460;47037.660;  -10.387;54155.703
556.044;47634.211;   -9.618;53721.484
556.628;46385.758;  -11.567;53731.016
557.212;45471.426;   -8.097;54312.531
557.796;43892.816;  -11.077;53797.773
558.380;44029.656;  -11.108;56145.984
558.964;44491.676;   -9.057;57277.930
559.548;45953.102;   -6.977;56459.641
560.132;44255.707;  -11.457;54434.543
560.716;42553.949;  -11.378;54800.617
561.300;43310.441;   -9.577;57606.945
561.884;44495.523;   -7.127;58972.445
562.467;42772.484;   -7.118;57327.570
563.051;42222.340;  -13.358;54962.434
563.635;43481.238;  -10.178;52594.473
564.219;43647.637;   -7.837;50610.410
564.802;44521.586;  -11.398;49551.180
565.386;44304.512;  -12.788;48370.953
565.969;43496.371;   -9.077;48178.871
566.553;42460.855;   -6.207;49957.305
567.136;43328.016;   -8.568;50369.594
567.720;40132.449;  -11.868;49492.004
568.303;38089.844;   -8.268;50616.352
568.887;38078.352;   -8.698;50727.148
569.470;38487.672;   -6.808;51698.379
570.053;37224.906;  -13.188;52122.078
570.637;35518.977;  -12.037;52536.438
571.220;35558.488;   -8.577;51186.098
571.803;36405.129;   -8.498;51032.762
572.386;38378.828;  -10.498;49609.887
572.969;40780.977;   -9.388;48285.926
573.552;39312.465;   -8.338;47624.285
574.135;37939.129;   -8.518;45498.641
574.718;35570.727;  -13.628;41970.434
575.301;34674.902;  -10.893;41447.137
575.884;33779.082;   -8.158;40923.836
576.467;34931.387;  -10.328;45267.723
577.050;36570.367;  -13.058;48175.543
577.633;37961.367;   -9.458;47729.328
578.216;37279.379;   -8.928;47579.793
578.799;36396.098;   -9.358;47820.996
579.381;35300.539;  -11.388;48115.551
579.964;33196.137;  -11.718;47333.766
580.547;34859.121;   -8.588;46668.969
581.129;36097.848;   -8.859;44466.141
581.712;37174.383;  -10.729;44164.922
582.294;37839.234;  -11.118;46477.855
582.877;37506.133;   -5.218;48244.254
583.459;35270.531;   -8.679;47437.895
584.042;33256.621;  -10.709;46943.219
584.624;33395.844;  -11.669;46792.227
585.206;33067.070;   -8.218;46557.250
585.789;32995.457;  -10.569;45793.773
586.371;35869.047;  -11.859;43836.391
586.953;36719.879;  -10.719;42972.492
587.536;38049.738;   -7.198;42487.211
588.118;38473.051;   -8.720;42086.414
588.700;34545.559;  -10.439;43389.930
589.282;33421.313;   -9.198;43646.039
589.864;34355.238;   -9.199;43438.109
590.446;35661.066;  -11.319;43151.926
591.028;35797.414;  -11.159;42781.867
591.610;34511.980;  -11.779;42839.098
592.192;31621.799;   -7.668;42820.402
592.774;30064.508;  -11.949;40724.277
593.356;28842.650;  -12.129;39874.789
593.937;27785.049;  -10.669;39980.648
594.519;29870.389;   -6.509;42069.633
595.101;32016.451;  -10.849;42976.031
595.683;32261.184;  -11.679;44084.441
596.264;33303.680;   -9.049;43478.797
596.846;32925.723;   -8.849;43803.672
597.427;32995.551;   -9.570;42986.934
598.009;34611.352;  -12.620;42832.219
598.591;35022.785;  -10.039;42580.086
599.172;34381.965;  -10.369;43061.805
599.753;34552.445;   -9.140;41691.469
600.335;36086.113;  -11.430;40692.520
600.916;34114.867;   -9.939;39982.422
601.498;31436.211;   -8.479;40318.617
602.079;29995.137;  -10.920;40670.609
602.660;29751.527;  -11.480;41450.898
603.241;31461.854;  -11.699;41137.738
603.823;30236.082;   -9.579;38868.797
604.404;29211.557;  -10.620;38182.785
604.985;30896.301;  -10.450;38078.047
605.566;31106.990;   -9.129;38056.633
606.147;31302.199;   -7.510;37020.418
606.728;32673.369;  -10.660;37883.359
607.309;31190.789;  -11.740;38748.273
607.890;30781.816;   -9.759;38850.230
608.471;30292.600;   -8.250;37457.918
609.051;29525.176;   -9.240;36066.457
609.632;28439.656;  -12.120;35991.074
610.213;29011.311;   -9.110;37402.641
610.794;29760.857;   -8.030;38383.363
611.374;29446.666;   -8.110;40562.387
611.955;30196.115;  -13.560;38533.727
612.536;31504.535;  -11.400;36951.789
613.116;31253.072;   -8.070;37197.891
613.697;31634.523;  -10.830;38411.125
614.277;29882.920;  -11.641;38673.938
614.858;30683.359;  -13.310;37075.863
615.438;29906.473;   -7.460;35092.906
616.019;27440.717;   -7.601;33666.301
616.599;27970.355;  -12.020;34189.023
617.179;29824.336;  -11.780;36952.047
617.760;30858.777;   -8.570;39582.574
618.340;31773.998;  -11.471;38943.977
618.920;32953.348;  -11.170;37594.156
619.500;32686.674;  -11.071;37866.938
620.080;31569.572;   -7.750;37869.043
620.660;32669.932;  -12.711;36868.617
621.241;34042.078;  -10.211;36352.309
621.821;34466.066;  -10.961;35459.520
622.401;33524.066;   -7.720;35207.414
622.980;32801.621;   -8.981;35980.422
623.560;31299.283;   -9.331;37351.328
624.140;29908.527;   -9.850;34388.582
624.720;24960.377;   -7.451;32368.764
625.300;21563.043;   -9.070;32638.629
625.880;24866.738;  -12.601;34599.035
626.459;28654.072;  -11.751;36831.738
627.039;31640.086;   -9.281;38299.098
627.619;31548.359;   -8.801;38289.574
628.198;30114.619;  -12.071;37220.695
628.778;29326.910;   -9.461;37632.563
629.357;29890.031;   -8.491;38003.012
629.937;29805.289;   -9.721;38402.039
630.516;29456.711;   -9.951;37868.801
631.096;29333.014;  -11.731;35760.410
631.675;31376.090;   -8.572;35225.219
632.254;36315.273;  -11.282;35130.289
632.834;35862.434;  -13.322;35794.570
633.413;34147.379;  -10.301;35788.922
633.992;31681.969;   -8.582;34532.863
634.571;32391.787;   -8.352;33590.113
635.151;35499.141;  -11.912;34943.863
635.730;33939.633;  -10.511;35352.523
636.309;30192.803;   -7.731;35366.605
636.888;27454.328;   -9.952;36165.637
637.467;27941.426;  -11.672;37515.902
638.046;29582.074;   -8.901;39288.695
638.625;32668.508;   -7.912;38279.699
639.204;32436.375;  -10.022;37741.598
639.782;31120.256;  -12.252;38364.551
640.361;27751.152;  -10.041;36740.621
640.940;25070.104;  -11.161;34950.082
641.519;25817.459;   -9.701;34137.398
642.097;28437.121;  -11.271;35654.258
642.676;30996.092;   -8.651;35637.957
643.255;31903.678;   -8.711;36567.074
643.833;31208.607;   -9.581;37809.434
644.412;31124.709;  -13.711;37337.293
644.990;29981.318;  -11.811;37018.531
645.569;29637.736;   -9.411;36518.469
646.147;28799.082;  -10.291;36186.430
646.726;29034.969;  -12.401;36267.688
647.304;30397.777;  -10.411;36647.625
647.882;31946.098;   -9.651;39286.742
648.461;33433.160;   -9.631;39157.703
649.039;31822.471;  -11.881;35412.883
649.617;31169.328;   -9.661;34744.918
650.195;30743.330;   -9.301;35403.098
650.773;29437.574;  -10.511;35053.797
651.352;26784.410;  -11.521;33756.816
651.930;24424.426;  -12.211;31868.773
652.508;23158.242;   -9.171;33121.551
653.086;27102.203;   -9.371;33564.793
653.663;30005.307;  -13.161;34054.668
654.241;28559.020;  -13.031;35693.309
654.819;30080.408;   -9.371;36422.906
655.397;30311.283;  -10.511;38213.484
655.975;29817.936;  -10.371;39507.625
656.553;29725.658;  -10.051;39498.223
657.130;28233.328;  -10.061;40395.480
657.708;27379.088;   -9.561;39242.020
658.286;27455.787;  -11.511;38920.020
658.863;28878.455;  -10.261;40202.898
659.441;31986.055;   -7.531;39677.938
660.018;31649.045;   -9.501;40413.355
660.596;30424.986;  -13.301;39931.414
661.173;32161.416;  -11.211;39604.531
661.750;32188.701;   -9.951;39700.070
662.328;30750.084;   -9.390;39292.809
662.905;30009.820;  -11.330;38235.648
663.482;26182.459;   -9.050;36212.305
664.060;24443.557;   -8.240;35944.945
664.637;27182.699;  -10.050;35170.785
665.214;28864.607;  -11.760;34197.523
665.791;30608.111;  -10.530;34549.520
666.368;29591.961;   -9.690;35118.578
666.945;29995.330;   -9.320;36019.418
667.522;31507.988;  -11.860;36048.438
668.099;31211.348;  -10.770;36243.914
668.676;29954.926;   -6.260;35958.875
669.253;28722.322;   -7.000;37384.730
669.830;29374.236;  -10.190;36779.629
670.407;29170.875;   -9.550;35231.289
670.984;28792.541;   -9.260;35544.270
671.560;29409.600;   -9.280;35466.867
672.137;28958.402;  -11.810;34280.863
672.714;29843.801;  -11.490;34632.863
673.290;30486.379;   -7.740;35135.422
673.867;30633.512;  -10.660;36114.480
674.443;30747.543;  -12.230;36152.859
675.020;28989.408;  -10.450;35327.238
675.596;29881.121;   -9.260;35795.176
676.173;30270.383;  -10.780;35430.355
676.749;29965.768;  -13.690;33549.516
677.326;29928.768;  -11.980;32210.012
677.902;29898.176;   -8.630;32068.871
678.478;29318.813;  -10.730;32583.891
679.054;28574.910;  -10.520;32088.928
679.631;28849.816;  -11.920;30978.848
680.207;30466.764;   -7.490;33160.887
680.783;32032.451;   -9.860;35570.363
681.359;31101.711;  -13.380;36125.184
681.935;30572.740;  -12.480;35240.922
682.511;30062.641;   -7.900;34429.961
683.087;30296.668;   -7.710;34463.680
683.663;29733.131;  -11.480;34648.898
684.239;28461.035;  -14.090;34546.457
684.815;28002.543;   -7.560;35586.375
685.390;28238.348;   -9.910;35821.895
685.966;28779.018;  -11.159;35085.871
686.542;31124.781;  -11.169;34198.230
687.118;33529.340;   -5.959;32847.707
687.693;33995.832;  -10.329;32794.027
688.269;33608.898;  -12.059;33072.367
688.844;31682.875;  -10.909;33141.664
689.420;29548.730;   -8.019;33965.742
689.995;27436.223;   -8.399;34655.523
690.571;25967.576;  -10.949;33576.742
691.146;26318.773;   -9.619;32657.219
691.722;26026.186;   -8.999;32526.979
692.297;25555.576;  -11.589;33014.617
692.872;27230.689;  -11.739;34012.254
693.448;27047.867;  -11.059;34237.434
694.023;26166.883;  -10.139;34142.672
694.598;28003.502;   -9.029;34132.031
695.173;28500.459;  -13.319;34205.250
695.748;27651.016;  -10.169;32882.488
696.323;27893.705;   -8.339;32864.906
696.898;28197.539;   -8.169;33170.004
697.473;28191.740;  -12.309;32432.984
698.048;27635.928;  -10.989;31649.303
698.623;27339.340;   -9.329;30778.141
699.198;29081.203;   -9.849;31140.119
699.773;30212.387;  -12.329;31764.299
700.348;28550.182;  -10.389;31780.816
700.922;28601.336;   -9.269;32046.375
701.497;29673.879;   -9.329;32603.574
702.072;30022.486;  -10.789;34799.871
702.646;28514.723;  -10.839;35793.172
703.221;26208.986;   -9.099;35201.590
703.795;28330.982;  -10.939;34764.527
704.370;28855.938;  -12.859;34307.367
704.944;29195.646;  -11.559;33509.887
705.519;29976.668;   -7.939;31388.584
706.093;31347.943;  -10.499;31340.104
706.668;31859.557;  -11.289;32630.281
707.242;30717.725;  -11.509;32728.779
707.816;29096.959;   -9.639;32947.238
708.390;27607.223;  -11.429;33277.855
708.965;27966.926;  -11.869;33834.336
709.539;27724.584;  -11.689;33709.273
710.113;28139.230;  -10.478;33044.313
710.687;27820.650;  -10.228;31953.992
711.261;26348.459;  -13.698;30505.949
711.835;26087.088;  -13.378;30262.369
712.409;26609.098;   -9.698;31254.447
712.983;28661.348;  -11.898;32754.986
713.557;29776.912;  -15.138;34018.824
714.131;29389.873;  -14.098;34579.625
714.704;28332.854;   -9.958;33890.262
715.278;26045.861;  -10.028;33531.102
715.852;24851.775;  -11.148;33601.660
716.425;25591.648;   -9.068;33515.117
716.999;26473.738;  -10.038;33185.555
717.573;27563.316;   -9.798;33905.996
718.146;28659.277;  -12.378;35199.293
718.720;28933.932;  -11.918;35060.551
719.293;28410.309;   -8.088;34973.230
719.867;31179.457;  -10.888;36394.449
720.440;31017.895;  -11.938;36663.008
721.013;29435.922;  -12.818;35102.426
721.587;27900.973;  -10.298;33985.266
722.160;26774.697;  -10.048;33524.965
722.733;25720.021;  -12.108;32987.043
723.306;25893.566;  -10.818;33066.301
723.880;28430.230;   -8.908;33399.500
724.453;30747.676;   -9.878;33468.297
725.026;29741.941;  -11.188;33816.637
725.599;26602.982;  -11.678;32797.996
726.172;26557.297;   -9.618;33187.434
726.745;27608.078;   -8.258;35136.613
727.318;28991.004;  -12.978;35751.730
727.891;29843.576;  -12.148;35890.430
728.463;29676.906;   -8.968;34822.090
729.036;28619.838;  -10.188;32895.086
729.609;29120.361;  -11.788;31823.225
730.182;26204.533;  -11.788;31445.283
730.754;23746.205;  -10.268;32373.223
731.327;23790.623;   -9.998;33676.820
731.900;23956.391;  -12.228;33417.000
732.472;25073.389;  -13.848;31978.498
733.045;27077.617;   -8.698;30368.777
733.617;27142.170;  -10.607;30574.215
734.190;26959.127;  -11.507;31280.975
734.762;24396.051;  -13.647;31674.412
735.334;22492.277;   -9.767;31247.291
735.907;22952.586;   -9.897;29876.211
736.479;23235.916;  -11.637;29808.488
737.051;23052.691;   -9.567;30233.547
737.623;23964.889;   -8.187;31469.086
738.195;24447.686;  -11.187;31784.225
738.768;26119.680;  -12.337;32120.523
739.340;26750.283;  -12.227;32094.342
739.912;25851.613;  -11.057;31312.680
740.484;24351.240;  -10.207;31946.238
741.056;23018.453;  -10.047;32984.059
741.628;24720.861;  -13.627;33897.715
742.199;26904.371;   -7.177;33213.016
742.771;25195.680;  -10.797;31369.113
743.343;22863.168;  -11.997;31865.473
743.915;21881.830;  -12.867;32388.631
744.487;21992.162;   -7.617;31079.568
745.058;22306.498;   -9.557;30570.107
745.630;22757.420;   -9.877;29970.127
746.201;23738.813;  -14.177;29186.766
746.773;24488.432;   -9.237;28805.723
747.344;24352.166;   -9.847;29591.223
747.916;22702.775;  -11.657;31412.201
748.487;22702.965;  -10.587;32194.898
749.059;23796.531;   -8.707;32533.719
749.630;24347.658;  -10.537;32158.518
750.201;23253.516;  -11.687;30855.395
750.773;21503.803;  -11.647;28622.555
751.344;21363.965;   -7.147;28405.732
751.915;22697.670;   -9.757;28461.551
752.486;23019.451;  -12.427;27842.850
753.057;20786.779;  -12.227;27845.008
753.628;19448.902;  -10.417;27728.107
754.199;20443.891;  -11.767;27381.086
754.770;21484.139;  -11.187;25882.203
755.341;21558.797;  -10.507;25886.184
755.912;21752.061;   -9.387;26050.861
756.483;21394.453;  -10.647;26798.779
757.054;19662.281;  -11.837;27048.238
757.625;18314.613;  -12.716;26294.838
758.195;17885.262;   -9.666;26142.076
758.766;17527.400;   -8.656;26392.234
759.337;18273.990;  -12.856;26334.594
759.907;19830.148;  -13.366;27579.652
760.478;20775.889;   -8.576;28352.770
761.048;20270.539;  -10.526;27325.088
761.619;19426.197;  -11.116;26460.428
762.189;19433.664;  -12.136;26029.826
762.760;20362.484;   -9.456;26430.145
763.330;21552.006;   -7.136;26670.902
763.900;21175.457;  -11.786;26603.021
764.471;18662.461;  -11.546;25542.740
765.041;17356.982;   -8.096;24358.459
765.611;17368.277;   -8.876;23991.297
766.181;17688.156;  -12.196;24470.236
766.751;18610.531;  -11.636;24845.975
767.321;18408.404;  -10.156;24533.633
767.891;16561.699;  -11.766;24916.492
768.461;15998.658;  -14.936;24776.771
769.031;16476.520;  -12.356;24757.988
769.601;18055.707;   -7.526;24181.088
770.171;17945.520;  -10.766;23670.387
770.741;17081.141;  -13.176;22960.045
771.311;17131.404;  -10.616;22917.523
771.880;17586.242;   -9.576;23562.941
772.450;17333.314;  -10.336;24216.500
773.020;17185.057;  -13.516;24140.398
773.589;16336.109;  -13.466;24414.857
774.159;15591.093;   -8.686;23858.717
774.729;15280.904;   -9.476;22942.135
775.298;14959.156;  -13.666;22324.033
775.867;14596.035;  -11.716;21140.313
776.437;14703.621;   -9.906;20838.092
777.006;14557.881;  -12.166;20599.510
777.576;14376.588;  -12.356;20508.809
778.145;14379.382;  -11.646;20732.947
778.714;14275.653;   -8.226;21062.465
779.283;13593.252;   -9.556;20949.664
779.853;13024.241;  -14.116;20508.623
780.422;13447.239;  -11.506;20649.082
780.991;13005.964;   -9.556;21527.520
781.560;11843.593;   -9.095;22632.658
782.129;11709.454;  -12.135;23048.277
782.698;11769.311;  -10.865;23438.555
783.267;11373.560;   -9.335;23267.734
783.836;11278.387;  -11.045;22415.133
784.404;12222.286;  -13.865;20443.152
784.973;12824.954;  -13.095;19699.150
785.542;12741.540;  -11.575;19763.828
786.111;12514.094;   -9.705;20341.408
786.679;12046.834;  -12.105;20207.967
787.248;11783.850;  -12.455;19516.465
787.817;11614.386;  -11.535;18900.363
788.385;11244.155;   -9.765;17879.121
788.954;10697.355;  -14.005;17658.301
789.522;10162.337;  -11.955;17788.879
790.090;10678.864;  -10.135;18118.277
790.659;11112.492;  -10.975;18338.736
791.227;10631.573;  -13.375;18508.615
791.795;11019.701;  -12.375;17898.254
792.364;11410.364;  -10.725;17295.133
792.932;11753.516;   -9.715;16822.051
793.500;11869.963;  -12.675;17040.148
794.068;11988.587;  -13.495;17179.787
794.636;12125.036;  -10.885;16664.246
795.204;11479.545;  -11.045;16524.545
795.772;11498.005;  -13.175;17274.564
796.340;11079.113;  -12.445;17891.002
796.908;10877.209;   -9.735;17648.561
797.476;10773.677;   -9.815;17064.080
798.044;10361.115;  -13.985;16672.777
798.612; 9551.392;  -13.115;17023.996
799.180; 9157.012;  -10.185;16561.615
799.747; 9098.304;   -9.055;15962.773
800.315; 8825.663;  -12.385;15296.992
800.883; 8535.096;  -15.035;14801.771
801.450; 8586.645;  -10.365;14534.430
802.018; 8647.093;   -9.855;14173.248
802.585; 8738.967;  -11.905;14029.547
803.153; 8729.646;  -11.585;13836.846
803.720; 8552.006;   -9.095;13567.324
804.287; 8150.203;   -9.135;13360.622
804.855; 7754.436;  -11.604;13681.981
805.422; 7604.206;  -11.794;13536.560
805.989; 7615.171;  -10.734;13355.958
806.556; 7734.924;  -10.444;13747.896
807.124; 7927.650;  -12.764;13987.376
807.691; 7899.698;  -12.964;14038.674
808.258; 7742.145;  -11.134;14120.152
808.825; 7491.505;   -9.854;13860.111
809.392; 7567.573;  -10.504;13268.790
809.959; 7069.622;  -13.054;12680.389
810.526; 6608.063;   -8.294;12427.308
811.093; 6653.509;   -8.394;12030.105
811.659; 7293.802;  -12.304;11653.664
812.226; 7802.419;  -13.944;11637.183
812.793; 7547.886;  -10.484;11611.521
813.360; 6984.766;  -10.144;11885.181
813.926; 6695.718;  -11.684;12770.539
814.493; 6475.455;  -13.644;12677.638
815.060; 6084.184;   -9.724;11974.336
815.626; 6049.408;   -9.854;11594.715
816.193; 6407.551;  -13.254;11579.474
816.759; 6424.612;  -13.204;11666.972
817.325; 6479.103;   -9.434;11325.530
817.892; 6828.736;  -10.134;11105.369
818.458; 7246.780;  -13.474;10843.928
819.024; 6938.369;  -11.854;10714.406
819.591; 6667.053;  -10.244;10469.165
820.157; 6460.598;  -10.704;10235.523
820.723; 5964.763;  -12.324;10847.563
821.289; 5664.608;   -9.444;11040.980
821.855; 5597.255;   -8.374;10357.100
822.421; 5630.988;  -10.234; 9978.918
822.987; 5691.284;  -13.294; 9754.177
823.553; 5389.535;  -10.884;10065.755
824.119; 5193.149;   -8.884;10036.294
824.685; 5313.410;   -6.784;10029.192
825.251; 5436.046;  -12.004;10199.230
825.816; 5406.713;  -11.474; 9820.189
826.382; 5166.486;   -9.174; 9297.248
826.948; 5334.756;   -9.214; 9381.347
827.513; 5743.452;  -10.774; 9450.726
828.079; 5621.528;  -11.924; 9472.444
828.645; 5056.692;  -10.543; 9292.643
829.210; 4926.586;  -10.533; 9065.341
829.776; 4922.691;  -10.753; 9132.620
830.341; 4839.722;  -10.173; 9092.878
830.906; 5062.347;  -10.743; 9078.557
831.472; 5463.570;  -11.113; 8534.535
832.037; 5269.041;  -10.603; 8677.874
832.602; 4742.974;  -13.323; 8628.692
833.167; 4484.373;  -10.823; 8879.031
833.733; 4429.102;  -10.113; 9189.790
834.298; 4594.752;  -13.583; 9052.608
834.863; 4713.486;  -12.703; 8895.087
835.428; 4717.551;  -10.523; 8824.266
835.993; 4564.001;   -6.963; 8845.385
836.558; 4373.739;  -10.763; 8888.563
837.123; 4490.865;   -9.903; 8966.582
837.688; 4750.353;   -9.913; 8617.860
838.253; 5046.643;  -10.283; 8590.699
838.817; 5284.896;  -12.963; 8443.797
839.382; 5210.245;  -14.243; 8799.356
839.947; 4898.593;  -10.733; 8810.595
840.511; 4601.326;   -9.383; 8796.394
841.076; 4205.287;  -12.563; 8347.231
841.641; 4256.778;  -12.953; 8224.330
842.205; 4369.716;   -7.043; 8223.349
842.770; 4459.832;   -8.163; 8622.107
843.334; 4618.029;  -12.503; 8410.386
843.898; 4536.503;  -11.693; 8337.465
844.463; 4534.176;  -10.203; 8506.283
845.027; 4304.418;   -9.533; 8280.962
845.591; 4107.694;  -13.443; 8231.141
846.156; 4114.165;  -13.143; 7969.179
846.720; 4019.411;   -9.433; 7768.278
847.284; 3898.487;  -11.033; 7630.957
847.848; 3764.573;  -10.403; 7472.395
848.412; 3679.793;  -11.553; 7437.394
848.976; 3733.890;   -8.393; 7674.592
849.540; 3634.389;   -8.713; 7836.011
850.104; 3727.517;  -12.463; 7913.669
850.668; 4100.572;  -12.973; 7694.508
851.232; 4211.029;  -10.793; 7756.887
851.796; 4039.528;  -10.662; 7926.545
852.359; 3728.056;  -13.082; 7827.844
852.923; 3528.735;  -12.192; 7641.163
853.487; 3321.756;  -11.912; 7342.501
854.050; 3274.986;  -10.892; 7042.820
854.614; 3428.578;  -13.992; 7151.338
855.177; 3555.712;  -11.732; 7105.077
855.741; 3569.347;   -8.962; 6989.675
856.304; 3414.872;   -9.442; 6596.634
856.868; 3359.969;  -14.192; 6356.272
857.431; 3437.734;  -12.702; 6468.571
857.995; 3526.942;   -9.942; 6373.210
858.558; 3516.558;   -9.112; 6324.448
859.121; 3229.069;  -12.932; 6408.327
859.684; 3086.982;  -13.442; 6347.886
860.247; 3197.932;  -10.632; 6321.264
860.810; 3207.477;  -11.272; 6301.903
861.374; 2950.595;   -9.832; 6607.881
861.937; 2680.082;  -11.762; 6408.200
862.500; 2659.656;   -9.722; 6572.639
863.062; 2829.496;  -10.512; 6387.297
863.625; 3002.893;  -11.232; 6190.836
864.188; 3155.316;  -14.112; 5807.254
864.751; 3209.471;  -11.302; 5682.413
865.314; 3091.790;  -10.112; 5547.492
865.876; 2861.828;  -12.182; 5500.150
866.439; 2828.424;  -10.722; 5415.909
867.002; 2779.278;   -9.252; 5501.567
867.564; 2590.193;   -9.572; 5413.946
868.127; 2389.186;  -13.142; 5160.325
868.689; 2289.949;  -12.902; 5133.183
869.252; 2192.935;   -9.732; 5252.382
869.814; 2096.181;   -9.432; 5297.141
870.377; 2093.210;  -11.552; 5390.919
870.939; 2147.986;   -9.052; 5599.898
871.501; 2211.670;  -10.982; 5248.336
872.063; 2215.289;  -12.292; 4854.235
872.626; 2170.200;  -14.912; 4817.074
873.188; 2195.180;  -13.112; 4987.732
873.750; 2167.367;  -13.442; 4868.651
874.312; 2067.814;   -9.402; 4779.330
874.874; 1988.470;  -11.062; 4866.348
875.436; 1908.734;  -13.931; 4718.887
875.998; 1910.143;   -9.561; 4660.005
876.560; 1949.742;  -11.321; 4462.964
877.122; 1900.483;  -12.221; 4145.042
877.683; 1804.888;  -12.191; 4056.481
878.245; 1730.275;  -12.101; 3950.740
878.807; 1768.230;   -8.971; 4058.958
879.369; 1798.329;  -12.071; 3954.677
879.930; 1731.986;  -14.621; 3941.495
880.492; 1740.364;  -10.311; 4067.014
881.053; 1824.665;  -10.901; 3859.633
881.615; 1792.921;  -14.411; 3776.071
882.176; 1623.932;  -13.761; 3734.750
882.738; 1353.114;   -9.181; 3678.489
883.299; 1054.957;  -11.791; 3405.407
883.860;  839.479;  -13.121; 3351.106
884.422;  754.425;  -11.211; 3394.044
884.983;  757.504;  -10.091; 3166.443
885.544;  780.073;   -8.461; 3189.802
886.105;  785.531;  -12.361; 3160.360
886.666;  786.639;  -14.141; 3093.059
887.227;  785.064;  -11.361; 2941.957
887.788;  765.831;  -11.401; 2974.836
888.349;  739.389;  -13.791; 2721.214
888.910;  754.223;  -13.191; 2696.493
889.471;  772.830;   -9.881; 2560.172
890.032;  768.652;   -9.881; 2558.190
890.593;  755.032;  -10.371; 2567.669
891.153;  737.517;  -13.301; 2460.307
891.714;  699.033;  -11.431; 2372.046
892.275;  669.303;  -11.291; 2309.505
892.835;  639.099;  -11.471; 2382.543
893.396;  596.361;  -11.541; 2295.502
893.956;  546.698;  -11.181; 2162.420
894.517;  510.982;  -11.741; 2125.439
895.077;  505.809;  -11.671; 2086.978
895.638;  506.742;  -11.311; 2126.316
896.198;  480.731;   -9.831; 1838.275
896.758;  438.366;   -8.421; 1892.813
897.319;  410.258;  -12.351; 1792.232
897.879;  396.062;  -13.511; 1762.751
898.439;  370.628;  -12.001; 1661.149
898.999;  347.785;  -10.180; 1781.468
899.559;  339.594;  -12.030; 1703.347
900.119;  337.437;  -15.710; 1537.525
900.679;  333.955;   -8.900; 1638.384
901.239;  318.562;   -8.340; 1527.902
901.799;  308.122;  -13.910; 1456.441
902.359;  301.309;  -13.460; 1357.140
902.919;  295.887;  -11.490; 1331.118
903.479;  283.404;  -12.110; 1317.257
904.038;  261.736;  -11.720; 1262.595
904.598;  246.694;  -13.610; 1152.034
905.158;  243.186;  -11.040; 1240.893
905.717;  235.900;  -10.900; 1233.691
906.277;  225.781;  -15.080; 1217.330
906.836;  215.867;  -13.380; 1222.408
907.396;  207.574;  -10.780; 1193.047
907.955;  199.589;   -8.500; 1182.526
908.515;  193.564;  -12.760; 1099.364
909.074;  187.345;  -11.900; 1092.863
909.633;  180.586;   -8.950; 1069.121
910.192;  174.561;   -8.770; 1196.460
910.752;  168.075;  -12.390; 1029.960
911.311;  161.312;  -13.680; 1009.780
911.870;  159.245;  -12.370;  971.460
912.429;  160.416;  -10.900; 1094.080
912.988;  160.895;  -11.690; 1081.060
913.547;  156.675;  -13.240;  940.380
914.106;  152.428;  -11.990;  999.420
914.665;  149.772;   -9.990;  984.020
915.224;  148.967;  -12.880; 1035.760
915.782;  149.990;  -12.350;  922.560
916.341;  149.658;   -9.110; 1049.840
916.900;  145.722;   -9.270;  925.260
917.458;  143.795;  -13.240;  884.220
918.017;  143.197;  -13.550;  942.600
918.576;  142.836;  -12.320;  904.440
919.134;  140.912;  -11.490;  837.980
919.693;  139.313;  -13.670;  893.060
920.251;  137.234;  -15.470;  876.500
920.809;  136.723;  -11.290;  839.580
921.368;  136.711;  -10.210;  885.360
921.926;  135.422;  -12.140;  842.940
922.484;  134.150;  -13.080;  903.360
923.042;  134.285;  -11.720;  880.340
923.601;  136.467;   -7.480;  998.680
924.159;  134.599;  -11.570;  935.560
924.717;  131.610;  -13.840;  841.080
925.275;  131.098;  -10.640;  903.240
925.833;  131.897;  -11.540;  779.320
926.391;  132.275;  -12.960;  938.380
926.949;  130.560;  -14.130;  857.680
927.506;  131.863;  -11.750;  903.500
928.064;  130.721;  -10.250;  877.580
928.622;  130.075;  -13.030;  880.100
929.180;  129.888;  -13.400;  814.180
929.737;  131.550;  -10.700;  808.540
930.295;  134.564;  -10.070;  928.480
930.853;  135.731;  -11.960;  849.100
931.410;  136.026;  -13.120;  821.120
931.968;  136.333;  -10.770;  940.660
932.525;  135.731;  -10.680;  909.380
933.082;  136.118;  -13.130;  811.440
933.640;  137.209;  -13.210;  925.900
934.197;  134.625;  -11.060;  886.360
934.754;  135.766;   -9.580;  897.780
935.312;  138.177;  -14.000;  863.340
935.869;  141.930;  -10.710; 1012.980
936.426;  143.740;   -9.860;  872.800
936.983;  144.806;   -9.710;  889.020
937.540;  143.344;  -13.990;  838.280
938.097;  142.429;  -14.040;  940.120
938.654;  142.262;  -10.310;  898.860
939.211;  146.129;  -10.560;  952.480
939.768;  148.975;  -13.900;  915.420
940.324;  152.195;  -14.760;  904.200
940.881;  153.180;  -10.370;  878.500
941.438;  153.290;   -8.260; 1021.200
941.995;  150.088;  -12.540;  992.560
942.551;  147.478;  -14.670;  875.620
943.108;  148.376;  -10.450;  937.920
943.664;  150.139;  -10.750;  869.340
944.221;  153.200;  -11.550; 1088.140
944.777;  150.563;  -14.770;  869.680
945.334;  150.819;  -12.820;  884.840
945.890;  152.679;  -10.130;  946.480
946.446;  152.767;  -13.470;  947.020
947.003;  155.053;  -12.120;  964.940
947.559;  157.159;   -9.980; 1063.040
948.115;  156.448;   -9.080; 1026.540
948.671;  154.821;  -10.830;  967.300
949.227;  151.510;  -12.440;  859.560
949.783;  149.693;  -12.910;  858.900
950.339;  150.634;  -10.270;  991.000
950.895;  150.747;  -13.630; 1023.840
951.451;  150.270;  -15.100;  925.280
952.007;  150.229;  -11.330;  998.540
952.563;  150.982;  -10.580;  937.780
953.118;  149.912;  -13.440;  904.940
953.674;  148.586;  -12.710;  935.780
954.230;  150.302;  -10.350;  949.640
954.785;  146.731;   -9.190;  936.640
955.341;  144.477;  -11.200;  998.160
955.897;  142.152;  -16.560;  834.660
956.452;  144.249;  -12.570;  953.840
957.008;  142.966;   -7.970; 1083.640
957.563;  140.499;  -11.940; 1009.540
958.118;  135.846;  -13.450;  877.700
958.674;  135.791;  -12.030;  946.780
959.229;  136.841;   -9.410; 1013.980
959.784;  135.059;  -12.000;  832.400
960.339;  134.280;  -14.780; 1001.280
960.894;  130.871;   -9.860;  963.760
961.449;  127.468;   -9.970;  859.960
962.004;  127.444;  -10.900; 1212.840
962.559;  122.218;  -13.150;  860.140
963.114;  119.490;  -13.740;  742.480
963.669;  119.516;   -9.820;  915.500
964.224;  118.402;  -13.890;  874.340
964.779;  117.444;  -12.600;  828.420
965.334;  118.197;  -10.950; 1017.860
965.888;  117.450;  -11.170;  875.360
966.443;  119.771;  -12.540;  972.380
966.998;  119.582;  -15.780;  819.460
967.552;  119.060;   -9.760;  908.380
968.107;  115.487;   -9.060;  868.300
968.661;  116.087;  -11.950;  922.440
969.216;  116.498;  -12.800;  856.280
969.770;  116.410;  -11.210;  917.200
970.324;  115.142;  -11.610;  923.140
970.879;  111.390;  -11.370;  947.180
971.433;  109.585;  -12.540;  952.720
971.987;  104.498;  -11.320;  895.340
972.541;  102.388;  -10.720;  917.100
973.095;  102.231;   -9.680; 1009.460
973.649;  100.144;  -11.440;  809.480
974.203;   98.783;  -11.210;  829.040
974.757;   99.200;  -10.240;  855.220
975.311;   98.839;  -13.720;  872.600
975.865;   98.263;  -13.770;  881.820
976.419;   97.597;  -11.690;  857.400
976.973;   97.151;   -9.510;  849.620
977.526;   98.434;  -12.620;  949.920
978.080;   97.115;  -12.010;  796.780
978.634;   99.152;  -10.170;  921.320
979.187;   96.422;   -9.020;  905.400
979.741;   94.019;   -9.820; 1018.380
980.294;   89.391;  -14.870;  789.160
980.848;   86.826;  -12.380;  717.220
981.401;   89.459;  -10.350;  816.540
981.955;   91.608;  -13.720;  844.300
982.508;   90.052;  -11.490;  746.340
983.061;   90.737;  -10.000;  915.260
983.615;   87.054;  -11.480;  798.800
984.168;   83.307;  -13.220;  770.080
984.721;   82.971;  -13.960;  880.760
985.274;   81.297;  -10.870;  867.500
985.827;   81.211;   -9.790;  834.220
986.380;   78.816;  -13.120;  721.340
986.933;   78.106;  -12.450;  864.800
987.486;   76.620;  -10.210;  861.920
988.039;   75.561;   -8.430;  863.100
988.591;   74.352;  -10.520;  893.260
989.144;   70.929;  -14.860;  737.260
989.697;   70.720;  -13.080;  758.740
990.250;   70.995;  -10.150;  858.100
990.802;   69.724;  -13.430;  755.860
991.355;   70.477;  -12.750;  974.880
991.907;   68.007;  -12.040;  864.320
992.460;   65.538;  -11.330;  753.760
993.012;   65.855;  -13.610;  749.540
993.565;   64.415;  -13.460;  711.360
994.117;   66.058;   -9.360;  950.780
994.669;   62.227;  -11.300;  701.320
995.221;   60.633;  -13.540;  791.920
995.774;   59.359;  -13.430;  787.580
996.326;   57.720;  -12.520;  740.220
996.878;   57.409;  -10.950;  838.420
997.430;   54.722;  -14.300;  699.860
997.982;   54.669;  -13.760;  750.140
998.534;   54.168;  -11.530;  739.060
999.086;   53.412;  -10.310;  738.220
999.638;   52.060;  -12.530;  661.380
1000.190;   50.960;  -11.840;  699.320
1000.741;   50.733;  -10.260;  742.700
1001.293;   50.858;   -8.860;  686.020
1001.845;   49.268;  -13.700;  676.640
1002.396;   47.980;  -12.100;  743.400
1002.948;   48.368;  -12.760;  737.400
1003.500;   46.942;  -10.380;  723.780
1004.051;   47.699;  -11.900;  907.580
1004.603;   45.373;  -12.250;  791.820
1005.154;   42.137;  -13.210;  608.980
1005.705;   41.537;  -10.950;  723.960
1006.257;   40.697;  -13.880;  707.220
1006.808;   40.541;  -12.840;  685.460
1007.359;   39.773;  -10.570;  763.240
1007.910;   39.118;   -9.620;  646.640
1008.461;   39.166;  -13.630;  732.940
1009.013;   37.147;  -17.200;  588.340
1009.564;   38.204;  -10.200;  793.520
1010.115;   37.448;  -12.570;  597.040
1010.665;   35.974;  -15.150;  602.160
1011.216;   36.603;  -14.480;  667.920
1011.767;   35.972;  -11.340;  697.920
1012.318;   36.123;   -9.780;  736.980
1012.869;   34.984;  -12.380;  679.000
1013.419;   34.089;  -15.560;  603.120
1013.970;   35.611;  -11.010;  666.640
1014.521;   33.892;  -11.610;  620.620
1015.071;   34.283;  -13.450;  670.380
1015.622;   33.741;  -13.870;  635.460
1016.172;   32.928;  -11.610;  596.820
1016.723;   33.372;  -12.120;  614.380
1017.273;   32.594;  -13.620;  604.160
1017.823;   32.325;  -14.140;  650.340
1018.374;   32.131;  -12.800;  611.760
1018.924;   32.437;  -12.340;  716.880
1019.474;   33.155;  -11.410;  718.880
1020.024;   31.254;  -14.770;  657.580
1020.574;   32.334;   -9.780;  726.160
1021.124;   32.137;   -8.560;  673.580
1021.674;   30.295;  -15.190;  559.120
1022.224;   31.427;  -13.530;  708.940
1022.774;   30.902;  -13.280;  668.820
1023.324;   31.094;  -10.690;  753.520
1023.874;   32.925;  -10.240;  875.760
1024.423;   29.434;  -12.540;  613.700
1024.973;   30.496;  -10.010;  610.760
1025.523;   29.012;  -10.550;  620.960
1026.072;   28.823;  -13.560;  606.420
1026.622;   29.191;  -15.120;  675.740
1027.172;   29.263;  -11.260;  715.660
1027.721;   28.525;  -11.410;  601.220
1028.270;   28.477;  -13.530;  663.400
1028.820;   28.620;  -13.680;  638.080
1029.369;   27.958;  -13.520;  612.700
1029.918;   28.274;  -10.980;  649.840
1030.468;   27.022;  -13.530;  564.780
1031.017;   27.638;  -13.170;  634.800
1031.566;   27.191;  -12.200;  608.900
1032.115;   27.084;   -9.960;  694.500
1032.664;   26.220;  -13.210;  596.480
1033.213;   26.943;  -12.500;  735.420
1033.762;   26.518;  -11.910;  635.620
1034.311;   26.774;   -9.640;  677.220
1034.860;   26.882;  -13.310;  691.000
1035.408;   26.638;  -11.830;  722.720
1035.957;   27.335;  -12.000;  719.540
1036.506;   24.387;  -11.690;  530.800
1037.055;   27.349;  -10.990;  844.320
1037.603;   25.122;  -15.120;  664.000
1038.152;   24.010;  -12.450;  534.760
1038.700;   24.562;  -10.560;  585.740
1039.249;   24.490;  -11.080;  681.220
1039.797;   24.649;  -12.540;  633.360
1040.345;   25.011;  -11.920;  705.420
1040.894;   23.688;  -11.410;  625.300
1041.442;   24.262;  -14.320;  632.200
1041.990;   23.294;  -16.240;  559.160
1042.538;   23.429;  -11.680;  536.180
1043.087;   22.507;  -10.760;  570.860
1043.635;   23.876;  -11.850;  670.500
1044.183;   22.855;  -15.480;  586.400
1044.731;   22.877;  -11.770;  576.000
1045.279;   23.081;  -13.090;  674.920
1045.827;   24.645;  -12.440;  892.400
1046.374;   22.015;  -13.840;  515.420
1046.922;   21.576;  -13.220;  590.580
1047.470;   22.951;  -10.230;  691.300
1048.018;   22.020;  -14.590;  647.960
1048.565;   22.634;  -12.050;  708.600
1049.113;   21.248;  -11.650;  557.000
1049.660;   21.494;  -10.510;  629.660
1050.208;   21.680;  -13.310;  675.640
1050.755;   19.976;  -15.900;  606.580
1051.303;   21.531;  -11.430;  686.820
1051.850;   21.024;   -8.480;  635.120
1052.397;   19.370;  -15.010;  473.960
1052.945;   19.067;  -13.960;  617.760
1053.492;   21.262;  -13.150;  741.840
1054.039;   21.318;   -9.630;  720.180
1054.586;   20.256;  -13.680;  557.240
1055.133;   20.276;  -14.570;  693.140
1055.680;   20.359;  -13.820;  646.620
1056.227;   19.085;  -11.730;  542.780
1056.774;   21.081;  -12.480;  794.980
1057.321;   18.506;  -13.930;  523.260
1057.868;   19.029;  -11.690;  651.320
1058.415;   19.145;   -9.520;  651.980
1058.961;   19.234;  -13.160;  678.940
1059.508;   18.751;  -12.920;  643.820
1060.055;   18.888;  -11.920;  581.780
1060.601;   19.527;  -11.500;  624.300
1061.148;   18.536;  -14.330;  616.820
1061.694;   17.593;  -16.870;  592.580
1062.241;   19.003;  -10.330;  596.320
1062.787;   18.659;  -10.620;  663.140
1063.334;   19.848;  -10.110;  808.560
1063.880;   17.765;  -13.400;  668.360
1064.426;   18.697;  -10.680;  706.820
1064.972;   17.325;   -9.920;  601.340
1065.518;   16.093;  -10.980;  566.640
1066.065;   17.107;  -14.890;  624.460
1066.611;   17.000;  -12.870;  598.800
1067.157;   18.837;  -12.950;  641.860
1067.703;   17.524;  -13.540;  668.480
1068.249;   16.634;  -13.540;  605.220
1068.794;   16.562;  -12.600;  626.880
1069.340;   16.050;  -10.620;  578.960
1069.886;   16.261;  -12.830;  590.700
1070.432;   15.163;  -14.870;  541.720
1070.977;   16.151;  -11.980;  601.080
1071.523;   16.075;   -8.200;  573.060
1072.068;   15.814;  -12.330;  582.000
1072.614;   15.490;  -16.370;  527.760
1073.160;   16.328;  -11.100;  687.040
1073.705;   14.490;  -10.480;  572.520
1074.250;   15.285;  -14.520;  559.900
1074.796;   16.110;  -11.460;  655.160
1075.341;   16.210;  -11.950;  664.100
1075.886;   15.419;  -11.460;  594.240
1076.431;   14.699;  -13.770;  649.880
1076.976;   15.168;  -12.680;  639.220
1077.521;   14.269;  -13.170;  583.080
1078.067;   13.969;  -10.860;  579.400
1078.612;   14.658;  -13.920;  661.620
1079.156;   14.641;  -13.880;  601.540
1079.701;   14.992;  -13.120;  693.260
1080.246;   14.827;   -9.940;  696.300
1080.791;   13.488;  -14.740;  625.020
1081.336;   13.745;  -13.750;  659.320
1081.880;   13.990;  -13.400;  649.680
1082.425;   13.402;  -12.220;  573.480
1082.970;   14.452;  -11.610;  717.040
1083.514;   13.983;  -13.580;  597.000
1084.059;   12.504;  -12.810;  586.720
1084.603;   12.906;  -12.320;  565.840
1085.147;   12.864;  -13.190;  645.220
1085.692;   13.127;  -12.480;  716.800
1086.236;   12.556;  -13.020;  503.140
1086.780;   14.347;   -9.190;  751.440
1087.325;   12.655;  -12.480;  654.620
1087.869;   12.467;  -12.450;  610.700
1088.413;   13.288;  -12.240;  705.040
1088.957;   10.731;   -9.020;  543.400
1089.501;   13.237;  -10.320;  766.640
1090.045;   12.515;  -12.720;  726.480
1090.589;   11.131;  -13.690;  569.920
1091.133;   11.699;  -10.020;  673.340
1091.676;   12.040;  -12.330;  591.940
1092.220;   11.176;  -14.970;  600.920
1092.764;   12.442;  -12.430;  706.960
1093.307;   11.840;   -9.800;  673.780
1093.851;    9.964;  -14.970;  556.540
1094.395;   11.227;  -15.310;  683.140
1094.938;   10.234;  -10.370;  632.520
1095.482;   11.320;  -11.050;  559.800
1096.025;   11.461;  -11.840;  710.880
1096.568;   11.919;  -12.840;  779.280
1097.112;    9.320;  -14.700;  508.180
1097.655;   10.672;   -8.720;  603.000
1098.198;    9.575;  -13.610;  600.180
1098.741;    9.718;  -13.350;  612.860
1099.285;   10.373;  -11.230;  657.300
1099.828;    9.460;  -11.840;  439.400
1100.371;    9.574;  -10.840;  608.160
1100.914;    9.807;  -14.190;  682.660
1101.457;    9.371;  -11.240;  679.900
1101.999;    8.882;  -11.270;  584.680
1102.542;    9.623;  -11.480;  641.440
1103.085;    9.231;  -11.750;  658.500
1103.628;    9.872;  -11.400;  762.060
1104.170;    9.496;  -10.490;  588.280
1104.713;    9.186;  -10.600;  646.700
1105.256;    8.623;  -14.360;  557.440
1105.798;    7.457;  -13.210;  499.980
1106.341;    9.638;  -10.270;  728.900
1106.883;    8.645;  -12.200;  521.340
1107.425;    8.237;  -13.110;  668.180
1107.968;    7.879;  -12.840;  612.380
1108.510;    9.092;   -6.480;  684.960
1109.052;    7.013;  -13.940;  612.620
1109.594;    7.228;  -13.690;  554.440
1110.136;    8.459;  -11.880;  643.220
1110.679;    6.845;   -9.500;  633.080
1111.221;    8.468;  -14.160;  604.460
1111.763;    7.206;  -13.980;  559.220
1112.304;    7.265;  -13.880;  547.140
1112.846;    7.443;  -12.210;  666.240
1113.388;    9.948;  -11.390;  942.180
1113.930;    7.359;  -14.540;  694.200
1114.472;    7.281;  -12.640;  606.540
1115.013;    5.813;  -11.620;  551.280
1115.555;    5.943;  -13.640;  587.100
1116.097;    4.944;  -15.380;  579.480
1116.638;    6.766;  -12.640;  684.600
1117.180;    7.114;   -9.850;  667.740
1117.721;    6.444;  -13.690;  568.580
1118.262;    7.457;  -12.680;  677.960
1118.804;    7.101;  -12.530;  637.340
1119.345;    5.865;  -11.690;  578.400
1119.886;    6.448;  -13.380;  704.040
1120.427;    5.276;  -14.070;  589.020
1120.969;    5.353;  -13.500;  597.920
1121.510;    5.394;  -11.480;  563.060
1122.051;    6.100;  -12.830;  723.580
1122.592;    5.063;  -14.290;  655.420
1123.133;    3.957;  -12.400;  547.940
1123.673;    6.370;  -10.130;  706.480
1124.214;    4.853;  -12.930;  612.460
1124.755;    5.356;  -14.380;  639.460
1125.296;    5.723;  -14.000;  627.320
1125.836;    6.003;  -10.070;  691.500
1126.377;    5.127;  -12.640;  599.660
1126.918;    4.618;  -12.960;  614.980
1127.458;    4.033;  -13.350;  622.220
1127.999;    4.994;  -10.750;  656.980
1128.539;    4.676;  -12.350;  694.240
1129.079;    4.608;  -14.860;  632.720
1129.620;    3.437;  -13.840;  558.100
1130.160;    4.390;  -12.330;  539.480
1130.700;    4.616;  -14.530;  640.840
1131.240;    4.886;  -12.530;  643.700
1131.781;    3.990;  -14.450;  619.680
1132.321;    3.786;   -9.790;  599.120
1132.861;    2.633;  -14.860;  564.200
1133.401;    2.587;  -14.290;  593.940
1133.941;    3.787;  -11.750;  626.280
1134.481;    3.117;   -9.920;  597.580
1135.020;    2.978;  -12.290;  609.160
1135.560;    3.567;  -11.650;  674.940
1136.100;    3.593;  -16.270;  501.160
1136.640;    2.988;  -10.890;  510.480
1137.179;    2.518;  -14.180;  537.960
1137.719;    2.557;  -16.250;  605.400
1138.258;    3.044;  -14.230;  587.360
1138.798;    2.542;   -9.090;  663.780
1139.337;    1.501;  -15.130;  482.840
1139.877;    3.080;  -13.680;  642.360
1140.416;    5.185;  -11.320;  878.060
1140.955;    1.812;  -10.860;  535.380
1141.494;    2.128;  -12.920;  669.280
1142.034;    2.103;  -13.930;  583.520
1142.573;    3.119;  -11.440;  646.280
1143.112;    2.018;  -12.000;  553.480
1143.651;    2.319;  -13.670;  536.480
1144.190;    2.523;  -12.730;  691.640
1144.729;    2.302;  -14.560;  607.420
1145.267;    1.952;  -11.830;  584.900
1145.806;    2.940;  -12.230;  637.040
1146.345;    1.223;  -14.130;  635.020
1146.884;    1.714;  -11.590;  622.500
1147.422;    1.447;  -12.550;  533.060
1147.961;    2.857;  -11.180;  708.460
1148.500;    2.203;  -11.510;  669.720
1149.038;    2.686;  -11.640;  632.500
1149.577;    2.757;  -10.130;  698.640
1150.115;   -0.615;  -13.970;  452.280
1150.653;    1.447;  -14.520;  607.340
1151.192;    0.995;  -12.810;  552.920
1151.730;    0.877;   -9.100;  652.560
1152.268;    0.418;  -12.220;  589.520
1152.806;    0.708;  -14.140;  571.180
1153.344;   -0.447;  -12.350;  577.640
1153.882;    0.461;   -8.980;  600.060
1154.421;   -0.630;  -15.190;  470.620
1154.958;    0.285;  -15.210;  595.240
1155.496;    1.475;  -12.850;  645.280
1156.034;    0.593;   -9.940;  721.880
1156.572;    1.455;  -13.570;  667.060
1157.110;   -0.922;  -14.590;  473.940
1157.647;    0.458;  -13.030;  676.960
1158.185;   -0.728;  -12.140;  564.320
1158.723;   -1.355;  -14.390;  509.200
1159.260;    0.182;  -14.090;  701.700
1159.798;    0.273;  -11.920;  658.160
1160.335;   -0.332;  -11.110;  631.820

