
Integration time [ms]:   3.276
Averaging Nr. [scans]: 1000
Smoothing Nr. [pixels]: 0
Data measured with spectrometer [name]: 7414430SP
Wave   ;Sample   ;Dark     ;Reference
[nm]   ;[counts] ;[counts] ;[counts] 

288.544;  149.319;    7.793;  793.890
289.143;  153.124;    7.462;  681.602
289.742;  152.943;    8.602;  828.814
290.341;  138.721;    1.321;  789.841
290.940;  127.563;   -0.709;  730.702
291.538;  129.508;    0.881;  881.108
292.137;  129.127;    0.122;  792.581
292.736;  133.051;   -1.929;  975.101
293.335;  130.153;   -8.229;  735.086
293.934;  130.329;   -5.279;  781.677
294.532;  127.816;   -1.369; 1031.958
295.131;  113.490;   -7.641;  834.394
295.730;  115.013;   -8.420;  809.588
296.328;  114.344;   -5.611;  783.442
296.927;  114.504;   -5.781;  779.652
297.525;  115.451;   -6.361;  781.236
298.124;  106.000;  -11.382;  654.009
298.722;  109.767;   -7.641;  761.933
299.321;  107.917;   -6.811;  708.597
299.919;  105.455;   -6.991;  751.918
300.518;  102.941;  -10.362;  689.338
301.116;  104.820;   -9.581;  691.381
301.715;  103.876;   -4.891;  730.222
302.313;  102.898;   -8.801;  704.943
302.911;   99.787;   -8.522;  733.830
303.509;  104.989;   -6.171;  925.627
304.108;  101.305;   -7.311;  760.383
304.706;  100.912;   -8.321;  801.664
305.304;   95.801;  -10.222;  796.707
305.902;  101.188;   -6.021;  784.484
306.500;   96.489;   -4.971;  728.200
307.098;   95.452;   -7.061;  746.560
307.696;   93.185;   -8.801;  780.432
308.294;   93.907;   -6.411;  731.359
308.892;   95.524;   -2.901;  759.769
309.490;   92.059;   -5.041;  712.161
310.088;   90.806;   -5.002;  788.444
310.686;   94.321;   -2.041;  821.749
311.284;   90.801;   -2.351;  766.040
311.882;   87.395;   -4.422;  731.225
312.480;   84.904;   -4.192;  697.167
313.078;   86.746;   -1.172;  808.331
313.675;   86.569;   -2.601;  691.600
314.273;   81.768;   -1.312;  797.837
314.871;   82.182;   -3.942;  589.829
315.468;   79.645;   -2.802;  652.090
316.066;   82.399;   -0.701;  694.427
316.664;   75.855;   -4.362;  656.351
317.261;   79.282;   -2.872;  910.128
317.859;   75.178;   -2.022;  768.735
318.456;   75.200;   -0.531;  830.096
319.054;   70.769;   -3.912;  787.828
319.651;   70.674;   -4.752;  759.928
320.249;   69.101;   -2.602;  810.188
320.846;   66.818;   -0.821;  714.286
321.443;   64.577;   -4.642;  832.135
322.041;   61.473;   -5.002;  812.315
322.638;   59.489;   -3.982;  701.456
323.235;   60.211;   -3.411;  665.683
323.833;   57.489;   -7.361;  740.354
324.430;   53.520;   -8.611;  615.900
325.027;   54.715;   -4.061;  876.855
325.624;   53.241;   -4.031;  644.532
326.221;   51.032;   -7.481;  689.717
326.818;   50.589;   -5.281;  818.332
327.415;   54.158;   -7.460;  748.828
328.012;   52.781;   -5.510;  690.585
328.609;   52.782;   -7.880;  731.389
329.206;   50.739;   -8.331;  778.621
329.803;   50.670;   -5.121;  737.841
330.400;   52.175;   -4.510;  704.260
330.997;   54.569;   -6.441;  817.147
331.594;   54.012;   -8.831;  788.185
332.191;   59.953;   -7.621;  728.722
332.787;   61.831;   -4.591;  844.463
333.384;   59.414;   -7.412;  763.093
333.981;   58.422;   -8.293;  815.687
334.578;   61.378;   -7.052;  708.378
335.174;   63.976;   -3.102;  731.469
335.771;   63.031;   -5.943;  836.456
336.367;   59.789;   -7.393;  710.631
336.964;   64.081;   -4.063;  793.266
337.561;   61.638;   -3.813;  731.112
338.157;   56.917;   -4.654;  911.916
338.754;   54.760;   -7.934;  796.589
339.350;   53.405;   -4.414;  722.493
339.946;   54.993;   -4.664;  773.135
340.543;   47.111;   -6.375;  846.136
341.139;   41.966;   -9.815;  720.836
341.735;   40.337;   -4.526;  772.593
342.332;   38.319;   -4.895;  691.472
342.928;   39.020;   -4.295;  795.394
343.524;   33.387;   -5.476;  761.684
344.120;   30.913;   -5.856;  738.562
344.716;   33.126;   -2.155;  723.717
345.313;   30.601;   -6.275;  795.342
345.909;   25.858;   -8.815;  627.336
346.505;   28.184;   -5.305;  740.247
347.101;   28.027;   -2.674;  827.864
347.697;   27.998;   -4.344;  785.398
348.293;   23.023;   -9.975;  627.244
348.889;   24.292;   -5.774;  745.914
349.485;   22.812;   -5.004;  688.205
350.081;   23.801;   -4.704;  772.592
350.676;   18.870;   -6.635;  691.606
351.272;   23.942;   -4.504;  809.530
351.868;   22.590;   -3.914;  780.497
352.464;   19.282;   -9.044;  723.932
353.059;   15.750;   -8.314;  646.017
353.655;   19.804;   -7.024;  777.063
354.251;   21.173;   -5.343;  759.845
354.846;   15.443;   -8.604;  740.646
355.442;   13.391;   -6.945;  753.071
356.038;   15.387;   -7.564;  751.708
356.633;   15.562;   -5.814;  728.594
357.229;   13.172;   -7.364;  724.757
357.824;   12.005;   -8.024;  703.600
358.420;   11.399;   -9.384;  679.726
359.015;   11.274;   -5.104;  695.357
359.610;   12.115;   -6.854;  763.920
360.206;    7.578;  -10.185;  603.240
360.801;    9.872;   -7.054;  646.503
361.396;   11.182;   -5.034;  725.975
361.992;    6.463;   -8.284;  668.220
362.587;    4.504;   -8.625;  670.160
363.182;    6.506;   -7.674;  689.631
363.777;    7.449;   -5.164;  738.242
364.372;    6.821;   -8.604;  737.314
364.967;    3.631;   -9.055;  680.744
365.563;    7.769;   -6.114;  815.567
366.158;    4.400;   -5.814;  685.161
366.753;    4.637;   -7.854;  649.263
367.348;    3.425;   -7.804;  746.056
367.942;    4.129;   -7.954;  697.298
368.537;    2.447;   -4.984;  754.245
369.132;    2.706;   -8.564;  703.428
369.727;   -0.940;   -8.855;  638.079
370.322;    0.608;   -6.245;  580.186
370.917;    0.584;   -6.425;  710.646
371.511;    2.693;   -6.294;  861.834
372.106;   -0.468;   -7.685;  776.964
372.701;   -3.493;   -7.335;  585.988
373.296;    1.553;   -4.564;  863.135
373.890;   -3.041;  -10.235;  647.840
374.485;   -4.818;   -7.885;  691.199
375.079;   -0.379;   -7.324;  738.685
375.674;    0.849;   -3.494;  812.970
376.268;   -4.450;   -8.525;  691.759
376.863;   -9.379;  -10.086;  580.327
377.457;   -3.511;   -7.025;  662.490
378.052;   -5.123;   -3.585;  764.884
378.646;   -5.972;   -7.595;  741.167
379.240;   -6.409;   -8.335;  721.176
379.835;   -5.445;   -5.785;  636.978
380.429;   -7.445;   -4.335;  562.557
381.023;   -7.747;   -6.805;  779.205
381.617;   -9.788;   -9.195;  680.106
382.212;   -6.709;   -6.905;  685.303
382.806;   -5.568;   -3.745;  760.690
383.400;  -10.032;   -7.745;  672.281
383.994;  -11.060;   -9.765;  664.870
384.588;   -6.511;   -6.564;  697.701
385.182;   -4.945;   -5.344;  726.624
385.776;   -7.401;   -8.514;  706.875
386.370;  -10.189;   -9.555;  681.968
386.964;   -9.033;   -8.715;  684.155
387.558;   -7.693;   -6.174;  598.360
388.152;  -10.884;   -8.725;  681.959
388.745;   -8.903;   -7.965;  814.707
389.339;   -6.872;   -5.924;  747.642
389.933;   -6.227;   -5.524;  695.370
390.527;   -8.187;   -7.114;  859.029
391.120;  -13.510;  -10.725;  595.318
391.714;  -10.370;   -8.035;  711.633
392.308;   -7.303;   -3.574;  780.253
392.901;  -11.122;   -7.245;  642.460
393.495;  -12.961;   -9.285;  595.414
394.089;   -9.905;   -5.895;  760.452
394.682;  -10.775;   -4.295;  697.188
395.275;  -11.616;   -9.875;  719.927
395.869;  -13.956;   -8.485;  667.314
396.462;  -11.191;   -7.455;  616.609
397.056;   -8.058;   -5.424;  776.621
397.649;  -12.744;   -6.605;  731.575
398.242;   -9.059;   -8.224;  712.645
398.836;   -8.440;   -7.474;  766.408
399.429;  -10.330;   -7.094;  631.041
400.022;  -13.789;   -9.475;  665.902
400.615;  -11.196;   -7.145;  805.609
401.208;   -8.979;   -7.174;  691.451
401.802;  -11.561;   -5.515;  699.329
402.395;  -12.595;   -9.875;  683.502
402.988;  -13.819;   -8.845;  696.627
403.581;   -9.817;   -8.874;  646.878
404.174;   -7.940;   -5.324;  686.568
404.767;  -10.347;   -9.575;  638.583
405.360;  -12.799;  -10.965;  621.445
405.953;   -7.211;   -8.764;  759.034
406.545;   -7.178;   -7.514;  725.342
407.138;  -11.490;  -10.025;  618.350
407.731;   -9.897;  -10.034;  613.303
408.324;   -6.088;   -9.374;  660.554
408.917;   -6.967;   -6.534;  681.864
409.509;   -9.453;   -8.004;  740.396
410.102;  -10.832;   -9.875;  643.948
410.695;   -3.991;   -8.604;  665.758
411.287;   -5.711;   -6.794;  599.821
411.880;   -7.108;   -9.334;  585.421
412.472;  -10.527;  -10.254;  613.092
413.065;   -6.987;   -6.714;  629.408
413.657;   -5.229;   -7.234;  576.678
414.250;   -4.723;  -10.544;  646.681
414.842;   -6.834;   -9.744;  676.353
415.434;   -4.717;   -6.994;  570.463
416.027;   -0.391;   -5.893;  652.196
416.619;   -2.307;   -7.264;  713.400
417.211;   -3.397;  -10.374;  599.352
417.804;    0.940;   -7.993;  628.499
418.396;   -3.433;   -7.234;  607.643
418.988;   -1.189;   -9.443;  659.238
419.580;   -4.506;  -10.724;  568.276
420.172;   -2.196;  -10.323;  536.196
420.764;    2.766;   -8.793;  672.482
421.356;    0.735;  -11.143;  636.898
421.948;    0.071;   -8.293;  677.661
422.540;    5.278;   -7.893;  680.027
423.132;    3.960;   -7.082;  600.641
423.724;    0.495;   -8.653;  561.267
424.316;    3.325;  -10.213;  621.345
424.908;    6.699;   -9.762;  591.517
425.500;    7.324;   -5.572;  647.978
426.092;    6.638;   -8.422;  648.268
426.683;    6.580;   -9.283;  684.836
427.275;   10.023;   -7.852;  641.471
427.867;   10.850;   -5.272;  668.948
428.458;   11.174;   -7.682;  732.344
429.050;   10.038;  -10.612;  680.749
429.642;   13.144;   -9.882;  743.124
430.233;   12.432;   -6.962;  569.356
430.825;   14.015;   -6.842;  724.809
431.416;   11.773;   -9.672;  698.241
432.008;   15.144;   -6.552;  651.723
432.599;   15.344;   -6.891;  656.073
433.190;   12.880;  -10.912;  637.670
433.782;   12.450;  -11.172;  590.395
434.373;   19.494;   -6.061;  884.765
434.964;   18.687;   -8.251;  602.920
435.556;   15.537;   -9.722;  634.537
436.147;   19.756;   -9.082;  758.490
436.738;   18.912;   -8.041;  701.099
437.329;   24.595;   -7.341;  721.723
437.920;   16.629;   -8.162;  666.688
438.511;   17.560;  -11.802;  564.526
439.103;   23.966;  -10.191;  623.998
439.694;   25.106;   -7.601;  681.583
440.285;   26.529;   -8.541;  764.432
440.876;   23.950;   -9.751;  845.738
441.466;   24.365;   -9.401;  575.162
442.057;   29.736;   -7.760;  665.814
442.648;   28.137;   -9.971;  746.255
443.239;   26.652;  -11.001;  620.477
443.830;   31.592;   -7.990;  704.958
444.421;   33.380;   -7.910;  655.474
445.011;   29.853;   -8.131;  693.619
445.602;   29.277;   -7.111;  743.126
446.193;   31.463;  -10.920;  488.117
446.783;   35.284;   -6.500;  640.397
447.374;   31.300;   -8.671;  692.759
447.964;   32.242;  -10.781;  713.770
448.555;   40.250;   -9.650;  822.742
449.145;   37.353;   -8.660;  662.853
449.736;   37.814;   -8.990;  803.179
450.326;   37.965;   -9.500;  713.626
450.917;   42.391;   -8.680;  675.324
451.507;   42.961;   -7.520;  600.661
452.097;   43.056;   -8.590;  746.267
452.688;   43.347;  -11.340;  742.160
453.278;   43.131;  -10.100;  566.840
453.868;   48.024;   -6.019;  793.550
454.458;   45.903;   -9.440;  651.141
455.048;   46.132;  -10.560;  711.783
455.639;   48.116;  -11.799;  567.096
456.229;   51.181;   -6.899;  710.694
456.819;   53.098;   -7.389;  751.158
457.409;   53.411;  -11.119;  773.993
457.999;   56.031;   -9.289;  737.505
458.589;   55.885;   -6.139;  686.606
459.179;   55.968;   -8.729;  717.658
459.769;   53.752;   -9.789;  627.099
460.358;   59.302;  -10.259;  797.262
460.948;   58.778;   -7.299;  689.503
461.538;   60.600;  -10.289;  660.677
462.128;   58.718;  -11.269;  664.934
462.717;   65.597;   -9.368;  710.326
463.307;   67.828;   -7.908;  705.846
463.897;   63.693;   -9.599;  656.942
464.486;   63.012;   -9.769;  837.128
465.076;   67.991;   -8.048;  733.776
465.666;   72.136;   -9.358;  652.900
466.255;   69.400;   -7.919;  785.651
466.845;   68.899;  -11.689;  666.749
467.434;   72.212;   -7.818;  725.873
468.023;   72.483;   -7.678;  658.357
468.613;   70.637;  -10.939;  713.946
469.202;   74.713;  -10.118;  646.507
469.791;   79.503;   -9.108;  737.811
470.381;   81.275;   -6.058;  742.813
470.970;   80.318;  -10.428;  711.099
471.559;   80.306;  -10.268;  733.291
472.148;   84.142;   -8.448;  675.737
472.738;   86.303;   -6.917;  765.466
473.327;   86.153;  -11.978;  637.529
473.916;   85.736;  -11.888;  737.446
474.505;   90.351;   -9.437;  751.703
475.094;   93.257;   -6.747;  806.570
475.683;   92.742;   -9.367;  797.699
476.272;   93.815;  -12.637;  730.632
476.861;   97.094;  -10.027;  706.754
477.449;  103.041;   -8.716;  728.487
478.038;   97.854;   -9.577;  692.513
478.627;   98.730;   -9.718;  714.852
479.216;  105.962;   -8.947;  769.441
479.805;  108.348;   -6.256;  783.375
480.393;  108.601;   -7.937; 1008.945
480.982;  106.991;   -7.717;  874.501
481.571;  114.181;   -9.266;  858.333
482.159;  115.000;   -7.636;  705.386
482.748;  114.109;   -9.667;  821.385
483.336;  118.452;  -10.376;  858.209
483.925;  120.644;   -7.147;  774.373
484.513;  126.578;   -7.996;  758.962
485.102;  123.564;  -10.027;  810.965
485.690;  132.865;  -10.446; 1011.050
486.278;  135.540;   -8.446;  979.329
486.867;  136.418;   -6.356;  809.662
487.455;  137.889;   -9.136;  898.229
488.043;  139.557;  -10.646;  748.361
488.631;  148.530;   -7.456; 1005.079
489.220;  153.104;   -6.636;  908.626
489.808;  153.723;  -11.036;  741.415
490.396;  162.460;  -10.246;  914.645
490.984;  170.193;   -8.556;  830.161
491.572;  180.911;   -5.886;  940.315
492.160;  188.430;   -9.486;  919.081
492.748;  202.501;  -10.976;  884.341
493.336;  230.040;   -8.776; 1019.693
493.924;  260.683;   -5.465;  958.077
494.512;  293.902;   -9.986; 1066.638
495.100;  340.401;  -10.636; 1103.280
495.687;  403.426;  -10.885; 1206.373
496.275;  478.265;   -8.126; 1150.796
496.863;  561.056;  -10.586; 1281.171
497.451;  680.400;  -11.926; 1386.805
498.038;  832.327;  -10.885; 1556.729
498.626;  952.133;   -6.315; 1741.407
499.214; 1115.123;   -7.326; 2016.609
499.801; 1356.235;  -11.906; 2220.633
500.389; 1634.586;  -10.466; 2312.494
500.976; 1998.368;   -5.236; 2744.849
501.564; 2494.605;   -8.936; 3148.565
502.151; 2937.402;  -13.176; 3515.999
502.738; 3471.967;  -10.646; 3971.274
503.326; 3893.993;   -9.525; 4403.796
503.913; 4330.481;  -10.856; 5161.749
504.500; 4744.778;  -11.586; 5986.420
505.088; 5212.897;  -10.336; 6381.201
505.675; 5798.561;   -6.355; 6925.547
506.262; 6584.624;   -9.046; 7619.060
506.849; 7348.646;  -10.416; 8733.969
507.436; 7878.231;  -10.305; 9790.121
508.023; 8537.466;   -5.496; 9985.472
508.610; 8778.134;   -7.856;10434.618
509.197; 9432.636;  -10.097;11198.435
509.784;10965.024;  -10.886;12391.194
510.371;12048.234;   -9.315;13603.713
510.958;12760.361;   -9.936;14426.586
511.545;13611.235;   -9.326;15243.775
512.132;14668.681;  -10.075;15945.876
512.719;15390.920;   -7.796;16340.369
513.305;16367.306;  -10.606;18011.766
513.892;17303.891;  -11.486;19754.971
514.479;18663.209;   -9.126;20967.805
515.066;19991.676;   -6.026;22299.793
515.652;21283.121;   -8.466;22908.660
516.239;22744.367;  -10.886;23798.875
516.825;23954.473;  -11.496;25567.275
517.412;25206.797;   -5.796;28154.959
517.998;25792.893;  -10.506;28344.111
518.585;25538.242;  -10.076;27134.219
519.171;25954.131;   -8.315;27268.576
519.758;27789.752;   -8.596;28964.129
520.344;29558.023;   -8.466;30664.494
520.930;29429.893;  -11.006;32550.605
521.516;31203.342;  -10.495;35422.895
522.103;33652.465;   -5.526;38280.004
522.689;34264.496;   -8.746;37835.117
523.275;33405.121;  -11.376;37288.613
523.861;34269.387;  -11.156;37281.395
524.447;35736.613;   -8.135;37846.949
525.033;35482.563;   -7.896;38321.949
525.619;35772.559;  -12.476;38579.285
526.205;37360.625;   -9.516;40622.875
526.791;39637.266;   -6.926;42258.836
527.377;39539.090;   -8.346;42966.902
527.963;41303.332;   -8.717;42018.949
528.549;39729.164;  -11.016;42476.828
529.135;38436.434;   -8.536;41854.852
529.721;37885.625;   -9.666;41237.711
530.306;37277.008;  -10.066;41259.445
530.892;36945.410;  -11.356;41506.047
531.478;38290.867;   -6.596;43559.613
532.063;41155.000;   -8.836;47695.563
532.649;41191.383;  -10.047;50808.324
533.235;42356.281;   -9.746;51787.500
533.820;43596.039;   -6.566;52145.035
534.406;45039.941;  -10.817;51133.488
534.991;44724.020;   -9.416;49996.805
535.576;43122.637;   -9.036;48882.852
536.162;43441.039;   -6.156;46942.285
536.747;44803.484;  -11.607;45711.746
537.333;48789.438;  -11.787;48510.180
537.918;51213.625;  -12.437;50439.891
538.503;49647.590;   -7.196;50863.711
539.088;46626.613;  -10.556;50906.922
539.673;46730.051;   -8.767;52621.965
540.259;46591.945;  -10.026;52368.094
540.844;43734.664;   -7.416;50879.109
541.429;44849.035;   -9.467;52077.777
542.014;48030.137;   -9.527;52716.695
542.599;47363.820;   -9.946;52363.281
543.184;44932.320;   -7.927;53187.137
543.769;46752.848;   -9.297;54697.605
544.354;46092.176;  -10.127;53913.914
544.938;44638.699;   -9.267;49680.164
545.523;46281.359;   -6.506;47386.277
546.108;48604.730;   -9.787;49151.949
546.693;50939.832;  -11.587;51384.637
547.278;51137.441;  -10.986;51853.254
547.862;47974.609;   -8.206;51173.750
548.447;43361.988;  -10.067;51691.395
549.031;43308.859;   -9.637;52456.703
549.616;48406.180;   -9.926;52714.516
550.201;47131.414;   -6.347;52414.598
550.785;48241.195;   -7.917;52355.059
551.370;47587.594;  -10.867;54589.453
551.954;48020.422;   -9.047;58267.348
552.538;48763.980;   -7.827;59062.176
553.123;47084.254;  -10.287;58115.285
553.707;45308.063;  -12.178;56556.285
554.291;46651.199;   -8.717;56201.668
554.876;48843.387;   -7.457;55335.762
555.460;49303.188;  -10.387;54155.703
556.044;50251.422;   -9.618;53721.484
556.628;48565.184;  -11.567;53731.016
557.212;47069.816;   -8.097;54312.531
557.796;45529.961;  -11.077;53797.773
558.380;45342.355;  -11.108;56145.984
558.964;45791.523;   -9.057;57277.930
559.548;46672.133;   -6.977;56459.641
560.132;45293.133;  -11.457;54434.543
560.716;44260.082;  -11.378;54800.617
561.300;45549.219;   -9.577;57606.945
561.884;46662.348;   -7.127;58972.445
562.467;45118.469;   -7.118;57327.570
563.051;44046.219;  -13.358;54962.434
563.635;44760.574;  -10.178;52594.473
564.219;45575.078;   -7.837;50610.410
564.802;46610.828;  -11.398;49551.180
565.386;46582.113;  -12.788;48370.953
565.969;45964.879;   -9.077;48178.871
566.553;45831.578;   -6.207;49957.305
567.136;46079.020;   -8.568;50369.594
567.720;41951.945;  -11.868;49492.004
568.303;40096.195;   -8.268;50616.352
568.887;40251.371;   -8.698;50727.148
569.470;40347.633;   -6.808;51698.379
570.053;38855.777;  -13.188;52122.078
570.637;37164.051;  -12.037;52536.438
571.220;36855.742;   -8.577;51186.098
571.803;37198.000;   -8.498;51032.762
572.386;39870.375;  -10.498;49609.887
572.969;42517.164;   -9.388;48285.926
573.552;40404.051;   -8.338;47624.285
574.135;39066.758;   -8.518;45498.641
574.718;36496.340;  -13.628;41970.434
575.301;35163.121;  -10.893;41447.137
575.884;33829.902;   -8.158;40923.836
576.467;35421.133;  -10.328;45267.723
577.050;38160.664;  -13.058;48175.543
577.633;39398.984;   -9.458;47729.328
578.216;38094.875;   -8.928;47579.793
578.799;37073.555;   -9.358;47820.996
579.381;35530.945;  -11.388;48115.551
579.964;34032.660;  -11.718;47333.766
580.547;35805.203;   -8.588;46668.969
581.129;37167.441;   -8.859;44466.141
581.712;37872.945;  -10.729;44164.922
582.294;38569.598;  -11.118;46477.855
582.877;38376.863;   -5.218;48244.254
583.459;35783.805;   -8.679;47437.895
584.042;33926.281;  -10.709;46943.219
584.624;34811.906;  -11.669;46792.227
585.206;34371.078;   -8.218;46557.250
585.789;34723.387;  -10.569;45793.773
586.371;37536.469;  -11.859;43836.391
586.953;37834.969;  -10.719;42972.492
587.536;39238.320;   -7.198;42487.211
588.118;38697.695;   -8.720;42086.414
588.700;35306.344;  -10.439;43389.930
589.282;34573.219;   -9.198;43646.039
589.864;35538.699;   -9.199;43438.109
590.446;36318.738;  -11.319;43151.926
591.028;35878.715;  -11.159;42781.867
591.610;34860.945;  -11.779;42839.098
592.192;32608.992;   -7.668;42820.402
592.774;31238.580;  -11.949;40724.277
593.356;29968.582;  -12.129;39874.789
593.937;29115.420;  -10.669;39980.648
594.519;31545.516;   -6.509;42069.633
595.101;33578.961;  -10.849;42976.031
595.683;33637.004;  -11.679;44084.441
596.264;34852.410;   -9.049;43478.797
596.846;33837.957;   -8.849;43803.672
597.427;33525.613;   -9.570;42986.934
598.009;35136.219;  -12.620;42832.219
598.591;35176.793;  -10.039;42580.086
599.172;34067.352;  -10.369;43061.805
599.753;34100.836;   -9.140;41691.469
600.335;35955.914;  -11.430;40692.520
600.916;34518.160;   -9.939;39982.422
601.498;32081.742;   -8.479;40318.617
602.079;30647.092;  -10.920;40670.609
602.660;30936.070;  -11.480;41450.898
603.241;32447.510;  -11.699;41137.738
603.823;31007.633;   -9.579;38868.797
604.404;30948.467;  -10.620;38182.785
604.985;32228.115;  -10.450;38078.047
605.566;31593.219;   -9.129;38056.633
606.147;31669.748;   -7.510;37020.418
606.728;33390.465;  -10.660;37883.359
607.309;31958.158;  -11.740;38748.273
607.890;31322.301;   -9.759;38850.230
608.471;30930.354;   -8.250;37457.918
609.051;30066.391;   -9.240;36066.457
609.632;29121.848;  -12.120;35991.074
610.213;30094.592;   -9.110;37402.641
610.794;30558.072;   -8.030;38383.363
611.374;30118.695;   -8.110;40562.387
611.955;30538.051;  -13.560;38533.727
612.536;31718.631;  -11.400;36951.789
613.116;31782.338;   -8.070;37197.891
613.697;31942.520;  -10.830;38411.125
614.277;30688.750;  -11.641;38673.938
614.858;31657.684;  -13.310;37075.863
615.438;30594.355;   -7.460;35092.906
616.019;27560.619;   -7.601;33666.301
616.599;28210.678;  -12.020;34189.023
617.179;30093.135;  -11.780;36952.047
617.760;30884.717;   -8.570;39582.574
618.340;31866.020;  -11.471;38943.977
618.920;33225.277;  -11.170;37594.156
619.500;33188.457;  -11.071;37866.938
620.080;32427.816;   -7.750;37869.043
620.660;33720.344;  -12.711;36868.617
621.241;35197.500;  -10.211;36352.309
621.821;35295.512;  -10.961;35459.520
622.401;34113.711;   -7.720;35207.414
622.980;33157.414;   -8.981;35980.422
623.560;31723.611;   -9.331;37351.328
624.140;30858.814;   -9.850;34388.582
624.720;25450.154;   -7.451;32368.764
625.300;21829.260;   -9.070;32638.629
625.880;25150.832;  -12.601;34599.035
626.459;29268.479;  -11.751;36831.738
627.039;32484.656;   -9.281;38299.098
627.619;32240.807;   -8.801;38289.574
628.198;30439.699;  -12.071;37220.695
628.778;29477.422;   -9.461;37632.563
629.357;30212.432;   -8.491;38003.012
629.937;30434.486;   -9.721;38402.039
630.516;29935.047;   -9.951;37868.801
631.096;29398.590;  -11.731;35760.410
631.675;32663.906;   -8.572;35225.219
632.254;37766.676;  -11.282;35130.289
632.834;37035.113;  -13.322;35794.570
633.413;34866.566;  -10.301;35788.922
633.992;31597.887;   -8.582;34532.863
634.571;32514.357;   -8.352;33590.113
635.151;35205.242;  -11.912;34943.863
635.730;33536.000;  -10.511;35352.523
636.309;30374.980;   -7.731;35366.605
636.888;28261.281;   -9.952;36165.637
637.467;29289.016;  -11.672;37515.902
638.046;30916.859;   -8.901;39288.695
638.625;33910.898;   -7.912;38279.699
639.204;33450.422;  -10.022;37741.598
639.782;31939.361;  -12.252;38364.551
640.361;28157.533;  -10.041;36740.621
640.940;25381.691;  -11.161;34950.082
641.519;25987.246;   -9.701;34137.398
642.097;28879.332;  -11.271;35654.258
642.676;31471.080;   -8.651;35637.957
643.255;31999.164;   -8.711;36567.074
643.833;31204.795;   -9.581;37809.434
644.412;31430.695;  -13.711;37337.293
644.990;30669.232;  -11.811;37018.531
645.569;30963.281;   -9.411;36518.469
646.147;29745.246;  -10.291;36186.430
646.726;29038.953;  -12.401;36267.688
647.304;29885.248;  -10.411;36647.625
647.882;31941.188;   -9.651;39286.742
648.461;33646.457;   -9.631;39157.703
649.039;31605.881;  -11.881;35412.883
649.617;30955.336;   -9.661;34744.918
650.195;30780.137;   -9.301;35403.098
650.773;29332.633;  -10.511;35053.797
651.352;27098.115;  -11.521;33756.816
651.930;25026.525;  -12.211;31868.773
652.508;23520.123;   -9.171;33121.551
653.086;27474.773;   -9.371;33564.793
653.663;29934.270;  -13.161;34054.668
654.241;29019.469;  -13.031;35693.309
654.819;30792.387;   -9.371;36422.906
655.397;30752.725;  -10.511;38213.484
655.975;30562.121;  -10.371;39507.625
656.553;30132.762;  -10.051;39498.223
657.130;28495.324;  -10.061;40395.480
657.708;28019.906;   -9.561;39242.020
658.286;27966.365;  -11.511;38920.020
658.863;29019.605;  -10.261;40202.898
659.441;32092.779;   -7.531;39677.938
660.018;31458.199;   -9.501;40413.355
660.596;30316.840;  -13.301;39931.414
661.173;32381.143;  -11.211;39604.531
661.750;32599.375;   -9.951;39700.070
662.328;31834.543;   -9.390;39292.809
662.905;30920.811;  -11.330;38235.648
663.482;26160.932;   -9.050;36212.305
664.060;24490.764;   -8.240;35944.945
664.637;27494.768;  -10.050;35170.785
665.214;29294.570;  -11.760;34197.523
665.791;30577.664;  -10.530;34549.520
666.368;29196.727;   -9.690;35118.578
666.945;30244.771;   -9.320;36019.418
667.522;31711.930;  -11.860;36048.438
668.099;31602.445;  -10.770;36243.914
668.676;30523.695;   -6.260;35958.875
669.253;29021.678;   -7.000;37384.730
669.830;29560.840;  -10.190;36779.629
670.407;29278.629;   -9.550;35231.289
670.984;29596.979;   -9.260;35544.270
671.560;29931.010;   -9.280;35466.867
672.137;28951.283;  -11.810;34280.863
672.714;29803.232;  -11.490;34632.863
673.290;30121.943;   -7.740;35135.422
673.867;30622.814;  -10.660;36114.480
674.443;30140.959;  -12.230;36152.859
675.020;28368.145;  -10.450;35327.238
675.596;29733.518;   -9.260;35795.176
676.173;30221.670;  -10.780;35430.355
676.749;30151.809;  -13.690;33549.516
677.326;30270.129;  -11.980;32210.012
677.902;30229.254;   -8.630;32068.871
678.478;29469.689;  -10.730;32583.891
679.054;29047.145;  -10.520;32088.928
679.631;29274.262;  -11.920;30978.848
680.207;30722.994;   -7.490;33160.887
680.783;32123.867;   -9.860;35570.363
681.359;31123.623;  -13.380;36125.184
681.935;30502.193;  -12.480;35240.922
682.511;29587.729;   -7.900;34429.961
683.087;29868.920;   -7.710;34463.680
683.663;29664.361;  -11.480;34648.898
684.239;28239.742;  -14.090;34546.457
684.815;27780.369;   -7.560;35586.375
685.390;28133.631;   -9.910;35821.895
685.966;28601.656;  -11.159;35085.871
686.542;31249.271;  -11.169;34198.230
687.118;33347.324;   -5.959;32847.707
687.693;33267.773;  -10.329;32794.027
688.269;32794.828;  -12.059;33072.367
688.844;30655.420;  -10.909;33141.664
689.420;28351.928;   -8.019;33965.742
689.995;26160.559;   -8.399;34655.523
690.571;25005.775;  -10.949;33576.742
691.146;25630.354;   -9.619;32657.219
691.722;25190.189;   -8.999;32526.979
692.297;25560.361;  -11.589;33014.617
692.872;27517.227;  -11.739;34012.254
693.448;26878.311;  -11.059;34237.434
694.023;26065.660;  -10.139;34142.672
694.598;28110.119;   -9.029;34132.031
695.173;28238.139;  -13.319;34205.250
695.748;27393.754;  -10.169;32882.488
696.323;27120.396;   -8.339;32864.906
696.898;27391.230;   -8.169;33170.004
697.473;27362.656;  -12.309;32432.984
698.048;26842.338;  -10.989;31649.303
698.623;27000.268;   -9.329;30778.141
699.198;29110.064;   -9.849;31140.119
699.773;29842.123;  -12.329;31764.299
700.348;28172.076;  -10.389;31780.816
700.922;28111.959;   -9.269;32046.375
701.497;28672.537;   -9.329;32603.574
702.072;28691.992;  -10.789;34799.871
702.646;27527.822;  -10.839;35793.172
703.221;25944.197;   -9.099;35201.590
703.795;27791.527;  -10.939;34764.527
704.370;27957.033;  -12.859;34307.367
704.944;28522.375;  -11.559;33509.887
705.519;29548.992;   -7.939;31388.584
706.093;31055.480;  -10.499;31340.104
706.668;31027.666;  -11.289;32630.281
707.242;29963.963;  -11.509;32728.779
707.816;28563.883;   -9.639;32947.238
708.390;27107.023;  -11.429;33277.855
708.965;27999.535;  -11.869;33834.336
709.539;28558.643;  -11.689;33709.273
710.113;28878.764;  -10.478;33044.313
710.687;27820.605;  -10.228;31953.992
711.261;25984.064;  -13.698;30505.949
711.835;25954.572;  -13.378;30262.369
712.409;26920.730;   -9.698;31254.447
712.983;28663.377;  -11.898;32754.986
713.557;29384.691;  -15.138;34018.824
714.131;29045.496;  -14.098;34579.625
714.704;28203.533;   -9.958;33890.262
715.278;26065.969;  -10.028;33531.102
715.852;25275.148;  -11.148;33601.660
716.425;26176.645;   -9.068;33515.117
716.999;26882.250;  -10.038;33185.555
717.573;27983.240;   -9.798;33905.996
718.146;28964.094;  -12.378;35199.293
718.720;28759.129;  -11.918;35060.551
719.293;28215.232;   -8.088;34973.230
719.867;30928.904;  -10.888;36394.449
720.440;30190.330;  -11.938;36663.008
721.013;28449.855;  -12.818;35102.426
721.587;27328.807;  -10.298;33985.266
722.160;26599.113;  -10.048;33524.965
722.733;25640.070;  -12.108;32987.043
723.306;25922.752;  -10.818;33066.301
723.880;28100.760;   -8.908;33399.500
724.453;29483.068;   -9.878;33468.297
725.026;28369.188;  -11.188;33816.637
725.599;26131.830;  -11.678;32797.996
726.172;27018.350;   -9.618;33187.434
726.745;28239.000;   -8.258;35136.613
727.318;29624.842;  -12.978;35751.730
727.891;29708.850;  -12.148;35890.430
728.463;29232.668;   -8.968;34822.090
729.036;28448.703;  -10.188;32895.086
729.609;28940.336;  -11.788;31823.225
730.182;25840.672;  -11.788;31445.283
730.754;23346.670;  -10.268;32373.223
731.327;23370.742;   -9.998;33676.820
731.900;23868.348;  -12.228;33417.000
732.472;25243.000;  -13.848;31978.498
733.045;26898.143;   -8.698;30368.777
733.617;26947.379;  -10.607;30574.215
734.190;26324.121;  -11.507;31280.975
734.762;23197.002;  -13.647;31674.412
735.334;21785.857;   -9.767;31247.291
735.907;22701.584;   -9.897;29876.211
736.479;22682.660;  -11.637;29808.488
737.051;22342.000;   -9.567;30233.547
737.623;23339.068;   -8.187;31469.086
738.195;24377.609;  -11.187;31784.225
738.768;26393.930;  -12.337;32120.523
739.340;26116.473;  -12.227;32094.342
739.912;24708.324;  -11.057;31312.680
740.484;23415.629;  -10.207;31946.238
741.056;22675.129;  -10.047;32984.059
741.628;24481.707;  -13.627;33897.715
742.199;26699.182;   -7.177;33213.016
742.771;25009.277;  -10.797;31369.113
743.343;22567.078;  -11.997;31865.473
743.915;21603.885;  -12.867;32388.631
744.487;21831.715;   -7.617;31079.568
745.058;21977.318;   -9.557;30570.107
745.630;22357.564;   -9.877;29970.127
746.201;23020.789;  -14.177;29186.766
746.773;23276.990;   -9.237;28805.723
747.344;23195.393;   -9.847;29591.223
747.916;22025.926;  -11.657;31412.201
748.487;22493.438;  -10.587;32194.898
749.059;23751.791;   -8.707;32533.719
749.630;24494.709;  -10.537;32158.518
750.201;23720.768;  -11.687;30855.395
750.773;21956.080;  -11.647;28622.555
751.344;21813.805;   -7.147;28405.732
751.915;22839.705;   -9.757;28461.551
752.486;22321.121;  -12.427;27842.850
753.057;20196.045;  -12.227;27845.008
753.628;19262.801;  -10.417;27728.107
754.199;20446.492;  -11.767;27381.086
754.770;21364.152;  -11.187;25882.203
755.341;21341.344;  -10.507;25886.184
755.912;21242.775;   -9.387;26050.861
756.483;20739.105;  -10.647;26798.779
757.054;18862.137;  -11.837;27048.238
757.625;17565.885;  -12.716;26294.838
758.195;17463.676;   -9.666;26142.076
758.766;17291.195;   -8.656;26392.234
759.337;18077.307;  -12.856;26334.594
759.907;19828.785;  -13.366;27579.652
760.478;20623.906;   -8.576;28352.770
761.048;19768.508;  -10.526;27325.088
761.619;18931.955;  -11.116;26460.428
762.189;19166.066;  -12.136;26029.826
762.760;20499.834;   -9.456;26430.145
763.330;21350.906;   -7.136;26670.902
763.900;20573.346;  -11.786;26603.021
764.471;17916.617;  -11.546;25542.740
765.041;16576.279;   -8.096;24358.459
765.611;16661.893;   -8.876;23991.297
766.181;17159.365;  -12.196;24470.236
766.751;18113.006;  -11.636;24845.975
767.321;17682.357;  -10.156;24533.633
767.891;15608.692;  -11.766;24916.492
768.461;15181.746;  -14.936;24776.771
769.031;15832.249;  -12.356;24757.988
769.601;17246.918;   -7.526;24181.088
770.171;17040.543;  -10.766;23670.387
770.741;16569.758;  -13.176;22960.045
771.311;16908.133;  -10.616;22917.523
771.880;17124.980;   -9.576;23562.941
772.450;16812.918;  -10.336;24216.500
773.020;16907.242;  -13.516;24140.398
773.589;16225.687;  -13.466;24414.857
774.159;15583.630;   -8.686;23858.717
774.729;15239.673;   -9.476;22942.135
775.298;14750.476;  -13.666;22324.033
775.867;14325.867;  -11.716;21140.313
776.437;14251.722;   -9.906;20838.092
777.006;13993.732;  -12.166;20599.510
777.576;13898.686;  -12.356;20508.809
778.145;14110.644;  -11.646;20732.947
778.714;13988.118;   -8.226;21062.465
779.283;13257.570;   -9.556;20949.664
779.853;12848.356;  -14.116;20508.623
780.422;13297.322;  -11.506;20649.082
780.991;12864.288;   -9.556;21527.520
781.560;11776.177;   -9.095;22632.658
782.129;11619.785;  -12.135;23048.277
782.698;11642.377;  -10.865;23438.555
783.267;11263.849;   -9.335;23267.734
783.836;11269.776;  -11.045;22415.133
784.404;12200.319;  -13.865;20443.152
784.973;12650.480;  -13.095;19699.150
785.542;12613.592;  -11.575;19763.828
786.111;12507.637;   -9.705;20341.408
786.679;11979.842;  -12.105;20207.967
787.248;11729.399;  -12.455;19516.465
787.817;11489.442;  -11.535;18900.363
788.385;11001.469;   -9.765;17879.121
788.954;10424.865;  -14.005;17658.301
789.522; 9986.068;  -11.955;17788.879
790.090;10519.336;  -10.135;18118.277
790.659;10840.024;  -10.975;18338.736
791.227;10361.960;  -13.375;18508.615
791.795;10811.993;  -12.375;17898.254
792.364;11066.290;  -10.725;17295.133
792.932;11230.778;   -9.715;16822.051
793.500;11403.187;  -12.675;17040.148
794.068;11675.330;  -13.495;17179.787
794.636;11737.092;  -10.885;16664.246
795.204;11244.624;  -11.045;16524.545
795.772;11278.013;  -13.175;17274.564
796.340;10831.021;  -12.445;17891.002
796.908;10670.283;   -9.735;17648.561
797.476;10511.232;   -9.815;17064.080
798.044;10084.514;  -13.985;16672.777
798.612; 9314.819;  -13.115;17023.996
799.180; 8955.880;  -10.185;16561.615
799.747; 8910.073;   -9.055;15962.773
800.315; 8664.021;  -12.385;15296.992
800.883; 8305.877;  -15.035;14801.771
801.450; 8250.243;  -10.365;14534.430
802.018; 8260.752;   -9.855;14173.248
802.585; 8385.605;  -11.905;14029.547
803.153; 8481.341;  -11.585;13836.846
803.720; 8357.572;   -9.095;13567.324
804.287; 7930.622;   -9.135;13360.622
804.855; 7553.774;  -11.604;13681.981
805.422; 7426.272;  -11.794;13536.560
805.989; 7379.746;  -10.734;13355.958
806.556; 7581.042;  -10.444;13747.896
807.124; 7861.115;  -12.764;13987.376
807.691; 7843.205;  -12.964;14038.674
808.258; 7602.540;  -11.134;14120.152
808.825; 7232.501;   -9.854;13860.111
809.392; 7275.734;  -10.504;13268.790
809.959; 6883.116;  -13.054;12680.389
810.526; 6546.702;   -8.294;12427.308
811.093; 6628.695;   -8.394;12030.105
811.659; 7138.090;  -12.304;11653.664
812.226; 7493.903;  -13.944;11637.183
812.793; 7136.917;  -10.484;11611.521
813.360; 6566.803;  -10.144;11885.181
813.926; 6319.733;  -11.684;12770.539
814.493; 6140.878;  -13.644;12677.638
815.060; 5816.120;   -9.724;11974.336
815.626; 5860.309;   -9.854;11594.715
816.193; 6220.725;  -13.254;11579.474
816.759; 6253.767;  -13.204;11666.972
817.325; 6372.242;   -9.434;11325.530
817.892; 6759.507;  -10.134;11105.369
818.458; 7138.381;  -13.474;10843.928
819.024; 6743.464;  -11.854;10714.406
819.591; 6460.314;  -10.244;10469.165
820.157; 6283.607;  -10.704;10235.523
820.723; 5859.501;  -12.324;10847.563
821.289; 5600.125;   -9.444;11040.980
821.855; 5453.935;   -8.374;10357.100
822.421; 5350.555;  -10.234; 9978.918
822.987; 5337.231;  -13.294; 9754.177
823.553; 5110.455;  -10.884;10065.755
824.119; 5000.590;   -8.884;10036.294
824.685; 5092.793;   -6.784;10029.192
825.251; 5181.306;  -12.004;10199.230
825.816; 5166.451;  -11.474; 9820.189
826.382; 4993.789;   -9.174; 9297.248
826.948; 5255.638;   -9.214; 9381.347
827.513; 5591.808;  -10.774; 9450.726
828.079; 5380.333;  -11.924; 9472.444
828.645; 4888.414;  -10.543; 9292.643
829.210; 4879.836;  -10.533; 9065.341
829.776; 4868.218;  -10.753; 9132.620
830.341; 4767.652;  -10.173; 9092.878
830.906; 4995.688;  -10.743; 9078.557
831.472; 5336.346;  -11.113; 8534.535
832.037; 5035.949;  -10.603; 8677.874
832.602; 4473.107;  -13.323; 8628.692
833.167; 4244.352;  -10.823; 8879.031
833.733; 4210.170;  -10.113; 9189.790
834.298; 4343.707;  -13.583; 9052.608
834.863; 4410.199;  -12.703; 8895.087
835.428; 4429.192;  -10.523; 8824.266
835.993; 4348.961;   -6.963; 8845.385
836.558; 4245.493;  -10.763; 8888.563
837.123; 4411.154;   -9.903; 8966.582
837.688; 4635.421;   -9.913; 8617.860
838.253; 4839.881;  -10.283; 8590.699
838.817; 5042.085;  -12.963; 8443.797
839.382; 4958.673;  -14.243; 8799.356
839.947; 4662.812;  -10.733; 8810.595
840.511; 4365.198;   -9.383; 8796.394
841.076; 4001.397;  -12.563; 8347.231
841.641; 4088.583;  -12.953; 8224.330
842.205; 4197.962;   -7.043; 8223.349
842.770; 4345.238;   -8.163; 8622.107
843.334; 4551.258;  -12.503; 8410.386
843.898; 4517.636;  -11.693; 8337.465
844.463; 4529.215;  -10.203; 8506.283
845.027; 4282.590;   -9.533; 8280.962
845.591; 4093.377;  -13.443; 8231.141
846.156; 4033.965;  -13.143; 7969.179
846.720; 3916.447;   -9.433; 7768.278
847.284; 3791.574;  -11.033; 7630.957
847.848; 3653.526;  -10.403; 7472.395
848.412; 3541.257;  -11.553; 7437.394
848.976; 3562.762;   -8.393; 7674.592
849.540; 3502.133;   -8.713; 7836.011
850.104; 3640.552;  -12.463; 7913.669
850.668; 3974.940;  -12.973; 7694.508
851.232; 4034.506;  -10.793; 7756.887
851.796; 3861.763;  -10.662; 7926.545
852.359; 3565.324;  -13.082; 7827.844
852.923; 3398.710;  -12.192; 7641.163
853.487; 3215.589;  -11.912; 7342.501
854.050; 3152.698;  -10.892; 7042.820
854.614; 3252.720;  -13.992; 7151.338
855.177; 3350.727;  -11.732; 7105.077
855.741; 3362.622;   -8.962; 6989.675
856.304; 3244.014;   -9.442; 6596.634
856.868; 3202.283;  -14.192; 6356.272
857.431; 3300.273;  -12.702; 6468.571
857.995; 3411.052;   -9.942; 6373.210
858.558; 3402.845;   -9.112; 6324.448
859.121; 3128.137;  -12.932; 6408.327
859.684; 3004.756;  -13.442; 6347.886
860.247; 3082.676;  -10.632; 6321.264
860.810; 3042.099;  -11.272; 6301.903
861.374; 2777.652;   -9.832; 6607.881
861.937; 2525.886;  -11.762; 6408.200
862.500; 2530.681;   -9.722; 6572.639
863.062; 2706.230;  -10.512; 6387.297
863.625; 2853.689;  -11.232; 6190.836
864.188; 2992.952;  -14.112; 5807.254
864.751; 3046.141;  -11.302; 5682.413
865.314; 2925.196;  -10.112; 5547.492
865.876; 2734.265;  -12.182; 5500.150
866.439; 2737.967;  -10.722; 5415.909
867.002; 2668.918;   -9.252; 5501.567
867.564; 2453.508;   -9.572; 5413.946
868.127; 2240.001;  -13.142; 5160.325
868.689; 2145.986;  -12.902; 5133.183
869.252; 2037.914;   -9.732; 5252.382
869.814; 1944.233;   -9.432; 5297.141
870.377; 1959.021;  -11.552; 5390.919
870.939; 2025.407;   -9.052; 5599.898
871.501; 2076.448;  -10.982; 5248.336
872.063; 2070.391;  -12.292; 4854.235
872.626; 2034.330;  -14.912; 4817.074
873.188; 2071.318;  -13.112; 4987.732
873.750; 2043.292;  -13.442; 4868.651
874.312; 1964.799;   -9.402; 4779.330
874.874; 1878.148;  -11.062; 4866.348
875.436; 1787.898;  -13.931; 4718.887
875.998; 1776.410;   -9.561; 4660.005
876.560; 1793.022;  -11.321; 4462.964
877.122; 1740.694;  -12.221; 4145.042
877.683; 1665.465;  -12.191; 4056.481
878.245; 1605.714;  -12.101; 3950.740
878.807; 1644.965;   -8.971; 4058.958
879.369; 1667.863;  -12.071; 3954.677
879.930; 1585.721;  -14.621; 3941.495
880.492; 1534.021;  -10.311; 4067.014
881.053; 1483.754;  -10.901; 3859.633
881.615; 1378.830;  -14.411; 3776.071
882.176; 1298.981;  -13.761; 3734.750
882.738; 1263.590;   -9.181; 3678.489
883.299; 1247.854;  -11.791; 3405.407
883.860; 1258.449;  -13.121; 3351.106
884.422; 1255.743;  -11.211; 3394.044
884.983; 1206.332;  -10.091; 3166.443
885.544; 1128.795;   -8.461; 3189.802
886.105; 1055.265;  -12.361; 3160.360
886.666; 1000.105;  -14.141; 3093.059
887.227;  953.046;  -11.361; 2941.957
887.788;  893.794;  -11.401; 2974.836
888.349;  836.077;  -13.791; 2721.214
888.910;  840.223;  -13.191; 2696.493
889.471;  849.117;   -9.881; 2560.172
890.032;  828.007;   -9.881; 2558.190
890.593;  807.265;  -10.371; 2567.669
891.153;  787.048;  -13.301; 2460.307
891.714;  737.222;  -11.431; 2372.046
892.275;  694.819;  -11.291; 2309.505
892.835;  652.030;  -11.471; 2382.543
893.396;  598.239;  -11.541; 2295.502
893.956;  542.771;  -11.181; 2162.420
894.517;  509.580;  -11.741; 2125.439
895.077;  507.979;  -11.671; 2086.978
895.638;  509.535;  -11.311; 2126.316
896.198;  481.356;   -9.831; 1838.275
896.758;  438.664;   -8.421; 1892.813
897.319;  409.971;  -12.351; 1792.232
897.879;  393.186;  -13.511; 1762.751
898.439;  367.716;  -12.001; 1661.149
898.999;  344.095;  -10.180; 1781.468
899.559;  335.285;  -12.030; 1703.347
900.119;  331.853;  -15.710; 1537.525
900.679;  327.746;   -8.900; 1638.384
901.239;  312.746;   -8.340; 1527.902
901.799;  301.800;  -13.910; 1456.441
902.359;  297.431;  -13.460; 1357.140
902.919;  289.725;  -11.490; 1331.118
903.479;  276.986;  -12.110; 1317.257
904.038;  255.824;  -11.720; 1262.595
904.598;  242.014;  -13.610; 1152.034
905.158;  238.682;  -11.040; 1240.893
905.717;  231.009;  -10.900; 1233.691
906.277;  219.334;  -15.080; 1217.330
906.836;  208.898;  -13.380; 1222.408
907.396;  201.107;  -10.780; 1193.047
907.955;  193.693;   -8.500; 1182.526
908.515;  187.687;  -12.760; 1099.364
909.074;  182.738;  -11.900; 1092.863
909.633;  178.131;   -8.950; 1069.121
910.192;  172.977;   -8.770; 1196.460
910.752;  166.700;  -12.390; 1029.960
911.311;  163.150;  -13.680; 1009.780
911.870;  161.896;  -12.370;  971.460
912.429;  161.840;  -10.900; 1094.080
912.988;  160.870;  -11.690; 1081.060
913.547;  156.225;  -13.240;  940.380
914.106;  151.333;  -11.990;  999.420
914.665;  148.319;   -9.990;  984.020
915.224;  147.840;  -12.880; 1035.760
915.782;  147.989;  -12.350;  922.560
916.341;  148.060;   -9.110; 1049.840
916.900;  143.559;   -9.270;  925.260
917.458;  141.774;  -13.240;  884.220
918.017;  141.470;  -13.550;  942.600
918.576;  140.765;  -12.320;  904.440
919.134;  138.785;  -11.490;  837.980
919.693;  136.506;  -13.670;  893.060
920.251;  135.751;  -15.470;  876.500
920.809;  134.167;  -11.290;  839.580
921.368;  133.532;  -10.210;  885.360
921.926;  132.845;  -12.140;  842.940
922.484;  131.645;  -13.080;  903.360
923.042;  131.428;  -11.720;  880.340
923.601;  134.069;   -7.480;  998.680
924.159;  131.715;  -11.570;  935.560
924.717;  128.706;  -13.840;  841.080
925.275;  129.736;  -10.640;  903.240
925.833;  129.071;  -11.540;  779.320
926.391;  129.255;  -12.960;  938.380
926.949;  127.807;  -14.130;  857.680
927.506;  128.085;  -11.750;  903.500
928.064;  128.282;  -10.250;  877.580
928.622;  126.887;  -13.030;  880.100
929.180;  127.317;  -13.400;  814.180
929.737;  128.227;  -10.700;  808.540
930.295;  131.780;  -10.070;  928.480
930.853;  132.900;  -11.960;  849.100
931.410;  133.897;  -13.120;  821.120
931.968;  133.780;  -10.770;  940.660
932.525;  132.888;  -10.680;  909.380
933.082;  132.612;  -13.130;  811.440
933.640;  133.798;  -13.210;  925.900
934.197;  132.412;  -11.060;  886.360
934.754;  132.948;   -9.580;  897.780
935.312;  136.234;  -14.000;  863.340
935.869;  140.610;  -10.710; 1012.980
936.426;  141.094;   -9.860;  872.800
936.983;  141.796;   -9.710;  889.020
937.540;  140.573;  -13.990;  838.280
938.097;  138.556;  -14.040;  940.120
938.654;  139.601;  -10.310;  898.860
939.211;  141.893;  -10.560;  952.480
939.768;  145.086;  -13.900;  915.420
940.324;  148.735;  -14.760;  904.200
940.881;  149.100;  -10.370;  878.500
941.438;  149.596;   -8.260; 1021.200
941.995;  144.955;  -12.540;  992.560
942.551;  143.843;  -14.670;  875.620
943.108;  144.651;  -10.450;  937.920
943.664;  146.360;  -10.750;  869.340
944.221;  149.560;  -11.550; 1088.140
944.777;  147.688;  -14.770;  869.680
945.334;  149.081;  -12.820;  884.840
945.890;  148.882;  -10.130;  946.480
946.446;  149.670;  -13.470;  947.020
947.003;  150.978;  -12.120;  964.940
947.559;  154.086;   -9.980; 1063.040
948.115;  152.774;   -9.080; 1026.540
948.671;  151.456;  -10.830;  967.300
949.227;  148.748;  -12.440;  859.560
949.783;  146.841;  -12.910;  858.900
950.339;  148.268;  -10.270;  991.000
950.895;  148.497;  -13.630; 1023.840
951.451;  147.486;  -15.100;  925.280
952.007;  148.556;  -11.330;  998.540
952.563;  148.328;  -10.580;  937.780
953.118;  146.519;  -13.440;  904.940
953.674;  145.986;  -12.710;  935.780
954.230;  146.338;  -10.350;  949.640
954.785;  143.355;   -9.190;  936.640
955.341;  141.313;  -11.200;  998.160
955.897;  140.701;  -16.560;  834.660
956.452;  141.887;  -12.570;  953.840
957.008;  140.787;   -7.970; 1083.640
957.563;  138.011;  -11.940; 1009.540
958.118;  134.270;  -13.450;  877.700
958.674;  135.056;  -12.030;  946.780
959.229;  136.237;   -9.410; 1013.980
959.784;  133.292;  -12.000;  832.400
960.339;  133.530;  -14.780; 1001.280
960.894;  129.954;   -9.860;  963.760
961.449;  124.682;   -9.970;  859.960
962.004;  124.859;  -10.900; 1212.840
962.559;  120.186;  -13.150;  860.140
963.114;  118.193;  -13.740;  742.480
963.669;  117.449;   -9.820;  915.500
964.224;  115.778;  -13.890;  874.340
964.779;  115.185;  -12.600;  828.420
965.334;  116.353;  -10.950; 1017.860
965.888;  115.952;  -11.170;  875.360
966.443;  117.190;  -12.540;  972.380
966.998;  116.456;  -15.780;  819.460
967.552;  116.021;   -9.760;  908.380
968.107;  112.325;   -9.060;  868.300
968.661;  113.564;  -11.950;  922.440
969.216;  115.248;  -12.800;  856.280
969.770;  115.688;  -11.210;  917.200
970.324;  114.333;  -11.610;  923.140
970.879;  109.887;  -11.370;  947.180
971.433;  107.168;  -12.540;  952.720
971.987;  102.076;  -11.320;  895.340
972.541;   99.382;  -10.720;  917.100
973.095;   98.905;   -9.680; 1009.460
973.649;   97.928;  -11.440;  809.480
974.203;   97.055;  -11.210;  829.040
974.757;   96.902;  -10.240;  855.220
975.311;   96.261;  -13.720;  872.600
975.865;   96.276;  -13.770;  881.820
976.419;   94.658;  -11.690;  857.400
976.973;   94.922;   -9.510;  849.620
977.526;   95.782;  -12.620;  949.920
978.080;   95.514;  -12.010;  796.780
978.634;   96.795;  -10.170;  921.320
979.187;   93.237;   -9.020;  905.400
979.741;   91.151;   -9.820; 1018.380
980.294;   87.045;  -14.870;  789.160
980.848;   85.558;  -12.380;  717.220
981.401;   86.561;  -10.350;  816.540
981.955;   88.769;  -13.720;  844.300
982.508;   88.371;  -11.490;  746.340
983.061;   88.821;  -10.000;  915.260
983.615;   84.502;  -11.480;  798.800
984.168;   81.323;  -13.220;  770.080
984.721;   81.101;  -13.960;  880.760
985.274;   81.157;  -10.870;  867.500
985.827;   79.702;   -9.790;  834.220
986.380;   76.733;  -13.120;  721.340
986.933;   76.579;  -12.450;  864.800
987.486;   75.391;  -10.210;  861.920
988.039;   73.591;   -8.430;  863.100
988.591;   71.162;  -10.520;  893.260
989.144;   69.089;  -14.860;  737.260
989.697;   69.304;  -13.080;  758.740
990.250;   69.770;  -10.150;  858.100
990.802;   68.349;  -13.430;  755.860
991.355;   69.823;  -12.750;  974.880
991.907;   67.108;  -12.040;  864.320
992.460;   64.394;  -11.330;  753.760
993.012;   63.997;  -13.610;  749.540
993.565;   63.576;  -13.460;  711.360
994.117;   64.910;   -9.360;  950.780
994.669;   61.381;  -11.300;  701.320
995.221;   59.426;  -13.540;  791.920
995.774;   57.901;  -13.430;  787.580
996.326;   57.490;  -12.520;  740.220
996.878;   56.172;  -10.950;  838.420
997.430;   53.419;  -14.300;  699.860
997.982;   53.259;  -13.760;  750.140
998.534;   53.648;  -11.530;  739.060
999.086;   51.824;  -10.310;  738.220
999.638;   50.697;  -12.530;  661.380
1000.190;   50.168;  -11.840;  699.320
1000.741;   49.453;  -10.260;  742.700
1001.293;   49.240;   -8.860;  686.020
1001.845;   47.761;  -13.700;  676.640
1002.396;   49.166;  -12.100;  743.400
1002.948;   47.754;  -12.760;  737.400
1003.500;   46.235;  -10.380;  723.780
1004.051;   46.529;  -11.900;  907.580
1004.603;   44.629;  -12.250;  791.820
1005.154;   41.488;  -13.210;  608.980
1005.705;   40.811;  -10.950;  723.960
1006.257;   39.894;  -13.880;  707.220
1006.808;   39.396;  -12.840;  685.460
1007.359;   39.572;  -10.570;  763.240
1007.910;   38.539;   -9.620;  646.640
1008.461;   37.715;  -13.630;  732.940
1009.013;   36.914;  -17.200;  588.340
1009.564;   38.474;  -10.200;  793.520
1010.115;   35.569;  -12.570;  597.040
1010.665;   34.900;  -15.150;  602.160
1011.216;   35.535;  -14.480;  667.920
1011.767;   35.430;  -11.340;  697.920
1012.318;   34.620;   -9.780;  736.980
1012.869;   33.743;  -12.380;  679.000
1013.419;   32.991;  -15.560;  603.120
1013.970;   34.085;  -11.010;  666.640
1014.521;   32.995;  -11.610;  620.620
1015.071;   33.540;  -13.450;  670.380
1015.622;   33.464;  -13.870;  635.460
1016.172;   32.627;  -11.610;  596.820
1016.723;   31.965;  -12.120;  614.380
1017.273;   32.003;  -13.620;  604.160
1017.823;   31.828;  -14.140;  650.340
1018.374;   31.979;  -12.800;  611.760
1018.924;   30.704;  -12.340;  716.880
1019.474;   31.683;  -11.410;  718.880
1020.024;   30.515;  -14.770;  657.580
1020.574;   31.181;   -9.780;  726.160
1021.124;   30.622;   -8.560;  673.580
1021.674;   29.077;  -15.190;  559.120
1022.224;   30.696;  -13.530;  708.940
1022.774;   31.138;  -13.280;  668.820
1023.324;   30.025;  -10.690;  753.520
1023.874;   31.493;  -10.240;  875.760
1024.423;   29.044;  -12.540;  613.700
1024.973;   29.484;  -10.010;  610.760
1025.523;   28.093;  -10.550;  620.960
1026.072;   27.819;  -13.560;  606.420
1026.622;   27.896;  -15.120;  675.740
1027.172;   29.023;  -11.260;  715.660
1027.721;   27.715;  -11.410;  601.220
1028.270;   28.038;  -13.530;  663.400
1028.820;   28.449;  -13.680;  638.080
1029.369;   27.855;  -13.520;  612.700
1029.918;   27.661;  -10.980;  649.840
1030.468;   26.782;  -13.530;  564.780
1031.017;   27.619;  -13.170;  634.800
1031.566;   26.089;  -12.200;  608.900
1032.115;   26.390;   -9.960;  694.500
1032.664;   25.279;  -13.210;  596.480
1033.213;   27.099;  -12.500;  735.420
1033.762;   26.480;  -11.910;  635.620
1034.311;   25.487;   -9.640;  677.220
1034.860;   25.832;  -13.310;  691.000
1035.408;   25.914;  -11.830;  722.720
1035.957;   26.735;  -12.000;  719.540
1036.506;   23.674;  -11.690;  530.800
1037.055;   26.581;  -10.990;  844.320
1037.603;   25.494;  -15.120;  664.000
1038.152;   23.097;  -12.450;  534.760
1038.700;   24.226;  -10.560;  585.740
1039.249;   23.594;  -11.080;  681.220
1039.797;   23.876;  -12.540;  633.360
1040.345;   24.506;  -11.920;  705.420
1040.894;   23.092;  -11.410;  625.300
1041.442;   23.282;  -14.320;  632.200
1041.990;   22.929;  -16.240;  559.160
1042.538;   22.553;  -11.680;  536.180
1043.087;   22.880;  -10.760;  570.860
1043.635;   23.466;  -11.850;  670.500
1044.183;   22.952;  -15.480;  586.400
1044.731;   22.470;  -11.770;  576.000
1045.279;   21.444;  -13.090;  674.920
1045.827;   24.120;  -12.440;  892.400
1046.374;   21.308;  -13.840;  515.420
1046.922;   21.341;  -13.220;  590.580
1047.470;   22.784;  -10.230;  691.300
1048.018;   21.128;  -14.590;  647.960
1048.565;   22.462;  -12.050;  708.600
1049.113;   20.815;  -11.650;  557.000
1049.660;   20.491;  -10.510;  629.660
1050.208;   21.067;  -13.310;  675.640
1050.755;   20.893;  -15.900;  606.580
1051.303;   20.748;  -11.430;  686.820
1051.850;   20.023;   -8.480;  635.120
1052.397;   17.848;  -15.010;  473.960
1052.945;   19.428;  -13.960;  617.760
1053.492;   21.178;  -13.150;  741.840
1054.039;   20.571;   -9.630;  720.180
1054.586;   18.517;  -13.680;  557.240
1055.133;   19.932;  -14.570;  693.140
1055.680;   20.269;  -13.820;  646.620
1056.227;   18.917;  -11.730;  542.780
1056.774;   20.004;  -12.480;  794.980
1057.321;   18.476;  -13.930;  523.260
1057.868;   19.198;  -11.690;  651.320
1058.415;   18.200;   -9.520;  651.980
1058.961;   18.445;  -13.160;  678.940
1059.508;   18.632;  -12.920;  643.820
1060.055;   18.548;  -11.920;  581.780
1060.601;   19.005;  -11.500;  624.300
1061.148;   18.239;  -14.330;  616.820
1061.694;   17.285;  -16.870;  592.580
1062.241;   18.337;  -10.330;  596.320
1062.787;   18.520;  -10.620;  663.140
1063.334;   18.851;  -10.110;  808.560
1063.880;   17.456;  -13.400;  668.360
1064.426;   18.243;  -10.680;  706.820
1064.972;   15.972;   -9.920;  601.340
1065.518;   15.437;  -10.980;  566.640
1066.065;   17.289;  -14.890;  624.460
1066.611;   15.953;  -12.870;  598.800
1067.157;   16.450;  -12.950;  641.860
1067.703;   16.452;  -13.540;  668.480
1068.249;   16.138;  -13.540;  605.220
1068.794;   16.654;  -12.600;  626.880
1069.340;   15.353;  -10.620;  578.960
1069.886;   16.281;  -12.830;  590.700
1070.432;   14.554;  -14.870;  541.720
1070.977;   15.123;  -11.980;  601.080
1071.523;   15.210;   -8.200;  573.060
1072.068;   15.216;  -12.330;  582.000
1072.614;   15.282;  -16.370;  527.760
1073.160;   16.187;  -11.100;  687.040
1073.705;   14.655;  -10.480;  572.520
1074.250;   14.432;  -14.520;  559.900
1074.796;   15.831;  -11.460;  655.160
1075.341;   15.570;  -11.950;  664.100
1075.886;   14.669;  -11.460;  594.240
1076.431;   14.001;  -13.770;  649.880
1076.976;   14.097;  -12.680;  639.220
1077.521;   14.297;  -13.170;  583.080
1078.067;   13.108;  -10.860;  579.400
1078.612;   13.799;  -13.920;  661.620
1079.156;   13.553;  -13.880;  601.540
1079.701;   14.711;  -13.120;  693.260
1080.246;   14.499;   -9.940;  696.300
1080.791;   13.188;  -14.740;  625.020
1081.336;   13.773;  -13.750;  659.320
1081.880;   13.655;  -13.400;  649.680
1082.425;   12.960;  -12.220;  573.480
1082.970;   14.180;  -11.610;  717.040
1083.514;   12.887;  -13.580;  597.000
1084.059;   12.396;  -12.810;  586.720
1084.603;   11.729;  -12.320;  565.840
1085.147;   11.847;  -13.190;  645.220
1085.692;   13.499;  -12.480;  716.800
1086.236;   11.530;  -13.020;  503.140
1086.780;   13.334;   -9.190;  751.440
1087.325;   12.681;  -12.480;  654.620
1087.869;   11.945;  -12.450;  610.700
1088.413;   13.018;  -12.240;  705.040
1088.957;   10.273;   -9.020;  543.400
1089.501;   12.826;  -10.320;  766.640
1090.045;   11.963;  -12.720;  726.480
1090.589;   10.424;  -13.690;  569.920
1091.133;   11.328;  -10.020;  673.340
1091.676;   11.139;  -12.330;  591.940
1092.220;   11.008;  -14.970;  600.920
1092.764;   11.619;  -12.430;  706.960
1093.307;   11.098;   -9.800;  673.780
1093.851;    9.560;  -14.970;  556.540
1094.395;   10.934;  -15.310;  683.140
1094.938;   10.505;  -10.370;  632.520
1095.482;   10.252;  -11.050;  559.800
1096.025;   10.602;  -11.840;  710.880
1096.568;   11.427;  -12.840;  779.280
1097.112;    8.926;  -14.700;  508.180
1097.655;    9.465;   -8.720;  603.000
1098.198;    8.709;  -13.610;  600.180
1098.741;    9.041;  -13.350;  612.860
1099.285;   10.556;  -11.230;  657.300
1099.828;    7.917;  -11.840;  439.400
1100.371;    8.950;  -10.840;  608.160
1100.914;    9.226;  -14.190;  682.660
1101.457;    9.847;  -11.240;  679.900
1101.999;    8.197;  -11.270;  584.680
1102.542;    8.981;  -11.480;  641.440
1103.085;    8.742;  -11.750;  658.500
1103.628;    9.684;  -11.400;  762.060
1104.170;    8.406;  -10.490;  588.280
1104.713;    8.453;  -10.600;  646.700
1105.256;    8.663;  -14.360;  557.440
1105.798;    7.334;  -13.210;  499.980
1106.341;    8.983;  -10.270;  728.900
1106.883;    7.799;  -12.200;  521.340
1107.425;    7.866;  -13.110;  668.180
1107.968;    7.624;  -12.840;  612.380
1108.510;    8.730;   -6.480;  684.960
1109.052;    6.020;  -13.940;  612.620
1109.594;    6.907;  -13.690;  554.440
1110.136;    8.226;  -11.880;  643.220
1110.679;    7.037;   -9.500;  633.080
1111.221;    6.799;  -14.160;  604.460
1111.763;    7.256;  -13.980;  559.220
1112.304;    6.835;  -13.880;  547.140
1112.846;    7.616;  -12.210;  666.240
1113.388;    9.382;  -11.390;  942.180
1113.930;    7.089;  -14.540;  694.200
1114.472;    6.221;  -12.640;  606.540
1115.013;    5.359;  -11.620;  551.280
1115.555;    4.771;  -13.640;  587.100
1116.097;    4.585;  -15.380;  579.480
1116.638;    6.551;  -12.640;  684.600
1117.180;    5.823;   -9.850;  667.740
1117.721;    5.320;  -13.690;  568.580
1118.262;    5.890;  -12.680;  677.960
1118.804;    7.068;  -12.530;  637.340
1119.345;    5.442;  -11.690;  578.400
1119.886;    6.421;  -13.380;  704.040
1120.427;    5.015;  -14.070;  589.020
1120.969;    4.994;  -13.500;  597.920
1121.510;    4.939;  -11.480;  563.060
1122.051;    4.784;  -12.830;  723.580
1122.592;    4.769;  -14.290;  655.420
1123.133;    4.384;  -12.400;  547.940
1123.673;    5.830;  -10.130;  706.480
1124.214;    4.604;  -12.930;  612.460
1124.755;    4.947;  -14.380;  639.460
1125.296;    5.002;  -14.000;  627.320
1125.836;    5.324;  -10.070;  691.500
1126.377;    3.819;  -12.640;  599.660
1126.918;    4.983;  -12.960;  614.980
1127.458;    3.806;  -13.350;  622.220
1127.999;    5.506;  -10.750;  656.980
1128.539;    4.174;  -12.350;  694.240
1129.079;    3.962;  -14.860;  632.720
1129.620;    3.347;  -13.840;  558.100
1130.160;    2.921;  -12.330;  539.480
1130.700;    4.291;  -14.530;  640.840
1131.240;    4.836;  -12.530;  643.700
1131.781;    4.275;  -14.450;  619.680
1132.321;    3.663;   -9.790;  599.120
1132.861;    1.930;  -14.860;  564.200
1133.401;    2.468;  -14.290;  593.940
1133.941;    3.657;  -11.750;  626.280
1134.481;    2.441;   -9.920;  597.580
1135.020;    2.913;  -12.290;  609.160
1135.560;    2.860;  -11.650;  674.940
1136.100;    2.961;  -16.270;  501.160
1136.640;    1.891;  -10.890;  510.480
1137.179;    1.934;  -14.180;  537.960
1137.719;    2.966;  -16.250;  605.400
1138.258;    2.782;  -14.230;  587.360
1138.798;    2.409;   -9.090;  663.780
1139.337;    1.502;  -15.130;  482.840
1139.877;    3.019;  -13.680;  642.360
1140.416;    4.585;  -11.320;  878.060
1140.955;    1.014;  -10.860;  535.380
1141.494;    1.991;  -12.920;  669.280
1142.034;    1.421;  -13.930;  583.520
1142.573;    3.209;  -11.440;  646.280
1143.112;    1.513;  -12.000;  553.480
1143.651;    1.660;  -13.670;  536.480
1144.190;    2.444;  -12.730;  691.640
1144.729;    1.974;  -14.560;  607.420
1145.267;    1.215;  -11.830;  584.900
1145.806;    2.296;  -12.230;  637.040
1146.345;    0.769;  -14.130;  635.020
1146.884;    1.965;  -11.590;  622.500
1147.422;    0.775;  -12.550;  533.060
1147.961;    2.398;  -11.180;  708.460
1148.500;    2.218;  -11.510;  669.720
1149.038;    2.000;  -11.640;  632.500
1149.577;    1.735;  -10.130;  698.640
1150.115;   -1.149;  -13.970;  452.280
1150.653;    1.015;  -14.520;  607.340
1151.192;    1.630;  -12.810;  552.920
1151.730;    0.875;   -9.100;  652.560
1152.268;    0.216;  -12.220;  589.520
1152.806;    0.628;  -14.140;  571.180
1153.344;    0.238;  -12.350;  577.640
1153.882;    0.056;   -8.980;  600.060
1154.421;   -1.569;  -15.190;  470.620
1154.958;   -1.022;  -15.210;  595.240
1155.496;    1.009;  -12.850;  645.280
1156.034;    0.601;   -9.940;  721.880
1156.572;    1.169;  -13.570;  667.060
1157.110;   -0.235;  -14.590;  473.940
1157.647;    0.822;  -13.030;  676.960
1158.185;   -0.273;  -12.140;  564.320
1158.723;   -1.518;  -14.390;  509.200
1159.260;   -0.047;  -14.090;  701.700
1159.798;    0.741;  -11.920;  658.160
1160.335;   -0.549;  -11.110;  631.820

