
Integration time [ms]:   3.276
Averaging Nr. [scans]: 1000
Smoothing Nr. [pixels]: 0
Data measured with spectrometer [name]: 7414430SP
Wave   ;Sample   ;Dark     ;Reference
[nm]   ;[counts] ;[counts] ;[counts] 

288.544;  149.904;    7.793;  793.890
289.143;  154.842;    7.462;  681.602
289.742;  153.430;    8.602;  828.814
290.341;  138.277;    1.321;  789.841
290.940;  128.413;   -0.709;  730.702
291.538;  128.515;    0.881;  881.108
292.137;  128.997;    0.122;  792.581
292.736;  133.388;   -1.929;  975.101
293.335;  130.702;   -8.229;  735.086
293.934;  130.405;   -5.279;  781.677
294.532;  129.214;   -1.369; 1031.958
295.131;  114.769;   -7.641;  834.394
295.730;  116.413;   -8.420;  809.588
296.328;  114.580;   -5.611;  783.442
296.927;  115.589;   -5.781;  779.652
297.525;  116.638;   -6.361;  781.236
298.124;  107.016;  -11.382;  654.009
298.722;  109.991;   -7.641;  761.933
299.321;  107.647;   -6.811;  708.597
299.919;  106.282;   -6.991;  751.918
300.518;  103.663;  -10.362;  689.338
301.116;  103.894;   -9.581;  691.381
301.715;  104.716;   -4.891;  730.222
302.313;  103.291;   -8.801;  704.943
302.911;   99.718;   -8.522;  733.830
303.509;  104.868;   -6.171;  925.627
304.108;  102.509;   -7.311;  760.383
304.706;  101.083;   -8.321;  801.664
305.304;   96.104;  -10.222;  796.707
305.902;  100.497;   -6.021;  784.484
306.500;   95.836;   -4.971;  728.200
307.098;   94.945;   -7.061;  746.560
307.696;   93.398;   -8.801;  780.432
308.294;   94.178;   -6.411;  731.359
308.892;   95.026;   -2.901;  759.769
309.490;   92.654;   -5.041;  712.161
310.088;   90.266;   -5.002;  788.444
310.686;   94.004;   -2.041;  821.749
311.284;   88.633;   -2.351;  766.040
311.882;   86.823;   -4.422;  731.225
312.480;   84.032;   -4.192;  697.167
313.078;   86.109;   -1.172;  808.331
313.675;   86.610;   -2.601;  691.600
314.273;   82.179;   -1.312;  797.837
314.871;   81.951;   -3.942;  589.829
315.468;   79.046;   -2.802;  652.090
316.066;   81.660;   -0.701;  694.427
316.664;   75.021;   -4.362;  656.351
317.261;   79.257;   -2.872;  910.128
317.859;   74.520;   -2.022;  768.735
318.456;   74.447;   -0.531;  830.096
319.054;   70.945;   -3.912;  787.828
319.651;   69.436;   -4.752;  759.928
320.249;   68.792;   -2.602;  810.188
320.846;   66.535;   -0.821;  714.286
321.443;   63.380;   -4.642;  832.135
322.041;   61.158;   -5.002;  812.315
322.638;   58.550;   -3.982;  701.456
323.235;   60.166;   -3.411;  665.683
323.833;   57.573;   -7.361;  740.354
324.430;   52.312;   -8.611;  615.900
325.027;   53.014;   -4.061;  876.855
325.624;   52.930;   -4.031;  644.532
326.221;   49.954;   -7.481;  689.717
326.818;   49.982;   -5.281;  818.332
327.415;   53.685;   -7.460;  748.828
328.012;   51.956;   -5.510;  690.585
328.609;   50.590;   -7.880;  731.389
329.206;   49.061;   -8.331;  778.621
329.803;   49.592;   -5.121;  737.841
330.400;   51.351;   -4.510;  704.260
330.997;   53.291;   -6.441;  817.147
331.594;   51.966;   -8.831;  788.185
332.191;   57.025;   -7.621;  728.722
332.787;   60.246;   -4.591;  844.463
333.384;   58.952;   -7.412;  763.093
333.981;   57.336;   -8.293;  815.687
334.578;   60.651;   -7.052;  708.378
335.174;   62.630;   -3.102;  731.469
335.771;   62.248;   -5.943;  836.456
336.367;   59.838;   -7.393;  710.631
336.964;   62.629;   -4.063;  793.266
337.561;   61.628;   -3.813;  731.112
338.157;   56.754;   -4.654;  911.916
338.754;   55.031;   -7.934;  796.589
339.350;   52.352;   -4.414;  722.493
339.946;   54.861;   -4.664;  773.135
340.543;   46.214;   -6.375;  846.136
341.139;   41.361;   -9.815;  720.836
341.735;   38.288;   -4.526;  772.593
342.332;   37.932;   -4.895;  691.472
342.928;   37.563;   -4.295;  795.394
343.524;   31.952;   -5.476;  761.684
344.120;   28.146;   -5.856;  738.562
344.716;   30.860;   -2.155;  723.717
345.313;   29.750;   -6.275;  795.342
345.909;   24.086;   -8.815;  627.336
346.505;   26.090;   -5.305;  740.247
347.101;   26.280;   -2.674;  827.864
347.697;   26.400;   -4.344;  785.398
348.293;   21.267;   -9.975;  627.244
348.889;   21.779;   -5.774;  745.914
349.485;   20.538;   -5.004;  688.205
350.081;   21.893;   -4.704;  772.592
350.676;   16.229;   -6.635;  691.606
351.272;   21.880;   -4.504;  809.530
351.868;   21.446;   -3.914;  780.497
352.464;   18.075;   -9.044;  723.932
353.059;   14.792;   -8.314;  646.017
353.655;   18.627;   -7.024;  777.063
354.251;   19.017;   -5.343;  759.845
354.846;   13.635;   -8.604;  740.646
355.442;   11.573;   -6.945;  753.071
356.038;   13.824;   -7.564;  751.708
356.633;   13.251;   -5.814;  728.594
357.229;   10.965;   -7.364;  724.757
357.824;   10.124;   -8.024;  703.600
358.420;    9.709;   -9.384;  679.726
359.015;    8.651;   -5.104;  695.357
359.610;   10.466;   -6.854;  763.920
360.206;    4.912;  -10.185;  603.240
360.801;    7.373;   -7.054;  646.503
361.396;    8.804;   -5.034;  725.975
361.992;    5.149;   -8.284;  668.220
362.587;    3.030;   -8.625;  670.160
363.182;    4.034;   -7.674;  689.631
363.777;    5.075;   -5.164;  738.242
364.372;    4.782;   -8.604;  737.314
364.967;    1.012;   -9.055;  680.744
365.563;    5.298;   -6.114;  815.567
366.158;    2.890;   -5.814;  685.161
366.753;    2.573;   -7.854;  649.263
367.348;    1.651;   -7.804;  746.056
367.942;    0.893;   -7.954;  697.298
368.537;    0.698;   -4.984;  754.245
369.132;    0.963;   -8.564;  703.428
369.727;   -3.368;   -8.855;  638.079
370.322;   -1.847;   -6.245;  580.186
370.917;   -2.449;   -6.425;  710.646
371.511;   -0.322;   -6.294;  861.834
372.106;   -3.363;   -7.685;  776.964
372.701;   -6.684;   -7.335;  585.988
373.296;   -1.350;   -4.564;  863.135
373.890;   -5.980;  -10.235;  647.840
374.485;   -8.142;   -7.885;  691.199
375.079;   -3.972;   -7.324;  738.685
375.674;   -2.392;   -3.494;  812.970
376.268;   -7.397;   -8.525;  691.759
376.863;  -11.760;  -10.086;  580.327
377.457;   -6.534;   -7.025;  662.490
378.052;   -7.511;   -3.585;  764.884
378.646;   -9.712;   -7.595;  741.167
379.240;   -9.303;   -8.335;  721.176
379.835;   -8.015;   -5.785;  636.978
380.429;  -10.594;   -4.335;  562.557
381.023;  -10.282;   -6.805;  779.205
381.617;  -12.510;   -9.195;  680.106
382.212;   -8.998;   -6.905;  685.303
382.806;   -9.054;   -3.745;  760.690
383.400;  -12.614;   -7.745;  672.281
383.994;  -13.802;   -9.765;  664.870
384.588;  -10.049;   -6.564;  697.701
385.182;   -8.684;   -5.344;  726.624
385.776;  -10.995;   -8.514;  706.875
386.370;  -13.267;   -9.555;  681.968
386.964;  -12.461;   -8.715;  684.155
387.558;  -11.025;   -6.174;  598.360
388.152;  -13.590;   -8.725;  681.959
388.745;  -12.236;   -7.965;  814.707
389.339;  -10.270;   -5.924;  747.642
389.933;   -9.452;   -5.524;  695.370
390.527;  -10.720;   -7.114;  859.029
391.120;  -16.585;  -10.725;  595.318
391.714;  -13.552;   -8.035;  711.633
392.308;  -10.875;   -3.574;  780.253
392.901;  -15.062;   -7.245;  642.460
393.495;  -15.801;   -9.285;  595.414
394.089;  -14.236;   -5.895;  760.452
394.682;  -14.747;   -4.295;  697.188
395.275;  -15.444;   -9.875;  719.927
395.869;  -16.198;   -8.485;  667.314
396.462;  -15.324;   -7.455;  616.609
397.056;  -11.154;   -5.424;  776.621
397.649;  -15.633;   -6.605;  731.575
398.242;  -13.634;   -8.224;  712.645
398.836;  -12.109;   -7.474;  766.408
399.429;  -13.494;   -7.094;  631.041
400.022;  -17.175;   -9.475;  665.902
400.615;  -13.978;   -7.145;  805.609
401.208;  -12.380;   -7.174;  691.451
401.802;  -15.245;   -5.515;  699.329
402.395;  -16.211;   -9.875;  683.502
402.988;  -16.830;   -8.845;  696.627
403.581;  -14.067;   -8.874;  646.878
404.174;  -10.946;   -5.324;  686.568
404.767;  -14.406;   -9.575;  638.583
405.360;  -17.181;  -10.965;  621.445
405.953;  -11.837;   -8.764;  759.034
406.545;  -11.197;   -7.514;  725.342
407.138;  -15.804;  -10.025;  618.350
407.731;  -13.892;  -10.034;  613.303
408.324;   -9.999;   -9.374;  660.554
408.917;  -11.131;   -6.534;  681.864
409.509;  -12.997;   -8.004;  740.396
410.102;  -14.856;   -9.875;  643.948
410.695;   -8.909;   -8.604;  665.758
411.287;  -10.226;   -6.794;  599.821
411.880;  -11.534;   -9.334;  585.421
412.472;  -13.750;  -10.254;  613.092
413.065;  -11.155;   -6.714;  629.408
413.657;  -10.027;   -7.234;  576.678
414.250;   -9.402;  -10.544;  646.681
414.842;  -10.831;   -9.744;  676.353
415.434;   -8.258;   -6.994;  570.463
416.027;   -4.603;   -5.893;  652.196
416.619;   -6.911;   -7.264;  713.400
417.211;   -7.101;  -10.374;  599.352
417.804;   -3.776;   -7.993;  628.499
418.396;   -8.148;   -7.234;  607.643
418.988;   -4.808;   -9.443;  659.238
419.580;   -8.483;  -10.724;  568.276
420.172;   -6.361;  -10.323;  536.196
420.764;   -2.019;   -8.793;  672.482
421.356;   -3.767;  -11.143;  636.898
421.948;   -4.060;   -8.293;  677.661
422.540;    0.876;   -7.893;  680.027
423.132;   -0.148;   -7.082;  600.641
423.724;   -3.095;   -8.653;  561.267
424.316;   -1.547;  -10.213;  621.345
424.908;    1.832;   -9.762;  591.517
425.500;    2.652;   -5.572;  647.978
426.092;    3.077;   -8.422;  648.268
426.683;    1.879;   -9.283;  684.836
427.275;    4.131;   -7.852;  641.471
427.867;    7.128;   -5.272;  668.948
428.458;    7.289;   -7.682;  732.344
429.050;    6.105;  -10.612;  680.749
429.642;    7.523;   -9.882;  743.124
430.233;    7.319;   -6.962;  569.356
430.825;    8.735;   -6.842;  724.809
431.416;    6.754;   -9.672;  698.241
432.008;   10.353;   -6.552;  651.723
432.599;   10.384;   -6.891;  656.073
433.190;    7.826;  -10.912;  637.670
433.782;    7.533;  -11.172;  590.395
434.373;   15.416;   -6.061;  884.765
434.964;   13.531;   -8.251;  602.920
435.556;   11.396;   -9.722;  634.537
436.147;   13.883;   -9.082;  758.490
436.738;   14.219;   -8.041;  701.099
437.329;   18.870;   -7.341;  721.723
437.920;   12.043;   -8.162;  666.688
438.511;   12.149;  -11.802;  564.526
439.103;   19.009;  -10.191;  623.998
439.694;   19.952;   -7.601;  681.583
440.285;   20.989;   -8.541;  764.432
440.876;   19.489;   -9.751;  845.738
441.466;   18.846;   -9.401;  575.162
442.057;   23.525;   -7.760;  665.814
442.648;   22.144;   -9.971;  746.255
443.239;   20.781;  -11.001;  620.477
443.830;   25.816;   -7.990;  704.958
444.421;   27.685;   -7.910;  655.474
445.011;   23.738;   -8.131;  693.619
445.602;   24.049;   -7.111;  743.126
446.193;   25.453;  -10.920;  488.117
446.783;   29.477;   -6.500;  640.397
447.374;   24.951;   -8.671;  692.759
447.964;   26.067;  -10.781;  713.770
448.555;   34.648;   -9.650;  822.742
449.145;   31.248;   -8.660;  662.853
449.736;   31.728;   -8.990;  803.179
450.326;   32.025;   -9.500;  713.626
450.917;   36.847;   -8.680;  675.324
451.507;   35.874;   -7.520;  600.661
452.097;   36.197;   -8.590;  746.267
452.688;   37.775;  -11.340;  742.160
453.278;   36.843;  -10.100;  566.840
453.868;   41.254;   -6.019;  793.550
454.458;   39.960;   -9.440;  651.141
455.048;   39.717;  -10.560;  711.783
455.639;   41.631;  -11.799;  567.096
456.229;   45.266;   -6.899;  710.694
456.819;   46.320;   -7.389;  751.158
457.409;   47.115;  -11.119;  773.993
457.999;   49.367;   -9.289;  737.505
458.589;   49.238;   -6.139;  686.606
459.179;   49.301;   -8.729;  717.658
459.769;   47.082;   -9.789;  627.099
460.358;   52.012;  -10.259;  797.262
460.948;   52.877;   -7.299;  689.503
461.538;   53.232;  -10.289;  660.677
462.128;   52.384;  -11.269;  664.934
462.717;   58.853;   -9.368;  710.326
463.307;   61.751;   -7.908;  705.846
463.897;   57.207;   -9.599;  656.942
464.486;   56.798;   -9.769;  837.128
465.076;   61.226;   -8.048;  733.776
465.666;   64.096;   -9.358;  652.900
466.255;   61.745;   -7.919;  785.651
466.845;   61.455;  -11.689;  666.749
467.434;   64.444;   -7.818;  725.873
468.023;   65.732;   -7.678;  658.357
468.613;   62.826;  -10.939;  713.946
469.202;   67.000;  -10.118;  646.507
469.791;   70.891;   -9.108;  737.811
470.381;   72.685;   -6.058;  742.813
470.970;   73.400;  -10.428;  711.099
471.559;   73.437;  -10.268;  733.291
472.148;   76.130;   -8.448;  675.737
472.738;   78.541;   -6.917;  765.466
473.327;   77.669;  -11.978;  637.529
473.916;   77.343;  -11.888;  737.446
474.505;   81.275;   -9.437;  751.703
475.094;   83.959;   -6.747;  806.570
475.683;   83.768;   -9.367;  797.699
476.272;   85.351;  -12.637;  730.632
476.861;   88.075;  -10.027;  706.754
477.449;   94.221;   -8.716;  728.487
478.038;   88.711;   -9.577;  692.513
478.627;   90.200;   -9.718;  714.852
479.216;   96.164;   -8.947;  769.441
479.805;   98.953;   -6.256;  783.375
480.393;   99.372;   -7.937; 1008.945
480.982;   98.453;   -7.717;  874.501
481.571;  104.338;   -9.266;  858.333
482.159;  105.125;   -7.636;  705.386
482.748;  104.588;   -9.667;  821.385
483.336;  109.371;  -10.376;  858.209
483.925;  109.794;   -7.147;  774.373
484.513;  116.282;   -7.996;  758.962
485.102;  113.524;  -10.027;  810.965
485.690;  122.176;  -10.446; 1011.050
486.278;  124.581;   -8.446;  979.329
486.867;  124.703;   -6.356;  809.662
487.455;  126.658;   -9.136;  898.229
488.043;  128.541;  -10.646;  748.361
488.631;  137.299;   -7.456; 1005.079
489.220;  140.771;   -6.636;  908.626
489.808;  142.217;  -11.036;  741.415
490.396;  149.908;  -10.246;  914.645
490.984;  155.259;   -8.556;  830.161
491.572;  166.002;   -5.886;  940.315
492.160;  173.805;   -9.486;  919.081
492.748;  185.607;  -10.976;  884.341
493.336;  210.856;   -8.776; 1019.693
493.924;  238.366;   -5.465;  958.077
494.512;  269.924;   -9.986; 1066.638
495.100;  315.074;  -10.636; 1103.280
495.687;  372.800;  -10.885; 1206.373
496.275;  436.483;   -8.126; 1150.796
496.863;  504.951;  -10.586; 1281.171
497.451;  610.199;  -11.926; 1386.805
498.038;  768.531;  -10.885; 1556.729
498.626;  899.626;   -6.315; 1741.407
499.214; 1033.560;   -7.326; 2016.609
499.801; 1250.482;  -11.906; 2220.633
500.389; 1526.607;  -10.466; 2312.494
500.976; 1897.115;   -5.236; 2744.849
501.564; 2307.595;   -8.936; 3148.565
502.151; 2700.425;  -13.176; 3515.999
502.738; 3248.934;  -10.646; 3971.274
503.326; 3650.535;   -9.525; 4403.796
503.913; 4126.808;  -10.856; 5161.749
504.500; 4480.969;  -11.586; 5986.420
505.088; 4873.113;  -10.336; 6381.201
505.675; 5393.525;   -6.355; 6925.547
506.262; 5963.614;   -9.046; 7619.060
506.849; 6738.380;  -10.416; 8733.969
507.436; 7207.831;  -10.305; 9790.121
508.023; 7469.476;   -5.496; 9985.472
508.610; 7852.746;   -7.856;10434.618
509.197; 8689.330;  -10.097;11198.435
509.784;10221.603;  -10.886;12391.194
510.371;11379.330;   -9.315;13603.713
510.958;12143.754;   -9.936;14426.586
511.545;12770.251;   -9.326;15243.775
512.132;13207.440;  -10.075;15945.876
512.719;13843.036;   -7.796;16340.369
513.305;15168.637;  -10.606;18011.766
513.892;16049.266;  -11.486;19754.971
514.479;17394.736;   -9.126;20967.805
515.066;18306.105;   -6.026;22299.793
515.652;19031.256;   -8.466;22908.660
516.239;20507.715;  -10.886;23798.875
516.825;20997.889;  -11.496;25567.275
517.412;21765.158;   -5.796;28154.959
517.998;22901.920;  -10.506;28344.111
518.585;23169.137;  -10.076;27134.219
519.171;23225.578;   -8.315;27268.576
519.758;24776.184;   -8.596;28964.129
520.344;25748.621;   -8.466;30664.494
520.930;26013.742;  -11.006;32550.605
521.516;27835.096;  -10.495;35422.895
522.103;30449.289;   -5.526;38280.004
522.689;31379.531;   -8.746;37835.117
523.275;30391.549;  -11.376;37288.613
523.861;30029.256;  -11.156;37281.395
524.447;31668.254;   -8.135;37846.949
525.033;31517.160;   -7.896;38321.949
525.619;32075.502;  -12.476;38579.285
526.205;33543.043;   -9.516;40622.875
526.791;36046.984;   -6.926;42258.836
527.377;36465.359;   -8.346;42966.902
527.963;38420.266;   -8.717;42018.949
528.549;37474.625;  -11.016;42476.828
529.135;35060.492;   -8.536;41854.852
529.721;34710.426;   -9.666;41237.711
530.306;34489.578;  -10.066;41259.445
530.892;34812.625;  -11.356;41506.047
531.478;35593.207;   -6.596;43559.613
532.063;36980.789;   -8.836;47695.563
532.649;37259.957;  -10.047;50808.324
533.235;40034.102;   -9.746;51787.500
533.820;42058.188;   -6.566;52145.035
534.406;41984.328;  -10.817;51133.488
534.991;41269.578;   -9.416;49996.805
535.576;40001.148;   -9.036;48882.852
536.162;40360.238;   -6.156;46942.285
536.747;41195.719;  -11.607;45711.746
537.333;44264.273;  -11.787;48510.180
537.918;45970.918;  -12.437;50439.891
538.503;44616.234;   -7.196;50863.711
539.088;42441.863;  -10.556;50906.922
539.673;44320.066;   -8.767;52621.965
540.259;44467.684;  -10.026;52368.094
540.844;40976.148;   -7.416;50879.109
541.429;40313.809;   -9.467;52077.777
542.014;44395.148;   -9.527;52716.695
542.599;45733.582;   -9.946;52363.281
543.184;42429.594;   -7.927;53187.137
543.769;43366.555;   -9.297;54697.605
544.354;43466.512;  -10.127;53913.914
544.938;42996.434;   -9.267;49680.164
545.523;45003.371;   -6.506;47386.277
546.108;46313.125;   -9.787;49151.949
546.693;47922.031;  -11.587;51384.637
547.278;47898.887;  -10.986;51853.254
547.862;43634.574;   -8.206;51173.750
548.447;39369.859;  -10.067;51691.395
549.031;38999.484;   -9.637;52456.703
549.616;43591.617;   -9.926;52714.516
550.201;43488.930;   -6.347;52414.598
550.785;42568.129;   -7.917;52355.059
551.370;42864.426;  -10.867;54589.453
551.954;44640.027;   -9.047;58267.348
552.538;46588.715;   -7.827;59062.176
553.123;45616.910;  -10.287;58115.285
553.707;43746.797;  -12.178;56556.285
554.291;43682.250;   -8.717;56201.668
554.876;42323.180;   -7.457;55335.762
555.460;43075.590;  -10.387;54155.703
556.044;45836.109;   -9.618;53721.484
556.628;43772.152;  -11.567;53731.016
557.212;43678.520;   -8.097;54312.531
557.796;42615.879;  -11.077;53797.773
558.380;42661.602;  -11.108;56145.984
558.964;42455.656;   -9.057;57277.930
559.548;42181.359;   -6.977;56459.641
560.132;41201.305;  -11.457;54434.543
560.716;40511.176;  -11.378;54800.617
561.300;40076.707;   -9.577;57606.945
561.884;41228.824;   -7.127;58972.445
562.467;41513.473;   -7.118;57327.570
563.051;40881.129;  -13.358;54962.434
563.635;41347.117;  -10.178;52594.473
564.219;43010.449;   -7.837;50610.410
564.802;43586.691;  -11.398;49551.180
565.386;43386.477;  -12.788;48370.953
565.969;42594.020;   -9.077;48178.871
566.553;42797.383;   -6.207;49957.305
567.136;42319.109;   -8.568;50369.594
567.720;38612.371;  -11.868;49492.004
568.303;37576.789;   -8.268;50616.352
568.887;37629.746;   -8.698;50727.148
569.470;37865.730;   -6.808;51698.379
570.053;36062.379;  -13.188;52122.078
570.637;35066.000;  -12.037;52536.438
571.220;34764.043;   -8.577;51186.098
571.803;34830.090;   -8.498;51032.762
572.386;36921.941;  -10.498;49609.887
572.969;39736.922;   -9.388;48285.926
573.552;38141.398;   -8.338;47624.285
574.135;37260.324;   -8.518;45498.641
574.718;33560.543;  -13.628;41970.434
575.301;31695.080;  -10.893;41447.137
575.884;29829.615;   -8.158;40923.836
576.467;30947.029;  -10.328;45267.723
577.050;35202.961;  -13.058;48175.543
577.633;37815.887;   -9.458;47729.328
578.216;36538.230;   -8.928;47579.793
578.799;35450.336;   -9.358;47820.996
579.381;33989.172;  -11.388;48115.551
579.964;32589.701;  -11.718;47333.766
580.547;33394.414;   -8.588;46668.969
581.129;33692.426;   -8.859;44466.141
581.712;33310.973;  -10.729;44164.922
582.294;33948.699;  -11.118;46477.855
582.877;35254.816;   -5.218;48244.254
583.459;34247.855;   -8.679;47437.895
584.042;32907.875;  -10.709;46943.219
584.624;32735.873;  -11.669;46792.227
585.206;31455.410;   -8.218;46557.250
585.789;32339.893;  -10.569;45793.773
586.371;35309.941;  -11.859;43836.391
586.953;35429.086;  -10.719;42972.492
587.536;35598.492;   -7.198;42487.211
588.118;34762.961;   -8.720;42086.414
588.700;32660.432;  -10.439;43389.930
589.282;31984.818;   -9.198;43646.039
589.864;31991.727;   -9.199;43438.109
590.446;32472.348;  -11.319;43151.926
591.028;30842.074;  -11.159;42781.867
591.610;28385.035;  -11.779;42839.098
592.192;25165.438;   -7.668;42820.402
592.774;24897.287;  -11.949;40724.277
593.356;26524.402;  -12.129;39874.789
593.937;28761.076;  -10.669;39980.648
594.519;31574.838;   -6.509;42069.633
595.101;33058.695;  -10.849;42976.031
595.683;32831.770;  -11.679;44084.441
596.264;34095.598;   -9.049;43478.797
596.846;32663.361;   -8.849;43803.672
597.427;31288.004;   -9.570;42986.934
598.009;33086.594;  -12.620;42832.219
598.591;33350.094;  -10.039;42580.086
599.172;32922.656;  -10.369;43061.805
599.753;33184.059;   -9.140;41691.469
600.335;34289.773;  -11.430;40692.520
600.916;32730.426;   -9.939;39982.422
601.498;31651.029;   -8.479;40318.617
602.079;31164.598;  -10.920;40670.609
602.660;30954.275;  -11.480;41450.898
603.241;30356.512;  -11.699;41137.738
603.823;28815.117;   -9.579;38868.797
604.404;30058.383;  -10.620;38182.785
604.985;31041.998;  -10.450;38078.047
605.566;30117.055;   -9.129;38056.633
606.147;30155.648;   -7.510;37020.418
606.728;32830.980;  -10.660;37883.359
607.309;31779.670;  -11.740;38748.273
607.890;30667.521;   -9.759;38850.230
608.471;30422.420;   -8.250;37457.918
609.051;30321.439;   -9.240;36066.457
609.632;29419.336;  -12.120;35991.074
610.213;30021.604;   -9.110;37402.641
610.794;29832.795;   -8.030;38383.363
611.374;28444.963;   -8.110;40562.387
611.955;28105.885;  -13.560;38533.727
612.536;29651.889;  -11.400;36951.789
613.116;30662.883;   -8.070;37197.891
613.697;31335.645;  -10.830;38411.125
614.277;29860.135;  -11.641;38673.938
614.858;30359.350;  -13.310;37075.863
615.438;30645.215;   -7.460;35092.906
616.019;28010.398;   -7.601;33666.301
616.599;28191.604;  -12.020;34189.023
617.179;30180.570;  -11.780;36952.047
617.760;30442.686;   -8.570;39582.574
618.340;31781.988;  -11.471;38943.977
618.920;33289.035;  -11.170;37594.156
619.500;32935.227;  -11.071;37866.938
620.080;32743.527;   -7.750;37869.043
620.660;33602.082;  -12.711;36868.617
621.241;34055.777;  -10.211;36352.309
621.821;33065.695;  -10.961;35459.520
622.401;32589.523;   -7.720;35207.414
622.980;31466.639;   -8.981;35980.422
623.560;30145.820;   -9.331;37351.328
624.140;30449.791;   -9.850;34388.582
624.720;26684.705;   -7.451;32368.764
625.300;22549.385;   -9.070;32638.629
625.880;25096.910;  -12.601;34599.035
626.459;28506.564;  -11.751;36831.738
627.039;31251.746;   -9.281;38299.098
627.619;31401.707;   -8.801;38289.574
628.198;29497.557;  -12.071;37220.695
628.778;29647.877;   -9.461;37632.563
629.357;30921.205;   -8.491;38003.012
629.937;30716.307;   -9.721;38402.039
630.516;29374.545;   -9.951;37868.801
631.096;29128.945;  -11.731;35760.410
631.675;32732.029;   -8.572;35225.219
632.254;37681.152;  -11.282;35130.289
632.834;37079.066;  -13.322;35794.570
633.413;36004.910;  -10.301;35788.922
633.992;33346.508;   -8.582;34532.863
634.571;34327.141;   -8.352;33590.113
635.151;35457.063;  -11.912;34943.863
635.730;33085.020;  -10.511;35352.523
636.309;30391.723;   -7.731;35366.605
636.888;28459.313;   -9.952;36165.637
637.467;29147.734;  -11.672;37515.902
638.046;31409.629;   -8.901;39288.695
638.625;33938.746;   -7.912;38279.699
639.204;33446.105;  -10.022;37741.598
639.782;32083.650;  -12.252;38364.551
640.361;28965.584;  -10.041;36740.621
640.940;26293.271;  -11.161;34950.082
641.519;25705.090;   -9.701;34137.398
642.097;27756.633;  -11.271;35654.258
642.676;30964.869;   -8.651;35637.957
643.255;32602.346;   -8.711;36567.074
643.833;31401.082;   -9.581;37809.434
644.412;32001.326;  -13.711;37337.293
644.990;31922.113;  -11.811;37018.531
645.569;32149.057;   -9.411;36518.469
646.147;30267.125;  -10.291;36186.430
646.726;28636.277;  -12.401;36267.688
647.304;29516.250;  -10.411;36647.625
647.882;30883.984;   -9.651;39286.742
648.461;32896.930;   -9.631;39157.703
649.039;32543.709;  -11.881;35412.883
649.617;32462.322;   -9.661;34744.918
650.195;32483.025;   -9.301;35403.098
650.773;31709.563;  -10.511;35053.797
651.352;30058.334;  -11.521;33756.816
651.930;27173.826;  -12.211;31868.773
652.508;24041.236;   -9.171;33121.551
653.086;27263.939;   -9.371;33564.793
653.663;30966.369;  -13.161;34054.668
654.241;30109.795;  -13.031;35693.309
654.819;30701.818;   -9.371;36422.906
655.397;29551.725;  -10.511;38213.484
655.975;29944.266;  -10.371;39507.625
656.553;30642.033;  -10.051;39498.223
657.130;29652.162;  -10.061;40395.480
657.708;29384.039;   -9.561;39242.020
658.286;29214.730;  -11.511;38920.020
658.863;29447.105;  -10.261;40202.898
659.441;30718.086;   -7.531;39677.938
660.018;29851.334;   -9.501;40413.355
660.596;29521.754;  -13.301;39931.414
661.173;31722.430;  -11.211;39604.531
661.750;32090.967;   -9.951;39700.070
662.328;31409.932;   -9.390;39292.809
662.905;30407.504;  -11.330;38235.648
663.482;25799.607;   -9.050;36212.305
664.060;23936.123;   -8.240;35944.945
664.637;26863.418;  -10.050;35170.785
665.214;28467.930;  -11.760;34197.523
665.791;29890.799;  -10.530;34549.520
666.368;29415.557;   -9.690;35118.578
666.945;30608.889;   -9.320;36019.418
667.522;31335.377;  -11.860;36048.438
668.099;31630.297;  -10.770;36243.914
668.676;31598.082;   -6.260;35958.875
669.253;30137.143;   -7.000;37384.730
669.830;30039.564;  -10.190;36779.629
670.407;29615.441;   -9.550;35231.289
670.984;30790.275;   -9.260;35544.270
671.560;29783.555;   -9.280;35466.867
672.137;27865.734;  -11.810;34280.863
672.714;28958.158;  -11.490;34632.863
673.290;29047.217;   -7.740;35135.422
673.867;29326.215;  -10.660;36114.480
674.443;29650.592;  -12.230;36152.859
675.020;27965.846;  -10.450;35327.238
675.596;29209.074;   -9.260;35795.176
676.173;29887.027;  -10.780;35430.355
676.749;29085.414;  -13.690;33549.516
677.326;29063.457;  -11.980;32210.012
677.902;29229.082;   -8.630;32068.871
678.478;28383.240;  -10.730;32583.891
679.054;29223.055;  -10.520;32088.928
679.631;31005.357;  -11.920;30978.848
680.207;31302.354;   -7.490;33160.887
680.783;32293.391;   -9.860;35570.363
681.359;31274.482;  -13.380;36125.184
681.935;29162.053;  -12.480;35240.922
682.511;27254.846;   -7.900;34429.961
683.087;27341.285;   -7.710;34463.680
683.663;28801.684;  -11.480;34648.898
684.239;29285.883;  -14.090;34546.457
684.815;29059.355;   -7.560;35586.375
685.390;29095.471;   -9.910;35821.895
685.966;29263.301;  -11.159;35085.871
686.542;31647.863;  -11.169;34198.230
687.118;33516.051;   -5.959;32847.707
687.693;33182.238;  -10.329;32794.027
688.269;31971.063;  -12.059;33072.367
688.844;28703.543;  -10.909;33141.664
689.420;27170.475;   -8.019;33965.742
689.995;26168.564;   -8.399;34655.523
690.571;25673.340;  -10.949;33576.742
691.146;26527.701;   -9.619;32657.219
691.722;25584.719;   -8.999;32526.979
692.297;25334.414;  -11.589;33014.617
692.872;27247.594;  -11.739;34012.254
693.448;27330.326;  -11.059;34237.434
694.023;25994.674;  -10.139;34142.672
694.598;27659.145;   -9.029;34132.031
695.173;27364.729;  -13.319;34205.250
695.748;26860.406;  -10.169;32882.488
696.323;26603.264;   -8.339;32864.906
696.898;26259.061;   -8.169;33170.004
697.473;26046.887;  -12.309;32432.984
698.048;26280.805;  -10.989;31649.303
698.623;27272.574;   -9.329;30778.141
699.198;28916.375;   -9.849;31140.119
699.773;29597.449;  -12.329;31764.299
700.348;28859.695;  -10.389;31780.816
700.922;29346.801;   -9.269;32046.375
701.497;29233.607;   -9.329;32603.574
702.072;28835.586;  -10.789;34799.871
702.646;28854.783;  -10.839;35793.172
703.221;28407.172;   -9.099;35201.590
703.795;30366.561;  -10.939;34764.527
704.370;29539.377;  -12.859;34307.367
704.944;29072.143;  -11.559;33509.887
705.519;30523.982;   -7.939;31388.584
706.093;31876.131;  -10.499;31340.104
706.668;31438.439;  -11.289;32630.281
707.242;29907.953;  -11.509;32728.779
707.816;28831.311;   -9.639;32947.238
708.390;27032.939;  -11.429;33277.855
708.965;27891.520;  -11.869;33834.336
709.539;29062.459;  -11.689;33709.273
710.113;29279.453;  -10.478;33044.313
710.687;27976.115;  -10.228;31953.992
711.261;25305.398;  -13.698;30505.949
711.835;25314.980;  -13.378;30262.369
712.409;26921.936;   -9.698;31254.447
712.983;28166.047;  -11.898;32754.986
713.557;29069.027;  -15.138;34018.824
714.131;29002.625;  -14.098;34579.625
714.704;28053.121;   -9.958;33890.262
715.278;25729.697;  -10.028;33531.102
715.852;26221.504;  -11.148;33601.660
716.425;27648.383;   -9.068;33515.117
716.999;27653.486;  -10.038;33185.555
717.573;28056.502;   -9.798;33905.996
718.146;29147.510;  -12.378;35199.293
718.720;29038.932;  -11.918;35060.551
719.293;28915.820;   -8.088;34973.230
719.867;31295.256;  -10.888;36394.449
720.440;31337.225;  -11.938;36663.008
721.013;30455.430;  -12.818;35102.426
721.587;29421.279;  -10.298;33985.266
722.160;27117.617;  -10.048;33524.965
722.733;25951.283;  -12.108;32987.043
723.306;26890.922;  -10.818;33066.301
723.880;28385.855;   -8.908;33399.500
724.453;29815.324;   -9.878;33468.297
725.026;28755.953;  -11.188;33816.637
725.599;26068.121;  -11.678;32797.996
726.172;27021.449;   -9.618;33187.434
726.745;29028.512;   -8.258;35136.613
727.318;30793.879;  -12.978;35751.730
727.891;30961.713;  -12.148;35890.430
728.463;30666.047;   -8.968;34822.090
729.036;29570.789;  -10.188;32895.086
729.609;29657.955;  -11.788;31823.225
730.182;26073.012;  -11.788;31445.283
730.754;23834.818;  -10.268;32373.223
731.327;23892.682;   -9.998;33676.820
731.900;23632.994;  -12.228;33417.000
732.472;25247.109;  -13.848;31978.498
733.045;28024.494;   -8.698;30368.777
733.617;28314.238;  -10.607;30574.215
734.190;27276.639;  -11.507;31280.975
734.762;24045.201;  -13.647;31674.412
735.334;22862.934;   -9.767;31247.291
735.907;23614.023;   -9.897;29876.211
736.479;23420.021;  -11.637;29808.488
737.051;22786.453;   -9.567;30233.547
737.623;23863.379;   -8.187;31469.086
738.195;25185.053;  -11.187;31784.225
738.768;26838.631;  -12.337;32120.523
739.340;25974.234;  -12.227;32094.342
739.912;24137.242;  -11.057;31312.680
740.484;23915.869;  -10.207;31946.238
741.056;23349.158;  -10.047;32984.059
741.628;24760.643;  -13.627;33897.715
742.199;27408.654;   -7.177;33213.016
742.771;26455.221;  -10.797;31369.113
743.343;23855.010;  -11.997;31865.473
743.915;22258.482;  -12.867;32388.631
744.487;22366.834;   -7.617;31079.568
745.058;23192.170;   -9.557;30570.107
745.630;24536.525;   -9.877;29970.127
746.201;25435.246;  -14.177;29186.766
746.773;25007.139;   -9.237;28805.723
747.344;24436.189;   -9.847;29591.223
747.916;23064.760;  -11.657;31412.201
748.487;22586.840;  -10.587;32194.898
749.059;24060.629;   -8.707;32533.719
749.630;25302.205;  -10.537;32158.518
750.201;24927.035;  -11.687;30855.395
750.773;23728.609;  -11.647;28622.555
751.344;23736.094;   -7.147;28405.732
751.915;24753.662;   -9.757;28461.551
752.486;23392.264;  -12.427;27842.850
753.057;21002.744;  -12.227;27845.008
753.628;20186.512;  -10.417;27728.107
754.199;20926.158;  -11.767;27381.086
754.770;21805.256;  -11.187;25882.203
755.341;21743.162;  -10.507;25886.184
755.912;21445.414;   -9.387;26050.861
756.483;20809.223;  -10.647;26798.779
757.054;19207.463;  -11.837;27048.238
757.625;18256.494;  -12.716;26294.838
758.195;18177.656;   -9.666;26142.076
758.766;17920.035;   -8.656;26392.234
759.337;18841.471;  -12.856;26334.594
759.907;20612.838;  -13.366;27579.652
760.478;21644.084;   -8.576;28352.770
761.048;21727.951;  -10.526;27325.088
761.619;21237.016;  -11.116;26460.428
762.189;20557.727;  -12.136;26029.826
762.760;20855.535;   -9.456;26430.145
763.330;21520.879;   -7.136;26670.902
763.900;20589.805;  -11.786;26603.021
764.471;17583.254;  -11.546;25542.740
765.041;16676.568;   -8.096;24358.459
765.611;17744.496;   -8.876;23991.297
766.181;18382.592;  -12.196;24470.236
766.751;18938.287;  -11.636;24845.975
767.321;18511.582;  -10.156;24533.633
767.891;16278.004;  -11.766;24916.492
768.461;15629.645;  -14.936;24776.771
769.031;15938.675;  -12.356;24757.988
769.601;17541.230;   -7.526;24181.088
770.171;17755.352;  -10.766;23670.387
770.741;17420.188;  -13.176;22960.045
771.311;17607.398;  -10.616;22917.523
771.880;17509.508;   -9.576;23562.941
772.450;17083.291;  -10.336;24216.500
773.020;17369.256;  -13.516;24140.398
773.589;17096.811;  -13.466;24414.857
774.159;16808.027;   -8.686;23858.717
774.729;16370.358;   -9.476;22942.135
775.298;15455.968;  -13.666;22324.033
775.867;14865.059;  -11.716;21140.313
776.437;14857.408;   -9.906;20838.092
777.006;14635.550;  -12.166;20599.510
777.576;14719.584;  -12.356;20508.809
778.145;15057.235;  -11.646;20732.947
778.714;14715.327;   -8.226;21062.465
779.283;13463.166;   -9.556;20949.664
779.853;13269.345;  -14.116;20508.623
780.422;13735.599;  -11.506;20649.082
780.991;13236.069;   -9.556;21527.520
781.560;12514.943;   -9.095;22632.658
782.129;12504.059;  -12.135;23048.277
782.698;12231.575;  -10.865;23438.555
783.267;11793.161;   -9.335;23267.734
783.836;11814.283;  -11.045;22415.133
784.404;12401.583;  -13.865;20443.152
784.973;12108.105;  -13.095;19699.150
785.542;11789.670;  -11.575;19763.828
786.111;11917.942;   -9.705;20341.408
786.679;11792.977;  -12.105;20207.967
787.248;11714.209;  -12.455;19516.465
787.817;11286.123;  -11.535;18900.363
788.385;10593.444;   -9.765;17879.121
788.954; 9742.171;  -14.005;17658.301
789.522; 9548.822;  -11.955;17788.879
790.090;10261.252;  -10.135;18118.277
790.659;10577.257;  -10.975;18338.736
791.227;10023.806;  -13.375;18508.615
791.795;10413.999;  -12.375;17898.254
792.364;10652.751;  -10.725;17295.133
792.932;10692.520;   -9.715;16822.051
793.500;10763.627;  -12.675;17040.148
794.068;10997.778;  -13.495;17179.787
794.636;11155.699;  -10.885;16664.246
795.204;10829.683;  -11.045;16524.545
795.772;10649.066;  -13.175;17274.564
796.340;10179.191;  -12.445;17891.002
796.908;10043.431;   -9.735;17648.561
797.476; 9948.273;   -9.815;17064.080
798.044; 9396.908;  -13.985;16672.777
798.612; 8638.363;  -13.115;17023.996
799.180; 8376.140;  -10.185;16561.615
799.747; 8397.683;   -9.055;15962.773
800.315; 8250.681;  -12.385;15296.992
800.883; 7877.194;  -15.035;14801.771
801.450; 7719.908;  -10.365;14534.430
802.018; 7725.480;   -9.855;14173.248
802.585; 7812.093;  -11.905;14029.547
803.153; 7986.424;  -11.585;13836.846
803.720; 7991.663;   -9.095;13567.324
804.287; 7631.379;   -9.135;13360.622
804.855; 7282.719;  -11.604;13681.981
805.422; 7123.638;  -11.794;13536.560
805.989; 6929.998;  -10.734;13355.958
806.556; 7101.512;  -10.444;13747.896
807.124; 7596.189;  -12.764;13987.376
807.691; 7741.393;  -12.964;14038.674
808.258; 7599.450;  -11.134;14120.152
808.825; 7255.033;   -9.854;13860.111
809.392; 7210.982;  -10.504;13268.790
809.959; 6832.000;  -13.054;12680.389
810.526; 6528.127;   -8.294;12427.308
811.093; 6552.783;   -8.394;12030.105
811.659; 7022.665;  -12.304;11653.664
812.226; 7386.212;  -13.944;11637.183
812.793; 7110.157;  -10.484;11611.521
813.360; 6597.963;  -10.144;11885.181
813.926; 6199.893;  -11.684;12770.539
814.493; 6017.475;  -13.644;12677.638
815.060; 5684.954;   -9.724;11974.336
815.626; 5705.601;   -9.854;11594.715
816.193; 6175.291;  -13.254;11579.474
816.759; 6357.927;  -13.204;11666.972
817.325; 6643.929;   -9.434;11325.530
817.892; 7038.482;  -10.134;11105.369
818.458; 7449.362;  -13.474;10843.928
819.024; 7120.779;  -11.854;10714.406
819.591; 6789.436;  -10.244;10469.165
820.157; 6599.369;  -10.704;10235.523
820.723; 6334.340;  -12.324;10847.563
821.289; 6200.106;   -9.444;11040.980
821.855; 6146.739;   -8.374;10357.100
822.421; 6186.075;  -10.234; 9978.918
822.987; 6033.480;  -13.294; 9754.177
823.553; 5683.199;  -10.884;10065.755
824.119; 5626.781;   -8.884;10036.294
824.685; 5774.697;   -6.784;10029.192
825.251; 5820.569;  -12.004;10199.230
825.816; 5753.738;  -11.474; 9820.189
826.382; 5652.272;   -9.174; 9297.248
826.948; 5963.624;   -9.214; 9381.347
827.513; 6345.329;  -10.774; 9450.726
828.079; 6134.379;  -11.924; 9472.444
828.645; 5637.679;  -10.543; 9292.643
829.210; 5652.531;  -10.533; 9065.341
829.776; 5634.243;  -10.753; 9132.620
830.341; 5524.293;  -10.173; 9092.878
830.906; 5689.727;  -10.743; 9078.557
831.472; 6048.799;  -11.113; 8534.535
832.037; 5868.262;  -10.603; 8677.874
832.602; 5311.120;  -13.323; 8628.692
833.167; 4857.332;  -10.823; 8879.031
833.733; 4712.723;  -10.113; 9189.790
834.298; 4754.538;  -13.583; 9052.608
834.863; 4649.345;  -12.703; 8895.087
835.428; 4681.996;  -10.523; 8824.266
835.993; 4870.564;   -6.963; 8845.385
836.558; 4872.889;  -10.763; 8888.563
837.123; 4914.808;   -9.903; 8966.582
837.688; 4948.924;   -9.913; 8617.860
838.253; 5022.717;  -10.283; 8590.699
838.817; 5182.462;  -12.963; 8443.797
839.382; 5172.412;  -14.243; 8799.356
839.947; 4925.838;  -10.733; 8810.595
840.511; 4637.944;   -9.383; 8796.394
841.076; 4256.419;  -12.563; 8347.231
841.641; 4244.215;  -12.953; 8224.330
842.205; 4278.288;   -7.043; 8223.349
842.770; 4457.873;   -8.163; 8622.107
843.334; 4845.115;  -12.503; 8410.386
843.898; 4861.865;  -11.693; 8337.465
844.463; 4773.500;  -10.203; 8506.283
845.027; 4434.741;   -9.533; 8280.962
845.591; 4213.721;  -13.443; 8231.141
846.156; 4201.248;  -13.143; 7969.179
846.720; 4071.577;   -9.433; 7768.278
847.284; 3943.416;  -11.033; 7630.957
847.848; 3709.877;  -10.403; 7472.395
848.412; 3513.136;  -11.553; 7437.394
848.976; 3523.346;   -8.393; 7674.592
849.540; 3480.984;   -8.713; 7836.011
850.104; 3542.580;  -12.463; 7913.669
850.668; 3799.556;  -12.973; 7694.508
851.232; 3856.825;  -10.793; 7756.887
851.796; 3693.802;  -10.662; 7926.545
852.359; 3402.513;  -13.082; 7827.844
852.923; 3284.336;  -12.192; 7641.163
853.487; 3160.727;  -11.912; 7342.501
854.050; 3083.072;  -10.892; 7042.820
854.614; 3187.517;  -13.992; 7151.338
855.177; 3301.623;  -11.732; 7105.077
855.741; 3332.682;   -8.962; 6989.675
856.304; 3199.138;   -9.442; 6596.634
856.868; 3176.271;  -14.192; 6356.272
857.431; 3324.219;  -12.702; 6468.571
857.995; 3410.484;   -9.942; 6373.210
858.558; 3442.590;   -9.112; 6324.448
859.121; 3196.647;  -12.932; 6408.327
859.684; 3067.311;  -13.442; 6347.886
860.247; 3143.604;  -10.632; 6321.264
860.810; 3061.284;  -11.272; 6301.903
861.374; 2743.687;   -9.832; 6607.881
861.937; 2474.074;  -11.762; 6408.200
862.500; 2432.948;   -9.722; 6572.639
863.062; 2549.168;  -10.512; 6387.297
863.625; 2653.090;  -11.232; 6190.836
864.188; 2783.209;  -14.112; 5807.254
864.751; 2894.372;  -11.302; 5682.413
865.314; 2819.197;  -10.112; 5547.492
865.876; 2688.198;  -12.182; 5500.150
866.439; 2724.682;  -10.722; 5415.909
867.002; 2638.695;   -9.252; 5501.567
867.564; 2397.349;   -9.572; 5413.946
868.127; 2189.246;  -13.142; 5160.325
868.689; 2168.111;  -12.902; 5133.183
869.252; 2146.396;   -9.732; 5252.382
869.814; 2063.591;   -9.432; 5297.141
870.377; 2060.137;  -11.552; 5390.919
870.939; 2145.894;   -9.052; 5599.898
871.501; 2196.354;  -10.982; 5248.336
872.063; 2207.668;  -12.292; 4854.235
872.626; 2184.144;  -14.912; 4817.074
873.188; 2158.979;  -13.112; 4987.732
873.750; 2083.269;  -13.442; 4868.651
874.312; 2002.416;   -9.402; 4779.330
874.874; 1945.197;  -11.062; 4866.348
875.436; 1901.939;  -13.931; 4718.887
875.998; 1896.276;   -9.561; 4660.005
876.560; 1880.762;  -11.321; 4462.964
877.122; 1831.134;  -12.221; 4145.042
877.683; 1754.002;  -12.191; 4056.481
878.245; 1697.464;  -12.101; 3950.740
878.807; 1717.038;   -8.971; 4058.958
879.369; 1699.773;  -12.071; 3954.677
879.930; 1603.931;  -14.621; 3941.495
880.492; 1574.385;  -10.311; 4067.014
881.053; 1540.453;  -10.901; 3859.633
881.615; 1427.402;  -14.411; 3776.071
882.176; 1371.798;  -13.761; 3734.750
882.738; 1379.764;   -9.181; 3678.489
883.299; 1393.757;  -11.791; 3405.407
883.860; 1415.047;  -13.121; 3351.106
884.422; 1408.665;  -11.211; 3394.044
884.983; 1345.071;  -10.091; 3166.443
885.544; 1230.990;   -8.461; 3189.802
886.105; 1154.681;  -12.361; 3160.360
886.666; 1117.807;  -14.141; 3093.059
887.227; 1071.666;  -11.361; 2941.957
887.788;  986.739;  -11.401; 2974.836
888.349;  911.535;  -13.791; 2721.214
888.910;  922.468;  -13.191; 2696.493
889.471;  937.034;   -9.881; 2560.172
890.032;  902.746;   -9.881; 2558.190
890.593;  866.754;  -10.371; 2567.669
891.153;  842.275;  -13.301; 2460.307
891.714;  797.907;  -11.431; 2372.046
892.275;  755.650;  -11.291; 2309.505
892.835;  710.545;  -11.471; 2382.543
893.396;  653.672;  -11.541; 2295.502
893.956;  600.533;  -11.181; 2162.420
894.517;  561.273;  -11.741; 2125.439
895.077;  555.702;  -11.671; 2086.978
895.638;  561.932;  -11.311; 2126.316
896.198;  532.099;   -9.831; 1838.275
896.758;  484.208;   -8.421; 1892.813
897.319;  450.692;  -12.351; 1792.232
897.879;  439.640;  -13.511; 1762.751
898.439;  411.119;  -12.001; 1661.149
898.999;  379.286;  -10.180; 1781.468
899.559;  365.613;  -12.030; 1703.347
900.119;  359.874;  -15.710; 1537.525
900.679;  357.992;   -8.900; 1638.384
901.239;  343.549;   -8.340; 1527.902
901.799;  334.247;  -13.910; 1456.441
902.359;  326.000;  -13.460; 1357.140
902.919;  314.084;  -11.490; 1331.118
903.479;  296.551;  -12.110; 1317.257
904.038;  273.264;  -11.720; 1262.595
904.598;  257.150;  -13.610; 1152.034
905.158;  251.391;  -11.040; 1240.893
905.717;  241.814;  -10.900; 1233.691
906.277;  229.597;  -15.080; 1217.330
906.836;  218.985;  -13.380; 1222.408
907.396;  211.620;  -10.780; 1193.047
907.955;  205.668;   -8.500; 1182.526
908.515;  198.769;  -12.760; 1099.364
909.074;  191.982;  -11.900; 1092.863
909.633;  185.305;   -8.950; 1069.121
910.192;  181.601;   -8.770; 1196.460
910.752;  177.092;  -12.390; 1029.960
911.311;  172.264;  -13.680; 1009.780
911.870;  170.143;  -12.370;  971.460
912.429;  169.301;  -10.900; 1094.080
912.988;  168.311;  -11.690; 1081.060
913.547;  163.081;  -13.240;  940.380
914.106;  156.571;  -11.990;  999.420
914.665;  153.756;   -9.990;  984.020
915.224;  152.207;  -12.880; 1035.760
915.782;  152.741;  -12.350;  922.560
916.341;  152.668;   -9.110; 1049.840
916.900;  149.002;   -9.270;  925.260
917.458;  146.840;  -13.240;  884.220
918.017;  146.347;  -13.550;  942.600
918.576;  145.278;  -12.320;  904.440
919.134;  142.722;  -11.490;  837.980
919.693;  140.276;  -13.670;  893.060
920.251;  137.823;  -15.470;  876.500
920.809;  137.555;  -11.290;  839.580
921.368;  136.524;  -10.210;  885.360
921.926;  135.441;  -12.140;  842.940
922.484;  134.892;  -13.080;  903.360
923.042;  133.718;  -11.720;  880.340
923.601;  137.518;   -7.480;  998.680
924.159;  135.972;  -11.570;  935.560
924.717;  132.461;  -13.840;  841.080
925.275;  132.513;  -10.640;  903.240
925.833;  132.614;  -11.540;  779.320
926.391;  132.798;  -12.960;  938.380
926.949;  131.245;  -14.130;  857.680
927.506;  130.396;  -11.750;  903.500
928.064;  131.236;  -10.250;  877.580
928.622;  131.076;  -13.030;  880.100
929.180;  130.283;  -13.400;  814.180
929.737;  131.487;  -10.700;  808.540
930.295;  135.421;  -10.070;  928.480
930.853;  137.914;  -11.960;  849.100
931.410;  139.180;  -13.120;  821.120
931.968;  137.349;  -10.770;  940.660
932.525;  137.659;  -10.680;  909.380
933.082;  137.021;  -13.130;  811.440
933.640;  137.928;  -13.210;  925.900
934.197;  135.632;  -11.060;  886.360
934.754;  137.603;   -9.580;  897.780
935.312;  140.768;  -14.000;  863.340
935.869;  144.205;  -10.710; 1012.980
936.426;  144.526;   -9.860;  872.800
936.983;  145.519;   -9.710;  889.020
937.540;  144.015;  -13.990;  838.280
938.097;  142.936;  -14.040;  940.120
938.654;  143.655;  -10.310;  898.860
939.211;  147.376;  -10.560;  952.480
939.768;  150.716;  -13.900;  915.420
940.324;  153.764;  -14.760;  904.200
940.881;  155.601;  -10.370;  878.500
941.438;  156.797;   -8.260; 1021.200
941.995;  153.101;  -12.540;  992.560
942.551;  149.947;  -14.670;  875.620
943.108;  148.537;  -10.450;  937.920
943.664;  151.607;  -10.750;  869.340
944.221;  156.210;  -11.550; 1088.140
944.777;  154.217;  -14.770;  869.680
945.334;  155.833;  -12.820;  884.840
945.890;  159.015;  -10.130;  946.480
946.446;  159.149;  -13.470;  947.020
947.003;  159.734;  -12.120;  964.940
947.559;  160.636;   -9.980; 1063.040
948.115;  160.211;   -9.080; 1026.540
948.671;  158.379;  -10.830;  967.300
949.227;  153.969;  -12.440;  859.560
949.783;  152.432;  -12.910;  858.900
950.339;  155.018;  -10.270;  991.000
950.895;  154.890;  -13.630; 1023.840
951.451;  154.819;  -15.100;  925.280
952.007;  157.004;  -11.330;  998.540
952.563;  158.885;  -10.580;  937.780
953.118;  157.333;  -13.440;  904.940
953.674;  155.853;  -12.710;  935.780
954.230;  156.861;  -10.350;  949.640
954.785;  156.020;   -9.190;  936.640
955.341;  153.834;  -11.200;  998.160
955.897;  152.050;  -16.560;  834.660
956.452;  152.201;  -12.570;  953.840
957.008;  150.910;   -7.970; 1083.640
957.563;  148.356;  -11.940; 1009.540
958.118;  145.751;  -13.450;  877.700
958.674;  145.580;  -12.030;  946.780
959.229;  147.653;   -9.410; 1013.980
959.784;  144.509;  -12.000;  832.400
960.339;  142.268;  -14.780; 1001.280
960.894;  138.281;   -9.860;  963.760
961.449;  133.599;   -9.970;  859.960
962.004;  135.885;  -10.900; 1212.840
962.559;  131.195;  -13.150;  860.140
963.114;  128.255;  -13.740;  742.480
963.669;  126.771;   -9.820;  915.500
964.224;  124.390;  -13.890;  874.340
964.779;  122.925;  -12.600;  828.420
965.334;  124.360;  -10.950; 1017.860
965.888;  125.773;  -11.170;  875.360
966.443;  129.354;  -12.540;  972.380
966.998;  126.661;  -15.780;  819.460
967.552;  119.551;   -9.760;  908.380
968.107;  107.001;   -9.060;  868.300
968.661;   97.977;  -11.950;  922.440
969.216;   90.640;  -12.800;  856.280
969.770;   88.830;  -11.210;  917.200
970.324;   91.382;  -11.610;  923.140
970.879;   92.952;  -11.370;  947.180
971.433;   94.119;  -12.540;  952.720
971.987;   91.642;  -11.320;  895.340
972.541;   91.308;  -10.720;  917.100
973.095;   91.964;   -9.680; 1009.460
973.649;   91.444;  -11.440;  809.480
974.203;   91.741;  -11.210;  829.040
974.757;   93.460;  -10.240;  855.220
975.311;   94.152;  -13.720;  872.600
975.865;   94.518;  -13.770;  881.820
976.419;   92.475;  -11.690;  857.400
976.973;   93.446;   -9.510;  849.620
977.526;   94.931;  -12.620;  949.920
978.080;   94.445;  -12.010;  796.780
978.634;   95.957;  -10.170;  921.320
979.187;   94.413;   -9.020;  905.400
979.741;   92.430;   -9.820; 1018.380
980.294;   87.873;  -14.870;  789.160
980.848;   85.520;  -12.380;  717.220
981.401;   87.921;  -10.350;  816.540
981.955;   89.665;  -13.720;  844.300
982.508;   88.689;  -11.490;  746.340
983.061;   90.214;  -10.000;  915.260
983.615;   87.231;  -11.480;  798.800
984.168;   85.098;  -13.220;  770.080
984.721;   84.024;  -13.960;  880.760
985.274;   82.191;  -10.870;  867.500
985.827;   81.988;   -9.790;  834.220
986.380;   79.915;  -13.120;  721.340
986.933;   78.678;  -12.450;  864.800
987.486;   77.050;  -10.210;  861.920
988.039;   76.103;   -8.430;  863.100
988.591;   74.123;  -10.520;  893.260
989.144;   72.082;  -14.860;  737.260
989.697;   71.685;  -13.080;  758.740
990.250;   72.310;  -10.150;  858.100
990.802;   71.941;  -13.430;  755.860
991.355;   72.526;  -12.750;  974.880
991.907;   70.246;  -12.040;  864.320
992.460;   67.966;  -11.330;  753.760
993.012;   68.105;  -13.610;  749.540
993.565;   66.069;  -13.460;  711.360
994.117;   67.936;   -9.360;  950.780
994.669;   63.691;  -11.300;  701.320
995.221;   62.677;  -13.540;  791.920
995.774;   60.252;  -13.430;  787.580
996.326;   58.885;  -12.520;  740.220
996.878;   58.934;  -10.950;  838.420
997.430;   56.454;  -14.300;  699.860
997.982;   55.720;  -13.760;  750.140
998.534;   55.011;  -11.530;  739.060
999.086;   53.659;  -10.310;  738.220
999.638;   52.654;  -12.530;  661.380
1000.190;   52.040;  -11.840;  699.320
1000.741;   52.525;  -10.260;  742.700
1001.293;   51.984;   -8.860;  686.020
1001.845;   50.198;  -13.700;  676.640
1002.396;   49.371;  -12.100;  743.400
1002.948;   48.973;  -12.760;  737.400
1003.500;   47.133;  -10.380;  723.780
1004.051;   46.139;  -11.900;  907.580
1004.603;   45.311;  -12.250;  791.820
1005.154;   41.465;  -13.210;  608.980
1005.705;   41.052;  -10.950;  723.960
1006.257;   39.844;  -13.880;  707.220
1006.808;   39.850;  -12.840;  685.460
1007.359;   39.536;  -10.570;  763.240
1007.910;   38.910;   -9.620;  646.640
1008.461;   38.724;  -13.630;  732.940
1009.013;   37.457;  -17.200;  588.340
1009.564;   38.360;  -10.200;  793.520
1010.115;   36.331;  -12.570;  597.040
1010.665;   37.021;  -15.150;  602.160
1011.216;   36.279;  -14.480;  667.920
1011.767;   35.872;  -11.340;  697.920
1012.318;   35.659;   -9.780;  736.980
1012.869;   35.212;  -12.380;  679.000
1013.419;   34.462;  -15.560;  603.120
1013.970;   34.236;  -11.010;  666.640
1014.521;   33.588;  -11.610;  620.620
1015.071;   34.863;  -13.450;  670.380
1015.622;   33.793;  -13.870;  635.460
1016.172;   32.834;  -11.610;  596.820
1016.723;   32.562;  -12.120;  614.380
1017.273;   32.686;  -13.620;  604.160
1017.823;   32.583;  -14.140;  650.340
1018.374;   31.477;  -12.800;  611.760
1018.924;   32.085;  -12.340;  716.880
1019.474;   32.872;  -11.410;  718.880
1020.024;   30.922;  -14.770;  657.580
1020.574;   31.532;   -9.780;  726.160
1021.124;   32.337;   -8.560;  673.580
1021.674;   31.106;  -15.190;  559.120
1022.224;   31.861;  -13.530;  708.940
1022.774;   31.930;  -13.280;  668.820
1023.324;   31.547;  -10.690;  753.520
1023.874;   32.911;  -10.240;  875.760
1024.423;   30.516;  -12.540;  613.700
1024.973;   29.539;  -10.010;  610.760
1025.523;   29.458;  -10.550;  620.960
1026.072;   28.975;  -13.560;  606.420
1026.622;   28.632;  -15.120;  675.740
1027.172;   29.717;  -11.260;  715.660
1027.721;   28.971;  -11.410;  601.220
1028.270;   28.990;  -13.530;  663.400
1028.820;   28.815;  -13.680;  638.080
1029.369;   27.997;  -13.520;  612.700
1029.918;   28.977;  -10.980;  649.840
1030.468;   27.703;  -13.530;  564.780
1031.017;   27.789;  -13.170;  634.800
1031.566;   27.519;  -12.200;  608.900
1032.115;   28.317;   -9.960;  694.500
1032.664;   26.307;  -13.210;  596.480
1033.213;   27.603;  -12.500;  735.420
1033.762;   26.846;  -11.910;  635.620
1034.311;   26.125;   -9.640;  677.220
1034.860;   27.385;  -13.310;  691.000
1035.408;   27.135;  -11.830;  722.720
1035.957;   26.974;  -12.000;  719.540
1036.506;   25.020;  -11.690;  530.800
1037.055;   27.550;  -10.990;  844.320
1037.603;   25.593;  -15.120;  664.000
1038.152;   23.211;  -12.450;  534.760
1038.700;   24.787;  -10.560;  585.740
1039.249;   24.891;  -11.080;  681.220
1039.797;   24.286;  -12.540;  633.360
1040.345;   25.012;  -11.920;  705.420
1040.894;   24.056;  -11.410;  625.300
1041.442;   24.140;  -14.320;  632.200
1041.990;   23.069;  -16.240;  559.160
1042.538;   22.912;  -11.680;  536.180
1043.087;   23.496;  -10.760;  570.860
1043.635;   24.794;  -11.850;  670.500
1044.183;   22.926;  -15.480;  586.400
1044.731;   22.408;  -11.770;  576.000
1045.279;   22.444;  -13.090;  674.920
1045.827;   24.523;  -12.440;  892.400
1046.374;   21.742;  -13.840;  515.420
1046.922;   21.548;  -13.220;  590.580
1047.470;   23.457;  -10.230;  691.300
1048.018;   23.221;  -14.590;  647.960
1048.565;   23.285;  -12.050;  708.600
1049.113;   20.767;  -11.650;  557.000
1049.660;   21.587;  -10.510;  629.660
1050.208;   22.095;  -13.310;  675.640
1050.755;   20.839;  -15.900;  606.580
1051.303;   21.722;  -11.430;  686.820
1051.850;   20.123;   -8.480;  635.120
1052.397;   19.843;  -15.010;  473.960
1052.945;   20.877;  -13.960;  617.760
1053.492;   20.854;  -13.150;  741.840
1054.039;   21.695;   -9.630;  720.180
1054.586;   20.474;  -13.680;  557.240
1055.133;   20.940;  -14.570;  693.140
1055.680;   20.603;  -13.820;  646.620
1056.227;   19.788;  -11.730;  542.780
1056.774;   21.758;  -12.480;  794.980
1057.321;   19.082;  -13.930;  523.260
1057.868;   19.017;  -11.690;  651.320
1058.415;   19.340;   -9.520;  651.980
1058.961;   19.882;  -13.160;  678.940
1059.508;   19.368;  -12.920;  643.820
1060.055;   18.509;  -11.920;  581.780
1060.601;   18.919;  -11.500;  624.300
1061.148;   19.924;  -14.330;  616.820
1061.694;   17.730;  -16.870;  592.580
1062.241;   18.238;  -10.330;  596.320
1062.787;   18.060;  -10.620;  663.140
1063.334;   20.759;  -10.110;  808.560
1063.880;   18.480;  -13.400;  668.360
1064.426;   17.670;  -10.680;  706.820
1064.972;   17.473;   -9.920;  601.340
1065.518;   15.851;  -10.980;  566.640
1066.065;   17.920;  -14.890;  624.460
1066.611;   16.777;  -12.870;  598.800
1067.157;   18.300;  -12.950;  641.860
1067.703;   18.278;  -13.540;  668.480
1068.249;   17.134;  -13.540;  605.220
1068.794;   16.418;  -12.600;  626.880
1069.340;   15.835;  -10.620;  578.960
1069.886;   16.215;  -12.830;  590.700
1070.432;   15.680;  -14.870;  541.720
1070.977;   15.456;  -11.980;  601.080
1071.523;   15.791;   -8.200;  573.060
1072.068;   16.155;  -12.330;  582.000
1072.614;   15.573;  -16.370;  527.760
1073.160;   16.756;  -11.100;  687.040
1073.705;   15.131;  -10.480;  572.520
1074.250;   14.989;  -14.520;  559.900
1074.796;   15.690;  -11.460;  655.160
1075.341;   16.241;  -11.950;  664.100
1075.886;   15.318;  -11.460;  594.240
1076.431;   14.478;  -13.770;  649.880
1076.976;   15.550;  -12.680;  639.220
1077.521;   14.077;  -13.170;  583.080
1078.067;   13.878;  -10.860;  579.400
1078.612;   14.376;  -13.920;  661.620
1079.156;   13.837;  -13.880;  601.540
1079.701;   15.020;  -13.120;  693.260
1080.246;   15.465;   -9.940;  696.300
1080.791;   14.254;  -14.740;  625.020
1081.336;   14.163;  -13.750;  659.320
1081.880;   14.149;  -13.400;  649.680
1082.425;   12.718;  -12.220;  573.480
1082.970;   15.079;  -11.610;  717.040
1083.514;   13.810;  -13.580;  597.000
1084.059;   12.279;  -12.810;  586.720
1084.603;   12.083;  -12.320;  565.840
1085.147;   13.143;  -13.190;  645.220
1085.692;   13.886;  -12.480;  716.800
1086.236;   11.586;  -13.020;  503.140
1086.780;   14.372;   -9.190;  751.440
1087.325;   13.158;  -12.480;  654.620
1087.869;   12.703;  -12.450;  610.700
1088.413;   13.136;  -12.240;  705.040
1088.957;   10.825;   -9.020;  543.400
1089.501;   13.217;  -10.320;  766.640
1090.045;   12.192;  -12.720;  726.480
1090.589;    9.928;  -13.690;  569.920
1091.133;   11.722;  -10.020;  673.340
1091.676;   12.074;  -12.330;  591.940
1092.220;   11.337;  -14.970;  600.920
1092.764;   12.581;  -12.430;  706.960
1093.307;   12.073;   -9.800;  673.780
1093.851;   10.570;  -14.970;  556.540
1094.395;   11.152;  -15.310;  683.140
1094.938;   10.884;  -10.370;  632.520
1095.482;   11.115;  -11.050;  559.800
1096.025;   11.071;  -11.840;  710.880
1096.568;   12.092;  -12.840;  779.280
1097.112;    8.811;  -14.700;  508.180
1097.655;   11.051;   -8.720;  603.000
1098.198;    9.829;  -13.610;  600.180
1098.741;    9.401;  -13.350;  612.860
1099.285;   10.616;  -11.230;  657.300
1099.828;    8.695;  -11.840;  439.400
1100.371;    9.982;  -10.840;  608.160
1100.914;    9.853;  -14.190;  682.660
1101.457;    9.838;  -11.240;  679.900
1101.999;    7.992;  -11.270;  584.680
1102.542;    9.141;  -11.480;  641.440
1103.085;    8.899;  -11.750;  658.500
1103.628;    9.962;  -11.400;  762.060
1104.170;    8.371;  -10.490;  588.280
1104.713;    9.467;  -10.600;  646.700
1105.256;    8.299;  -14.360;  557.440
1105.798;    7.459;  -13.210;  499.980
1106.341;   10.227;  -10.270;  728.900
1106.883;    8.085;  -12.200;  521.340
1107.425;    9.021;  -13.110;  668.180
1107.968;    8.087;  -12.840;  612.380
1108.510;    8.688;   -6.480;  684.960
1109.052;    6.732;  -13.940;  612.620
1109.594;    6.784;  -13.690;  554.440
1110.136;    8.145;  -11.880;  643.220
1110.679;    7.728;   -9.500;  633.080
1111.221;    8.363;  -14.160;  604.460
1111.763;    7.530;  -13.980;  559.220
1112.304;    6.769;  -13.880;  547.140
1112.846;    7.741;  -12.210;  666.240
1113.388;   10.419;  -11.390;  942.180
1113.930;    7.152;  -14.540;  694.200
1114.472;    6.380;  -12.640;  606.540
1115.013;    5.837;  -11.620;  551.280
1115.555;    6.032;  -13.640;  587.100
1116.097;    6.318;  -15.380;  579.480
1116.638;    7.228;  -12.640;  684.600
1117.180;    7.083;   -9.850;  667.740
1117.721;    6.308;  -13.690;  568.580
1118.262;    6.770;  -12.680;  677.960
1118.804;    6.924;  -12.530;  637.340
1119.345;    5.744;  -11.690;  578.400
1119.886;    7.352;  -13.380;  704.040
1120.427;    5.893;  -14.070;  589.020
1120.969;    4.893;  -13.500;  597.920
1121.510;    4.933;  -11.480;  563.060
1122.051;    6.269;  -12.830;  723.580
1122.592;    5.820;  -14.290;  655.420
1123.133;    3.351;  -12.400;  547.940
1123.673;    6.357;  -10.130;  706.480
1124.214;    5.115;  -12.930;  612.460
1124.755;    6.484;  -14.380;  639.460
1125.296;    4.833;  -14.000;  627.320
1125.836;    6.075;  -10.070;  691.500
1126.377;    4.793;  -12.640;  599.660
1126.918;    5.356;  -12.960;  614.980
1127.458;    3.860;  -13.350;  622.220
1127.999;    5.312;  -10.750;  656.980
1128.539;    5.435;  -12.350;  694.240
1129.079;    4.179;  -14.860;  632.720
1129.620;    3.250;  -13.840;  558.100
1130.160;    3.898;  -12.330;  539.480
1130.700;    5.205;  -14.530;  640.840
1131.240;    5.342;  -12.530;  643.700
1131.781;    3.214;  -14.450;  619.680
1132.321;    4.127;   -9.790;  599.120
1132.861;    3.191;  -14.860;  564.200
1133.401;    3.027;  -14.290;  593.940
1133.941;    3.650;  -11.750;  626.280
1134.481;    3.167;   -9.920;  597.580
1135.020;    2.430;  -12.290;  609.160
1135.560;    3.842;  -11.650;  674.940
1136.100;    2.601;  -16.270;  501.160
1136.640;    2.067;  -10.890;  510.480
1137.179;    2.970;  -14.180;  537.960
1137.719;    3.020;  -16.250;  605.400
1138.258;    2.693;  -14.230;  587.360
1138.798;    3.493;   -9.090;  663.780
1139.337;    1.789;  -15.130;  482.840
1139.877;    2.933;  -13.680;  642.360
1140.416;    4.309;  -11.320;  878.060
1140.955;    1.899;  -10.860;  535.380
1141.494;    3.034;  -12.920;  669.280
1142.034;    2.111;  -13.930;  583.520
1142.573;    2.366;  -11.440;  646.280
1143.112;    2.016;  -12.000;  553.480
1143.651;    2.292;  -13.670;  536.480
1144.190;    3.324;  -12.730;  691.640
1144.729;    2.331;  -14.560;  607.420
1145.267;    1.709;  -11.830;  584.900
1145.806;    2.981;  -12.230;  637.040
1146.345;    1.618;  -14.130;  635.020
1146.884;    1.253;  -11.590;  622.500
1147.422;    0.980;  -12.550;  533.060
1147.961;    2.948;  -11.180;  708.460
1148.500;    2.131;  -11.510;  669.720
1149.038;    1.326;  -11.640;  632.500
1149.577;    2.573;  -10.130;  698.640
1150.115;   -0.060;  -13.970;  452.280
1150.653;    1.611;  -14.520;  607.340
1151.192;    1.449;  -12.810;  552.920
1151.730;    1.728;   -9.100;  652.560
1152.268;    0.604;  -12.220;  589.520
1152.806;    0.900;  -14.140;  571.180
1153.344;   -0.961;  -12.350;  577.640
1153.882;    0.576;   -8.980;  600.060
1154.421;    0.577;  -15.190;  470.620
1154.958;   -0.046;  -15.210;  595.240
1155.496;    1.555;  -12.850;  645.280
1156.034;    1.306;   -9.940;  721.880
1156.572;    1.871;  -13.570;  667.060
1157.110;   -0.749;  -14.590;  473.940
1157.647;    1.213;  -13.030;  676.960
1158.185;    0.185;  -12.140;  564.320
1158.723;   -0.596;  -14.390;  509.200
1159.260;    0.221;  -14.090;  701.700
1159.798;    0.426;  -11.920;  658.160
1160.335;   -0.186;  -11.110;  631.820

