
Integration time [ms]:   3.276
Averaging Nr. [scans]: 1000
Smoothing Nr. [pixels]: 0
Data measured with spectrometer [name]: 7414430SP
Wave   ;Sample   ;Dark     ;Reference
[nm]   ;[counts] ;[counts] ;[counts] 

288.544;  148.902;    7.793;  793.890
289.143;  152.760;    7.462;  681.602
289.742;  152.262;    8.602;  828.814
290.341;  137.678;    1.321;  789.841
290.940;  127.164;   -0.709;  730.702
291.538;  127.980;    0.881;  881.108
292.137;  128.069;    0.122;  792.581
292.736;  132.558;   -1.929;  975.101
293.335;  129.267;   -8.229;  735.086
293.934;  130.890;   -5.279;  781.677
294.532;  128.755;   -1.369; 1031.958
295.131;  114.148;   -7.641;  834.394
295.730;  114.848;   -8.420;  809.588
296.328;  113.214;   -5.611;  783.442
296.927;  115.222;   -5.781;  779.652
297.525;  115.334;   -6.361;  781.236
298.124;  105.247;  -11.382;  654.009
298.722;  108.993;   -7.641;  761.933
299.321;  107.054;   -6.811;  708.597
299.919;  104.719;   -6.991;  751.918
300.518;  101.998;  -10.362;  689.338
301.116;  103.980;   -9.581;  691.381
301.715;  104.765;   -4.891;  730.222
302.313;  102.711;   -8.801;  704.943
302.911;   98.645;   -8.522;  733.830
303.509;  103.934;   -6.171;  925.627
304.108;  101.224;   -7.311;  760.383
304.706;  100.652;   -8.321;  801.664
305.304;   95.699;  -10.222;  796.707
305.902;  100.150;   -6.021;  784.484
306.500;   96.042;   -4.971;  728.200
307.098;   94.691;   -7.061;  746.560
307.696;   92.906;   -8.801;  780.432
308.294;   93.343;   -6.411;  731.359
308.892;   95.367;   -2.901;  759.769
309.490;   91.172;   -5.041;  712.161
310.088;   89.881;   -5.002;  788.444
310.686;   93.712;   -2.041;  821.749
311.284;   89.146;   -2.351;  766.040
311.882;   86.913;   -4.422;  731.225
312.480;   83.959;   -4.192;  697.167
313.078;   85.872;   -1.172;  808.331
313.675;   86.554;   -2.601;  691.600
314.273;   81.540;   -1.312;  797.837
314.871;   80.927;   -3.942;  589.829
315.468;   78.808;   -2.802;  652.090
316.066;   81.328;   -0.701;  694.427
316.664;   74.962;   -4.362;  656.351
317.261;   77.450;   -2.872;  910.128
317.859;   73.777;   -2.022;  768.735
318.456;   74.786;   -0.531;  830.096
319.054;   70.932;   -3.912;  787.828
319.651;   69.096;   -4.752;  759.928
320.249;   68.752;   -2.602;  810.188
320.846;   65.827;   -0.821;  714.286
321.443;   64.078;   -4.642;  832.135
322.041;   60.606;   -5.002;  812.315
322.638;   58.746;   -3.982;  701.456
323.235;   59.946;   -3.411;  665.683
323.833;   57.083;   -7.361;  740.354
324.430;   52.028;   -8.611;  615.900
325.027;   54.092;   -4.061;  876.855
325.624;   52.593;   -4.031;  644.532
326.221;   50.050;   -7.481;  689.717
326.818;   49.925;   -5.281;  818.332
327.415;   53.494;   -7.460;  748.828
328.012;   52.444;   -5.510;  690.585
328.609;   50.717;   -7.880;  731.389
329.206;   49.529;   -8.331;  778.621
329.803;   49.630;   -5.121;  737.841
330.400;   51.905;   -4.510;  704.260
330.997;   53.524;   -6.441;  817.147
331.594;   52.421;   -8.831;  788.185
332.191;   57.734;   -7.621;  728.722
332.787;   60.223;   -4.591;  844.463
333.384;   58.397;   -7.412;  763.093
333.981;   56.686;   -8.293;  815.687
334.578;   61.348;   -7.052;  708.378
335.174;   62.989;   -3.102;  731.469
335.771;   62.804;   -5.943;  836.456
336.367;   59.368;   -7.393;  710.631
336.964;   63.464;   -4.063;  793.266
337.561;   61.122;   -3.813;  731.112
338.157;   56.637;   -4.654;  911.916
338.754;   53.540;   -7.934;  796.589
339.350;   52.847;   -4.414;  722.493
339.946;   54.584;   -4.664;  773.135
340.543;   46.584;   -6.375;  846.136
341.139;   40.871;   -9.815;  720.836
341.735;   39.151;   -4.526;  772.593
342.332;   37.735;   -4.895;  691.472
342.928;   38.408;   -4.295;  795.394
343.524;   32.183;   -5.476;  761.684
344.120;   29.020;   -5.856;  738.562
344.716;   31.628;   -2.155;  723.717
345.313;   29.179;   -6.275;  795.342
345.909;   24.169;   -8.815;  627.336
346.505;   26.747;   -5.305;  740.247
347.101;   26.700;   -2.674;  827.864
347.697;   26.991;   -4.344;  785.398
348.293;   21.026;   -9.975;  627.244
348.889;   22.657;   -5.774;  745.914
349.485;   21.856;   -5.004;  688.205
350.081;   22.110;   -4.704;  772.592
350.676;   17.688;   -6.635;  691.606
351.272;   22.182;   -4.504;  809.530
351.868;   22.562;   -3.914;  780.497
352.464;   18.459;   -9.044;  723.932
353.059;   14.783;   -8.314;  646.017
353.655;   18.648;   -7.024;  777.063
354.251;   19.830;   -5.343;  759.845
354.846;   14.039;   -8.604;  740.646
355.442;   12.173;   -6.945;  753.071
356.038;   14.013;   -7.564;  751.708
356.633;   14.477;   -5.814;  728.594
357.229;   11.794;   -7.364;  724.757
357.824;    9.805;   -8.024;  703.600
358.420;    9.275;   -9.384;  679.726
359.015;    9.387;   -5.104;  695.357
359.610;   10.970;   -6.854;  763.920
360.206;    4.869;  -10.185;  603.240
360.801;    7.160;   -7.054;  646.503
361.396;   10.057;   -5.034;  725.975
361.992;    4.932;   -8.284;  668.220
362.587;    3.072;   -8.625;  670.160
363.182;    5.369;   -7.674;  689.631
363.777;    5.788;   -5.164;  738.242
364.372;    5.341;   -8.604;  737.314
364.967;    1.325;   -9.055;  680.744
365.563;    6.004;   -6.114;  815.567
366.158;    2.514;   -5.814;  685.161
366.753;    3.017;   -7.854;  649.263
367.348;    1.365;   -7.804;  746.056
367.942;    1.684;   -7.954;  697.298
368.537;    0.307;   -4.984;  754.245
369.132;    0.901;   -8.564;  703.428
369.727;   -3.274;   -8.855;  638.079
370.322;   -1.469;   -6.245;  580.186
370.917;   -1.940;   -6.425;  710.646
371.511;    0.666;   -6.294;  861.834
372.106;   -2.969;   -7.685;  776.964
372.701;   -4.964;   -7.335;  585.988
373.296;   -0.381;   -4.564;  863.135
373.890;   -5.303;  -10.235;  647.840
374.485;   -7.229;   -7.885;  691.199
375.079;   -3.056;   -7.324;  738.685
375.674;   -2.343;   -3.494;  812.970
376.268;   -7.329;   -8.525;  691.759
376.863;  -12.325;  -10.086;  580.327
377.457;   -5.806;   -7.025;  662.490
378.052;   -7.463;   -3.585;  764.884
378.646;   -8.816;   -7.595;  741.167
379.240;   -9.347;   -8.335;  721.176
379.835;   -7.213;   -5.785;  636.978
380.429;  -10.297;   -4.335;  562.557
381.023;  -10.972;   -6.805;  779.205
381.617;  -12.577;   -9.195;  680.106
382.212;   -9.300;   -6.905;  685.303
382.806;   -6.831;   -3.745;  760.690
383.400;  -11.956;   -7.745;  672.281
383.994;  -13.279;   -9.765;  664.870
384.588;   -8.513;   -6.564;  697.701
385.182;   -7.814;   -5.344;  726.624
385.776;  -10.017;   -8.514;  706.875
386.370;  -13.076;   -9.555;  681.968
386.964;  -11.800;   -8.715;  684.155
387.558;   -9.703;   -6.174;  598.360
388.152;  -13.346;   -8.725;  681.959
388.745;  -12.003;   -7.965;  814.707
389.339;   -9.958;   -5.924;  747.642
389.933;   -9.193;   -5.524;  695.370
390.527;   -9.437;   -7.114;  859.029
391.120;  -16.558;  -10.725;  595.318
391.714;  -13.426;   -8.035;  711.633
392.308;  -10.381;   -3.574;  780.253
392.901;  -13.826;   -7.245;  642.460
393.495;  -15.535;   -9.285;  595.414
394.089;  -12.925;   -5.895;  760.452
394.682;  -14.099;   -4.295;  697.188
395.275;  -14.896;   -9.875;  719.927
395.869;  -16.018;   -8.485;  667.314
396.462;  -13.588;   -7.455;  616.609
397.056;  -10.201;   -5.424;  776.621
397.649;  -14.861;   -6.605;  731.575
398.242;  -12.502;   -8.224;  712.645
398.836;  -12.441;   -7.474;  766.408
399.429;  -12.329;   -7.094;  631.041
400.022;  -16.607;   -9.475;  665.902
400.615;  -13.521;   -7.145;  805.609
401.208;  -11.787;   -7.174;  691.451
401.802;  -14.045;   -5.515;  699.329
402.395;  -15.193;   -9.875;  683.502
402.988;  -16.034;   -8.845;  696.627
403.581;  -12.806;   -8.874;  646.878
404.174;  -11.151;   -5.324;  686.568
404.767;  -13.824;   -9.575;  638.583
405.360;  -15.940;  -10.965;  621.445
405.953;  -10.683;   -8.764;  759.034
406.545;  -10.403;   -7.514;  725.342
407.138;  -14.694;  -10.025;  618.350
407.731;  -13.998;  -10.034;  613.303
408.324;   -9.333;   -9.374;  660.554
408.917;  -10.343;   -6.534;  681.864
409.509;  -11.711;   -8.004;  740.396
410.102;  -13.393;   -9.875;  643.948
410.695;   -8.286;   -8.604;  665.758
411.287;   -9.399;   -6.794;  599.821
411.880;  -10.520;   -9.334;  585.421
412.472;  -14.171;  -10.254;  613.092
413.065;  -10.980;   -6.714;  629.408
413.657;   -7.759;   -7.234;  576.678
414.250;   -8.376;  -10.544;  646.681
414.842;   -9.961;   -9.744;  676.353
415.434;   -7.616;   -6.994;  570.463
416.027;   -3.267;   -5.893;  652.196
416.619;   -6.526;   -7.264;  713.400
417.211;   -7.211;  -10.374;  599.352
417.804;   -2.584;   -7.993;  628.499
418.396;   -7.073;   -7.234;  607.643
418.988;   -4.534;   -9.443;  659.238
419.580;   -8.067;  -10.724;  568.276
420.172;   -5.491;  -10.323;  536.196
420.764;   -1.829;   -8.793;  672.482
421.356;   -2.496;  -11.143;  636.898
421.948;   -4.080;   -8.293;  677.661
422.540;    1.455;   -7.893;  680.027
423.132;    0.469;   -7.082;  600.641
423.724;   -2.657;   -8.653;  561.267
424.316;   -0.917;  -10.213;  621.345
424.908;    2.772;   -9.762;  591.517
425.500;    3.749;   -5.572;  647.978
426.092;    3.105;   -8.422;  648.268
426.683;    3.138;   -9.283;  684.836
427.275;    5.679;   -7.852;  641.471
427.867;    7.132;   -5.272;  668.948
428.458;    7.256;   -7.682;  732.344
429.050;    6.508;  -10.612;  680.749
429.642;    8.279;   -9.882;  743.124
430.233;    8.869;   -6.962;  569.356
430.825;    9.386;   -6.842;  724.809
431.416;    6.835;   -9.672;  698.241
432.008;   11.268;   -6.552;  651.723
432.599;   11.296;   -6.891;  656.073
433.190;    8.276;  -10.912;  637.670
433.782;    7.793;  -11.172;  590.395
434.373;   15.611;   -6.061;  884.765
434.964;   13.793;   -8.251;  602.920
435.556;   11.024;   -9.722;  634.537
436.147;   14.627;   -9.082;  758.490
436.738;   15.272;   -8.041;  701.099
437.329;   20.391;   -7.341;  721.723
437.920;   12.315;   -8.162;  666.688
438.511;   12.402;  -11.802;  564.526
439.103;   18.987;  -10.191;  623.998
439.694;   20.912;   -7.601;  681.583
440.285;   21.175;   -8.541;  764.432
440.876;   20.181;   -9.751;  845.738
441.466;   18.819;   -9.401;  575.162
442.057;   24.864;   -7.760;  665.814
442.648;   23.319;   -9.971;  746.255
443.239;   21.932;  -11.001;  620.477
443.830;   26.854;   -7.990;  704.958
444.421;   28.573;   -7.910;  655.474
445.011;   24.040;   -8.131;  693.619
445.602;   23.896;   -7.111;  743.126
446.193;   26.887;  -10.920;  488.117
446.783;   31.261;   -6.500;  640.397
447.374;   26.650;   -8.671;  692.759
447.964;   25.918;  -10.781;  713.770
448.555;   35.130;   -9.650;  822.742
449.145;   32.418;   -8.660;  662.853
449.736;   32.287;   -8.990;  803.179
450.326;   32.246;   -9.500;  713.626
450.917;   37.616;   -8.680;  675.324
451.507;   36.732;   -7.520;  600.661
452.097;   37.175;   -8.590;  746.267
452.688;   37.610;  -11.340;  742.160
453.278;   37.704;  -10.100;  566.840
453.868;   42.248;   -6.019;  793.550
454.458;   39.631;   -9.440;  651.141
455.048;   40.512;  -10.560;  711.783
455.639;   42.483;  -11.799;  567.096
456.229;   45.392;   -6.899;  710.694
456.819;   47.884;   -7.389;  751.158
457.409;   47.160;  -11.119;  773.993
457.999;   50.191;   -9.289;  737.505
458.589;   50.689;   -6.139;  686.606
459.179;   50.508;   -8.729;  717.658
459.769;   47.652;   -9.789;  627.099
460.358;   53.396;  -10.259;  797.262
460.948;   52.767;   -7.299;  689.503
461.538;   54.396;  -10.289;  660.677
462.128;   51.766;  -11.269;  664.934
462.717;   59.161;   -9.368;  710.326
463.307;   61.941;   -7.908;  705.846
463.897;   57.929;   -9.599;  656.942
464.486;   56.907;   -9.769;  837.128
465.076;   62.387;   -8.048;  733.776
465.666;   65.108;   -9.358;  652.900
466.255;   62.472;   -7.919;  785.651
466.845;   61.398;  -11.689;  666.749
467.434;   65.428;   -7.818;  725.873
468.023;   66.350;   -7.678;  658.357
468.613;   63.429;  -10.939;  713.946
469.202;   67.622;  -10.118;  646.507
469.791;   72.218;   -9.108;  737.811
470.381;   74.011;   -6.058;  742.813
470.970;   73.885;  -10.428;  711.099
471.559;   73.177;  -10.268;  733.291
472.148;   76.890;   -8.448;  675.737
472.738;   78.871;   -6.917;  765.466
473.327;   78.805;  -11.978;  637.529
473.916;   77.780;  -11.888;  737.446
474.505;   82.187;   -9.437;  751.703
475.094;   85.563;   -6.747;  806.570
475.683;   84.673;   -9.367;  797.699
476.272;   85.464;  -12.637;  730.632
476.861;   87.781;  -10.027;  706.754
477.449;   95.050;   -8.716;  728.487
478.038;   88.944;   -9.577;  692.513
478.627;   90.200;   -9.718;  714.852
479.216;   97.292;   -8.947;  769.441
479.805;  100.664;   -6.256;  783.375
480.393;   99.241;   -7.937; 1008.945
480.982;   98.912;   -7.717;  874.501
481.571;  105.118;   -9.266;  858.333
482.159;  106.259;   -7.636;  705.386
482.748;  105.291;   -9.667;  821.385
483.336;  109.048;  -10.376;  858.209
483.925;  111.686;   -7.147;  774.373
484.513;  117.999;   -7.996;  758.962
485.102;  114.488;  -10.027;  810.965
485.690;  122.865;  -10.446; 1011.050
486.278;  124.796;   -8.446;  979.329
486.867;  125.779;   -6.356;  809.662
487.455;  127.501;   -9.136;  898.229
488.043;  128.897;  -10.646;  748.361
488.631;  137.844;   -7.456; 1005.079
489.220;  142.285;   -6.636;  908.626
489.808;  143.023;  -11.036;  741.415
490.396;  150.774;  -10.246;  914.645
490.984;  157.205;   -8.556;  830.161
491.572;  168.175;   -5.886;  940.315
492.160;  175.244;   -9.486;  919.081
492.748;  187.859;  -10.976;  884.341
493.336;  214.341;   -8.776; 1019.693
493.924;  242.203;   -5.465;  958.077
494.512;  275.244;   -9.986; 1066.638
495.100;  320.201;  -10.636; 1103.280
495.687;  379.303;  -10.885; 1206.373
496.275;  443.997;   -8.126; 1150.796
496.863;  513.382;  -10.586; 1281.171
497.451;  620.194;  -11.926; 1386.805
498.038;  780.499;  -10.885; 1556.729
498.626;  914.784;   -6.315; 1741.407
499.214; 1053.458;   -7.326; 2016.609
499.801; 1276.552;  -11.906; 2220.633
500.389; 1559.314;  -10.466; 2312.494
500.976; 1943.481;   -5.236; 2744.849
501.564; 2366.026;   -8.936; 3148.565
502.151; 2771.107;  -13.176; 3515.999
502.738; 3314.091;  -10.646; 3971.274
503.326; 3716.792;   -9.525; 4403.796
503.913; 4189.301;  -10.856; 5161.749
504.500; 4527.443;  -11.586; 5986.420
505.088; 4930.161;  -10.336; 6381.201
505.675; 5490.558;   -6.355; 6925.547
506.262; 6071.132;   -9.046; 7619.060
506.849; 6816.350;  -10.416; 8733.969
507.436; 7301.298;  -10.305; 9790.121
508.023; 7606.668;   -5.496; 9985.472
508.610; 7969.242;   -7.856;10434.618
509.197; 8778.974;  -10.097;11198.435
509.784;10369.174;  -10.886;12391.194
510.371;11555.289;   -9.315;13603.713
510.958;12304.153;   -9.936;14426.586
511.545;12907.491;   -9.326;15243.775
512.132;13332.654;  -10.075;15945.876
512.719;13970.271;   -7.796;16340.369
513.305;15337.917;  -10.606;18011.766
513.892;16210.803;  -11.486;19754.971
514.479;17532.252;   -9.126;20967.805
515.066;18484.666;   -6.026;22299.793
515.652;19300.230;   -8.466;22908.660
516.239;20758.348;  -10.886;23798.875
516.825;21153.111;  -11.496;25567.275
517.412;21820.445;   -5.796;28154.959
517.998;22913.672;  -10.506;28344.111
518.585;23241.180;  -10.076;27134.219
519.171;23295.918;   -8.315;27268.576
519.758;24759.084;   -8.596;28964.129
520.344;25681.557;   -8.466;30664.494
520.930;25814.654;  -11.006;32550.605
521.516;27546.455;  -10.495;35422.895
522.103;30040.449;   -5.526;38280.004
522.689;30877.375;   -8.746;37835.117
523.275;29756.480;  -11.376;37288.613
523.861;29243.912;  -11.156;37281.395
524.447;30619.256;   -8.135;37846.949
525.033;30175.279;   -7.896;38321.949
525.619;29712.043;  -12.476;38579.285
526.205;29052.625;   -9.516;40622.875
526.791;29733.342;   -6.926;42258.836
527.377;31613.885;   -8.346;42966.902
527.963;36494.504;   -8.717;42018.949
528.549;37573.363;  -11.016;42476.828
529.135;35894.961;   -8.536;41854.852
529.721;35640.430;   -9.666;41237.711
530.306;35289.363;  -10.066;41259.445
530.892;35586.504;  -11.356;41506.047
531.478;36382.730;   -6.596;43559.613
532.063;37737.953;   -8.836;47695.563
532.649;37936.875;  -10.047;50808.324
533.235;40423.688;   -9.746;51787.500
533.820;42051.648;   -6.566;52145.035
534.406;41777.164;  -10.817;51133.488
534.991;40954.250;   -9.416;49996.805
535.576;39689.164;   -9.036;48882.852
536.162;40123.289;   -6.156;46942.285
536.747;40717.117;  -11.607;45711.746
537.333;43261.070;  -11.787;48510.180
537.918;44567.348;  -12.437;50439.891
538.503;42506.340;   -7.196;50863.711
539.088;39005.727;  -10.556;50906.922
539.673;38292.664;   -8.767;52621.965
540.259;36450.871;  -10.026;52368.094
540.844;33420.086;   -7.416;50879.109
541.429;35156.375;   -9.467;52077.777
542.014;41846.914;   -9.527;52716.695
542.599;45401.051;   -9.946;52363.281
543.184;43415.047;   -7.927;53187.137
543.769;44987.438;   -9.297;54697.605
544.354;45265.102;  -10.127;53913.914
544.938;44866.531;   -9.267;49680.164
545.523;46951.164;   -6.506;47386.277
546.108;48220.691;   -9.787;49151.949
546.693;49730.145;  -11.587;51384.637
547.278;49594.871;  -10.986;51853.254
547.862;45459.559;   -8.206;51173.750
548.447;41146.004;  -10.067;51691.395
549.031;40559.309;   -9.637;52456.703
549.616;45209.383;   -9.926;52714.516
550.201;45196.926;   -6.347;52414.598
550.785;44361.863;   -7.917;52355.059
551.370;44465.336;  -10.867;54589.453
551.954;46038.266;   -9.047;58267.348
552.538;47944.070;   -7.827;59062.176
553.123;46908.789;  -10.287;58115.285
553.707;44751.734;  -12.178;56556.285
554.291;44657.293;   -8.717;56201.668
554.876;43539.246;   -7.457;55335.762
555.460;44349.227;  -10.387;54155.703
556.044;47199.773;   -9.618;53721.484
556.628;45094.781;  -11.567;53731.016
557.212;44940.453;   -8.097;54312.531
557.796;43758.125;  -11.077;53797.773
558.380;43881.684;  -11.108;56145.984
558.964;43633.863;   -9.057;57277.930
559.548;43412.465;   -6.977;56459.641
560.132;42181.105;  -11.457;54434.543
560.716;41539.203;  -11.378;54800.617
561.300;41293.938;   -9.577;57606.945
561.884;42528.965;   -7.127;58972.445
562.467;42586.941;   -7.118;57327.570
563.051;42001.957;  -13.358;54962.434
563.635;42419.727;  -10.178;52594.473
564.219;44004.785;   -7.837;50610.410
564.802;44749.984;  -11.398;49551.180
565.386;44747.039;  -12.788;48370.953
565.969;43940.664;   -9.077;48178.871
566.553;43781.500;   -6.207;49957.305
567.136;43453.664;   -8.568;50369.594
567.720;39772.684;  -11.868;49492.004
568.303;38527.012;   -8.268;50616.352
568.887;38565.801;   -8.698;50727.148
569.470;38865.996;   -6.808;51698.379
570.053;37112.750;  -13.188;52122.078
570.637;36130.836;  -12.037;52536.438
571.220;35806.691;   -8.577;51186.098
571.803;36060.449;   -8.498;51032.762
572.386;38228.551;  -10.498;49609.887
572.969;41173.020;   -9.388;48285.926
573.552;39791.703;   -8.338;47624.285
574.135;39306.758;   -8.518;45498.641
574.718;36168.016;  -13.628;41970.434
575.301;34801.477;  -10.893;41447.137
575.884;33434.934;   -8.158;40923.836
576.467;33737.453;  -10.328;45267.723
577.050;37063.352;  -13.058;48175.543
577.633;38885.914;   -9.458;47729.328
578.216;37364.375;   -8.928;47579.793
578.799;36316.137;   -9.358;47820.996
579.381;34913.789;  -11.388;48115.551
579.964;33510.984;  -11.718;47333.766
580.547;34330.797;   -8.588;46668.969
581.129;34476.293;   -8.859;44466.141
581.712;34092.762;  -10.729;44164.922
582.294;34806.164;  -11.118;46477.855
582.877;36294.352;   -5.218;48244.254
583.459;35291.547;   -8.679;47437.895
584.042;33817.133;  -10.709;46943.219
584.624;33639.125;  -11.669;46792.227
585.206;32293.020;   -8.218;46557.250
585.789;33189.508;  -10.569;45793.773
586.371;36292.141;  -11.859;43836.391
586.953;36385.555;  -10.719;42972.492
587.536;36720.719;   -7.198;42487.211
588.118;36190.531;   -8.720;42086.414
588.700;34021.078;  -10.439;43389.930
589.282;33356.023;   -9.198;43646.039
589.864;33639.070;   -9.199;43438.109
590.446;34722.895;  -11.319;43151.926
591.028;34196.723;  -11.159;42781.867
591.610;33214.059;  -11.779;42839.098
592.192;30617.943;   -7.668;42820.402
592.774;29425.594;  -11.949;40724.277
593.356;28962.059;  -12.129;39874.789
593.937;29473.793;  -10.669;39980.648
594.519;31645.840;   -6.509;42069.633
595.101;33040.992;  -10.849;42976.031
595.683;32878.512;  -11.679;44084.441
596.264;34077.578;   -9.049;43478.797
596.846;32578.865;   -8.849;43803.672
597.427;31343.584;   -9.570;42986.934
598.009;33245.980;  -12.620;42832.219
598.591;33700.156;  -10.039;42580.086
599.172;33309.027;  -10.369;43061.805
599.753;33578.016;   -9.140;41691.469
600.335;34515.824;  -11.430;40692.520
600.916;32880.059;   -9.939;39982.422
601.498;31811.430;   -8.479;40318.617
602.079;31189.346;  -10.920;40670.609
602.660;30847.545;  -11.480;41450.898
603.241;30415.771;  -11.699;41137.738
603.823;28931.193;   -9.579;38868.797
604.404;30091.564;  -10.620;38182.785
604.985;31176.840;  -10.450;38078.047
605.566;30228.969;   -9.129;38056.633
606.147;30181.666;   -7.510;37020.418
606.728;32851.586;  -10.660;37883.359
607.309;31916.646;  -11.740;38748.273
607.890;30821.352;   -9.759;38850.230
608.471;30388.869;   -8.250;37457.918
609.051;30192.320;   -9.240;36066.457
609.632;29162.049;  -12.120;35991.074
610.213;29822.625;   -9.110;37402.641
610.794;29871.447;   -8.030;38383.363
611.374;28389.996;   -8.110;40562.387
611.955;27971.346;  -13.560;38533.727
612.536;29566.963;  -11.400;36951.789
613.116;30466.914;   -8.070;37197.891
613.697;31184.666;  -10.830;38411.125
614.277;29661.051;  -11.641;38673.938
614.858;30255.635;  -13.310;37075.863
615.438;30578.928;   -7.460;35092.906
616.019;27969.619;   -7.601;33666.301
616.599;28096.039;  -12.020;34189.023
617.179;29982.510;  -11.780;36952.047
617.760;30236.584;   -8.570;39582.574
618.340;31663.863;  -11.471;38943.977
618.920;33199.703;  -11.170;37594.156
619.500;32800.520;  -11.071;37866.938
620.080;32593.596;   -7.750;37869.043
620.660;33504.781;  -12.711;36868.617
621.241;33886.316;  -10.211;36352.309
621.821;32909.680;  -10.961;35459.520
622.401;32520.068;   -7.720;35207.414
622.980;31435.467;   -8.981;35980.422
623.560;30049.389;   -9.331;37351.328
624.140;30106.363;   -9.850;34388.582
624.720;26302.756;   -7.451;32368.764
625.300;22272.945;   -9.070;32638.629
625.880;24860.729;  -12.601;34599.035
626.459;28226.049;  -11.751;36831.738
627.039;30846.357;   -9.281;38299.098
627.619;30860.324;   -8.801;38289.574
628.198;29074.533;  -12.071;37220.695
628.778;29279.588;   -9.461;37632.563
629.357;30447.748;   -8.491;38003.012
629.937;30074.580;   -9.721;38402.039
630.516;28932.965;   -9.951;37868.801
631.096;28896.984;  -11.731;35760.410
631.675;32376.361;   -8.572;35225.219
632.254;37192.301;  -11.282;35130.289
632.834;36458.129;  -13.322;35794.570
633.413;35293.125;  -10.301;35788.922
633.992;32755.574;   -8.582;34532.863
634.571;33810.309;   -8.352;33590.113
635.151;35141.340;  -11.912;34943.863
635.730;32869.328;  -10.511;35352.523
636.309;30116.184;   -7.731;35366.605
636.888;27967.141;   -9.952;36165.637
637.467;28526.459;  -11.672;37515.902
638.046;30701.857;   -8.901;39288.695
638.625;33361.816;   -7.912;38279.699
639.204;32894.375;  -10.022;37741.598
639.782;31572.668;  -12.252;38364.551
640.361;28492.561;  -10.041;36740.621
640.940;25779.975;  -11.161;34950.082
641.519;25141.604;   -9.701;34137.398
642.097;27267.795;  -11.271;35654.258
642.676;30579.352;   -8.651;35637.957
643.255;32125.420;   -8.711;36567.074
643.833;30929.361;   -9.581;37809.434
644.412;31543.070;  -13.711;37337.293
644.990;31404.580;  -11.811;37018.531
645.569;31528.418;   -9.411;36518.469
646.147;29785.412;  -10.291;36186.430
646.726;28321.730;  -12.401;36267.688
647.304;29313.064;  -10.411;36647.625
647.882;30665.547;   -9.651;39286.742
648.461;32561.994;   -9.631;39157.703
649.039;32328.279;  -11.881;35412.883
649.617;32261.514;   -9.661;34744.918
650.195;32169.396;   -9.301;35403.098
650.773;31230.947;  -10.511;35053.797
651.352;29434.955;  -11.521;33756.816
651.930;26523.484;  -12.211;31868.773
652.508;23474.676;   -9.171;33121.551
653.086;26750.471;   -9.371;33564.793
653.663;30458.275;  -13.161;34054.668
654.241;29634.387;  -13.031;35693.309
654.819;30322.412;   -9.371;36422.906
655.397;29214.842;  -10.511;38213.484
655.975;29446.773;  -10.371;39507.625
656.553;30102.340;  -10.051;39498.223
657.130;29166.768;  -10.061;40395.480
657.708;28976.328;   -9.561;39242.020
658.286;28891.100;  -11.511;38920.020
658.863;29183.318;  -10.261;40202.898
659.441;30509.785;   -7.531;39677.938
660.018;29653.463;   -9.501;40413.355
660.596;29364.947;  -13.301;39931.414
661.173;31542.705;  -11.211;39604.531
661.750;31757.406;   -9.951;39700.070
662.328;30859.465;   -9.390;39292.809
662.905;30009.676;  -11.330;38235.648
663.482;25572.730;   -9.050;36212.305
664.060;23660.877;   -8.240;35944.945
664.637;26361.604;  -10.050;35170.785
665.214;28054.951;  -11.760;34197.523
665.791;29693.010;  -10.530;34549.520
666.368;29247.016;   -9.690;35118.578
666.945;30345.396;   -9.320;36019.418
667.522;31050.939;  -11.860;36048.438
668.099;31170.820;  -10.770;36243.914
668.676;31054.432;   -6.260;35958.875
669.253;29703.502;   -7.000;37384.730
669.830;29624.100;  -10.190;36779.629
670.407;29108.277;   -9.550;35231.289
670.984;30252.619;   -9.260;35544.270
671.560;29494.184;   -9.280;35466.867
672.137;27681.887;  -11.810;34280.863
672.714;28773.752;  -11.490;34632.863
673.290;28862.467;   -7.740;35135.422
673.867;28975.959;  -10.660;36114.480
674.443;29382.061;  -12.230;36152.859
675.020;27791.992;  -10.450;35327.238
675.596;29127.336;   -9.260;35795.176
676.173;29802.338;  -10.780;35430.355
676.749;28904.129;  -13.690;33549.516
677.326;28807.096;  -11.980;32210.012
677.902;29002.342;   -8.630;32068.871
678.478;28198.137;  -10.730;32583.891
679.054;28929.809;  -10.520;32088.928
679.631;30672.785;  -11.920;30978.848
680.207;30979.941;   -7.490;33160.887
680.783;31932.199;   -9.860;35570.363
681.359;30911.807;  -13.380;36125.184
681.935;28939.498;  -12.480;35240.922
682.511;27106.947;   -7.900;34429.961
683.087;27141.350;   -7.710;34463.680
683.663;28333.654;  -11.480;34648.898
684.239;28743.691;  -14.090;34546.457
684.815;28673.551;   -7.560;35586.375
685.390;28827.152;   -9.910;35821.895
685.966;29019.088;  -11.159;35085.871
686.542;31384.371;  -11.169;34198.230
687.118;33268.402;   -5.959;32847.707
687.693;32948.227;  -10.329;32794.027
688.269;31878.385;  -12.059;33072.367
688.844;28815.680;  -10.909;33141.664
689.420;27267.514;   -8.019;33965.742
689.995;26193.984;   -8.399;34655.523
690.571;25782.027;  -10.949;33576.742
691.146;26590.389;   -9.619;32657.219
691.722;25548.330;   -8.999;32526.979
692.297;25100.887;  -11.589;33014.617
692.872;26989.625;  -11.739;34012.254
693.448;27099.012;  -11.059;34237.434
694.023;25762.719;  -10.139;34142.672
694.598;27373.373;   -9.029;34132.031
695.173;27133.588;  -13.319;34205.250
695.748;26728.979;  -10.169;32882.488
696.323;26527.047;   -8.339;32864.906
696.898;26204.727;   -8.169;33170.004
697.473;26023.146;  -12.309;32432.984
698.048;26225.311;  -10.989;31649.303
698.623;27115.908;   -9.329;30778.141
699.198;28643.025;   -9.849;31140.119
699.773;29338.592;  -12.329;31764.299
700.348;28616.145;  -10.389;31780.816
700.922;29140.637;   -9.269;32046.375
701.497;29115.654;   -9.329;32603.574
702.072;28744.156;  -10.789;34799.871
702.646;28625.795;  -10.839;35793.172
703.221;28098.004;   -9.099;35201.590
703.795;30052.410;  -10.939;34764.527
704.370;29320.785;  -12.859;34307.367
704.944;28963.209;  -11.559;33509.887
705.519;30388.693;   -7.939;31388.584
706.093;31711.938;  -10.499;31340.104
706.668;31361.586;  -11.289;32630.281
707.242;29818.619;  -11.509;32728.779
707.816;28730.266;   -9.639;32947.238
708.390;27037.652;  -11.429;33277.855
708.965;27755.193;  -11.869;33834.336
709.539;28713.291;  -11.689;33709.273
710.113;29002.746;  -10.478;33044.313
710.687;27781.793;  -10.228;31953.992
711.261;25168.977;  -13.698;30505.949
711.835;25162.621;  -13.378;30262.369
712.409;26641.885;   -9.698;31254.447
712.983;27908.234;  -11.898;32754.986
713.557;28897.016;  -15.138;34018.824
714.131;28767.988;  -14.098;34579.625
714.704;27729.102;   -9.958;33890.262
715.278;25372.752;  -10.028;33531.102
715.852;25738.748;  -11.148;33601.660
716.425;27189.473;   -9.068;33515.117
716.999;27277.166;  -10.038;33185.555
717.573;27677.590;   -9.798;33905.996
718.146;28735.182;  -12.378;35199.293
718.720;28719.359;  -11.918;35060.551
719.293;28729.002;   -8.088;34973.230
719.867;31042.646;  -10.888;36394.449
720.440;30904.957;  -11.938;36663.008
721.013;29813.303;  -12.818;35102.426
721.587;28604.605;  -10.298;33985.266
722.160;26470.963;  -10.048;33524.965
722.733;25540.594;  -12.108;32987.043
723.306;26534.143;  -10.818;33066.301
723.880;28069.090;   -8.908;33399.500
724.453;29560.307;   -9.878;33468.297
725.026;28523.121;  -11.188;33816.637
725.599;25763.211;  -11.678;32797.996
726.172;26560.184;   -9.618;33187.434
726.745;28467.414;   -8.258;35136.613
727.318;30233.221;  -12.978;35751.730
727.891;30547.814;  -12.148;35890.430
728.463;30298.176;   -8.968;34822.090
729.036;29204.549;  -10.188;32895.086
729.609;29214.793;  -11.788;31823.225
730.182;25595.291;  -11.788;31445.283
730.754;23372.689;  -10.268;32373.223
731.327;23575.848;   -9.998;33676.820
731.900;23370.219;  -12.228;33417.000
732.472;24954.658;  -13.848;31978.498
733.045;27692.332;   -8.698;30368.777
733.617;27862.984;  -10.607;30574.215
734.190;26822.721;  -11.507;31280.975
734.762;23782.506;  -13.647;31674.412
735.334;22673.785;   -9.767;31247.291
735.907;23401.268;   -9.897;29876.211
736.479;23199.539;  -11.637;29808.488
737.051;22571.055;   -9.567;30233.547
737.623;23640.518;   -8.187;31469.086
738.195;24794.701;  -11.187;31784.225
738.768;26427.064;  -12.337;32120.523
739.340;25771.547;  -12.227;32094.342
739.912;24040.168;  -11.057;31312.680
740.484;23685.551;  -10.207;31946.238
741.056;23039.975;  -10.047;32984.059
741.628;24384.113;  -13.627;33897.715
742.199;26923.486;   -7.177;33213.016
742.771;25969.926;  -10.797;31369.113
743.343;23525.566;  -11.997;31865.473
743.915;21996.473;  -12.867;32388.631
744.487;22046.027;   -7.617;31079.568
745.058;22802.885;   -9.557;30570.107
745.630;24116.652;   -9.877;29970.127
746.201;25181.496;  -14.177;29186.766
746.773;24942.469;   -9.237;28805.723
747.344;24346.957;   -9.847;29591.223
747.916;22785.500;  -11.657;31412.201
748.487;22220.521;  -10.587;32194.898
749.059;23672.479;   -8.707;32533.719
749.630;24907.813;  -10.537;32158.518
750.201;24442.711;  -11.687;30855.395
750.773;23256.715;  -11.647;28622.555
751.344;23318.561;   -7.147;28405.732
751.915;24192.025;   -9.757;28461.551
752.486;22904.529;  -12.427;27842.850
753.057;20571.430;  -12.227;27845.008
753.628;19653.486;  -10.417;27728.107
754.199;20269.701;  -11.767;27381.086
754.770;21120.521;  -11.187;25882.203
755.341;21155.748;  -10.507;25886.184
755.912;20943.422;   -9.387;26050.861
756.483;20375.049;  -10.647;26798.779
757.054;18841.760;  -11.837;27048.238
757.625;17977.322;  -12.716;26294.838
758.195;17889.068;   -9.666;26142.076
758.766;17612.166;   -8.656;26392.234
759.337;18542.979;  -12.856;26334.594
759.907;20254.732;  -13.366;27579.652
760.478;21267.699;   -8.576;28352.770
761.048;21374.902;  -10.526;27325.088
761.619;20882.133;  -11.116;26460.428
762.189;20219.318;  -12.136;26029.826
762.760;20485.227;   -9.456;26430.145
763.330;21197.074;   -7.136;26670.902
763.900;20285.563;  -11.786;26603.021
764.471;17388.135;  -11.546;25542.740
765.041;16522.771;   -8.096;24358.459
765.611;17494.488;   -8.876;23991.297
766.181;18096.861;  -12.196;24470.236
766.751;18693.588;  -11.636;24845.975
767.321;18395.162;  -10.156;24533.633
767.891;16222.128;  -11.766;24916.492
768.461;15516.054;  -14.936;24776.771
769.031;15859.599;  -12.356;24757.988
769.601;17494.516;   -7.526;24181.088
770.171;17621.018;  -10.766;23670.387
770.741;17157.771;  -13.176;22960.045
771.311;17306.604;  -10.616;22917.523
771.880;17243.643;   -9.576;23562.941
772.450;16849.416;  -10.336;24216.500
773.020;17128.225;  -13.516;24140.398
773.589;16910.973;  -13.466;24414.857
774.159;16668.398;   -8.686;23858.717
774.729;16251.922;   -9.476;22942.135
775.298;15343.440;  -13.666;22324.033
775.867;14762.583;  -11.716;21140.313
776.437;14805.748;   -9.906;20838.092
777.006;14610.345;  -12.166;20599.510
777.576;14678.715;  -12.356;20508.809
778.145;14976.396;  -11.646;20732.947
778.714;14655.927;   -8.226;21062.465
779.283;13445.608;   -9.556;20949.664
779.853;13212.351;  -14.116;20508.623
780.422;13682.704;  -11.506;20649.082
780.991;13181.538;   -9.556;21527.520
781.560;12448.027;   -9.095;22632.658
782.129;12442.023;  -12.135;23048.277
782.698;12179.730;  -10.865;23438.555
783.267;11754.813;   -9.335;23267.734
783.836;11770.498;  -11.045;22415.133
784.404;12435.626;  -13.865;20443.152
784.973;12222.557;  -13.095;19699.150
785.542;11919.583;  -11.575;19763.828
786.111;12002.292;   -9.705;20341.408
786.679;11877.555;  -12.105;20207.967
787.248;11828.889;  -12.455;19516.465
787.817;11393.342;  -11.535;18900.363
788.385;10749.975;   -9.765;17879.121
788.954; 9929.839;  -14.005;17658.301
789.522; 9712.120;  -11.955;17788.879
790.090;10434.922;  -10.135;18118.277
790.659;10786.864;  -10.975;18338.736
791.227;10252.851;  -13.375;18508.615
791.795;10648.411;  -12.375;17898.254
792.364;10902.114;  -10.725;17295.133
792.932;10983.365;   -9.715;16822.051
793.500;11015.465;  -12.675;17040.148
794.068;11247.443;  -13.495;17179.787
794.636;11431.020;  -10.885;16664.246
795.204;11080.898;  -11.045;16524.545
795.772;10877.898;  -13.175;17274.564
796.340;10371.669;  -12.445;17891.002
796.908;10222.535;   -9.735;17648.561
797.476;10121.398;   -9.815;17064.080
798.044; 9576.864;  -13.985;16672.777
798.612; 8837.004;  -13.115;17023.996
799.180; 8599.988;  -10.185;16561.615
799.747; 8608.383;   -9.055;15962.773
800.315; 8435.331;  -12.385;15296.992
800.883; 8073.818;  -15.035;14801.771
801.450; 7933.684;  -10.365;14534.430
802.018; 7923.968;   -9.855;14173.248
802.585; 7993.746;  -11.905;14029.547
803.153; 8140.726;  -11.585;13836.846
803.720; 8096.886;   -9.095;13567.324
804.287; 7697.426;   -9.135;13360.622
804.855; 7322.847;  -11.604;13681.981
805.422; 7175.785;  -11.794;13536.560
805.989; 6993.014;  -10.734;13355.958
806.556; 7140.102;  -10.444;13747.896
807.124; 7598.252;  -12.764;13987.376
807.691; 7701.861;  -12.964;14038.674
808.258; 7571.522;  -11.134;14120.152
808.825; 7272.596;   -9.854;13860.111
809.392; 7263.290;  -10.504;13268.790
809.959; 6870.521;  -13.054;12680.389
810.526; 6540.038;   -8.294;12427.308
811.093; 6535.578;   -8.394;12030.105
811.659; 7004.404;  -12.304;11653.664
812.226; 7350.449;  -13.944;11637.183
812.793; 7040.086;  -10.484;11611.521
813.360; 6504.441;  -10.144;11885.181
813.926; 6092.435;  -11.684;12770.539
814.493; 5884.331;  -13.644;12677.638
815.060; 5535.592;   -9.724;11974.336
815.626; 5550.193;   -9.854;11594.715
816.193; 5997.969;  -13.254;11579.474
816.759; 6161.519;  -13.204;11666.972
817.325; 6434.511;   -9.434;11325.530
817.892; 6795.789;  -10.134;11105.369
818.458; 7182.824;  -13.474;10843.928
819.024; 6873.133;  -11.854;10714.406
819.591; 6552.983;  -10.244;10469.165
820.157; 6339.838;  -10.704;10235.523
820.723; 6042.817;  -12.324;10847.563
821.289; 5908.737;   -9.444;11040.980
821.855; 5876.521;   -8.374;10357.100
822.421; 5937.725;  -10.234; 9978.918
822.987; 5799.378;  -13.294; 9754.177
823.553; 5468.361;  -10.884;10065.755
824.119; 5400.334;   -8.884;10036.294
824.685; 5543.190;   -6.784;10029.192
825.251; 5581.022;  -12.004;10199.230
825.816; 5509.953;  -11.474; 9820.189
826.382; 5417.252;   -9.174; 9297.248
826.948; 5718.965;   -9.214; 9381.347
827.513; 6108.709;  -10.774; 9450.726
828.079; 5911.697;  -11.924; 9472.444
828.645; 5401.979;  -10.543; 9292.643
829.210; 5387.404;  -10.533; 9065.341
829.776; 5372.209;  -10.753; 9132.620
830.341; 5273.896;  -10.173; 9092.878
830.906; 5450.173;  -10.743; 9078.557
831.472; 5807.952;  -11.113; 8534.535
832.037; 5644.655;  -10.603; 8677.874
832.602; 5113.771;  -13.323; 8628.692
833.167; 4697.145;  -10.823; 8879.031
833.733; 4580.862;  -10.113; 9189.790
834.298; 4651.195;  -13.583; 9052.608
834.863; 4580.097;  -12.703; 8895.087
835.428; 4615.461;  -10.523; 8824.266
835.993; 4774.299;   -6.963; 8845.385
836.558; 4760.600;  -10.763; 8888.563
837.123; 4812.503;   -9.903; 8966.582
837.688; 4891.173;   -9.913; 8617.860
838.253; 4982.977;  -10.283; 8590.699
838.817; 5140.594;  -12.963; 8443.797
839.382; 5131.251;  -14.243; 8799.356
839.947; 4885.325;  -10.733; 8810.595
840.511; 4582.800;   -9.383; 8796.394
841.076; 4197.577;  -12.563; 8347.231
841.641; 4200.455;  -12.953; 8224.330
842.205; 4242.855;   -7.043; 8223.349
842.770; 4412.852;   -8.163; 8622.107
843.334; 4777.827;  -12.503; 8410.386
843.898; 4797.521;  -11.693; 8337.465
844.463; 4738.996;  -10.203; 8506.283
845.027; 4421.331;   -9.533; 8280.962
845.591; 4218.437;  -13.443; 8231.141
846.156; 4211.829;  -13.143; 7969.179
846.720; 4077.982;   -9.433; 7768.278
847.284; 3956.479;  -11.033; 7630.957
847.848; 3742.588;  -10.403; 7472.395
848.412; 3565.185;  -11.553; 7437.394
848.976; 3591.081;   -8.393; 7674.592
849.540; 3551.948;   -8.713; 7836.011
850.104; 3623.338;  -12.463; 7913.669
850.668; 3884.644;  -12.973; 7694.508
851.232; 3929.411;  -10.793; 7756.887
851.796; 3744.519;  -10.662; 7926.545
852.359; 3437.795;  -13.082; 7827.844
852.923; 3325.363;  -12.192; 7641.163
853.487; 3203.040;  -11.912; 7342.501
854.050; 3138.616;  -10.892; 7042.820
854.614; 3257.214;  -13.992; 7151.338
855.177; 3372.822;  -11.732; 7105.077
855.741; 3401.263;   -8.962; 6989.675
856.304; 3261.405;   -9.442; 6596.634
856.868; 3230.482;  -14.192; 6356.272
857.431; 3377.024;  -12.702; 6468.571
857.995; 3475.060;   -9.942; 6373.210
858.558; 3512.756;   -9.112; 6324.448
859.121; 3262.823;  -12.932; 6408.327
859.684; 3127.471;  -13.442; 6347.886
860.247; 3198.562;  -10.632; 6321.264
860.810; 3121.240;  -11.272; 6301.903
861.374; 2805.182;   -9.832; 6607.881
861.937; 2527.366;  -11.762; 6408.200
862.500; 2478.468;   -9.722; 6572.639
863.062; 2590.680;  -10.512; 6387.297
863.625; 2698.360;  -11.232; 6190.836
864.188; 2827.316;  -14.112; 5807.254
864.751; 2926.811;  -11.302; 5682.413
865.314; 2848.682;  -10.112; 5547.492
865.876; 2716.607;  -12.182; 5500.150
866.439; 2755.842;  -10.722; 5415.909
867.002; 2668.596;   -9.252; 5501.567
867.564; 2434.109;   -9.572; 5413.946
868.127; 2226.164;  -13.142; 5160.325
868.689; 2196.451;  -12.902; 5133.183
869.252; 2169.080;   -9.732; 5252.382
869.814; 2079.053;   -9.432; 5297.141
870.377; 2074.948;  -11.552; 5390.919
870.939; 2162.205;   -9.052; 5599.898
871.501; 2217.280;  -10.982; 5248.336
872.063; 2228.516;  -12.292; 4854.235
872.626; 2206.388;  -14.912; 4817.074
873.188; 2185.415;  -13.112; 4987.732
873.750; 2122.925;  -13.442; 4868.651
874.312; 2044.789;   -9.402; 4779.330
874.874; 1984.245;  -11.062; 4866.348
875.436; 1934.079;  -13.931; 4718.887
875.998; 1915.481;   -9.561; 4660.005
876.560; 1896.662;  -11.321; 4462.964
877.122; 1871.637;  -12.221; 4145.042
877.683; 1877.324;  -12.191; 4056.481
878.245; 1929.128;  -12.101; 3950.740
878.807; 2023.214;   -8.971; 4058.958
879.369; 1932.755;  -12.071; 3954.677
879.930; 1575.667;  -14.621; 3941.495
880.492; 1227.914;  -10.311; 4067.014
881.053;  967.579;  -10.901; 3859.633
881.615;  835.615;  -14.411; 3776.071
882.176;  846.512;  -13.761; 3734.750
882.738;  922.954;   -9.181; 3678.489
883.299;  999.614;  -11.791; 3405.407
883.860; 1072.522;  -13.121; 3351.106
884.422; 1118.244;  -11.211; 3394.044
884.983; 1108.623;  -10.091; 3166.443
885.544; 1044.409;   -8.461; 3189.802
886.105;  998.590;  -12.361; 3160.360
886.666;  977.964;  -14.141; 3093.059
887.227;  945.251;  -11.361; 2941.957
887.788;  877.599;  -11.401; 2974.836
888.349;  816.736;  -13.791; 2721.214
888.910;  831.847;  -13.191; 2696.493
889.471;  850.844;   -9.881; 2560.172
890.032;  825.584;   -9.881; 2558.190
890.593;  792.073;  -10.371; 2567.669
891.153;  774.194;  -13.301; 2460.307
891.714;  736.812;  -11.431; 2372.046
892.275;  702.499;  -11.291; 2309.505
892.835;  663.496;  -11.471; 2382.543
893.396;  612.754;  -11.541; 2295.502
893.956;  564.009;  -11.181; 2162.420
894.517;  528.987;  -11.741; 2125.439
895.077;  524.480;  -11.671; 2086.978
895.638;  529.724;  -11.311; 2126.316
896.198;  503.314;   -9.831; 1838.275
896.758;  457.458;   -8.421; 1892.813
897.319;  424.881;  -12.351; 1792.232
897.879;  416.470;  -13.511; 1762.751
898.439;  390.971;  -12.001; 1661.149
898.999;  361.216;  -10.180; 1781.468
899.559;  348.705;  -12.030; 1703.347
900.119;  343.995;  -15.710; 1537.525
900.679;  342.974;   -8.900; 1638.384
901.239;  331.334;   -8.340; 1527.902
901.799;  320.590;  -13.910; 1456.441
902.359;  314.053;  -13.460; 1357.140
902.919;  301.661;  -11.490; 1331.118
903.479;  286.093;  -12.110; 1317.257
904.038;  263.136;  -11.720; 1262.595
904.598;  248.904;  -13.610; 1152.034
905.158;  244.094;  -11.040; 1240.893
905.717;  234.111;  -10.900; 1233.691
906.277;  222.515;  -15.080; 1217.330
906.836;  214.172;  -13.380; 1222.408
907.396;  207.273;  -10.780; 1193.047
907.955;  199.717;   -8.500; 1182.526
908.515;  193.479;  -12.760; 1099.364
909.074;  187.962;  -11.900; 1092.863
909.633;  182.446;   -8.950; 1069.121
910.192;  177.609;   -8.770; 1196.460
910.752;  174.045;  -12.390; 1029.960
911.311;  169.471;  -13.680; 1009.780
911.870;  165.747;  -12.370;  971.460
912.429;  164.876;  -10.900; 1094.080
912.988;  161.591;  -11.690; 1081.060
913.547;  155.039;  -13.240;  940.380
914.106;  149.424;  -11.990;  999.420
914.665;  146.235;   -9.990;  984.020
915.224;  144.877;  -12.880; 1035.760
915.782;  145.223;  -12.350;  922.560
916.341;  145.481;   -9.110; 1049.840
916.900;  142.268;   -9.270;  925.260
917.458;  140.939;  -13.240;  884.220
918.017;  140.944;  -13.550;  942.600
918.576;  140.825;  -12.320;  904.440
919.134;  138.346;  -11.490;  837.980
919.693;  136.314;  -13.670;  893.060
920.251;  134.354;  -15.470;  876.500
920.809;  133.624;  -11.290;  839.580
921.368;  133.715;  -10.210;  885.360
921.926;  132.602;  -12.140;  842.940
922.484;  132.092;  -13.080;  903.360
923.042;  131.934;  -11.720;  880.340
923.601;  134.102;   -7.480;  998.680
924.159;  132.502;  -11.570;  935.560
924.717;  129.139;  -13.840;  841.080
925.275;  129.364;  -10.640;  903.240
925.833;  129.644;  -11.540;  779.320
926.391;  129.102;  -12.960;  938.380
926.949;  127.430;  -14.130;  857.680
927.506;  129.018;  -11.750;  903.500
928.064;  128.289;  -10.250;  877.580
928.622;  127.362;  -13.030;  880.100
929.180;  127.427;  -13.400;  814.180
929.737;  129.116;  -10.700;  808.540
930.295;  132.837;  -10.070;  928.480
930.853;  135.035;  -11.960;  849.100
931.410;  135.119;  -13.120;  821.120
931.968;  134.584;  -10.770;  940.660
932.525;  133.977;  -10.680;  909.380
933.082;  133.562;  -13.130;  811.440
933.640;  133.073;  -13.210;  925.900
934.197;  132.474;  -11.060;  886.360
934.754;  134.042;   -9.580;  897.780
935.312;  137.323;  -14.000;  863.340
935.869;  140.714;  -10.710; 1012.980
936.426;  141.678;   -9.860;  872.800
936.983;  141.265;   -9.710;  889.020
937.540;  140.108;  -13.990;  838.280
938.097;  138.694;  -14.040;  940.120
938.654;  140.557;  -10.310;  898.860
939.211;  142.780;  -10.560;  952.480
939.768;  145.904;  -13.900;  915.420
940.324;  150.043;  -14.760;  904.200
940.881;  150.928;  -10.370;  878.500
941.438;  151.851;   -8.260; 1021.200
941.995;  147.491;  -12.540;  992.560
942.551;  144.095;  -14.670;  875.620
943.108;  143.948;  -10.450;  937.920
943.664;  146.069;  -10.750;  869.340
944.221;  150.381;  -11.550; 1088.140
944.777;  149.324;  -14.770;  869.680
945.334;  152.211;  -12.820;  884.840
945.890;  153.765;  -10.130;  946.480
946.446;  153.333;  -13.470;  947.020
947.003;  153.568;  -12.120;  964.940
947.559;  155.724;   -9.980; 1063.040
948.115;  153.808;   -9.080; 1026.540
948.671;  151.482;  -10.830;  967.300
949.227;  148.352;  -12.440;  859.560
949.783;  145.280;  -12.910;  858.900
950.339;  148.400;  -10.270;  991.000
950.895;  147.750;  -13.630; 1023.840
951.451;  146.896;  -15.100;  925.280
952.007;  150.480;  -11.330;  998.540
952.563;  151.662;  -10.580;  937.780
953.118;  149.460;  -13.440;  904.940
953.674;  149.425;  -12.710;  935.780
954.230;  149.934;  -10.350;  949.640
954.785;  148.185;   -9.190;  936.640
955.341;  147.027;  -11.200;  998.160
955.897;  144.146;  -16.560;  834.660
956.452;  144.116;  -12.570;  953.840
957.008;  142.772;   -7.970; 1083.640
957.563;  140.486;  -11.940; 1009.540
958.118;  136.758;  -13.450;  877.700
958.674;  138.771;  -12.030;  946.780
959.229;  138.911;   -9.410; 1013.980
959.784;  136.011;  -12.000;  832.400
960.339;  133.955;  -14.780; 1001.280
960.894;  129.690;   -9.860;  963.760
961.449;  125.760;   -9.970;  859.960
962.004;  126.124;  -10.900; 1212.840
962.559;  123.206;  -13.150;  860.140
963.114;  120.296;  -13.740;  742.480
963.669;  119.940;   -9.820;  915.500
964.224;  117.208;  -13.890;  874.340
964.779;  116.284;  -12.600;  828.420
965.334;  117.244;  -10.950; 1017.860
965.888;  116.817;  -11.170;  875.360
966.443;  118.498;  -12.540;  972.380
966.998;  116.521;  -15.780;  819.460
967.552;  116.706;   -9.760;  908.380
968.107;  112.738;   -9.060;  868.300
968.661;  113.599;  -11.950;  922.440
969.216;  114.323;  -12.800;  856.280
969.770;  115.166;  -11.210;  917.200
970.324;  113.476;  -11.610;  923.140
970.879;  109.689;  -11.370;  947.180
971.433;  106.811;  -12.540;  952.720
971.987;  101.497;  -11.320;  895.340
972.541;   98.938;  -10.720;  917.100
973.095;   99.167;   -9.680; 1009.460
973.649;   97.143;  -11.440;  809.480
974.203;   97.789;  -11.210;  829.040
974.757;   98.048;  -10.240;  855.220
975.311;   99.342;  -13.720;  872.600
975.865;   97.754;  -13.770;  881.820
976.419;   96.408;  -11.690;  857.400
976.973;   95.716;   -9.510;  849.620
977.526;   96.956;  -12.620;  949.920
978.080;   97.137;  -12.010;  796.780
978.634;   98.734;  -10.170;  921.320
979.187;   96.277;   -9.020;  905.400
979.741;   93.725;   -9.820; 1018.380
980.294;   89.954;  -14.870;  789.160
980.848;   87.918;  -12.380;  717.220
981.401;   88.963;  -10.350;  816.540
981.955;   90.008;  -13.720;  844.300
982.508;   89.767;  -11.490;  746.340
983.061;   91.438;  -10.000;  915.260
983.615;   88.025;  -11.480;  798.800
984.168;   84.051;  -13.220;  770.080
984.721;   83.539;  -13.960;  880.760
985.274;   83.346;  -10.870;  867.500
985.827;   81.492;   -9.790;  834.220
986.380;   79.225;  -13.120;  721.340
986.933;   78.537;  -12.450;  864.800
987.486;   76.805;  -10.210;  861.920
988.039;   75.859;   -8.430;  863.100
988.591;   73.426;  -10.520;  893.260
989.144;   71.532;  -14.860;  737.260
989.697;   70.624;  -13.080;  758.740
990.250;   71.463;  -10.150;  858.100
990.802;   71.100;  -13.430;  755.860
991.355;   71.325;  -12.750;  974.880
991.907;   68.717;  -12.040;  864.320
992.460;   66.110;  -11.330;  753.760
993.012;   65.667;  -13.610;  749.540
993.565;   65.140;  -13.460;  711.360
994.117;   67.200;   -9.360;  950.780
994.669;   62.879;  -11.300;  701.320
995.221;   60.681;  -13.540;  791.920
995.774;   60.041;  -13.430;  787.580
996.326;   58.154;  -12.520;  740.220
996.878;   57.717;  -10.950;  838.420
997.430;   55.067;  -14.300;  699.860
997.982;   54.339;  -13.760;  750.140
998.534;   54.276;  -11.530;  739.060
999.086;   52.537;  -10.310;  738.220
999.638;   51.679;  -12.530;  661.380
1000.190;   50.500;  -11.840;  699.320
1000.741;   50.879;  -10.260;  742.700
1001.293;   50.301;   -8.860;  686.020
1001.845;   48.887;  -13.700;  676.640
1002.396;   49.407;  -12.100;  743.400
1002.948;   48.922;  -12.760;  737.400
1003.500;   46.583;  -10.380;  723.780
1004.051;   47.285;  -11.900;  907.580
1004.603;   44.944;  -12.250;  791.820
1005.154;   41.234;  -13.210;  608.980
1005.705;   41.522;  -10.950;  723.960
1006.257;   40.360;  -13.880;  707.220
1006.808;   39.602;  -12.840;  685.460
1007.359;   40.127;  -10.570;  763.240
1007.910;   38.349;   -9.620;  646.640
1008.461;   37.965;  -13.630;  732.940
1009.013;   37.076;  -17.200;  588.340
1009.564;   39.260;  -10.200;  793.520
1010.115;   35.823;  -12.570;  597.040
1010.665;   35.245;  -15.150;  602.160
1011.216;   36.156;  -14.480;  667.920
1011.767;   35.882;  -11.340;  697.920
1012.318;   35.620;   -9.780;  736.980
1012.869;   34.358;  -12.380;  679.000
1013.419;   34.178;  -15.560;  603.120
1013.970;   34.339;  -11.010;  666.640
1014.521;   32.920;  -11.610;  620.620
1015.071;   33.849;  -13.450;  670.380
1015.622;   33.458;  -13.870;  635.460
1016.172;   32.980;  -11.610;  596.820
1016.723;   32.876;  -12.120;  614.380
1017.273;   31.869;  -13.620;  604.160
1017.823;   32.775;  -14.140;  650.340
1018.374;   32.178;  -12.800;  611.760
1018.924;   31.724;  -12.340;  716.880
1019.474;   32.417;  -11.410;  718.880
1020.024;   30.899;  -14.770;  657.580
1020.574;   31.193;   -9.780;  726.160
1021.124;   32.143;   -8.560;  673.580
1021.674;   30.439;  -15.190;  559.120
1022.224;   31.490;  -13.530;  708.940
1022.774;   31.019;  -13.280;  668.820
1023.324;   31.682;  -10.690;  753.520
1023.874;   32.195;  -10.240;  875.760
1024.423;   29.377;  -12.540;  613.700
1024.973;   29.786;  -10.010;  610.760
1025.523;   28.916;  -10.550;  620.960
1026.072;   28.807;  -13.560;  606.420
1026.622;   28.680;  -15.120;  675.740
1027.172;   29.621;  -11.260;  715.660
1027.721;   28.887;  -11.410;  601.220
1028.270;   27.942;  -13.530;  663.400
1028.820;   28.387;  -13.680;  638.080
1029.369;   28.121;  -13.520;  612.700
1029.918;   28.947;  -10.980;  649.840
1030.468;   27.174;  -13.530;  564.780
1031.017;   27.633;  -13.170;  634.800
1031.566;   26.726;  -12.200;  608.900
1032.115;   27.647;   -9.960;  694.500
1032.664;   25.571;  -13.210;  596.480
1033.213;   27.340;  -12.500;  735.420
1033.762;   27.032;  -11.910;  635.620
1034.311;   26.761;   -9.640;  677.220
1034.860;   26.692;  -13.310;  691.000
1035.408;   26.219;  -11.830;  722.720
1035.957;   27.123;  -12.000;  719.540
1036.506;   24.866;  -11.690;  530.800
1037.055;   27.548;  -10.990;  844.320
1037.603;   25.479;  -15.120;  664.000
1038.152;   24.064;  -12.450;  534.760
1038.700;   24.774;  -10.560;  585.740
1039.249;   23.525;  -11.080;  681.220
1039.797;   24.864;  -12.540;  633.360
1040.345;   24.954;  -11.920;  705.420
1040.894;   24.516;  -11.410;  625.300
1041.442;   23.946;  -14.320;  632.200
1041.990;   23.067;  -16.240;  559.160
1042.538;   23.013;  -11.680;  536.180
1043.087;   23.084;  -10.760;  570.860
1043.635;   23.595;  -11.850;  670.500
1044.183;   22.739;  -15.480;  586.400
1044.731;   22.848;  -11.770;  576.000
1045.279;   21.930;  -13.090;  674.920
1045.827;   24.709;  -12.440;  892.400
1046.374;   21.274;  -13.840;  515.420
1046.922;   21.288;  -13.220;  590.580
1047.470;   22.775;  -10.230;  691.300
1048.018;   22.184;  -14.590;  647.960
1048.565;   22.694;  -12.050;  708.600
1049.113;   21.379;  -11.650;  557.000
1049.660;   21.418;  -10.510;  629.660
1050.208;   21.452;  -13.310;  675.640
1050.755;   20.372;  -15.900;  606.580
1051.303;   21.664;  -11.430;  686.820
1051.850;   20.590;   -8.480;  635.120
1052.397;   19.198;  -15.010;  473.960
1052.945;   19.699;  -13.960;  617.760
1053.492;   21.732;  -13.150;  741.840
1054.039;   22.019;   -9.630;  720.180
1054.586;   20.231;  -13.680;  557.240
1055.133;   21.390;  -14.570;  693.140
1055.680;   20.022;  -13.820;  646.620
1056.227;   19.528;  -11.730;  542.780
1056.774;   20.798;  -12.480;  794.980
1057.321;   18.665;  -13.930;  523.260
1057.868;   19.042;  -11.690;  651.320
1058.415;   18.496;   -9.520;  651.980
1058.961;   18.864;  -13.160;  678.940
1059.508;   18.684;  -12.920;  643.820
1060.055;   19.590;  -11.920;  581.780
1060.601;   19.202;  -11.500;  624.300
1061.148;   18.286;  -14.330;  616.820
1061.694;   17.454;  -16.870;  592.580
1062.241;   18.474;  -10.330;  596.320
1062.787;   19.035;  -10.620;  663.140
1063.334;   19.554;  -10.110;  808.560
1063.880;   18.268;  -13.400;  668.360
1064.426;   17.904;  -10.680;  706.820
1064.972;   17.211;   -9.920;  601.340
1065.518;   15.970;  -10.980;  566.640
1066.065;   17.755;  -14.890;  624.460
1066.611;   16.614;  -12.870;  598.800
1067.157;   17.784;  -12.950;  641.860
1067.703;   17.167;  -13.540;  668.480
1068.249;   16.155;  -13.540;  605.220
1068.794;   17.086;  -12.600;  626.880
1069.340;   15.431;  -10.620;  578.960
1069.886;   16.258;  -12.830;  590.700
1070.432;   15.468;  -14.870;  541.720
1070.977;   15.915;  -11.980;  601.080
1071.523;   15.294;   -8.200;  573.060
1072.068;   15.344;  -12.330;  582.000
1072.614;   15.588;  -16.370;  527.760
1073.160;   16.494;  -11.100;  687.040
1073.705;   14.816;  -10.480;  572.520
1074.250;   14.760;  -14.520;  559.900
1074.796;   15.187;  -11.460;  655.160
1075.341;   16.236;  -11.950;  664.100
1075.886;   14.704;  -11.460;  594.240
1076.431;   14.619;  -13.770;  649.880
1076.976;   14.743;  -12.680;  639.220
1077.521;   13.996;  -13.170;  583.080
1078.067;   13.809;  -10.860;  579.400
1078.612;   14.325;  -13.920;  661.620
1079.156;   15.008;  -13.880;  601.540
1079.701;   14.834;  -13.120;  693.260
1080.246;   14.717;   -9.940;  696.300
1080.791;   14.648;  -14.740;  625.020
1081.336;   14.712;  -13.750;  659.320
1081.880;   14.377;  -13.400;  649.680
1082.425;   12.628;  -12.220;  573.480
1082.970;   14.474;  -11.610;  717.040
1083.514;   12.970;  -13.580;  597.000
1084.059;   12.596;  -12.810;  586.720
1084.603;   12.673;  -12.320;  565.840
1085.147;   12.322;  -13.190;  645.220
1085.692;   13.650;  -12.480;  716.800
1086.236;   12.486;  -13.020;  503.140
1086.780;   13.831;   -9.190;  751.440
1087.325;   12.920;  -12.480;  654.620
1087.869;   12.706;  -12.450;  610.700
1088.413;   13.588;  -12.240;  705.040
1088.957;   10.795;   -9.020;  543.400
1089.501;   12.958;  -10.320;  766.640
1090.045;   11.952;  -12.720;  726.480
1090.589;   10.646;  -13.690;  569.920
1091.133;   11.854;  -10.020;  673.340
1091.676;   11.577;  -12.330;  591.940
1092.220;   11.162;  -14.970;  600.920
1092.764;   13.050;  -12.430;  706.960
1093.307;   11.444;   -9.800;  673.780
1093.851;   10.006;  -14.970;  556.540
1094.395;   10.280;  -15.310;  683.140
1094.938;   10.328;  -10.370;  632.520
1095.482;   10.945;  -11.050;  559.800
1096.025;   10.862;  -11.840;  710.880
1096.568;   11.369;  -12.840;  779.280
1097.112;    8.802;  -14.700;  508.180
1097.655;   10.890;   -8.720;  603.000
1098.198;    9.221;  -13.610;  600.180
1098.741;    9.525;  -13.350;  612.860
1099.285;   11.490;  -11.230;  657.300
1099.828;    8.502;  -11.840;  439.400
1100.371;   10.007;  -10.840;  608.160
1100.914;    9.445;  -14.190;  682.660
1101.457;    9.738;  -11.240;  679.900
1101.999;    8.470;  -11.270;  584.680
1102.542;    9.921;  -11.480;  641.440
1103.085;    8.790;  -11.750;  658.500
1103.628;   10.641;  -11.400;  762.060
1104.170;    8.592;  -10.490;  588.280
1104.713;    8.814;  -10.600;  646.700
1105.256;    8.667;  -14.360;  557.440
1105.798;    7.748;  -13.210;  499.980
1106.341;    9.972;  -10.270;  728.900
1106.883;    7.930;  -12.200;  521.340
1107.425;    8.135;  -13.110;  668.180
1107.968;    8.542;  -12.840;  612.380
1108.510;    8.967;   -6.480;  684.960
1109.052;    7.247;  -13.940;  612.620
1109.594;    7.298;  -13.690;  554.440
1110.136;    8.352;  -11.880;  643.220
1110.679;    6.733;   -9.500;  633.080
1111.221;    6.692;  -14.160;  604.460
1111.763;    6.785;  -13.980;  559.220
1112.304;    7.482;  -13.880;  547.140
1112.846;    7.513;  -12.210;  666.240
1113.388;    9.794;  -11.390;  942.180
1113.930;    7.215;  -14.540;  694.200
1114.472;    6.708;  -12.640;  606.540
1115.013;    5.308;  -11.620;  551.280
1115.555;    5.765;  -13.640;  587.100
1116.097;    4.883;  -15.380;  579.480
1116.638;    7.594;  -12.640;  684.600
1117.180;    6.460;   -9.850;  667.740
1117.721;    6.238;  -13.690;  568.580
1118.262;    6.828;  -12.680;  677.960
1118.804;    7.189;  -12.530;  637.340
1119.345;    5.485;  -11.690;  578.400
1119.886;    6.412;  -13.380;  704.040
1120.427;    4.959;  -14.070;  589.020
1120.969;    5.738;  -13.500;  597.920
1121.510;    4.596;  -11.480;  563.060
1122.051;    5.863;  -12.830;  723.580
1122.592;    5.274;  -14.290;  655.420
1123.133;    5.136;  -12.400;  547.940
1123.673;    6.479;  -10.130;  706.480
1124.214;    4.935;  -12.930;  612.460
1124.755;    6.203;  -14.380;  639.460
1125.296;    5.825;  -14.000;  627.320
1125.836;    5.775;  -10.070;  691.500
1126.377;    4.523;  -12.640;  599.660
1126.918;    4.992;  -12.960;  614.980
1127.458;    4.422;  -13.350;  622.220
1127.999;    5.599;  -10.750;  656.980
1128.539;    4.948;  -12.350;  694.240
1129.079;    4.055;  -14.860;  632.720
1129.620;    4.685;  -13.840;  558.100
1130.160;    3.874;  -12.330;  539.480
1130.700;    4.043;  -14.530;  640.840
1131.240;    5.303;  -12.530;  643.700
1131.781;    3.458;  -14.450;  619.680
1132.321;    4.150;   -9.790;  599.120
1132.861;    3.109;  -14.860;  564.200
1133.401;    2.628;  -14.290;  593.940
1133.941;    4.142;  -11.750;  626.280
1134.481;    3.084;   -9.920;  597.580
1135.020;    2.518;  -12.290;  609.160
1135.560;    2.824;  -11.650;  674.940
1136.100;    2.957;  -16.270;  501.160
1136.640;    2.923;  -10.890;  510.480
1137.179;    3.024;  -14.180;  537.960
1137.719;    2.922;  -16.250;  605.400
1138.258;    2.710;  -14.230;  587.360
1138.798;    3.411;   -9.090;  663.780
1139.337;    1.461;  -15.130;  482.840
1139.877;    2.588;  -13.680;  642.360
1140.416;    4.860;  -11.320;  878.060
1140.955;    2.019;  -10.860;  535.380
1141.494;    2.052;  -12.920;  669.280
1142.034;    2.066;  -13.930;  583.520
1142.573;    2.824;  -11.440;  646.280
1143.112;    1.260;  -12.000;  553.480
1143.651;    1.808;  -13.670;  536.480
1144.190;    3.151;  -12.730;  691.640
1144.729;    2.650;  -14.560;  607.420
1145.267;    2.236;  -11.830;  584.900
1145.806;    2.572;  -12.230;  637.040
1146.345;    1.631;  -14.130;  635.020
1146.884;    1.598;  -11.590;  622.500
1147.422;    1.014;  -12.550;  533.060
1147.961;    2.639;  -11.180;  708.460
1148.500;    2.619;  -11.510;  669.720
1149.038;    2.598;  -11.640;  632.500
1149.577;    2.395;  -10.130;  698.640
1150.115;   -0.305;  -13.970;  452.280
1150.653;    1.817;  -14.520;  607.340
1151.192;    1.369;  -12.810;  552.920
1151.730;    1.730;   -9.100;  652.560
1152.268;    0.469;  -12.220;  589.520
1152.806;    0.358;  -14.140;  571.180
1153.344;   -0.754;  -12.350;  577.640
1153.882;    1.146;   -8.980;  600.060
1154.421;   -0.365;  -15.190;  470.620
1154.958;    0.276;  -15.210;  595.240
1155.496;    1.884;  -12.850;  645.280
1156.034;    1.079;   -9.940;  721.880
1156.572;    1.378;  -13.570;  667.060
1157.110;   -0.216;  -14.590;  473.940
1157.647;    1.093;  -13.030;  676.960
1158.185;   -0.605;  -12.140;  564.320
1158.723;   -1.072;  -14.390;  509.200
1159.260;    0.406;  -14.090;  701.700
1159.798;    0.962;  -11.920;  658.160
1160.335;    0.063;  -11.110;  631.820

