
Integration time [ms]:   3.276
Averaging Nr. [scans]: 1000
Smoothing Nr. [pixels]: 0
Data measured with spectrometer [name]: 7414430SP
Wave   ;Sample   ;Dark     ;Reference
[nm]   ;[counts] ;[counts] ;[counts] 

288.544;  150.095;    7.793;  793.890
289.143;  153.236;    7.462;  681.602
289.742;  153.409;    8.602;  828.814
290.341;  139.371;    1.321;  789.841
290.940;  127.317;   -0.709;  730.702
291.538;  127.909;    0.881;  881.108
292.137;  128.956;    0.122;  792.581
292.736;  133.439;   -1.929;  975.101
293.335;  129.316;   -8.229;  735.086
293.934;  129.389;   -5.279;  781.677
294.532;  128.270;   -1.369; 1031.958
295.131;  114.122;   -7.641;  834.394
295.730;  115.137;   -8.420;  809.588
296.328;  112.718;   -5.611;  783.442
296.927;  114.806;   -5.781;  779.652
297.525;  116.145;   -6.361;  781.236
298.124;  105.121;  -11.382;  654.009
298.722;  109.331;   -7.641;  761.933
299.321;  106.857;   -6.811;  708.597
299.919;  105.915;   -6.991;  751.918
300.518;  103.226;  -10.362;  689.338
301.116;  103.387;   -9.581;  691.381
301.715;  104.100;   -4.891;  730.222
302.313;  102.637;   -8.801;  704.943
302.911;   98.589;   -8.522;  733.830
303.509;  103.650;   -6.171;  925.627
304.108;  101.563;   -7.311;  760.383
304.706;  100.811;   -8.321;  801.664
305.304;   95.157;  -10.222;  796.707
305.902;   99.946;   -6.021;  784.484
306.500;   96.325;   -4.971;  728.200
307.098;   95.356;   -7.061;  746.560
307.696;   91.731;   -8.801;  780.432
308.294;   92.515;   -6.411;  731.359
308.892;   95.119;   -2.901;  759.769
309.490;   91.361;   -5.041;  712.161
310.088;   89.025;   -5.002;  788.444
310.686;   93.427;   -2.041;  821.749
311.284;   89.666;   -2.351;  766.040
311.882;   87.382;   -4.422;  731.225
312.480;   84.382;   -4.192;  697.167
313.078;   84.976;   -1.172;  808.331
313.675;   85.670;   -2.601;  691.600
314.273;   82.155;   -1.312;  797.837
314.871;   80.449;   -3.942;  589.829
315.468;   79.033;   -2.802;  652.090
316.066;   81.876;   -0.701;  694.427
316.664;   74.965;   -4.362;  656.351
317.261;   78.534;   -2.872;  910.128
317.859;   73.686;   -2.022;  768.735
318.456;   74.377;   -0.531;  830.096
319.054;   70.645;   -3.912;  787.828
319.651;   69.087;   -4.752;  759.928
320.249;   68.297;   -2.602;  810.188
320.846;   65.930;   -0.821;  714.286
321.443;   64.201;   -4.642;  832.135
322.041;   60.110;   -5.002;  812.315
322.638;   57.430;   -3.982;  701.456
323.235;   58.883;   -3.411;  665.683
323.833;   57.079;   -7.361;  740.354
324.430;   51.957;   -8.611;  615.900
325.027;   52.418;   -4.061;  876.855
325.624;   51.983;   -4.031;  644.532
326.221;   50.906;   -7.481;  689.717
326.818;   49.605;   -5.281;  818.332
327.415;   52.027;   -7.460;  748.828
328.012;   52.278;   -5.510;  690.585
328.609;   50.932;   -7.880;  731.389
329.206;   49.361;   -8.331;  778.621
329.803;   48.530;   -5.121;  737.841
330.400;   51.618;   -4.510;  704.260
330.997;   53.981;   -6.441;  817.147
331.594;   52.600;   -8.831;  788.185
332.191;   57.243;   -7.621;  728.722
332.787;   60.202;   -4.591;  844.463
333.384;   59.970;   -7.412;  763.093
333.981;   57.217;   -8.293;  815.687
334.578;   59.469;   -7.052;  708.378
335.174;   62.757;   -3.102;  731.469
335.771;   62.088;   -5.943;  836.456
336.367;   58.549;   -7.393;  710.631
336.964;   62.206;   -4.063;  793.266
337.561;   60.199;   -3.813;  731.112
338.157;   56.552;   -4.654;  911.916
338.754;   53.323;   -7.934;  796.589
339.350;   51.779;   -4.414;  722.493
339.946;   53.662;   -4.664;  773.135
340.543;   46.752;   -6.375;  846.136
341.139;   40.747;   -9.815;  720.836
341.735;   38.353;   -4.526;  772.593
342.332;   37.097;   -4.895;  691.472
342.928;   38.311;   -4.295;  795.394
343.524;   32.075;   -5.476;  761.684
344.120;   27.228;   -5.856;  738.562
344.716;   31.054;   -2.155;  723.717
345.313;   30.015;   -6.275;  795.342
345.909;   23.680;   -8.815;  627.336
346.505;   26.215;   -5.305;  740.247
347.101;   26.368;   -2.674;  827.864
347.697;   26.724;   -4.344;  785.398
348.293;   21.531;   -9.975;  627.244
348.889;   21.890;   -5.774;  745.914
349.485;   22.090;   -5.004;  688.205
350.081;   22.296;   -4.704;  772.592
350.676;   17.188;   -6.635;  691.606
351.272;   22.031;   -4.504;  809.530
351.868;   21.151;   -3.914;  780.497
352.464;   18.774;   -9.044;  723.932
353.059;   15.446;   -8.314;  646.017
353.655;   18.330;   -7.024;  777.063
354.251;   19.391;   -5.343;  759.845
354.846;   14.333;   -8.604;  740.646
355.442;   11.631;   -6.945;  753.071
356.038;   12.701;   -7.564;  751.708
356.633;   13.377;   -5.814;  728.594
357.229;   12.228;   -7.364;  724.757
357.824;   10.082;   -8.024;  703.600
358.420;    8.919;   -9.384;  679.726
359.015;    9.447;   -5.104;  695.357
359.610;   11.835;   -6.854;  763.920
360.206;    4.442;  -10.185;  603.240
360.801;    6.595;   -7.054;  646.503
361.396;    9.474;   -5.034;  725.975
361.992;    5.237;   -8.284;  668.220
362.587;    2.905;   -8.625;  670.160
363.182;    4.162;   -7.674;  689.631
363.777;    5.432;   -5.164;  738.242
364.372;    5.009;   -8.604;  737.314
364.967;    1.039;   -9.055;  680.744
365.563;    4.322;   -6.114;  815.567
366.158;    2.875;   -5.814;  685.161
366.753;    3.011;   -7.854;  649.263
367.348;    1.539;   -7.804;  746.056
367.942;    0.765;   -7.954;  697.298
368.537;    0.469;   -4.984;  754.245
369.132;    0.654;   -8.564;  703.428
369.727;   -3.729;   -8.855;  638.079
370.322;   -2.774;   -6.245;  580.186
370.917;   -2.671;   -6.425;  710.646
371.511;    0.580;   -6.294;  861.834
372.106;   -2.622;   -7.685;  776.964
372.701;   -6.613;   -7.335;  585.988
373.296;   -0.049;   -4.564;  863.135
373.890;   -5.059;  -10.235;  647.840
374.485;   -7.528;   -7.885;  691.199
375.079;   -3.824;   -7.324;  738.685
375.674;   -2.321;   -3.494;  812.970
376.268;   -6.629;   -8.525;  691.759
376.863;  -11.994;  -10.086;  580.327
377.457;   -6.209;   -7.025;  662.490
378.052;   -7.896;   -3.585;  764.884
378.646;   -7.877;   -7.595;  741.167
379.240;   -8.801;   -8.335;  721.176
379.835;   -7.895;   -5.785;  636.978
380.429;  -10.061;   -4.335;  562.557
381.023;   -9.702;   -6.805;  779.205
381.617;  -12.161;   -9.195;  680.106
382.212;  -10.188;   -6.905;  685.303
382.806;   -7.876;   -3.745;  760.690
383.400;  -12.197;   -7.745;  672.281
383.994;  -13.372;   -9.765;  664.870
384.588;  -10.375;   -6.564;  697.701
385.182;   -8.384;   -5.344;  726.624
385.776;   -9.559;   -8.514;  706.875
386.370;  -12.982;   -9.555;  681.968
386.964;  -12.524;   -8.715;  684.155
387.558;   -9.946;   -6.174;  598.360
388.152;  -13.010;   -8.725;  681.959
388.745;  -11.754;   -7.965;  814.707
389.339;  -10.523;   -5.924;  747.642
389.933;   -9.326;   -5.524;  695.370
390.527;  -10.400;   -7.114;  859.029
391.120;  -16.575;  -10.725;  595.318
391.714;  -13.968;   -8.035;  711.633
392.308;  -10.083;   -3.574;  780.253
392.901;  -14.415;   -7.245;  642.460
393.495;  -15.409;   -9.285;  595.414
394.089;  -14.241;   -5.895;  760.452
394.682;  -14.578;   -4.295;  697.188
395.275;  -14.929;   -9.875;  719.927
395.869;  -15.830;   -8.485;  667.314
396.462;  -15.327;   -7.455;  616.609
397.056;  -10.996;   -5.424;  776.621
397.649;  -15.280;   -6.605;  731.575
398.242;  -12.754;   -8.224;  712.645
398.836;  -12.452;   -7.474;  766.408
399.429;  -12.943;   -7.094;  631.041
400.022;  -15.781;   -9.475;  665.902
400.615;  -13.512;   -7.145;  805.609
401.208;  -12.783;   -7.174;  691.451
401.802;  -14.271;   -5.515;  699.329
402.395;  -15.815;   -9.875;  683.502
402.988;  -17.469;   -8.845;  696.627
403.581;  -13.970;   -8.874;  646.878
404.174;  -10.490;   -5.324;  686.568
404.767;  -13.943;   -9.575;  638.583
405.360;  -16.054;  -10.965;  621.445
405.953;  -10.940;   -8.764;  759.034
406.545;  -10.787;   -7.514;  725.342
407.138;  -14.340;  -10.025;  618.350
407.731;  -13.516;  -10.034;  613.303
408.324;   -9.345;   -9.374;  660.554
408.917;  -10.711;   -6.534;  681.864
409.509;  -12.205;   -8.004;  740.396
410.102;  -14.661;   -9.875;  643.948
410.695;   -8.800;   -8.604;  665.758
411.287;   -9.937;   -6.794;  599.821
411.880;  -11.042;   -9.334;  585.421
412.472;  -13.450;  -10.254;  613.092
413.065;  -11.711;   -6.714;  629.408
413.657;   -8.628;   -7.234;  576.678
414.250;   -9.008;  -10.544;  646.681
414.842;  -10.520;   -9.744;  676.353
415.434;   -8.324;   -6.994;  570.463
416.027;   -4.136;   -5.893;  652.196
416.619;   -6.085;   -7.264;  713.400
417.211;   -6.510;  -10.374;  599.352
417.804;   -3.834;   -7.993;  628.499
418.396;   -7.061;   -7.234;  607.643
418.988;   -4.745;   -9.443;  659.238
419.580;   -7.881;  -10.724;  568.276
420.172;   -6.262;  -10.323;  536.196
420.764;   -2.028;   -8.793;  672.482
421.356;   -2.738;  -11.143;  636.898
421.948;   -3.780;   -8.293;  677.661
422.540;    0.653;   -7.893;  680.027
423.132;    0.759;   -7.082;  600.641
423.724;   -2.896;   -8.653;  561.267
424.316;   -0.540;  -10.213;  621.345
424.908;    2.070;   -9.762;  591.517
425.500;    3.262;   -5.572;  647.978
426.092;    3.878;   -8.422;  648.268
426.683;    2.186;   -9.283;  684.836
427.275;    5.040;   -7.852;  641.471
427.867;    6.823;   -5.272;  668.948
428.458;    7.439;   -7.682;  732.344
429.050;    5.483;  -10.612;  680.749
429.642;    8.239;   -9.882;  743.124
430.233;    8.080;   -6.962;  569.356
430.825;    9.991;   -6.842;  724.809
431.416;    6.291;   -9.672;  698.241
432.008;   10.743;   -6.552;  651.723
432.599;   11.949;   -6.891;  656.073
433.190;    8.823;  -10.912;  637.670
433.782;    7.807;  -11.172;  590.395
434.373;   14.587;   -6.061;  884.765
434.964;   13.842;   -8.251;  602.920
435.556;   11.675;   -9.722;  634.537
436.147;   13.855;   -9.082;  758.490
436.738;   14.022;   -8.041;  701.099
437.329;   18.822;   -7.341;  721.723
437.920;   13.093;   -8.162;  666.688
438.511;   12.171;  -11.802;  564.526
439.103;   19.159;  -10.191;  623.998
439.694;   20.924;   -7.601;  681.583
440.285;   21.528;   -8.541;  764.432
440.876;   19.435;   -9.751;  845.738
441.466;   18.437;   -9.401;  575.162
442.057;   24.163;   -7.760;  665.814
442.648;   23.673;   -9.971;  746.255
443.239;   21.135;  -11.001;  620.477
443.830;   25.630;   -7.990;  704.958
444.421;   28.464;   -7.910;  655.474
445.011;   25.079;   -8.131;  693.619
445.602;   24.246;   -7.111;  743.126
446.193;   25.932;  -10.920;  488.117
446.783;   30.216;   -6.500;  640.397
447.374;   26.150;   -8.671;  692.759
447.964;   26.208;  -10.781;  713.770
448.555;   34.518;   -9.650;  822.742
449.145;   31.970;   -8.660;  662.853
449.736;   32.667;   -8.990;  803.179
450.326;   31.729;   -9.500;  713.626
450.917;   37.342;   -8.680;  675.324
451.507;   36.197;   -7.520;  600.661
452.097;   36.736;   -8.590;  746.267
452.688;   37.671;  -11.340;  742.160
453.278;   37.124;  -10.100;  566.840
453.868;   41.527;   -6.019;  793.550
454.458;   39.746;   -9.440;  651.141
455.048;   41.068;  -10.560;  711.783
455.639;   41.402;  -11.799;  567.096
456.229;   44.600;   -6.899;  710.694
456.819;   47.242;   -7.389;  751.158
457.409;   47.654;  -11.119;  773.993
457.999;   49.379;   -9.289;  737.505
458.589;   50.040;   -6.139;  686.606
459.179;   49.419;   -8.729;  717.658
459.769;   47.972;   -9.789;  627.099
460.358;   52.663;  -10.259;  797.262
460.948;   52.515;   -7.299;  689.503
461.538;   54.650;  -10.289;  660.677
462.128;   51.991;  -11.269;  664.934
462.717;   58.517;   -9.368;  710.326
463.307;   61.141;   -7.908;  705.846
463.897;   58.758;   -9.599;  656.942
464.486;   56.739;   -9.769;  837.128
465.076;   60.726;   -8.048;  733.776
465.666;   64.931;   -9.358;  652.900
466.255;   62.961;   -7.919;  785.651
466.845;   61.930;  -11.689;  666.749
467.434;   64.829;   -7.818;  725.873
468.023;   65.915;   -7.678;  658.357
468.613;   64.132;  -10.939;  713.946
469.202;   67.445;  -10.118;  646.507
469.791;   71.246;   -9.108;  737.811
470.381;   74.117;   -6.058;  742.813
470.970;   72.991;  -10.428;  711.099
471.559;   73.328;  -10.268;  733.291
472.148;   75.876;   -8.448;  675.737
472.738;   78.588;   -6.917;  765.466
473.327;   78.898;  -11.978;  637.529
473.916;   77.995;  -11.888;  737.446
474.505;   81.660;   -9.437;  751.703
475.094;   85.190;   -6.747;  806.570
475.683;   84.215;   -9.367;  797.699
476.272;   85.300;  -12.637;  730.632
476.861;   87.850;  -10.027;  706.754
477.449;   94.529;   -8.716;  728.487
478.038;   89.663;   -9.577;  692.513
478.627;   90.281;   -9.718;  714.852
479.216;   96.571;   -8.947;  769.441
479.805;  100.166;   -6.256;  783.375
480.393;   99.162;   -7.937; 1008.945
480.982;   98.854;   -7.717;  874.501
481.571;  104.594;   -9.266;  858.333
482.159;  105.131;   -7.636;  705.386
482.748;  105.815;   -9.667;  821.385
483.336;  109.591;  -10.376;  858.209
483.925;  110.468;   -7.147;  774.373
484.513;  118.045;   -7.996;  758.962
485.102;  114.250;  -10.027;  810.965
485.690;  122.478;  -10.446; 1011.050
486.278;  124.191;   -8.446;  979.329
486.867;  125.183;   -6.356;  809.662
487.455;  127.476;   -9.136;  898.229
488.043;  128.326;  -10.646;  748.361
488.631;  137.503;   -7.456; 1005.079
489.220;  141.092;   -6.636;  908.626
489.808;  141.817;  -11.036;  741.415
490.396;  150.228;  -10.246;  914.645
490.984;  156.194;   -8.556;  830.161
491.572;  165.894;   -5.886;  940.315
492.160;  173.235;   -9.486;  919.081
492.748;  185.810;  -10.976;  884.341
493.336;  210.301;   -8.776; 1019.693
493.924;  238.081;   -5.465;  958.077
494.512;  269.191;   -9.986; 1066.638
495.100;  308.717;  -10.636; 1103.280
495.687;  368.477;  -10.885; 1206.373
496.275;  437.350;   -8.126; 1150.796
496.863;  515.560;  -10.586; 1281.171
497.451;  623.750;  -11.926; 1386.805
498.038;  760.940;  -10.885; 1556.729
498.626;  877.241;   -6.315; 1741.407
499.214; 1038.795;   -7.326; 2016.609
499.801; 1250.575;  -11.906; 2220.633
500.389; 1514.961;  -10.466; 2312.494
500.976; 1844.762;   -5.236; 2744.849
501.564; 2307.156;   -8.936; 3148.565
502.151; 2695.414;  -13.176; 3515.999
502.738; 3168.449;  -10.646; 3971.274
503.326; 3574.743;   -9.525; 4403.796
503.913; 3987.115;  -10.856; 5161.749
504.500; 4363.281;  -11.586; 5986.420
505.088; 4797.745;  -10.336; 6381.201
505.675; 5327.375;   -6.355; 6925.547
506.262; 6055.664;   -9.046; 7619.060
506.849; 6815.327;  -10.416; 8733.969
507.436; 7296.700;  -10.305; 9790.121
508.023; 7852.336;   -5.496; 9985.472
508.610; 8085.615;   -7.856;10434.618
509.197; 8675.952;  -10.097;11198.435
509.784;10006.723;  -10.886;12391.194
510.371;11086.754;   -9.315;13603.713
510.958;11842.654;   -9.936;14426.586
511.545;12594.661;   -9.326;15243.775
512.132;13352.102;  -10.075;15945.876
512.719;13902.472;   -7.796;16340.369
513.305;14905.091;  -10.606;18011.766
513.892;15774.067;  -11.486;19754.971
514.479;17077.930;   -9.126;20967.805
515.066;18422.520;   -6.026;22299.793
515.652;19789.143;   -8.466;22908.660
516.239;20969.666;  -10.886;23798.875
516.825;21760.143;  -11.496;25567.275
517.412;22758.756;   -5.796;28154.959
517.998;23436.893;  -10.506;28344.111
518.585;23501.639;  -10.076;27134.219
519.171;23837.197;   -8.315;27268.576
519.758;25310.770;   -8.596;28964.129
520.344;27070.996;   -8.466;30664.494
520.930;26894.885;  -11.006;32550.605
521.516;28047.498;  -10.495;35422.895
522.103;30106.047;   -5.526;38280.004
522.689;30626.045;   -8.746;37835.117
523.275;30187.250;  -11.376;37288.613
523.861;31403.662;  -11.156;37281.395
524.447;33028.816;   -8.135;37846.949
525.033;33007.688;   -7.896;38321.949
525.619;33199.664;  -12.476;38579.285
526.205;34533.750;   -9.516;40622.875
526.791;36749.586;   -6.926;42258.836
527.377;36814.309;   -8.346;42966.902
527.963;38025.270;   -8.717;42018.949
528.549;36673.766;  -11.016;42476.828
529.135;35537.051;   -8.536;41854.852
529.721;34854.680;   -9.666;41237.711
530.306;34297.535;  -10.066;41259.445
530.892;34101.359;  -11.356;41506.047
531.478;35269.750;   -6.596;43559.613
532.063;38142.453;   -8.836;47695.563
532.649;38692.523;  -10.047;50808.324
533.235;39495.066;   -9.746;51787.500
533.820;39965.102;   -6.566;52145.035
534.406;41280.668;  -10.817;51133.488
534.991;40936.340;   -9.416;49996.805
535.576;39374.988;   -9.036;48882.852
536.162;39872.871;   -6.156;46942.285
536.747;40928.234;  -11.607;45711.746
537.333;44304.504;  -11.787;48510.180
537.918;46865.766;  -12.437;50439.891
538.503;45815.746;   -7.196;50863.711
539.088;42725.473;  -10.556;50906.922
539.673;42734.000;   -8.767;52621.965
540.259;43178.105;  -10.026;52368.094
540.844;40924.086;   -7.416;50879.109
541.429;42143.430;   -9.467;52077.777
542.014;44512.211;   -9.527;52716.695
542.599;43750.602;   -9.946;52363.281
543.184;41312.020;   -7.927;53187.137
543.769;42728.730;   -9.297;54697.605
544.354;42668.316;  -10.127;53913.914
544.938;41619.738;   -9.267;49680.164
545.523;43307.012;   -6.506;47386.277
546.108;45937.500;   -9.787;49151.949
546.693;47599.500;  -11.587;51384.637
547.278;47588.516;  -10.986;51853.254
547.862;45049.547;   -8.206;51173.750
548.447;40985.508;  -10.067;51691.395
549.031;40498.141;   -9.637;52456.703
549.616;44987.086;   -9.926;52714.516
550.201;44337.578;   -6.347;52414.598
550.785;45344.270;   -7.917;52355.059
551.370;44545.395;  -10.867;54589.453
551.954;44224.703;   -9.047;58267.348
552.538;44983.355;   -7.827;59062.176
553.123;43433.789;  -10.287;58115.285
553.707;41237.852;  -12.178;56556.285
554.291;42963.051;   -8.717;56201.668
554.876;45583.582;   -7.457;55335.762
555.460;45625.504;  -10.387;54155.703
556.044;46026.301;   -9.618;53721.484
556.628;44459.262;  -11.567;53731.016
557.212;43390.043;   -8.097;54312.531
557.796;42239.988;  -11.077;53797.773
558.380;42451.383;  -11.108;56145.984
558.964;43001.363;   -9.057;57277.930
559.548;44218.902;   -6.977;56459.641
560.132;42349.922;  -11.457;54434.543
560.716;41067.270;  -11.378;54800.617
561.300;42068.824;   -9.577;57606.945
561.884;43170.277;   -7.127;58972.445
562.467;41546.797;   -7.118;57327.570
563.051;40744.000;  -13.358;54962.434
563.635;41750.973;  -10.178;52594.473
564.219;42332.547;   -7.837;50610.410
564.802;43512.305;  -11.398;49551.180
565.386;43198.633;  -12.788;48370.953
565.969;42372.957;   -9.077;48178.871
566.553;41592.805;   -6.207;49957.305
567.136;42183.883;   -8.568;50369.594
567.720;38896.660;  -11.868;49492.004
568.303;36913.121;   -8.268;50616.352
568.887;36863.348;   -8.698;50727.148
569.470;37183.730;   -6.808;51698.379
570.053;35775.180;  -13.188;52122.078
570.637;34127.875;  -12.037;52536.438
571.220;34265.074;   -8.577;51186.098
571.803;34892.520;   -8.498;51032.762
572.386;36916.520;  -10.498;49609.887
572.969;39461.070;   -9.388;48285.926
573.552;37754.199;   -8.338;47624.285
574.135;36276.781;   -8.518;45498.641
574.718;33802.801;  -13.628;41970.434
575.301;32690.531;  -10.893;41447.137
575.884;31578.260;   -8.158;40923.836
576.467;32055.127;  -10.328;45267.723
577.050;33243.230;  -13.058;48175.543
577.633;34261.715;   -9.458;47729.328
578.216;34416.461;   -8.928;47579.793
578.799;34694.336;   -9.358;47820.996
579.381;33932.449;  -11.388;48115.551
579.964;32289.832;  -11.718;47333.766
580.547;33790.547;   -8.588;46668.969
581.129;34739.664;   -8.859;44466.141
581.712;35597.855;  -10.729;44164.922
582.294;36164.605;  -11.118;46477.855
582.877;36139.871;   -5.218;48244.254
583.459;33941.750;   -8.679;47437.895
584.042;31868.336;  -10.709;46943.219
584.624;32203.680;  -11.669;46792.227
585.206;31881.789;   -8.218;46557.250
585.789;31828.174;  -10.569;45793.773
586.371;34374.473;  -11.859;43836.391
586.953;34645.570;  -10.719;42972.492
587.536;35953.738;   -7.198;42487.211
588.118;35987.406;   -8.720;42086.414
588.700;31959.289;  -10.439;43389.930
589.282;29984.949;   -9.198;43646.039
589.864;29017.641;   -9.199;43438.109
590.446;28432.963;  -11.319;43151.926
591.028;28731.043;  -11.159;42781.867
591.610;30263.936;  -11.779;42839.098
592.192;29956.947;   -7.668;42820.402
592.774;29388.393;  -11.949;40724.277
593.356;28523.871;  -12.129;39874.789
593.937;27542.166;  -10.669;39980.648
594.519;29779.063;   -6.509;42069.633
595.101;32098.508;  -10.849;42976.031
595.683;32276.189;  -11.679;44084.441
596.264;33117.902;   -9.049;43478.797
596.846;32390.748;   -8.849;43803.672
597.427;32282.924;   -9.570;42986.934
598.009;33888.301;  -12.620;42832.219
598.591;34419.027;  -10.039;42580.086
599.172;33794.918;  -10.369;43061.805
599.753;33838.426;   -9.140;41691.469
600.335;35289.074;  -11.430;40692.520
600.916;33550.164;   -9.939;39982.422
601.498;31144.291;   -8.479;40318.617
602.079;29614.627;  -10.920;40670.609
602.660;29538.740;  -11.480;41450.898
603.241;31110.135;  -11.699;41137.738
603.823;29724.785;   -9.579;38868.797
604.404;29276.834;  -10.620;38182.785
604.985;31017.039;  -10.450;38078.047
605.566;30805.033;   -9.129;38056.633
606.147;30889.662;   -7.510;37020.418
606.728;32350.203;  -10.660;37883.359
607.309;30880.121;  -11.740;38748.273
607.890;30491.502;   -9.759;38850.230
608.471;30027.088;   -8.250;37457.918
609.051;29204.029;   -9.240;36066.457
609.632;28112.373;  -12.120;35991.074
610.213;28893.676;   -9.110;37402.641
610.794;29756.650;   -8.030;38383.363
611.374;29429.830;   -8.110;40562.387
611.955;30092.219;  -13.560;38533.727
612.536;31421.109;  -11.400;36951.789
613.116;31242.512;   -8.070;37197.891
613.697;31375.762;  -10.830;38411.125
614.277;29708.393;  -11.641;38673.938
614.858;30619.537;  -13.310;37075.863
615.438;29953.484;   -7.460;35092.906
616.019;27324.523;   -7.601;33666.301
616.599;27910.439;  -12.020;34189.023
617.179;29729.516;  -11.780;36952.047
617.760;30866.543;   -8.570;39582.574
618.340;31911.262;  -11.471;38943.977
618.920;32928.359;  -11.170;37594.156
619.500;32733.248;  -11.071;37866.938
620.080;31877.270;   -7.750;37869.043
620.660;33109.824;  -12.711;36868.617
621.241;34333.816;  -10.211;36352.309
621.821;34517.141;  -10.961;35459.520
622.401;33612.270;   -7.720;35207.414
622.980;32758.619;   -8.981;35980.422
623.560;31256.621;   -9.331;37351.328
624.140;30182.740;   -9.850;34388.582
624.720;25172.299;   -7.451;32368.764
625.300;21633.941;   -9.070;32638.629
625.880;24870.344;  -12.601;34599.035
626.459;28823.145;  -11.751;36831.738
627.039;31763.012;   -9.281;38299.098
627.619;31518.092;   -8.801;38289.574
628.198;29972.479;  -12.071;37220.695
628.778;29209.902;   -9.461;37632.563
629.357;29886.094;   -8.491;38003.012
629.937;29892.445;   -9.721;38402.039
630.516;29516.422;   -9.951;37868.801
631.096;29258.963;  -11.731;35760.410
631.675;31927.238;   -8.572;35225.219
632.254;36859.367;  -11.282;35130.289
632.834;36184.707;  -13.322;35794.570
633.413;34422.758;  -10.301;35788.922
633.992;31751.602;   -8.582;34532.863
634.571;32564.939;   -8.352;33590.113
635.151;35401.691;  -11.912;34943.863
635.730;33634.945;  -10.511;35352.523
636.309;30069.293;   -7.731;35366.605
636.888;27601.043;   -9.952;36165.637
637.467;28077.896;  -11.672;37515.902
638.046;29718.453;   -8.901;39288.695
638.625;33090.758;   -7.912;38279.699
639.204;32979.973;  -10.022;37741.598
639.782;31546.850;  -12.252;38364.551
640.361;27902.988;  -10.041;36740.621
640.940;25182.287;  -11.161;34950.082
641.519;25647.379;   -9.701;34137.398
642.097;28389.188;  -11.271;35654.258
642.676;31172.352;   -8.651;35637.957
643.255;32083.336;   -8.711;36567.074
643.833;31488.570;   -9.581;37809.434
644.412;31397.096;  -13.711;37337.293
644.990;30065.832;  -11.811;37018.531
645.569;29962.701;   -9.411;36518.469
646.147;29168.557;  -10.291;36186.430
646.726;29055.252;  -12.401;36267.688
647.304;30307.598;  -10.411;36647.625
647.882;32096.305;   -9.651;39286.742
648.461;33597.918;   -9.631;39157.703
649.039;31794.436;  -11.881;35412.883
649.617;31040.512;   -9.661;34744.918
650.195;30765.549;   -9.301;35403.098
650.773;29306.498;  -10.511;35053.797
651.352;26877.473;  -11.521;33756.816
651.930;24614.547;  -12.211;31868.773
652.508;23065.033;   -9.171;33121.551
653.086;27006.408;   -9.371;33564.793
653.663;29871.389;  -13.161;34054.668
654.241;28515.482;  -13.031;35693.309
654.819;30140.896;   -9.371;36422.906
655.397;30364.102;  -10.511;38213.484
655.975;29847.953;  -10.371;39507.625
656.553;29548.307;  -10.051;39498.223
657.130;28178.152;  -10.061;40395.480
657.708;27550.254;   -9.561;39242.020
658.286;27641.578;  -11.511;38920.020
658.863;28890.279;  -10.261;40202.898
659.441;31886.205;   -7.531;39677.938
660.018;31323.488;   -9.501;40413.355
660.596;30081.502;  -13.301;39931.414
661.173;32064.111;  -11.211;39604.531
661.750;32259.416;   -9.951;39700.070
662.328;31001.621;   -9.390;39292.809
662.905;30116.271;  -11.330;38235.648
663.482;26007.660;   -9.050;36212.305
664.060;24355.623;   -8.240;35944.945
664.637;27093.359;  -10.050;35170.785
665.214;28848.398;  -11.760;34197.523
665.791;30410.447;  -10.530;34549.520
666.368;29205.621;   -9.690;35118.578
666.945;29923.434;   -9.320;36019.418
667.522;31376.871;  -11.860;36048.438
668.099;31001.742;  -10.770;36243.914
668.676;29853.699;   -6.260;35958.875
669.253;28640.725;   -7.000;37384.730
669.830;29205.895;  -10.190;36779.629
670.407;28997.830;   -9.550;35231.289
670.984;29028.840;   -9.260;35544.270
671.560;29569.131;   -9.280;35466.867
672.137;28824.428;  -11.810;34280.863
672.714;29755.016;  -11.490;34632.863
673.290;30346.865;   -7.740;35135.422
673.867;30460.436;  -10.660;36114.480
674.443;30408.035;  -12.230;36152.859
675.020;28702.863;  -10.450;35327.238
675.596;29913.555;   -9.260;35795.176
676.173;30381.984;  -10.780;35430.355
676.749;29944.797;  -13.690;33549.516
677.326;29693.043;  -11.980;32210.012
677.902;29630.088;   -8.630;32068.871
678.478;29147.773;  -10.730;32583.891
679.054;28723.902;  -10.520;32088.928
679.631;29124.641;  -11.920;30978.848
680.207;30482.691;   -7.490;33160.887
680.783;31930.857;   -9.860;35570.363
681.359;30847.916;  -13.380;36125.184
681.935;30328.775;  -12.480;35240.922
682.511;29803.621;   -7.900;34429.961
683.087;30034.033;   -7.710;34463.680
683.663;29678.162;  -11.480;34648.898
684.239;28430.029;  -14.090;34546.457
684.815;28028.404;   -7.560;35586.375
685.390;28340.598;   -9.910;35821.895
685.966;28797.791;  -11.159;35085.871
686.542;31181.021;  -11.169;34198.230
687.118;33530.699;   -5.959;32847.707
687.693;33730.250;  -10.329;32794.027
688.269;33298.762;  -12.059;33072.367
688.844;31185.172;  -10.909;33141.664
689.420;28970.555;   -8.019;33965.742
689.995;26901.545;   -8.399;34655.523
690.571;25740.934;  -10.949;33576.742
691.146;26228.514;   -9.619;32657.219
691.722;25772.811;   -8.999;32526.979
692.297;25494.830;  -11.589;33014.617
692.872;27203.922;  -11.739;34012.254
693.448;26850.055;  -11.059;34237.434
694.023;26041.229;  -10.139;34142.672
694.598;28079.406;   -9.029;34132.031
695.173;28325.428;  -13.319;34205.250
695.748;27615.121;  -10.169;32882.488
696.323;27681.521;   -8.339;32864.906
696.898;27734.760;   -8.169;33170.004
697.473;27597.287;  -12.309;32432.984
698.048;26955.410;  -10.989;31649.303
698.623;26795.262;   -9.329;30778.141
699.198;28722.822;   -9.849;31140.119
699.773;29781.395;  -12.329;31764.299
700.348;28194.715;  -10.389;31780.816
700.922;28396.564;   -9.269;32046.375
701.497;29331.588;   -9.329;32603.574
702.072;29332.457;  -10.789;34799.871
702.646;27909.930;  -10.839;35793.172
703.221;26046.852;   -9.099;35201.590
703.795;28138.301;  -10.939;34764.527
704.370;28533.336;  -12.859;34307.367
704.944;28961.055;  -11.559;33509.887
705.519;29887.943;   -7.939;31388.584
706.093;31257.301;  -10.499;31340.104
706.668;31474.898;  -11.289;32630.281
707.242;30459.055;  -11.509;32728.779
707.816;28997.783;   -9.639;32947.238
708.390;27541.082;  -11.429;33277.855
708.965;27992.838;  -11.869;33834.336
709.539;28003.264;  -11.689;33709.273
710.113;28461.455;  -10.478;33044.313
710.687;27736.689;  -10.228;31953.992
711.261;26096.332;  -13.698;30505.949
711.835;26039.352;  -13.378;30262.369
712.409;26715.578;   -9.698;31254.447
712.983;28605.730;  -11.898;32754.986
713.557;29625.994;  -15.138;34018.824
714.131;29182.162;  -14.098;34579.625
714.704;28150.385;   -9.958;33890.262
715.278;26009.047;  -10.028;33531.102
715.852;25015.703;  -11.148;33601.660
716.425;25873.033;   -9.068;33515.117
716.999;26680.441;  -10.038;33185.555
717.573;27677.682;   -9.798;33905.996
718.146;28615.098;  -12.378;35199.293
718.720;28687.123;  -11.918;35060.551
719.293;28250.043;   -8.088;34973.230
719.867;31041.219;  -10.888;36394.449
720.440;30760.076;  -11.938;36663.008
721.013;29138.904;  -12.818;35102.426
721.587;27706.961;  -10.298;33985.266
722.160;26769.393;  -10.048;33524.965
722.733;25750.566;  -12.108;32987.043
723.306;26006.131;  -10.818;33066.301
723.880;28411.580;   -8.908;33399.500
724.453;30485.465;   -9.878;33468.297
725.026;29563.184;  -11.188;33816.637
725.599;26807.119;  -11.678;32797.996
726.172;27170.271;   -9.618;33187.434
726.745;28336.977;   -8.258;35136.613
727.318;29604.811;  -12.978;35751.730
727.891;30033.146;  -12.148;35890.430
728.463;29706.301;   -8.968;34822.090
729.036;28681.668;  -10.188;32895.086
729.609;29159.150;  -11.788;31823.225
730.182;26040.891;  -11.788;31445.283
730.754;23610.371;  -10.268;32373.223
731.327;23907.877;   -9.998;33676.820
731.900;24318.621;  -12.228;33417.000
732.472;25432.275;  -13.848;31978.498
733.045;27274.242;   -8.698;30368.777
733.617;27305.080;  -10.607;30574.215
734.190;26908.449;  -11.507;31280.975
734.762;24084.668;  -13.647;31674.412
735.334;22349.990;   -9.767;31247.291
735.907;22942.455;   -9.897;29876.211
736.479;23101.533;  -11.637;29808.488
737.051;23030.742;   -9.567;30233.547
737.623;24106.410;   -8.187;31469.086
738.195;24769.475;  -11.187;31784.225
738.768;26624.148;  -12.337;32120.523
739.340;27034.307;  -12.227;32094.342
739.912;25941.426;  -11.057;31312.680
740.484;24398.662;  -10.207;31946.238
741.056;23127.281;  -10.047;32984.059
741.628;24773.313;  -13.627;33897.715
742.199;26976.998;   -7.177;33213.016
742.771;25377.205;  -10.797;31369.113
743.343;23100.197;  -11.997;31865.473
743.915;22118.408;  -12.867;32388.631
744.487;22186.564;   -7.617;31079.568
745.058;22362.873;   -9.557;30570.107
745.630;22816.332;   -9.877;29970.127
746.201;23914.477;  -14.177;29186.766
746.773;24666.701;   -9.237;28805.723
747.344;24490.105;   -9.847;29591.223
747.916;22980.791;  -11.657;31412.201
748.487;23169.322;  -10.587;32194.898
749.059;24451.648;   -8.707;32533.719
749.630;25104.877;  -10.537;32158.518
750.201;24152.881;  -11.687;30855.395
750.773;22390.189;  -11.647;28622.555
751.344;22243.420;   -7.147;28405.732
751.915;23460.523;   -9.757;28461.551
752.486;23398.441;  -12.427;27842.850
753.057;21095.264;  -12.227;27845.008
753.628;19853.809;  -10.417;27728.107
754.199;20850.064;  -11.767;27381.086
754.770;21796.146;  -11.187;25882.203
755.341;21880.773;  -10.507;25886.184
755.912;22147.514;   -9.387;26050.861
756.483;21825.725;  -10.647;26798.779
757.054;19969.045;  -11.837;27048.238
757.625;18561.449;  -12.716;26294.838
758.195;18207.854;   -9.666;26142.076
758.766;17979.057;   -8.656;26392.234
759.337;18767.947;  -12.856;26334.594
759.907;20319.529;  -13.366;27579.652
760.478;21208.762;   -8.576;28352.770
761.048;20639.365;  -10.526;27325.088
761.619;19778.188;  -11.116;26460.428
762.189;19846.738;  -12.136;26029.826
762.760;20996.086;   -9.456;26430.145
763.330;22035.184;   -7.136;26670.902
763.900;21450.623;  -11.786;26603.021
764.471;18831.934;  -11.546;25542.740
765.041;17471.875;   -8.096;24358.459
765.611;17475.744;   -8.876;23991.297
766.181;17870.275;  -12.196;24470.236
766.751;18858.283;  -11.636;24845.975
767.321;18528.865;  -10.156;24533.633
767.891;16486.275;  -11.766;24916.492
768.461;15946.959;  -14.936;24776.771
769.031;16564.654;  -12.356;24757.988
769.601;18207.936;   -7.526;24181.088
770.171;18064.098;  -10.766;23670.387
770.741;17282.734;  -13.176;22960.045
771.311;17416.939;  -10.616;22917.523
771.880;17826.984;   -9.576;23562.941
772.450;17585.244;  -10.336;24216.500
773.020;17504.332;  -13.516;24140.398
773.589;16633.506;  -13.466;24414.857
774.159;15915.124;   -8.686;23858.717
774.729;15606.013;   -9.476;22942.135
775.298;15179.050;  -13.666;22324.033
775.867;14780.869;  -11.716;21140.313
776.437;14819.699;   -9.906;20838.092
777.006;14582.421;  -12.166;20599.510
777.576;14300.366;  -12.356;20508.809
778.145;14288.202;  -11.646;20732.947
778.714;14228.774;   -8.226;21062.465
779.283;13605.945;   -9.556;20949.664
779.853;13123.495;  -14.116;20508.623
780.422;13613.534;  -11.506;20649.082
780.991;13096.491;   -9.556;21527.520
781.560;11906.502;   -9.095;22632.658
782.129;11713.604;  -12.135;23048.277
782.698;11707.092;  -10.865;23438.555
783.267;11262.704;   -9.335;23267.734
783.836;11149.789;  -11.045;22415.133
784.404;12040.951;  -13.865;20443.152
784.973;12550.207;  -13.095;19699.150
785.542;12472.589;  -11.575;19763.828
786.111;12245.528;   -9.705;20341.408
786.679;11753.794;  -12.105;20207.967
787.248;11486.952;  -12.455;19516.465
787.817;11240.682;  -11.535;18900.363
788.385;10813.278;   -9.765;17879.121
788.954;10270.398;  -14.005;17658.301
789.522; 9823.702;  -11.955;17788.879
790.090;10322.194;  -10.135;18118.277
790.659;10681.573;  -10.975;18338.736
791.227;10192.736;  -13.375;18508.615
791.795;10570.752;  -12.375;17898.254
792.364;10885.413;  -10.725;17295.133
792.932;11151.595;   -9.715;16822.051
793.500;11257.211;  -12.675;17040.148
794.068;11455.503;  -13.495;17179.787
794.636;11548.385;  -10.885;16664.246
795.204;10887.801;  -11.045;16524.545
795.772;10863.628;  -13.175;17274.564
796.340;10417.585;  -12.445;17891.002
796.908;10213.256;   -9.735;17648.561
797.476;10090.899;   -9.815;17064.080
798.044; 9677.316;  -13.985;16672.777
798.612; 8942.846;  -13.115;17023.996
799.180; 8603.812;  -10.185;16561.615
799.747; 8577.178;   -9.055;15962.773
800.315; 8362.874;  -12.385;15296.992
800.883; 8055.352;  -15.035;14801.771
801.450; 8066.566;  -10.365;14534.430
802.018; 8114.129;   -9.855;14173.248
802.585; 8184.354;  -11.905;14029.547
803.153; 8217.990;  -11.585;13836.846
803.720; 8079.335;   -9.095;13567.324
804.287; 7648.341;   -9.135;13360.622
804.855; 7276.836;  -11.604;13681.981
805.422; 7219.918;  -11.794;13536.560
805.989; 7237.497;  -10.734;13355.958
806.556; 7400.778;  -10.444;13747.896
807.124; 7657.130;  -12.764;13987.376
807.691; 7669.088;  -12.964;14038.674
808.258; 7492.638;  -11.134;14120.152
808.825; 7204.762;   -9.854;13860.111
809.392; 7313.641;  -10.504;13268.790
809.959; 6918.432;  -13.054;12680.389
810.526; 6514.498;   -8.294;12427.308
811.093; 6609.814;   -8.394;12030.105
811.659; 7266.870;  -12.304;11653.664
812.226; 7768.501;  -13.944;11637.183
812.793; 7485.289;  -10.484;11611.521
813.360; 6886.592;  -10.144;11885.181
813.926; 6557.388;  -11.684;12770.539
814.493; 6335.883;  -13.644;12677.638
815.060; 5970.251;   -9.724;11974.336
815.626; 5997.711;   -9.854;11594.715
816.193; 6429.874;  -13.254;11579.474
816.759; 6539.470;  -13.204;11666.972
817.325; 6671.151;   -9.434;11325.530
817.892; 7079.376;  -10.134;11105.369
818.458; 7534.923;  -13.474;10843.928
819.024; 7192.579;  -11.854;10714.406
819.591; 6936.745;  -10.244;10469.165
820.157; 6724.813;  -10.704;10235.523
820.723; 6247.472;  -12.324;10847.563
821.289; 5999.388;   -9.444;11040.980
821.855; 5936.987;   -8.374;10357.100
822.421; 5952.126;  -10.234; 9978.918
822.987; 5979.095;  -13.294; 9754.177
823.553; 5652.476;  -10.884;10065.755
824.119; 5491.476;   -8.884;10036.294
824.685; 5636.137;   -6.784;10029.192
825.251; 5763.621;  -12.004;10199.230
825.816; 5748.194;  -11.474; 9820.189
826.382; 5532.853;   -9.174; 9297.248
826.948; 5755.877;   -9.214; 9381.347
827.513; 6184.546;  -10.774; 9450.726
828.079; 6009.296;  -11.924; 9472.444
828.645; 5407.928;  -10.543; 9292.643
829.210; 5295.284;  -10.533; 9065.341
829.776; 5270.597;  -10.753; 9132.620
830.341; 5183.178;  -10.173; 9092.878
830.906; 5418.847;  -10.743; 9078.557
831.472; 5832.624;  -11.113; 8534.535
832.037; 5590.569;  -10.603; 8677.874
832.602; 5001.733;  -13.323; 8628.692
833.167; 4718.485;  -10.823; 8879.031
833.733; 4641.272;  -10.113; 9189.790
834.298; 4802.787;  -13.583; 9052.608
834.863; 4900.940;  -12.703; 8895.087
835.428; 4914.227;  -10.523; 8824.266
835.993; 4771.679;   -6.963; 8845.385
836.558; 4578.720;  -10.763; 8888.563
837.123; 4689.865;   -9.903; 8966.582
837.688; 4931.295;   -9.913; 8617.860
838.253; 5201.727;  -10.283; 8590.699
838.817; 5420.613;  -12.963; 8443.797
839.382; 5333.512;  -14.243; 8799.356
839.947; 5012.280;  -10.733; 8810.595
840.511; 4693.374;   -9.383; 8796.394
841.076; 4270.165;  -12.563; 8347.231
841.641; 4319.058;  -12.953; 8224.330
842.205; 4407.617;   -7.043; 8223.349
842.770; 4479.023;   -8.163; 8622.107
843.334; 4620.421;  -12.503; 8410.386
843.898; 4517.186;  -11.693; 8337.465
844.463; 4491.592;  -10.203; 8506.283
845.027; 4254.092;   -9.533; 8280.962
845.591; 4065.955;  -13.443; 8231.141
846.156; 4049.603;  -13.143; 7969.179
846.720; 3948.700;   -9.433; 7768.278
847.284; 3837.039;  -11.033; 7630.957
847.848; 3704.513;  -10.403; 7472.395
848.412; 3589.477;  -11.553; 7437.394
848.976; 3602.161;   -8.393; 7674.592
849.540; 3505.880;   -8.713; 7836.011
850.104; 3599.382;  -12.463; 7913.669
850.668; 3945.598;  -12.973; 7694.508
851.232; 4041.434;  -10.793; 7756.887
851.796; 3862.649;  -10.662; 7926.545
852.359; 3542.600;  -13.082; 7827.844
852.923; 3355.315;  -12.192; 7641.163
853.487; 3174.854;  -11.912; 7342.501
854.050; 3124.585;  -10.892; 7042.820
854.614; 3237.333;  -13.992; 7151.338
855.177; 3341.678;  -11.732; 7105.077
855.741; 3350.676;   -8.962; 6989.675
856.304; 3231.293;   -9.442; 6596.634
856.868; 3212.149;  -14.192; 6356.272
857.431; 3302.279;  -12.702; 6468.571
857.995; 3388.468;   -9.942; 6373.210
858.558; 3376.020;   -9.112; 6324.448
859.121; 3102.987;  -12.932; 6408.327
859.684; 2988.927;  -13.442; 6347.886
860.247; 3089.370;  -10.632; 6321.264
860.810; 3071.826;  -11.272; 6301.903
861.374; 2814.852;   -9.832; 6607.881
861.937; 2562.593;  -11.762; 6408.200
862.500; 2558.250;   -9.722; 6572.639
863.062; 2719.014;  -10.512; 6387.297
863.625; 2865.700;  -11.232; 6190.836
864.188; 3011.774;  -14.112; 5807.254
864.751; 3080.695;  -11.302; 5682.413
865.314; 2980.005;  -10.112; 5547.492
865.876; 2777.056;  -12.182; 5500.150
866.439; 2755.855;  -10.722; 5415.909
867.002; 2697.952;   -9.252; 5501.567
867.564; 2512.885;   -9.572; 5413.946
868.127; 2318.835;  -13.142; 5160.325
868.689; 2225.921;  -12.902; 5133.183
869.252; 2122.766;   -9.732; 5252.382
869.814; 2024.595;   -9.432; 5297.141
870.377; 2033.367;  -11.552; 5390.919
870.939; 2103.808;   -9.052; 5599.898
871.501; 2181.440;  -10.982; 5248.336
872.063; 2191.101;  -12.292; 4854.235
872.626; 2148.067;  -14.912; 4817.074
873.188; 2177.570;  -13.112; 4987.732
873.750; 2156.328;  -13.442; 4868.651
874.312; 2068.812;   -9.402; 4779.330
874.874; 1990.763;  -11.062; 4866.348
875.436; 1907.022;  -13.931; 4718.887
875.998; 1905.413;   -9.561; 4660.005
876.560; 1934.344;  -11.321; 4462.964
877.122; 1875.649;  -12.221; 4145.042
877.683; 1781.143;  -12.191; 4056.481
878.245; 1718.969;  -12.101; 3950.740
878.807; 1761.659;   -8.971; 4058.958
879.369; 1786.706;  -12.071; 3954.677
879.930; 1702.062;  -14.621; 3941.495
880.492; 1643.654;  -10.311; 4067.014
881.053; 1602.828;  -10.901; 3859.633
881.615; 1495.959;  -14.411; 3776.071
882.176; 1402.040;  -13.761; 3734.750
882.738; 1358.313;   -9.181; 3678.489
883.299; 1340.863;  -11.791; 3405.407
883.860; 1346.418;  -13.121; 3351.106
884.422; 1342.549;  -11.211; 3394.044
884.983; 1302.382;  -10.091; 3166.443
885.544; 1231.536;   -8.461; 3189.802
886.105; 1149.338;  -12.361; 3160.360
886.666; 1080.369;  -14.141; 3093.059
887.227; 1022.425;  -11.361; 2941.957
887.788;  957.869;  -11.401; 2974.836
888.349;  897.826;  -13.791; 2721.214
888.910;  900.718;  -13.191; 2696.493
889.471;  910.580;   -9.881; 2560.172
890.032;  891.257;   -9.881; 2558.190
890.593;  865.959;  -10.371; 2567.669
891.153;  838.461;  -13.301; 2460.307
891.714;  787.803;  -11.431; 2372.046
892.275;  749.031;  -11.291; 2309.505
892.835;  708.274;  -11.471; 2382.543
893.396;  649.731;  -11.541; 2295.502
893.956;  589.852;  -11.181; 2162.420
894.517;  550.515;  -11.741; 2125.439
895.077;  545.922;  -11.671; 2086.978
895.638;  549.076;  -11.311; 2126.316
896.198;  519.689;   -9.831; 1838.275
896.758;  472.066;   -8.421; 1892.813
897.319;  439.615;  -12.351; 1792.232
897.879;  422.455;  -13.511; 1762.751
898.439;  392.564;  -12.001; 1661.149
898.999;  368.172;  -10.180; 1781.468
899.559;  358.984;  -12.030; 1703.347
900.119;  355.036;  -15.710; 1537.525
900.679;  349.381;   -8.900; 1638.384
901.239;  333.568;   -8.340; 1527.902
901.799;  322.761;  -13.910; 1456.441
902.359;  314.393;  -13.460; 1357.140
902.919;  306.558;  -11.490; 1331.118
903.479;  293.714;  -12.110; 1317.257
904.038;  270.979;  -11.720; 1262.595
904.598;  254.023;  -13.610; 1152.034
905.158;  250.154;  -11.040; 1240.893
905.717;  242.752;  -10.900; 1233.691
906.277;  231.336;  -15.080; 1217.330
906.836;  220.415;  -13.380; 1222.408
907.396;  210.809;  -10.780; 1193.047
907.955;  203.735;   -8.500; 1182.526
908.515;  198.519;  -12.760; 1099.364
909.074;  191.357;  -11.900; 1092.863
909.633;  184.986;   -8.950; 1069.121
910.192;  180.079;   -8.770; 1196.460
910.752;  175.206;  -12.390; 1029.960
911.311;  170.924;  -13.680; 1009.780
911.870;  167.590;  -12.370;  971.460
912.429;  168.215;  -10.900; 1094.080
912.988;  167.903;  -11.690; 1081.060
913.547;  161.812;  -13.240;  940.380
914.106;  156.812;  -11.990;  999.420
914.665;  153.981;   -9.990;  984.020
915.224;  153.251;  -12.880; 1035.760
915.782;  152.989;  -12.350;  922.560
916.341;  152.481;   -9.110; 1049.840
916.900;  148.554;   -9.270;  925.260
917.458;  147.655;  -13.240;  884.220
918.017;  145.653;  -13.550;  942.600
918.576;  146.033;  -12.320;  904.440
919.134;  144.066;  -11.490;  837.980
919.693;  141.874;  -13.670;  893.060
920.251;  140.094;  -15.470;  876.500
920.809;  138.228;  -11.290;  839.580
921.368;  138.265;  -10.210;  885.360
921.926;  138.012;  -12.140;  842.940
922.484;  136.139;  -13.080;  903.360
923.042;  136.519;  -11.720;  880.340
923.601;  138.960;   -7.480;  998.680
924.159;  137.849;  -11.570;  935.560
924.717;  133.159;  -13.840;  841.080
925.275;  133.199;  -10.640;  903.240
925.833;  133.036;  -11.540;  779.320
926.391;  134.273;  -12.960;  938.380
926.949;  132.738;  -14.130;  857.680
927.506;  132.601;  -11.750;  903.500
928.064;  132.885;  -10.250;  877.580
928.622;  132.782;  -13.030;  880.100
929.180;  131.501;  -13.400;  814.180
929.737;  132.504;  -10.700;  808.540
930.295;  137.448;  -10.070;  928.480
930.853;  139.277;  -11.960;  849.100
931.410;  138.609;  -13.120;  821.120
931.968;  138.077;  -10.770;  940.660
932.525;  139.247;  -10.680;  909.380
933.082;  140.006;  -13.130;  811.440
933.640;  139.089;  -13.210;  925.900
934.197;  137.062;  -11.060;  886.360
934.754;  138.389;   -9.580;  897.780
935.312;  141.286;  -14.000;  863.340
935.869;  146.048;  -10.710; 1012.980
936.426;  146.910;   -9.860;  872.800
936.983;  147.900;   -9.710;  889.020
937.540;  146.957;  -13.990;  838.280
938.097;  146.055;  -14.040;  940.120
938.654;  145.310;  -10.310;  898.860
939.211;  148.819;  -10.560;  952.480
939.768;  152.831;  -13.900;  915.420
940.324;  156.382;  -14.760;  904.200
940.881;  157.368;  -10.370;  878.500
941.438;  157.452;   -8.260; 1021.200
941.995;  154.615;  -12.540;  992.560
942.551;  152.128;  -14.670;  875.620
943.108;  151.252;  -10.450;  937.920
943.664;  154.361;  -10.750;  869.340
944.221;  158.699;  -11.550; 1088.140
944.777;  154.924;  -14.770;  869.680
945.334;  155.903;  -12.820;  884.840
945.890;  158.128;  -10.130;  946.480
946.446;  159.551;  -13.470;  947.020
947.003;  159.449;  -12.120;  964.940
947.559;  162.681;   -9.980; 1063.040
948.115;  161.960;   -9.080; 1026.540
948.671;  160.499;  -10.830;  967.300
949.227;  157.386;  -12.440;  859.560
949.783;  154.679;  -12.910;  858.900
950.339;  156.943;  -10.270;  991.000
950.895;  156.970;  -13.630; 1023.840
951.451;  156.292;  -15.100;  925.280
952.007;  156.220;  -11.330;  998.540
952.563;  156.892;  -10.580;  937.780
953.118;  156.647;  -13.440;  904.940
953.674;  155.967;  -12.710;  935.780
954.230;  154.659;  -10.350;  949.640
954.785;  152.502;   -9.190;  936.640
955.341;  149.942;  -11.200;  998.160
955.897;  148.302;  -16.560;  834.660
956.452;  150.093;  -12.570;  953.840
957.008;  149.656;   -7.970; 1083.640
957.563;  146.844;  -11.940; 1009.540
958.118;  142.129;  -13.450;  877.700
958.674;  142.123;  -12.030;  946.780
959.229;  144.714;   -9.410; 1013.980
959.784;  141.801;  -12.000;  832.400
960.339;  141.301;  -14.780; 1001.280
960.894;  137.140;   -9.860;  963.760
961.449;  133.963;   -9.970;  859.960
962.004;  134.607;  -10.900; 1212.840
962.559;  128.694;  -13.150;  860.140
963.114;  125.714;  -13.740;  742.480
963.669;  125.937;   -9.820;  915.500
964.224;  125.081;  -13.890;  874.340
964.779;  123.352;  -12.600;  828.420
965.334;  124.223;  -10.950; 1017.860
965.888;  123.903;  -11.170;  875.360
966.443;  127.341;  -12.540;  972.380
966.998;  126.111;  -15.780;  819.460
967.552;  124.449;   -9.760;  908.380
968.107;  121.975;   -9.060;  868.300
968.661;  125.305;  -11.950;  922.440
969.216;  127.754;  -12.800;  856.280
969.770;  129.036;  -11.210;  917.200
970.324;  126.736;  -11.610;  923.140
970.879;  117.947;  -11.370;  947.180
971.433;  106.078;  -12.540;  952.720
971.987;   93.990;  -11.320;  895.340
972.541;   86.650;  -10.720;  917.100
973.095;   84.374;   -9.680; 1009.460
973.649;   82.028;  -11.440;  809.480
974.203;   83.678;  -11.210;  829.040
974.757;   86.690;  -10.240;  855.220
975.311;   88.969;  -13.720;  872.600
975.865;   88.976;  -13.770;  881.820
976.419;   88.673;  -11.690;  857.400
976.973;   89.340;   -9.510;  849.620
977.526;   92.774;  -12.620;  949.920
978.080;   91.618;  -12.010;  796.780
978.634;   93.381;  -10.170;  921.320
979.187;   91.702;   -9.020;  905.400
979.741;   89.856;   -9.820; 1018.380
980.294;   85.136;  -14.870;  789.160
980.848;   83.596;  -12.380;  717.220
981.401;   86.843;  -10.350;  816.540
981.955;   89.541;  -13.720;  844.300
982.508;   87.669;  -11.490;  746.340
983.061;   88.487;  -10.000;  915.260
983.615;   85.576;  -11.480;  798.800
984.168;   81.830;  -13.220;  770.080
984.721;   81.491;  -13.960;  880.760
985.274;   80.952;  -10.870;  867.500
985.827;   79.718;   -9.790;  834.220
986.380;   77.860;  -13.120;  721.340
986.933;   76.884;  -12.450;  864.800
987.486;   75.211;  -10.210;  861.920
988.039;   75.282;   -8.430;  863.100
988.591;   73.445;  -10.520;  893.260
989.144;   71.087;  -14.860;  737.260
989.697;   69.926;  -13.080;  758.740
990.250;   71.127;  -10.150;  858.100
990.802;   70.145;  -13.430;  755.860
991.355;   71.654;  -12.750;  974.880
991.907;   69.270;  -12.040;  864.320
992.460;   66.885;  -11.330;  753.760
993.012;   66.642;  -13.610;  749.540
993.565;   65.019;  -13.460;  711.360
994.117;   66.275;   -9.360;  950.780
994.669;   62.783;  -11.300;  701.320
995.221;   61.102;  -13.540;  791.920
995.774;   59.601;  -13.430;  787.580
996.326;   58.193;  -12.520;  740.220
996.878;   58.646;  -10.950;  838.420
997.430;   56.786;  -14.300;  699.860
997.982;   55.800;  -13.760;  750.140
998.534;   54.921;  -11.530;  739.060
999.086;   53.522;  -10.310;  738.220
999.638;   51.351;  -12.530;  661.380
1000.190;   49.452;  -11.840;  699.320
1000.741;   49.093;  -10.260;  742.700
1001.293;   48.184;   -8.860;  686.020
1001.845;   46.910;  -13.700;  676.640
1002.396;   46.602;  -12.100;  743.400
1002.948;   47.154;  -12.760;  737.400
1003.500;   45.692;  -10.380;  723.780
1004.051;   47.273;  -11.900;  907.580
1004.603;   45.272;  -12.250;  791.820
1005.154;   41.374;  -13.210;  608.980
1005.705;   41.659;  -10.950;  723.960
1006.257;   41.064;  -13.880;  707.220
1006.808;   39.987;  -12.840;  685.460
1007.359;   39.811;  -10.570;  763.240
1007.910;   39.116;   -9.620;  646.640
1008.461;   38.854;  -13.630;  732.940
1009.013;   37.802;  -17.200;  588.340
1009.564;   38.523;  -10.200;  793.520
1010.115;   37.169;  -12.570;  597.040
1010.665;   36.689;  -15.150;  602.160
1011.216;   36.588;  -14.480;  667.920
1011.767;   36.307;  -11.340;  697.920
1012.318;   35.385;   -9.780;  736.980
1012.869;   35.257;  -12.380;  679.000
1013.419;   34.213;  -15.560;  603.120
1013.970;   34.798;  -11.010;  666.640
1014.521;   34.567;  -11.610;  620.620
1015.071;   35.458;  -13.450;  670.380
1015.622;   34.218;  -13.870;  635.460
1016.172;   33.809;  -11.610;  596.820
1016.723;   33.480;  -12.120;  614.380
1017.273;   33.332;  -13.620;  604.160
1017.823;   33.082;  -14.140;  650.340
1018.374;   31.444;  -12.800;  611.760
1018.924;   32.745;  -12.340;  716.880
1019.474;   32.740;  -11.410;  718.880
1020.024;   31.470;  -14.770;  657.580
1020.574;   31.625;   -9.780;  726.160
1021.124;   32.331;   -8.560;  673.580
1021.674;   31.215;  -15.190;  559.120
1022.224;   31.363;  -13.530;  708.940
1022.774;   30.677;  -13.280;  668.820
1023.324;   32.013;  -10.690;  753.520
1023.874;   33.318;  -10.240;  875.760
1024.423;   29.916;  -12.540;  613.700
1024.973;   29.753;  -10.010;  610.760
1025.523;   29.382;  -10.550;  620.960
1026.072;   29.389;  -13.560;  606.420
1026.622;   28.398;  -15.120;  675.740
1027.172;   29.879;  -11.260;  715.660
1027.721;   28.904;  -11.410;  601.220
1028.270;   29.668;  -13.530;  663.400
1028.820;   29.316;  -13.680;  638.080
1029.369;   28.114;  -13.520;  612.700
1029.918;   28.849;  -10.980;  649.840
1030.468;   28.490;  -13.530;  564.780
1031.017;   28.317;  -13.170;  634.800
1031.566;   26.868;  -12.200;  608.900
1032.115;   28.190;   -9.960;  694.500
1032.664;   27.456;  -13.210;  596.480
1033.213;   27.461;  -12.500;  735.420
1033.762;   26.781;  -11.910;  635.620
1034.311;   26.738;   -9.640;  677.220
1034.860;   27.470;  -13.310;  691.000
1035.408;   26.692;  -11.830;  722.720
1035.957;   26.855;  -12.000;  719.540
1036.506;   25.599;  -11.690;  530.800
1037.055;   27.708;  -10.990;  844.320
1037.603;   25.748;  -15.120;  664.000
1038.152;   23.475;  -12.450;  534.760
1038.700;   24.961;  -10.560;  585.740
1039.249;   25.457;  -11.080;  681.220
1039.797;   25.337;  -12.540;  633.360
1040.345;   24.696;  -11.920;  705.420
1040.894;   24.151;  -11.410;  625.300
1041.442;   24.602;  -14.320;  632.200
1041.990;   23.513;  -16.240;  559.160
1042.538;   22.996;  -11.680;  536.180
1043.087;   24.013;  -10.760;  570.860
1043.635;   24.945;  -11.850;  670.500
1044.183;   23.388;  -15.480;  586.400
1044.731;   23.103;  -11.770;  576.000
1045.279;   22.233;  -13.090;  674.920
1045.827;   25.045;  -12.440;  892.400
1046.374;   22.070;  -13.840;  515.420
1046.922;   21.545;  -13.220;  590.580
1047.470;   23.239;  -10.230;  691.300
1048.018;   22.657;  -14.590;  647.960
1048.565;   23.349;  -12.050;  708.600
1049.113;   21.096;  -11.650;  557.000
1049.660;   21.237;  -10.510;  629.660
1050.208;   22.200;  -13.310;  675.640
1050.755;   21.121;  -15.900;  606.580
1051.303;   20.829;  -11.430;  686.820
1051.850;   20.976;   -8.480;  635.120
1052.397;   19.747;  -15.010;  473.960
1052.945;   20.114;  -13.960;  617.760
1053.492;   21.755;  -13.150;  741.840
1054.039;   21.697;   -9.630;  720.180
1054.586;   20.837;  -13.680;  557.240
1055.133;   21.001;  -14.570;  693.140
1055.680;   20.554;  -13.820;  646.620
1056.227;   19.970;  -11.730;  542.780
1056.774;   21.562;  -12.480;  794.980
1057.321;   19.262;  -13.930;  523.260
1057.868;   18.709;  -11.690;  651.320
1058.415;   19.509;   -9.520;  651.980
1058.961;   19.690;  -13.160;  678.940
1059.508;   19.446;  -12.920;  643.820
1060.055;   18.923;  -11.920;  581.780
1060.601;   19.666;  -11.500;  624.300
1061.148;   19.241;  -14.330;  616.820
1061.694;   18.328;  -16.870;  592.580
1062.241;   18.309;  -10.330;  596.320
1062.787;   18.557;  -10.620;  663.140
1063.334;   20.620;  -10.110;  808.560
1063.880;   18.758;  -13.400;  668.360
1064.426;   18.394;  -10.680;  706.820
1064.972;   17.493;   -9.920;  601.340
1065.518;   16.691;  -10.980;  566.640
1066.065;   18.132;  -14.890;  624.460
1066.611;   16.291;  -12.870;  598.800
1067.157;   17.962;  -12.950;  641.860
1067.703;   18.177;  -13.540;  668.480
1068.249;   16.829;  -13.540;  605.220
1068.794;   16.719;  -12.600;  626.880
1069.340;   16.044;  -10.620;  578.960
1069.886;   16.817;  -12.830;  590.700
1070.432;   15.289;  -14.870;  541.720
1070.977;   15.726;  -11.980;  601.080
1071.523;   15.957;   -8.200;  573.060
1072.068;   16.102;  -12.330;  582.000
1072.614;   15.688;  -16.370;  527.760
1073.160;   15.973;  -11.100;  687.040
1073.705;   14.831;  -10.480;  572.520
1074.250;   15.783;  -14.520;  559.900
1074.796;   16.452;  -11.460;  655.160
1075.341;   15.788;  -11.950;  664.100
1075.886;   14.843;  -11.460;  594.240
1076.431;   15.795;  -13.770;  649.880
1076.976;   14.545;  -12.680;  639.220
1077.521;   13.319;  -13.170;  583.080
1078.067;   13.678;  -10.860;  579.400
1078.612;   14.710;  -13.920;  661.620
1079.156;   14.265;  -13.880;  601.540
1079.701;   14.637;  -13.120;  693.260
1080.246;   14.678;   -9.940;  696.300
1080.791;   14.869;  -14.740;  625.020
1081.336;   14.557;  -13.750;  659.320
1081.880;   13.688;  -13.400;  649.680
1082.425;   12.374;  -12.220;  573.480
1082.970;   15.208;  -11.610;  717.040
1083.514;   13.312;  -13.580;  597.000
1084.059;   12.587;  -12.810;  586.720
1084.603;   12.456;  -12.320;  565.840
1085.147;   13.780;  -13.190;  645.220
1085.692;   13.849;  -12.480;  716.800
1086.236;   11.731;  -13.020;  503.140
1086.780;   14.091;   -9.190;  751.440
1087.325;   13.387;  -12.480;  654.620
1087.869;   12.892;  -12.450;  610.700
1088.413;   12.497;  -12.240;  705.040
1088.957;   11.493;   -9.020;  543.400
1089.501;   13.168;  -10.320;  766.640
1090.045;   12.637;  -12.720;  726.480
1090.589;   10.661;  -13.690;  569.920
1091.133;   11.738;  -10.020;  673.340
1091.676;   12.731;  -12.330;  591.940
1092.220;   11.384;  -14.970;  600.920
1092.764;   12.140;  -12.430;  706.960
1093.307;   12.232;   -9.800;  673.780
1093.851;   10.744;  -14.970;  556.540
1094.395;   11.915;  -15.310;  683.140
1094.938;   10.425;  -10.370;  632.520
1095.482;   10.634;  -11.050;  559.800
1096.025;   12.275;  -11.840;  710.880
1096.568;   11.968;  -12.840;  779.280
1097.112;    9.340;  -14.700;  508.180
1097.655;   10.632;   -8.720;  603.000
1098.198;    9.533;  -13.610;  600.180
1098.741;    9.269;  -13.350;  612.860
1099.285;   10.696;  -11.230;  657.300
1099.828;    9.183;  -11.840;  439.400
1100.371;   10.010;  -10.840;  608.160
1100.914;   10.150;  -14.190;  682.660
1101.457;    9.900;  -11.240;  679.900
1101.999;    9.002;  -11.270;  584.680
1102.542;   10.014;  -11.480;  641.440
1103.085;    9.582;  -11.750;  658.500
1103.628;    9.936;  -11.400;  762.060
1104.170;    9.509;  -10.490;  588.280
1104.713;    9.324;  -10.600;  646.700
1105.256;    8.785;  -14.360;  557.440
1105.798;    7.492;  -13.210;  499.980
1106.341;    9.739;  -10.270;  728.900
1106.883;    8.991;  -12.200;  521.340
1107.425;    8.974;  -13.110;  668.180
1107.968;    8.672;  -12.840;  612.380
1108.510;    8.265;   -6.480;  684.960
1109.052;    7.766;  -13.940;  612.620
1109.594;    7.541;  -13.690;  554.440
1110.136;    8.343;  -11.880;  643.220
1110.679;    8.063;   -9.500;  633.080
1111.221;    8.974;  -14.160;  604.460
1111.763;    7.852;  -13.980;  559.220
1112.304;    6.137;  -13.880;  547.140
1112.846;    8.296;  -12.210;  666.240
1113.388;   10.443;  -11.390;  942.180
1113.930;    8.332;  -14.540;  694.200
1114.472;    6.702;  -12.640;  606.540
1115.013;    5.650;  -11.620;  551.280
1115.555;    6.330;  -13.640;  587.100
1116.097;    5.793;  -15.380;  579.480
1116.638;    6.194;  -12.640;  684.600
1117.180;    6.689;   -9.850;  667.740
1117.721;    7.183;  -13.690;  568.580
1118.262;    7.113;  -12.680;  677.960
1118.804;    7.308;  -12.530;  637.340
1119.345;    6.184;  -11.690;  578.400
1119.886;    7.425;  -13.380;  704.040
1120.427;    5.712;  -14.070;  589.020
1120.969;    4.658;  -13.500;  597.920
1121.510;    4.819;  -11.480;  563.060
1122.051;    6.526;  -12.830;  723.580
1122.592;    5.275;  -14.290;  655.420
1123.133;    4.125;  -12.400;  547.940
1123.673;    6.447;  -10.130;  706.480
1124.214;    5.326;  -12.930;  612.460
1124.755;    6.264;  -14.380;  639.460
1125.296;    4.967;  -14.000;  627.320
1125.836;    5.953;  -10.070;  691.500
1126.377;    4.962;  -12.640;  599.660
1126.918;    5.545;  -12.960;  614.980
1127.458;    4.200;  -13.350;  622.220
1127.999;    5.657;  -10.750;  656.980
1128.539;    5.340;  -12.350;  694.240
1129.079;    4.559;  -14.860;  632.720
1129.620;    3.922;  -13.840;  558.100
1130.160;    4.051;  -12.330;  539.480
1130.700;    5.273;  -14.530;  640.840
1131.240;    4.405;  -12.530;  643.700
1131.781;    3.048;  -14.450;  619.680
1132.321;    3.870;   -9.790;  599.120
1132.861;    3.556;  -14.860;  564.200
1133.401;    3.004;  -14.290;  593.940
1133.941;    3.612;  -11.750;  626.280
1134.481;    3.459;   -9.920;  597.580
1135.020;    3.594;  -12.290;  609.160
1135.560;    3.887;  -11.650;  674.940
1136.100;    2.663;  -16.270;  501.160
1136.640;    2.683;  -10.890;  510.480
1137.179;    3.690;  -14.180;  537.960
1137.719;    3.637;  -16.250;  605.400
1138.258;    2.710;  -14.230;  587.360
1138.798;    3.406;   -9.090;  663.780
1139.337;    1.917;  -15.130;  482.840
1139.877;    3.069;  -13.680;  642.360
1140.416;    5.017;  -11.320;  878.060
1140.955;    2.111;  -10.860;  535.380
1141.494;    3.047;  -12.920;  669.280
1142.034;    2.311;  -13.930;  583.520
1142.573;    3.434;  -11.440;  646.280
1143.112;    2.235;  -12.000;  553.480
1143.651;    2.553;  -13.670;  536.480
1144.190;    3.467;  -12.730;  691.640
1144.729;    1.923;  -14.560;  607.420
1145.267;    2.118;  -11.830;  584.900
1145.806;    2.978;  -12.230;  637.040
1146.345;    1.301;  -14.130;  635.020
1146.884;    2.022;  -11.590;  622.500
1147.422;    1.247;  -12.550;  533.060
1147.961;    4.100;  -11.180;  708.460
1148.500;    2.281;  -11.510;  669.720
1149.038;    2.287;  -11.640;  632.500
1149.577;    1.746;  -10.130;  698.640
1150.115;   -0.157;  -13.970;  452.280
1150.653;    1.780;  -14.520;  607.340
1151.192;    1.116;  -12.810;  552.920
1151.730;    1.153;   -9.100;  652.560
1152.268;    1.217;  -12.220;  589.520
1152.806;    0.552;  -14.140;  571.180
1153.344;   -0.420;  -12.350;  577.640
1153.882;    1.166;   -8.980;  600.060
1154.421;   -0.147;  -15.190;  470.620
1154.958;   -0.056;  -15.210;  595.240
1155.496;    1.022;  -12.850;  645.280
1156.034;    0.925;   -9.940;  721.880
1156.572;    1.674;  -13.570;  667.060
1157.110;   -0.283;  -14.590;  473.940
1157.647;    0.391;  -13.030;  676.960
1158.185;   -0.528;  -12.140;  564.320
1158.723;   -1.314;  -14.390;  509.200
1159.260;    0.077;  -14.090;  701.700
1159.798;    0.741;  -11.920;  658.160
1160.335;    0.113;  -11.110;  631.820

