
Integration time [ms]:   3.276
Averaging Nr. [scans]: 1000
Smoothing Nr. [pixels]: 0
Data measured with spectrometer [name]: 7414430SP
Wave   ;Sample   ;Dark     ;Reference
[nm]   ;[counts] ;[counts] ;[counts] 

288.544;  150.460;    7.793;  793.890
289.143;  154.910;    7.462;  681.602
289.742;  153.597;    8.602;  828.814
290.341;  139.170;    1.321;  789.841
290.940;  128.122;   -0.709;  730.702
291.538;  128.485;    0.881;  881.108
292.137;  128.664;    0.122;  792.581
292.736;  133.144;   -1.929;  975.101
293.335;  129.815;   -8.229;  735.086
293.934;  129.200;   -5.279;  781.677
294.532;  127.212;   -1.369; 1031.958
295.131;  114.804;   -7.641;  834.394
295.730;  115.394;   -8.420;  809.588
296.328;  114.122;   -5.611;  783.442
296.927;  114.745;   -5.781;  779.652
297.525;  115.382;   -6.361;  781.236
298.124;  106.801;  -11.382;  654.009
298.722;  109.944;   -7.641;  761.933
299.321;  107.531;   -6.811;  708.597
299.919;  105.338;   -6.991;  751.918
300.518;  103.116;  -10.362;  689.338
301.116;  105.001;   -9.581;  691.381
301.715;  104.104;   -4.891;  730.222
302.313;  103.482;   -8.801;  704.943
302.911;   99.140;   -8.522;  733.830
303.509;  103.609;   -6.171;  925.627
304.108;  101.437;   -7.311;  760.383
304.706;  101.295;   -8.321;  801.664
305.304;   95.244;  -10.222;  796.707
305.902;  100.656;   -6.021;  784.484
306.500;   96.559;   -4.971;  728.200
307.098;   95.284;   -7.061;  746.560
307.696;   92.674;   -8.801;  780.432
308.294;   93.510;   -6.411;  731.359
308.892;   96.076;   -2.901;  759.769
309.490;   92.247;   -5.041;  712.161
310.088;   89.455;   -5.002;  788.444
310.686;   93.987;   -2.041;  821.749
311.284;   90.016;   -2.351;  766.040
311.882;   88.146;   -4.422;  731.225
312.480;   85.258;   -4.192;  697.167
313.078;   86.209;   -1.172;  808.331
313.675;   86.431;   -2.601;  691.600
314.273;   82.396;   -1.312;  797.837
314.871;   81.660;   -3.942;  589.829
315.468;   79.579;   -2.802;  652.090
316.066;   81.914;   -0.701;  694.427
316.664;   75.135;   -4.362;  656.351
317.261;   79.425;   -2.872;  910.128
317.859;   75.012;   -2.022;  768.735
318.456;   74.849;   -0.531;  830.096
319.054;   71.954;   -3.912;  787.828
319.651;   70.118;   -4.752;  759.928
320.249;   68.608;   -2.602;  810.188
320.846;   66.578;   -0.821;  714.286
321.443;   64.697;   -4.642;  832.135
322.041;   61.253;   -5.002;  812.315
322.638;   59.423;   -3.982;  701.456
323.235;   59.651;   -3.411;  665.683
323.833;   57.611;   -7.361;  740.354
324.430;   53.218;   -8.611;  615.900
325.027;   53.524;   -4.061;  876.855
325.624;   52.908;   -4.031;  644.532
326.221;   50.759;   -7.481;  689.717
326.818;   51.365;   -5.281;  818.332
327.415;   53.166;   -7.460;  748.828
328.012;   52.333;   -5.510;  690.585
328.609;   52.841;   -7.880;  731.389
329.206;   49.936;   -8.331;  778.621
329.803;   49.934;   -5.121;  737.841
330.400;   52.708;   -4.510;  704.260
330.997;   55.721;   -6.441;  817.147
331.594;   53.591;   -8.831;  788.185
332.191;   58.494;   -7.621;  728.722
332.787;   61.355;   -4.591;  844.463
333.384;   61.038;   -7.412;  763.093
333.981;   59.213;   -8.293;  815.687
334.578;   61.022;   -7.052;  708.378
335.174;   63.950;   -3.102;  731.469
335.771;   63.442;   -5.943;  836.456
336.367;   59.741;   -7.393;  710.631
336.964;   63.364;   -4.063;  793.266
337.561;   61.796;   -3.813;  731.112
338.157;   57.774;   -4.654;  911.916
338.754;   54.664;   -7.934;  796.589
339.350;   52.824;   -4.414;  722.493
339.946;   54.660;   -4.664;  773.135
340.543;   47.214;   -6.375;  846.136
341.139;   41.797;   -9.815;  720.836
341.735;   40.227;   -4.526;  772.593
342.332;   37.646;   -4.895;  691.472
342.928;   38.498;   -4.295;  795.394
343.524;   33.725;   -5.476;  761.684
344.120;   29.742;   -5.856;  738.562
344.716;   31.697;   -2.155;  723.717
345.313;   31.135;   -6.275;  795.342
345.909;   25.424;   -8.815;  627.336
346.505;   27.031;   -5.305;  740.247
347.101;   27.992;   -2.674;  827.864
347.697;   28.596;   -4.344;  785.398
348.293;   23.197;   -9.975;  627.244
348.889;   23.372;   -5.774;  745.914
349.485;   23.108;   -5.004;  688.205
350.081;   23.837;   -4.704;  772.592
350.676;   19.159;   -6.635;  691.606
351.272;   22.667;   -4.504;  809.530
351.868;   22.569;   -3.914;  780.497
352.464;   20.683;   -9.044;  723.932
353.059;   17.053;   -8.314;  646.017
353.655;   19.902;   -7.024;  777.063
354.251;   20.836;   -5.343;  759.845
354.846;   15.179;   -8.604;  740.646
355.442;   13.211;   -6.945;  753.071
356.038;   15.009;   -7.564;  751.708
356.633;   14.803;   -5.814;  728.594
357.229;   13.384;   -7.364;  724.757
357.824;   11.377;   -8.024;  703.600
358.420;   10.609;   -9.384;  679.726
359.015;   11.461;   -5.104;  695.357
359.610;   12.963;   -6.854;  763.920
360.206;    6.242;  -10.185;  603.240
360.801;    8.855;   -7.054;  646.503
361.396;   12.190;   -5.034;  725.975
361.992;    7.395;   -8.284;  668.220
362.587;    4.610;   -8.625;  670.160
363.182;    6.971;   -7.674;  689.631
363.777;    7.073;   -5.164;  738.242
364.372;    7.309;   -8.604;  737.314
364.967;    3.350;   -9.055;  680.744
365.563;    6.622;   -6.114;  815.567
366.158;    4.088;   -5.814;  685.161
366.753;    5.267;   -7.854;  649.263
367.348;    4.336;   -7.804;  746.056
367.942;    3.299;   -7.954;  697.298
368.537;    2.299;   -4.984;  754.245
369.132;    3.120;   -8.564;  703.428
369.727;   -0.800;   -8.855;  638.079
370.322;    0.504;   -6.245;  580.186
370.917;   -0.770;   -6.425;  710.646
371.511;    2.879;   -6.294;  861.834
372.106;   -0.349;   -7.685;  776.964
372.701;   -3.628;   -7.335;  585.988
373.296;    1.294;   -4.564;  863.135
373.890;   -3.194;  -10.235;  647.840
374.485;   -5.529;   -7.885;  691.199
375.079;   -1.244;   -7.324;  738.685
375.674;    0.152;   -3.494;  812.970
376.268;   -3.863;   -8.525;  691.759
376.863;   -9.710;  -10.086;  580.327
377.457;   -4.315;   -7.025;  662.490
378.052;   -5.744;   -3.585;  764.884
378.646;   -6.619;   -7.595;  741.167
379.240;   -6.067;   -8.335;  721.176
379.835;   -4.724;   -5.785;  636.978
380.429;   -7.541;   -4.335;  562.557
381.023;   -7.091;   -6.805;  779.205
381.617;   -9.835;   -9.195;  680.106
382.212;   -6.253;   -6.905;  685.303
382.806;   -6.002;   -3.745;  760.690
383.400;   -9.621;   -7.745;  672.281
383.994;  -11.179;   -9.765;  664.870
384.588;   -6.442;   -6.564;  697.701
385.182;   -5.711;   -5.344;  726.624
385.776;   -7.099;   -8.514;  706.875
386.370;   -9.906;   -9.555;  681.968
386.964;   -9.541;   -8.715;  684.155
387.558;   -7.202;   -6.174;  598.360
388.152;  -11.754;   -8.725;  681.959
388.745;   -8.665;   -7.965;  814.707
389.339;   -7.595;   -5.924;  747.642
389.933;   -7.056;   -5.524;  695.370
390.527;   -7.667;   -7.114;  859.029
391.120;  -13.150;  -10.725;  595.318
391.714;  -11.157;   -8.035;  711.633
392.308;   -7.557;   -3.574;  780.253
392.901;  -11.392;   -7.245;  642.460
393.495;  -12.905;   -9.285;  595.414
394.089;  -10.926;   -5.895;  760.452
394.682;  -11.598;   -4.295;  697.188
395.275;  -11.379;   -9.875;  719.927
395.869;  -13.833;   -8.485;  667.314
396.462;  -11.375;   -7.455;  616.609
397.056;   -7.977;   -5.424;  776.621
397.649;  -12.338;   -6.605;  731.575
398.242;   -9.931;   -8.224;  712.645
398.836;   -9.005;   -7.474;  766.408
399.429;  -10.150;   -7.094;  631.041
400.022;  -13.618;   -9.475;  665.902
400.615;  -10.901;   -7.145;  805.609
401.208;   -9.704;   -7.174;  691.451
401.802;  -10.803;   -5.515;  699.329
402.395;  -12.285;   -9.875;  683.502
402.988;  -13.867;   -8.845;  696.627
403.581;  -10.001;   -8.874;  646.878
404.174;   -8.057;   -5.324;  686.568
404.767;  -10.402;   -9.575;  638.583
405.360;  -12.476;  -10.965;  621.445
405.953;   -7.448;   -8.764;  759.034
406.545;   -8.005;   -7.514;  725.342
407.138;  -11.172;  -10.025;  618.350
407.731;  -10.505;  -10.034;  613.303
408.324;   -6.431;   -9.374;  660.554
408.917;   -7.381;   -6.534;  681.864
409.509;   -8.886;   -8.004;  740.396
410.102;  -11.044;   -9.875;  643.948
410.695;   -5.256;   -8.604;  665.758
411.287;   -6.220;   -6.794;  599.821
411.880;   -7.184;   -9.334;  585.421
412.472;  -10.015;  -10.254;  613.092
413.065;   -7.060;   -6.714;  629.408
413.657;   -5.220;   -7.234;  576.678
414.250;   -4.838;  -10.544;  646.681
414.842;   -6.557;   -9.744;  676.353
415.434;   -4.781;   -6.994;  570.463
416.027;   -0.974;   -5.893;  652.196
416.619;   -2.379;   -7.264;  713.400
417.211;   -2.510;  -10.374;  599.352
417.804;    1.210;   -7.993;  628.499
418.396;   -3.473;   -7.234;  607.643
418.988;   -0.813;   -9.443;  659.238
419.580;   -4.231;  -10.724;  568.276
420.172;   -1.725;  -10.323;  536.196
420.764;    2.191;   -8.793;  672.482
421.356;    0.633;  -11.143;  636.898
421.948;    0.192;   -8.293;  677.661
422.540;    5.228;   -7.893;  680.027
423.132;    4.215;   -7.082;  600.641
423.724;    1.623;   -8.653;  561.267
424.316;    2.891;  -10.213;  621.345
424.908;    6.354;   -9.762;  591.517
425.500;    6.458;   -5.572;  647.978
426.092;    7.601;   -8.422;  648.268
426.683;    6.727;   -9.283;  684.836
427.275;    9.537;   -7.852;  641.471
427.867;   10.876;   -5.272;  668.948
428.458;   11.602;   -7.682;  732.344
429.050;    9.996;  -10.612;  680.749
429.642;   11.789;   -9.882;  743.124
430.233;   12.583;   -6.962;  569.356
430.825;   14.517;   -6.842;  724.809
431.416;   11.542;   -9.672;  698.241
432.008;   15.079;   -6.552;  651.723
432.599;   16.154;   -6.891;  656.073
433.190;   12.863;  -10.912;  637.670
433.782;   12.182;  -11.172;  590.395
434.373;   19.619;   -6.061;  884.765
434.964;   17.348;   -8.251;  602.920
435.556;   15.921;   -9.722;  634.537
436.147;   18.950;   -9.082;  758.490
436.738;   19.299;   -8.041;  701.099
437.329;   23.678;   -7.341;  721.723
437.920;   17.033;   -8.162;  666.688
438.511;   17.929;  -11.802;  564.526
439.103;   24.253;  -10.191;  623.998
439.694;   25.070;   -7.601;  681.583
440.285;   26.593;   -8.541;  764.432
440.876;   24.634;   -9.751;  845.738
441.466;   23.865;   -9.401;  575.162
442.057;   28.903;   -7.760;  665.814
442.648;   27.942;   -9.971;  746.255
443.239;   25.833;  -11.001;  620.477
443.830;   31.250;   -7.990;  704.958
444.421;   33.205;   -7.910;  655.474
445.011;   29.484;   -8.131;  693.619
445.602;   29.173;   -7.111;  743.126
446.193;   32.091;  -10.920;  488.117
446.783;   35.643;   -6.500;  640.397
447.374;   31.890;   -8.671;  692.759
447.964;   32.291;  -10.781;  713.770
448.555;   40.265;   -9.650;  822.742
449.145;   37.004;   -8.660;  662.853
449.736;   37.780;   -8.990;  803.179
450.326;   37.833;   -9.500;  713.626
450.917;   42.204;   -8.680;  675.324
451.507;   41.513;   -7.520;  600.661
452.097;   42.797;   -8.590;  746.267
452.688;   43.362;  -11.340;  742.160
453.278;   43.706;  -10.100;  566.840
453.868;   47.622;   -6.019;  793.550
454.458;   46.568;   -9.440;  651.141
455.048;   46.404;  -10.560;  711.783
455.639;   47.879;  -11.799;  567.096
456.229;   51.120;   -6.899;  710.694
456.819;   53.582;   -7.389;  751.158
457.409;   53.703;  -11.119;  773.993
457.999;   55.953;   -9.289;  737.505
458.589;   55.500;   -6.139;  686.606
459.179;   55.620;   -8.729;  717.658
459.769;   54.184;   -9.789;  627.099
460.358;   59.295;  -10.259;  797.262
460.948;   58.839;   -7.299;  689.503
461.538;   60.202;  -10.289;  660.677
462.128;   58.689;  -11.269;  664.934
462.717;   65.059;   -9.368;  710.326
463.307;   67.911;   -7.908;  705.846
463.897;   64.113;   -9.599;  656.942
464.486;   63.798;   -9.769;  837.128
465.076;   68.141;   -8.048;  733.776
465.666;   71.743;   -9.358;  652.900
466.255;   69.432;   -7.919;  785.651
466.845;   68.357;  -11.689;  666.749
467.434;   71.468;   -7.818;  725.873
468.023;   72.612;   -7.678;  658.357
468.613;   70.271;  -10.939;  713.946
469.202;   74.506;  -10.118;  646.507
469.791;   78.796;   -9.108;  737.811
470.381;   81.010;   -6.058;  742.813
470.970;   81.176;  -10.428;  711.099
471.559;   80.595;  -10.268;  733.291
472.148;   83.579;   -8.448;  675.737
472.738;   85.715;   -6.917;  765.466
473.327;   85.949;  -11.978;  637.529
473.916;   85.706;  -11.888;  737.446
474.505;   89.898;   -9.437;  751.703
475.094;   92.690;   -6.747;  806.570
475.683;   92.781;   -9.367;  797.699
476.272;   93.579;  -12.637;  730.632
476.861;   96.743;  -10.027;  706.754
477.449;  101.986;   -8.716;  728.487
478.038;   97.506;   -9.577;  692.513
478.627;   98.569;   -9.718;  714.852
479.216;  104.814;   -8.947;  769.441
479.805;  108.117;   -6.256;  783.375
480.393;  108.554;   -7.937; 1008.945
480.982;  108.088;   -7.717;  874.501
481.571;  113.545;   -9.266;  858.333
482.159;  114.506;   -7.636;  705.386
482.748;  114.344;   -9.667;  821.385
483.336;  118.617;  -10.376;  858.209
483.925;  120.257;   -7.147;  774.373
484.513;  126.576;   -7.996;  758.962
485.102;  124.103;  -10.027;  810.965
485.690;  132.929;  -10.446; 1011.050
486.278;  134.467;   -8.446;  979.329
486.867;  135.630;   -6.356;  809.662
487.455;  137.658;   -9.136;  898.229
488.043;  139.399;  -10.646;  748.361
488.631;  148.894;   -7.456; 1005.079
489.220;  153.960;   -6.636;  908.626
489.808;  153.244;  -11.036;  741.415
490.396;  162.396;  -10.246;  914.645
490.984;  170.241;   -8.556;  830.161
491.572;  180.250;   -5.886;  940.315
492.160;  187.724;   -9.486;  919.081
492.748;  202.497;  -10.976;  884.341
493.336;  228.804;   -8.776; 1019.693
493.924;  260.933;   -5.465;  958.077
494.512;  294.576;   -9.986; 1066.638
495.100;  340.390;  -10.636; 1103.280
495.687;  404.904;  -10.885; 1206.373
496.275;  481.429;   -8.126; 1150.796
496.863;  563.939;  -10.586; 1281.171
497.451;  684.342;  -11.926; 1386.805
498.038;  838.670;  -10.885; 1556.729
498.626;  966.356;   -6.315; 1741.407
499.214; 1140.813;   -7.326; 2016.609
499.801; 1378.411;  -11.906; 2220.633
500.389; 1667.574;  -10.466; 2312.494
500.976; 2034.671;   -5.236; 2744.849
501.564; 2555.855;   -8.936; 3148.565
502.151; 2989.987;  -13.176; 3515.999
502.738; 3504.975;  -10.646; 3971.274
503.326; 3940.109;   -9.525; 4403.796
503.913; 4387.957;  -10.856; 5161.749
504.500; 4807.960;  -11.586; 5986.420
505.088; 5273.217;  -10.336; 6381.201
505.675; 5873.017;   -6.355; 6925.547
506.262; 6665.917;   -9.046; 7619.060
506.849; 7482.233;  -10.416; 8733.969
507.436; 8013.106;  -10.305; 9790.121
508.023; 8629.974;   -5.496; 9985.472
508.610; 8879.908;   -7.856;10434.618
509.197; 9527.892;  -10.097;11198.435
509.784;11000.598;  -10.886;12391.194
510.371;12221.026;   -9.315;13603.713
510.958;13044.992;   -9.936;14426.586
511.545;13854.806;   -9.326;15243.775
512.132;14719.206;  -10.075;15945.876
512.719;15281.911;   -7.796;16340.369
513.305;16361.724;  -10.606;18011.766
513.892;17238.152;  -11.486;19754.971
514.479;18612.178;   -9.126;20967.805
515.066;20152.234;   -6.026;22299.793
515.652;21623.242;   -8.466;22908.660
516.239;22983.688;  -10.886;23798.875
516.825;23940.887;  -11.496;25567.275
517.412;25017.463;   -5.796;28154.959
517.998;25673.092;  -10.506;28344.111
518.585;25762.256;  -10.076;27134.219
519.171;26152.553;   -8.315;27268.576
519.758;27707.387;   -8.596;28964.129
520.344;29573.596;   -8.466;30664.494
520.930;29436.457;  -11.006;32550.605
521.516;30773.590;  -10.495;35422.895
522.103;33006.055;   -5.526;38280.004
522.689;33527.898;   -8.746;37835.117
523.275;32970.594;  -11.376;37288.613
523.861;34309.926;  -11.156;37281.395
524.447;36080.504;   -8.135;37846.949
525.033;35942.688;   -7.896;38321.949
525.619;35998.398;  -12.476;38579.285
526.205;37440.086;   -9.516;40622.875
526.791;39940.352;   -6.926;42258.836
527.377;40052.789;   -8.346;42966.902
527.963;41336.523;   -8.717;42018.949
528.549;39826.496;  -11.016;42476.828
529.135;38655.199;   -8.536;41854.852
529.721;37910.141;   -9.666;41237.711
530.306;37348.094;  -10.066;41259.445
530.892;37021.613;  -11.356;41506.047
531.478;38345.953;   -6.596;43559.613
532.063;41346.004;   -8.836;47695.563
532.649;41815.426;  -10.047;50808.324
533.235;42702.938;   -9.746;51787.500
533.820;43266.941;   -6.566;52145.035
534.406;44806.445;  -10.817;51133.488
534.991;44431.855;   -9.416;49996.805
535.576;42605.914;   -9.036;48882.852
536.162;43139.578;   -6.156;46942.285
536.747;44279.445;  -11.607;45711.746
537.333;48195.801;  -11.787;48510.180
537.918;50899.449;  -12.437;50439.891
538.503;49467.039;   -7.196;50863.711
539.088;46085.957;  -10.556;50906.922
539.673;46111.238;   -8.767;52621.965
540.259;46218.781;  -10.026;52368.094
540.844;43823.941;   -7.416;50879.109
541.429;45318.051;   -9.467;52077.777
542.014;47965.262;   -9.527;52716.695
542.599;47132.188;   -9.946;52363.281
543.184;44720.539;   -7.927;53187.137
543.769;46435.590;   -9.297;54697.605
544.354;46118.430;  -10.127;53913.914
544.938;44778.887;   -9.267;49680.164
545.523;46481.691;   -6.506;47386.277
546.108;49268.105;   -9.787;49151.949
546.693;51276.988;  -11.587;51384.637
547.278;51251.582;  -10.986;51853.254
547.862;48509.230;   -8.206;51173.750
548.447;44145.047;  -10.067;51691.395
549.031;43583.473;   -9.637;52456.703
549.616;48484.438;   -9.926;52714.516
550.201;47669.813;   -6.347;52414.598
550.785;48834.895;   -7.917;52355.059
551.370;47832.879;  -10.867;54589.453
551.954;47499.242;   -9.047;58267.348
552.538;48351.566;   -7.827;59062.176
553.123;46764.750;  -10.287;58115.285
553.707;44372.793;  -12.178;56556.285
554.291;45918.852;   -8.717;56201.668
554.876;48436.055;   -7.457;55335.762
555.460;48675.453;  -10.387;54155.703
556.044;49517.219;   -9.618;53721.484
556.628;47908.258;  -11.567;53731.016
557.212;46655.039;   -8.097;54312.531
557.796;45265.125;  -11.077;53797.773
558.380;45537.551;  -11.108;56145.984
558.964;46136.875;   -9.057;57277.930
559.548;47320.395;   -6.977;56459.641
560.132;45354.813;  -11.457;54434.543
560.716;44023.453;  -11.378;54800.617
561.300;45014.680;   -9.577;57606.945
561.884;46057.082;   -7.127;58972.445
562.467;44416.613;   -7.118;57327.570
563.051;43755.465;  -13.358;54962.434
563.635;45011.133;  -10.178;52594.473
564.219;45408.234;   -7.837;50610.410
564.802;46478.758;  -11.398;49551.180
565.386;46314.867;  -12.788;48370.953
565.969;45604.961;   -9.077;48178.871
566.553;44704.367;   -6.207;49957.305
567.136;45174.918;   -8.568;50369.594
567.720;41654.902;  -11.868;49492.004
568.303;39386.965;   -8.268;50616.352
568.887;39335.707;   -8.698;50727.148
569.470;39688.211;   -6.808;51698.379
570.053;38327.426;  -13.188;52122.078
570.637;36517.730;  -12.037;52536.438
571.220;36570.152;   -8.577;51186.098
571.803;37402.625;   -8.498;51032.762
572.386;39860.082;  -10.498;49609.887
572.969;42527.504;   -9.388;48285.926
573.552;40474.816;   -8.338;47624.285
574.135;38848.934;   -8.518;45498.641
574.718;36376.371;  -13.628;41970.434
575.301;35400.910;  -10.893;41447.137
575.884;34425.453;   -8.158;40923.836
576.467;35527.918;  -10.328;45267.723
577.050;37827.375;  -13.058;48175.543
577.633;39376.719;   -9.458;47729.328
578.216;38540.594;   -8.928;47579.793
578.799;37670.934;   -9.358;47820.996
579.381;36439.129;  -11.388;48115.551
579.964;34609.105;  -11.718;47333.766
580.547;36042.383;   -8.588;46668.969
581.129;36908.906;   -8.859;44466.141
581.712;37702.527;  -10.729;44164.922
582.294;38337.156;  -11.118;46477.855
582.877;38429.016;   -5.218;48244.254
583.459;36104.063;   -8.679;47437.895
584.042;33923.188;  -10.709;46943.219
584.624;34294.031;  -11.669;46792.227
585.206;33846.773;   -8.218;46557.250
585.789;33891.688;  -10.569;45793.773
586.371;36863.320;  -11.859;43836.391
586.953;37255.680;  -10.719;42972.492
587.536;38832.371;   -7.198;42487.211
588.118;39042.215;   -8.720;42086.414
588.700;35423.160;  -10.439;43389.930
589.282;34408.043;   -9.198;43646.039
589.864;35108.129;   -9.199;43438.109
590.446;36077.879;  -11.319;43151.926
591.028;35940.477;  -11.159;42781.867
591.610;34881.750;  -11.779;42839.098
592.192;32220.488;   -7.668;42820.402
592.774;30731.756;  -11.949;40724.277
593.356;29538.346;  -12.129;39874.789
593.937;28491.816;  -10.669;39980.648
594.519;30724.668;   -6.509;42069.633
595.101;33070.539;  -10.849;42976.031
595.683;33198.719;  -11.679;44084.441
596.264;34167.238;   -9.049;43478.797
596.846;33493.426;   -8.849;43803.672
597.427;33407.000;   -9.570;42986.934
598.009;35135.605;  -12.620;42832.219
598.591;35715.988;  -10.039;42580.086
599.172;34987.367;  -10.369;43061.805
599.753;35033.848;   -9.140;41691.469
600.335;36367.516;  -11.430;40692.520
600.916;34497.316;   -9.939;39982.422
601.498;32120.293;   -8.479;40318.617
602.079;30538.225;  -10.920;40670.609
602.660;30424.631;  -11.480;41450.898
603.241;32103.197;  -11.699;41137.738
603.823;30723.354;   -9.579;38868.797
604.404;30300.736;  -10.620;38182.785
604.985;32009.619;  -10.450;38078.047
605.566;31841.365;   -9.129;38056.633
606.147;31837.855;   -7.510;37020.418
606.728;33327.563;  -10.660;37883.359
607.309;31903.824;  -11.740;38748.273
607.890;31393.119;   -9.759;38850.230
608.471;30840.791;   -8.250;37457.918
609.051;29971.564;   -9.240;36066.457
609.632;28850.494;  -12.120;35991.074
610.213;29653.979;   -9.110;37402.641
610.794;30516.744;   -8.030;38383.363
611.374;30085.047;   -8.110;40562.387
611.955;30632.029;  -13.560;38533.727
612.536;31987.166;  -11.400;36951.789
613.116;31970.529;   -8.070;37197.891
613.697;32164.719;  -10.830;38411.125
614.277;30449.619;  -11.641;38673.938
614.858;31432.035;  -13.310;37075.863
615.438;30656.426;   -7.460;35092.906
616.019;27865.332;   -7.601;33666.301
616.599;28589.910;  -12.020;34189.023
617.179;30385.053;  -11.780;36952.047
617.760;31345.980;   -8.570;39582.574
618.340;32410.027;  -11.471;38943.977
618.920;33656.473;  -11.170;37594.156
619.500;33568.672;  -11.071;37866.938
620.080;32743.027;   -7.750;37869.043
620.660;33979.297;  -12.711;36868.617
621.241;35242.371;  -10.211;36352.309
621.821;35284.574;  -10.961;35459.520
622.401;34245.313;   -7.720;35207.414
622.980;33449.469;   -8.981;35980.422
623.560;32024.502;   -9.331;37351.328
624.140;30905.580;   -9.850;34388.582
624.720;25637.811;   -7.451;32368.764
625.300;21920.309;   -9.070;32638.629
625.880;25225.588;  -12.601;34599.035
626.459;29204.307;  -11.751;36831.738
627.039;32235.004;   -9.281;38299.098
627.619;32107.174;   -8.801;38289.574
628.198;30497.793;  -12.071;37220.695
628.778;29714.754;   -9.461;37632.563
629.357;30430.486;   -8.491;38003.012
629.937;30439.773;   -9.721;38402.039
630.516;29957.014;   -9.951;37868.801
631.096;29595.977;  -11.731;35760.410
631.675;32347.834;   -8.572;35225.219
632.254;37411.508;  -11.282;35130.289
632.834;36791.672;  -13.322;35794.570
633.413;34984.527;  -10.301;35788.922
633.992;32198.570;   -8.582;34532.863
634.571;32868.254;   -8.352;33590.113
635.151;35841.566;  -11.912;34943.863
635.730;34215.082;  -10.511;35352.523
636.309;30634.223;   -7.731;35366.605
636.888;27991.848;   -9.952;36165.637
637.467;28593.107;  -11.672;37515.902
638.046;30229.473;   -8.901;39288.695
638.625;33555.469;   -7.912;38279.699
639.204;33398.648;  -10.022;37741.598
639.782;31969.992;  -12.252;38364.551
640.361;28220.496;  -10.041;36740.621
640.940;25545.287;  -11.161;34950.082
641.519;26020.066;   -9.701;34137.398
642.097;28787.385;  -11.271;35654.258
642.676;31712.119;   -8.651;35637.957
643.255;32502.039;   -8.711;36567.074
643.833;31815.000;   -9.581;37809.434
644.412;31683.596;  -13.711;37337.293
644.990;30478.498;  -11.811;37018.531
645.569;30402.275;   -9.411;36518.469
646.147;29531.877;  -10.291;36186.430
646.726;29345.908;  -12.401;36267.688
647.304;30515.393;  -10.411;36647.625
647.882;32438.424;   -9.651;39286.742
648.461;34111.285;   -9.631;39157.703
649.039;32141.100;  -11.881;35412.883
649.617;31398.885;   -9.661;34744.918
650.195;31151.514;   -9.301;35403.098
650.773;29649.121;  -10.511;35053.797
651.352;27113.145;  -11.521;33756.816
651.930;24718.031;  -12.211;31868.773
652.508;23138.096;   -9.171;33121.551
653.086;27197.482;   -9.371;33564.793
653.663;30059.635;  -13.161;34054.668
654.241;28728.623;  -13.031;35693.309
654.819;30366.328;   -9.371;36422.906
655.397;30580.742;  -10.511;38213.484
655.975;30096.105;  -10.371;39507.625
656.553;29784.055;  -10.051;39498.223
657.130;28463.650;  -10.061;40395.480
657.708;27858.887;   -9.561;39242.020
658.286;27924.471;  -11.511;38920.020
658.863;29088.654;  -10.261;40202.898
659.441;32131.090;   -7.531;39677.938
660.018;31557.725;   -9.501;40413.355
660.596;30322.871;  -13.301;39931.414
661.173;32424.436;  -11.211;39604.531
661.750;32703.471;   -9.951;39700.070
662.328;31397.584;   -9.390;39292.809
662.905;30347.568;  -11.330;38235.648
663.482;26092.082;   -9.050;36212.305
664.060;24381.063;   -8.240;35944.945
664.637;27150.547;  -10.050;35170.785
665.214;28911.969;  -11.760;34197.523
665.791;30390.023;  -10.530;34549.520
666.368;29210.828;   -9.690;35118.578
666.945;30091.275;   -9.320;36019.418
667.522;31604.648;  -11.860;36048.438
668.099;31135.414;  -10.770;36243.914
668.676;29975.906;   -6.260;35958.875
669.253;28826.523;   -7.000;37384.730
669.830;29512.467;  -10.190;36779.629
670.407;29238.010;   -9.550;35231.289
670.984;29238.885;   -9.260;35544.270
671.560;29762.504;   -9.280;35466.867
672.137;28933.676;  -11.810;34280.863
672.714;29813.258;  -11.490;34632.863
673.290;30503.750;   -7.740;35135.422
673.867;30580.191;  -10.660;36114.480
674.443;30524.725;  -12.230;36152.859
675.020;28944.840;  -10.450;35327.238
675.596;30088.271;   -9.260;35795.176
676.173;30562.939;  -10.780;35430.355
676.749;30208.953;  -13.690;33549.516
677.326;29887.014;  -11.980;32210.012
677.902;29705.740;   -8.630;32068.871
678.478;29072.713;  -10.730;32583.891
679.054;28543.922;  -10.520;32088.928
679.631;28985.291;  -11.920;30978.848
680.207;30492.434;   -7.490;33160.887
680.783;31977.566;   -9.860;35570.363
681.359;30920.176;  -13.380;36125.184
681.935;30330.076;  -12.480;35240.922
682.511;29684.646;   -7.900;34429.961
683.087;29884.705;   -7.710;34463.680
683.663;29481.824;  -11.480;34648.898
684.239;28236.980;  -14.090;34546.457
684.815;27940.025;   -7.560;35586.375
685.390;28333.922;   -9.910;35821.895
685.966;28925.082;  -11.159;35085.871
686.542;31423.734;  -11.169;34198.230
687.118;33509.930;   -5.959;32847.707
687.693;33465.707;  -10.329;32794.027
688.269;33090.188;  -12.059;33072.367
688.844;31191.596;  -10.909;33141.664
689.420;29060.416;   -8.019;33965.742
689.995;26902.852;   -8.399;34655.523
690.571;25689.887;  -10.949;33576.742
691.146;26145.320;   -9.619;32657.219
691.722;25683.271;   -8.999;32526.979
692.297;25412.805;  -11.589;33014.617
692.872;27094.699;  -11.739;34012.254
693.448;26738.654;  -11.059;34237.434
694.023;25915.719;  -10.139;34142.672
694.598;28002.988;   -9.029;34132.031
695.173;28321.969;  -13.319;34205.250
695.748;27657.938;  -10.169;32882.488
696.323;27784.619;   -8.339;32864.906
696.898;27951.439;   -8.169;33170.004
697.473;27659.455;  -12.309;32432.984
698.048;26887.811;  -10.989;31649.303
698.623;26781.301;   -9.329;30778.141
699.198;28693.012;   -9.849;31140.119
699.773;29622.861;  -12.329;31764.299
700.348;27981.031;  -10.389;31780.816
700.922;28114.744;   -9.269;32046.375
701.497;28970.734;   -9.329;32603.574
702.072;28985.939;  -10.789;34799.871
702.646;27620.416;  -10.839;35793.172
703.221;25871.389;   -9.099;35201.590
703.795;28021.271;  -10.939;34764.527
704.370;28297.523;  -12.859;34307.367
704.944;28596.014;  -11.559;33509.887
705.519;29534.191;   -7.939;31388.584
706.093;31020.594;  -10.499;31340.104
706.668;31316.402;  -11.289;32630.281
707.242;30246.711;  -11.509;32728.779
707.816;28729.383;   -9.639;32947.238
708.390;27293.391;  -11.429;33277.855
708.965;27753.566;  -11.869;33834.336
709.539;27682.803;  -11.689;33709.273
710.113;28171.096;  -10.478;33044.313
710.687;27584.275;  -10.228;31953.992
711.261;25994.125;  -13.698;30505.949
711.835;25918.285;  -13.378;30262.369
712.409;26544.053;   -9.698;31254.447
712.983;28340.861;  -11.898;32754.986
713.557;29328.727;  -15.138;34018.824
714.131;28798.564;  -14.098;34579.625
714.704;27648.574;   -9.958;33890.262
715.278;25504.898;  -10.028;33531.102
715.852;24584.182;  -11.148;33601.660
716.425;25536.936;   -9.068;33515.117
716.999;26363.336;  -10.038;33185.555
717.573;27352.951;   -9.798;33905.996
718.146;28335.350;  -12.378;35199.293
718.720;28361.676;  -11.918;35060.551
719.293;27922.918;   -8.088;34973.230
719.867;30736.711;  -10.888;36394.449
720.440;30429.322;  -11.938;36663.008
721.013;28741.229;  -12.818;35102.426
721.587;27305.404;  -10.298;33985.266
722.160;26468.035;  -10.048;33524.965
722.733;25454.504;  -12.108;32987.043
723.306;25699.334;  -10.818;33066.301
723.880;28030.928;   -8.908;33399.500
724.453;29985.891;   -9.878;33468.297
725.026;29046.510;  -11.188;33816.637
725.599;26413.008;  -11.678;32797.996
726.172;26862.625;   -9.618;33187.434
726.745;28006.012;   -8.258;35136.613
727.318;29219.859;  -12.978;35751.730
727.891;29547.270;  -12.148;35890.430
728.463;29265.086;   -8.968;34822.090
729.036;28348.262;  -10.188;32895.086
729.609;28772.510;  -11.788;31823.225
730.182;25809.301;  -11.788;31445.283
730.754;23334.344;  -10.268;32373.223
731.327;23470.652;   -9.998;33676.820
731.900;23886.102;  -12.228;33417.000
732.472;25080.533;  -13.848;31978.498
733.045;26900.168;   -8.698;30368.777
733.617;26889.268;  -10.607;30574.215
734.190;26401.725;  -11.507;31280.975
734.762;23690.861;  -13.647;31674.412
735.334;22027.730;   -9.767;31247.291
735.907;22491.330;   -9.897;29876.211
736.479;22606.660;  -11.637;29808.488
737.051;22540.445;   -9.567;30233.547
737.623;23590.182;   -8.187;31469.086
738.195;24329.365;  -11.187;31784.225
738.768;26271.352;  -12.337;32120.523
739.340;26561.033;  -12.227;32094.342
739.912;25428.514;  -11.057;31312.680
740.484;23922.633;  -10.207;31946.238
741.056;22727.211;  -10.047;32984.059
741.628;24367.957;  -13.627;33897.715
742.199;26504.645;   -7.177;33213.016
742.771;24930.840;  -10.797;31369.113
743.343;22756.953;  -11.997;31865.473
743.915;21812.010;  -12.867;32388.631
744.487;21885.742;   -7.617;31079.568
745.058;22045.396;   -9.557;30570.107
745.630;22462.217;   -9.877;29970.127
746.201;23468.104;  -14.177;29186.766
746.773;24127.203;   -9.237;28805.723
747.344;23997.693;   -9.847;29591.223
747.916;22467.715;  -11.657;31412.201
748.487;22645.102;  -10.587;32194.898
749.059;23885.113;   -8.707;32533.719
749.630;24606.633;  -10.537;32158.518
750.201;23667.449;  -11.687;30855.395
750.773;21891.400;  -11.647;28622.555
751.344;21785.424;   -7.147;28405.732
751.915;22939.604;   -9.757;28461.551
752.486;22843.508;  -12.427;27842.850
753.057;20639.338;  -12.227;27845.008
753.628;19475.412;  -10.417;27728.107
754.199;20440.416;  -11.767;27381.086
754.770;21321.082;  -11.187;25882.203
755.341;21451.594;  -10.507;25886.184
755.912;21650.205;   -9.387;26050.861
756.483;21221.867;  -10.647;26798.779
757.054;19354.967;  -11.837;27048.238
757.625;18013.861;  -12.716;26294.838
758.195;17770.850;   -9.666;26142.076
758.766;17567.938;   -8.656;26392.234
759.337;18273.076;  -12.856;26334.594
759.907;19798.078;  -13.366;27579.652
760.478;20655.320;   -8.576;28352.770
761.048;20064.670;  -10.526;27325.088
761.619;19218.660;  -11.116;26460.428
762.189;19301.152;  -12.136;26029.826
762.760;20450.338;   -9.456;26430.145
763.330;21499.340;   -7.136;26670.902
763.900;20909.943;  -11.786;26603.021
764.471;18326.049;  -11.546;25542.740
765.041;17021.863;   -8.096;24358.459
765.611;17049.207;   -8.876;23991.297
766.181;17449.078;  -12.196;24470.236
766.751;18382.357;  -11.636;24845.975
767.321;18079.559;  -10.156;24533.633
767.891;16111.086;  -11.766;24916.492
768.461;15618.656;  -14.936;24776.771
769.031;16265.757;  -12.356;24757.988
769.601;17798.516;   -7.526;24181.088
770.171;17530.541;  -10.766;23670.387
770.741;16721.027;  -13.176;22960.045
771.311;16897.607;  -10.616;22917.523
771.880;17280.688;   -9.576;23562.941
772.450;17034.318;  -10.336;24216.500
773.020;17051.828;  -13.516;24140.398
773.589;16311.363;  -13.466;24414.857
774.159;15622.021;   -8.686;23858.717
774.729;15252.338;   -9.476;22942.135
775.298;14779.938;  -13.666;22324.033
775.867;14384.440;  -11.716;21140.313
776.437;14474.795;   -9.906;20838.092
777.006;14289.745;  -12.166;20599.510
777.576;14055.754;  -12.356;20508.809
778.145;14068.859;  -11.646;20732.947
778.714;13968.095;   -8.226;21062.465
779.283;13302.917;   -9.556;20949.664
779.853;12779.717;  -14.116;20508.623
780.422;13216.876;  -11.506;20649.082
780.991;12747.951;   -9.556;21527.520
781.560;11618.750;   -9.095;22632.658
782.129;11470.649;  -12.135;23048.277
782.698;11491.012;  -10.865;23438.555
783.267;11011.450;   -9.335;23267.734
783.836;10907.317;  -11.045;22415.133
784.404;11860.461;  -13.865;20443.152
784.973;12380.646;  -13.095;19699.150
785.542;12273.404;  -11.575;19763.828
786.111;12012.216;   -9.705;20341.408
786.679;11483.664;  -12.105;20207.967
787.248;11259.852;  -12.455;19516.465
787.817;11080.491;  -11.535;18900.363
788.385;10667.996;   -9.765;17879.121
788.954;10143.602;  -14.005;17658.301
789.522; 9704.531;  -11.955;17788.879
790.090;10198.163;  -10.135;18118.277
790.659;10538.852;  -10.975;18338.736
791.227;10047.350;  -13.375;18508.615
791.795;10391.886;  -12.375;17898.254
792.364;10686.052;  -10.725;17295.133
792.932;10973.403;   -9.715;16822.051
793.500;11111.809;  -12.675;17040.148
794.068;11323.403;  -13.495;17179.787
794.636;11392.190;  -10.885;16664.246
795.204;10777.517;  -11.045;16524.545
795.772;10793.655;  -13.175;17274.564
796.340;10349.989;  -12.445;17891.002
796.908;10124.636;   -9.735;17648.561
797.476; 9975.768;   -9.815;17064.080
798.044; 9560.009;  -13.985;16672.777
798.612; 8835.412;  -13.115;17023.996
799.180; 8488.951;  -10.185;16561.615
799.747; 8445.477;   -9.055;15962.773
800.315; 8246.305;  -12.385;15296.992
800.883; 7945.878;  -15.035;14801.771
801.450; 7942.873;  -10.365;14534.430
802.018; 7995.675;   -9.855;14173.248
802.585; 8089.035;  -11.905;14029.547
803.153; 8123.880;  -11.585;13836.846
803.720; 7955.982;   -9.095;13567.324
804.287; 7504.493;   -9.135;13360.622
804.855; 7147.527;  -11.604;13681.981
805.422; 7072.215;  -11.794;13536.560
805.989; 7074.437;  -10.734;13355.958
806.556; 7235.903;  -10.444;13747.896
807.124; 7466.861;  -12.764;13987.376
807.691; 7478.742;  -12.964;14038.674
808.258; 7310.992;  -11.134;14120.152
808.825; 7005.899;   -9.854;13860.111
809.392; 7089.676;  -10.504;13268.790
809.959; 6678.031;  -13.054;12680.389
810.526; 6279.290;   -8.294;12427.308
811.093; 6371.966;   -8.394;12030.105
811.659; 6987.521;  -12.304;11653.664
812.226; 7460.182;  -13.944;11637.183
812.793; 7204.580;  -10.484;11611.521
813.360; 6669.729;  -10.144;11885.181
813.926; 6420.401;  -11.684;12770.539
814.493; 6210.585;  -13.644;12677.638
815.060; 5831.000;   -9.724;11974.336
815.626; 5828.854;   -9.854;11594.715
816.193; 6207.453;  -13.254;11579.474
816.759; 6283.339;  -13.204;11666.972
817.325; 6384.153;   -9.434;11325.530
817.892; 6739.146;  -10.134;11105.369
818.458; 7175.351;  -13.474;10843.928
819.024; 6841.241;  -11.854;10714.406
819.591; 6565.103;  -10.244;10469.165
820.157; 6378.419;  -10.704;10235.523
820.723; 5956.108;  -12.324;10847.563
821.289; 5719.452;   -9.444;11040.980
821.855; 5639.756;   -8.374;10357.100
822.421; 5628.201;  -10.234; 9978.918
822.987; 5645.581;  -13.294; 9754.177
823.553; 5370.045;  -10.884;10065.755
824.119; 5240.107;   -8.884;10036.294
824.685; 5386.922;   -6.784;10029.192
825.251; 5494.263;  -12.004;10199.230
825.816; 5456.641;  -11.474; 9820.189
826.382; 5228.663;   -9.174; 9297.248
826.948; 5450.041;   -9.214; 9381.347
827.513; 5871.262;  -10.774; 9450.726
828.079; 5715.525;  -11.924; 9472.444
828.645; 5156.639;  -10.543; 9292.643
829.210; 5051.523;  -10.533; 9065.341
829.776; 5021.203;  -10.753; 9132.620
830.341; 4933.267;  -10.173; 9092.878
830.906; 5163.476;  -10.743; 9078.557
831.472; 5551.350;  -11.113; 8534.535
832.037; 5302.491;  -10.603; 8677.874
832.602; 4757.113;  -13.323; 8628.692
833.167; 4520.278;  -10.823; 8879.031
833.733; 4455.197;  -10.113; 9189.790
834.298; 4603.036;  -13.583; 9052.608
834.863; 4690.474;  -12.703; 8895.087
835.428; 4704.701;  -10.523; 8824.266
835.993; 4580.271;   -6.963; 8845.385
836.558; 4400.833;  -10.763; 8888.563
837.123; 4510.784;   -9.903; 8966.582
837.688; 4741.084;   -9.913; 8617.860
838.253; 4986.198;  -10.283; 8590.699
838.817; 5179.000;  -12.963; 8443.797
839.382; 5088.385;  -14.243; 8799.356
839.947; 4773.701;  -10.733; 8810.595
840.511; 4463.456;   -9.383; 8796.394
841.076; 4056.067;  -12.563; 8347.231
841.641; 4117.610;  -12.953; 8224.330
842.205; 4225.668;   -7.043; 8223.349
842.770; 4310.957;   -8.163; 8622.107
843.334; 4452.726;  -12.503; 8410.386
843.898; 4384.242;  -11.693; 8337.465
844.463; 4404.306;  -10.203; 8506.283
845.027; 4184.296;   -9.533; 8280.962
845.591; 3997.661;  -13.443; 8231.141
846.156; 3954.533;  -13.143; 7969.179
846.720; 3825.001;   -9.433; 7768.278
847.284; 3699.228;  -11.033; 7630.957
847.848; 3569.379;  -10.403; 7472.395
848.412; 3464.464;  -11.553; 7437.394
848.976; 3477.431;   -8.393; 7674.592
849.540; 3389.466;   -8.713; 7836.011
850.104; 3494.873;  -12.463; 7913.669
850.668; 3835.940;  -12.973; 7694.508
851.232; 3911.727;  -10.793; 7756.887
851.796; 3737.622;  -10.662; 7926.545
852.359; 3436.616;  -13.082; 7827.844
852.923; 3257.059;  -12.192; 7641.163
853.487; 3062.461;  -11.912; 7342.501
854.050; 3006.676;  -10.892; 7042.820
854.614; 3127.472;  -13.992; 7151.338
855.177; 3231.972;  -11.732; 7105.077
855.741; 3241.146;   -8.962; 6989.675
856.304; 3123.065;   -9.442; 6596.634
856.868; 3098.705;  -14.192; 6356.272
857.431; 3183.082;  -12.702; 6468.571
857.995; 3281.401;   -9.942; 6373.210
858.558; 3275.122;   -9.112; 6324.448
859.121; 3012.334;  -12.932; 6408.327
859.684; 2895.462;  -13.442; 6347.886
860.247; 2981.076;  -10.632; 6321.264
860.810; 2966.408;  -11.272; 6301.903
861.374; 2715.010;   -9.832; 6607.881
861.937; 2469.949;  -11.762; 6408.200
862.500; 2465.517;   -9.722; 6572.639
863.062; 2625.410;  -10.512; 6387.297
863.625; 2766.511;  -11.232; 6190.836
864.188; 2902.986;  -14.112; 5807.254
864.751; 2958.650;  -11.302; 5682.413
865.314; 2862.344;  -10.112; 5547.492
865.876; 2670.999;  -12.182; 5500.150
866.439; 2657.948;  -10.722; 5415.909
867.002; 2599.140;   -9.252; 5501.567
867.564; 2413.165;   -9.572; 5413.946
868.127; 2223.227;  -13.142; 5160.325
868.689; 2135.438;  -12.902; 5133.183
869.252; 2031.188;   -9.732; 5252.382
869.814; 1938.365;   -9.432; 5297.141
870.377; 1952.421;  -11.552; 5390.919
870.939; 2023.101;   -9.052; 5599.898
871.501; 2085.956;  -10.982; 5248.336
872.063; 2089.080;  -12.292; 4854.235
872.626; 2045.821;  -14.912; 4817.074
873.188; 2075.923;  -13.112; 4987.732
873.750; 2058.670;  -13.442; 4868.651
874.312; 1975.600;   -9.402; 4779.330
874.874; 1900.224;  -11.062; 4866.348
875.436; 1822.108;  -13.931; 4718.887
875.998; 1817.947;   -9.561; 4660.005
876.560; 1847.362;  -11.321; 4462.964
877.122; 1789.247;  -12.221; 4145.042
877.683; 1700.484;  -12.191; 4056.481
878.245; 1641.323;  -12.101; 3950.740
878.807; 1684.691;   -8.971; 4058.958
879.369; 1711.226;  -12.071; 3954.677
879.930; 1626.958;  -14.621; 3941.495
880.492; 1572.736;  -10.311; 4067.014
881.053; 1531.248;  -10.901; 3859.633
881.615; 1428.011;  -14.411; 3776.071
882.176; 1336.233;  -13.761; 3734.750
882.738; 1295.295;   -9.181; 3678.489
883.299; 1276.995;  -11.791; 3405.407
883.860; 1286.982;  -13.121; 3351.106
884.422; 1284.661;  -11.211; 3394.044
884.983; 1243.405;  -10.091; 3166.443
885.544; 1176.722;   -8.461; 3189.802
886.105; 1097.727;  -12.361; 3160.360
886.666; 1031.502;  -14.141; 3093.059
887.227;  976.221;  -11.361; 2941.957
887.788;  915.685;  -11.401; 2974.836
888.349;  855.931;  -13.791; 2721.214
888.910;  858.494;  -13.191; 2696.493
889.471;  866.622;   -9.881; 2560.172
890.032;  846.417;   -9.881; 2558.190
890.593;  823.234;  -10.371; 2567.669
891.153;  796.973;  -13.301; 2460.307
891.714;  749.116;  -11.431; 2372.046
892.275;  712.130;  -11.291; 2309.505
892.835;  671.891;  -11.471; 2382.543
893.396;  617.182;  -11.541; 2295.502
893.956;  560.572;  -11.181; 2162.420
894.517;  523.207;  -11.741; 2125.439
895.077;  522.124;  -11.671; 2086.978
895.638;  525.585;  -11.311; 2126.316
896.198;  495.577;   -9.831; 1838.275
896.758;  449.909;   -8.421; 1892.813
897.319;  419.784;  -12.351; 1792.232
897.879;  404.404;  -13.511; 1762.751
898.439;  376.543;  -12.001; 1661.149
898.999;  351.443;  -10.180; 1781.468
899.559;  342.636;  -12.030; 1703.347
900.119;  338.603;  -15.710; 1537.525
900.679;  334.055;   -8.900; 1638.384
901.239;  318.722;   -8.340; 1527.902
901.799;  308.031;  -13.910; 1456.441
902.359;  300.276;  -13.460; 1357.140
902.919;  292.955;  -11.490; 1331.118
903.479;  279.943;  -12.110; 1317.257
904.038;  258.884;  -11.720; 1262.595
904.598;  243.947;  -13.610; 1152.034
905.158;  239.940;  -11.040; 1240.893
905.717;  232.253;  -10.900; 1233.691
906.277;  222.164;  -15.080; 1217.330
906.836;  211.940;  -13.380; 1222.408
907.396;  203.283;  -10.780; 1193.047
907.955;  195.547;   -8.500; 1182.526
908.515;  190.113;  -12.760; 1099.364
909.074;  183.689;  -11.900; 1092.863
909.633;  178.305;   -8.950; 1069.121
910.192;  173.438;   -8.770; 1196.460
910.752;  168.904;  -12.390; 1029.960
911.311;  164.721;  -13.680; 1009.780
911.870;  161.406;  -12.370;  971.460
912.429;  162.575;  -10.900; 1094.080
912.988;  161.624;  -11.690; 1081.060
913.547;  157.538;  -13.240;  940.380
914.106;  152.278;  -11.990;  999.420
914.665;  148.648;   -9.990;  984.020
915.224;  147.395;  -12.880; 1035.760
915.782;  148.594;  -12.350;  922.560
916.341;  147.370;   -9.110; 1049.840
916.900;  143.755;   -9.270;  925.260
917.458;  142.045;  -13.240;  884.220
918.017;  142.089;  -13.550;  942.600
918.576;  140.617;  -12.320;  904.440
919.134;  138.935;  -11.490;  837.980
919.693;  137.104;  -13.670;  893.060
920.251;  135.317;  -15.470;  876.500
920.809;  134.227;  -11.290;  839.580
921.368;  134.016;  -10.210;  885.360
921.926;  133.142;  -12.140;  842.940
922.484;  132.387;  -13.080;  903.360
923.042;  131.810;  -11.720;  880.340
923.601;  134.793;   -7.480;  998.680
924.159;  133.123;  -11.570;  935.560
924.717;  129.052;  -13.840;  841.080
925.275;  129.978;  -10.640;  903.240
925.833;  128.619;  -11.540;  779.320
926.391;  130.226;  -12.960;  938.380
926.949;  128.725;  -14.130;  857.680
927.506;  127.540;  -11.750;  903.500
928.064;  129.391;  -10.250;  877.580
928.622;  127.659;  -13.030;  880.100
929.180;  127.779;  -13.400;  814.180
929.737;  128.586;  -10.700;  808.540
930.295;  131.716;  -10.070;  928.480
930.853;  133.573;  -11.960;  849.100
931.410;  134.719;  -13.120;  821.120
931.968;  133.582;  -10.770;  940.660
932.525;  133.003;  -10.680;  909.380
933.082;  134.229;  -13.130;  811.440
933.640;  133.641;  -13.210;  925.900
934.197;  132.130;  -11.060;  886.360
934.754;  133.477;   -9.580;  897.780
935.312;  135.885;  -14.000;  863.340
935.869;  140.250;  -10.710; 1012.980
936.426;  140.175;   -9.860;  872.800
936.983;  141.963;   -9.710;  889.020
937.540;  140.730;  -13.990;  838.280
938.097;  139.819;  -14.040;  940.120
938.654;  139.033;  -10.310;  898.860
939.211;  141.670;  -10.560;  952.480
939.768;  145.246;  -13.900;  915.420
940.324;  148.786;  -14.760;  904.200
940.881;  149.453;  -10.370;  878.500
941.438;  150.504;   -8.260; 1021.200
941.995;  147.298;  -12.540;  992.560
942.551;  144.330;  -14.670;  875.620
943.108;  144.601;  -10.450;  937.920
943.664;  146.318;  -10.750;  869.340
944.221;  149.493;  -11.550; 1088.140
944.777;  147.107;  -14.770;  869.680
945.334;  147.385;  -12.820;  884.840
945.890;  148.796;  -10.130;  946.480
946.446;  150.118;  -13.470;  947.020
947.003;  152.427;  -12.120;  964.940
947.559;  153.865;   -9.980; 1063.040
948.115;  152.669;   -9.080; 1026.540
948.671;  151.565;  -10.830;  967.300
949.227;  148.909;  -12.440;  859.560
949.783;  145.787;  -12.910;  858.900
950.339;  147.865;  -10.270;  991.000
950.895;  148.531;  -13.630; 1023.840
951.451;  147.785;  -15.100;  925.280
952.007;  147.510;  -11.330;  998.540
952.563;  147.912;  -10.580;  937.780
953.118;  146.386;  -13.440;  904.940
953.674;  146.015;  -12.710;  935.780
954.230;  145.299;  -10.350;  949.640
954.785;  143.458;   -9.190;  936.640
955.341;  141.726;  -11.200;  998.160
955.897;  139.285;  -16.560;  834.660
956.452;  140.238;  -12.570;  953.840
957.008;  140.067;   -7.970; 1083.640
957.563;  137.456;  -11.940; 1009.540
958.118;  133.496;  -13.450;  877.700
958.674;  133.344;  -12.030;  946.780
959.229;  133.767;   -9.410; 1013.980
959.784;  132.966;  -12.000;  832.400
960.339;  132.110;  -14.780; 1001.280
960.894;  128.649;   -9.860;  963.760
961.449;  123.177;   -9.970;  859.960
962.004;  124.687;  -10.900; 1212.840
962.559;  120.181;  -13.150;  860.140
963.114;  116.249;  -13.740;  742.480
963.669;  116.197;   -9.820;  915.500
964.224;  116.386;  -13.890;  874.340
964.779;  114.896;  -12.600;  828.420
965.334;  115.046;  -10.950; 1017.860
965.888;  114.518;  -11.170;  875.360
966.443;  117.962;  -12.540;  972.380
966.998;  115.835;  -15.780;  819.460
967.552;  115.120;   -9.760;  908.380
968.107;  111.601;   -9.060;  868.300
968.661;  113.649;  -11.950;  922.440
969.216;  113.678;  -12.800;  856.280
969.770;  112.864;  -11.210;  917.200
970.324;  112.569;  -11.610;  923.140
970.879;  109.566;  -11.370;  947.180
971.433;  106.160;  -12.540;  952.720
971.987;  102.023;  -11.320;  895.340
972.541;   99.323;  -10.720;  917.100
973.095;   99.161;   -9.680; 1009.460
973.649;   98.414;  -11.440;  809.480
974.203;   96.330;  -11.210;  829.040
974.757;   96.369;  -10.240;  855.220
975.311;   97.051;  -13.720;  872.600
975.865;   95.885;  -13.770;  881.820
976.419;   93.870;  -11.690;  857.400
976.973;   94.612;   -9.510;  849.620
977.526;   95.786;  -12.620;  949.920
978.080;   94.915;  -12.010;  796.780
978.634;   95.821;  -10.170;  921.320
979.187;   93.680;   -9.020;  905.400
979.741;   90.765;   -9.820; 1018.380
980.294;   86.454;  -14.870;  789.160
980.848;   84.119;  -12.380;  717.220
981.401;   87.069;  -10.350;  816.540
981.955;   89.098;  -13.720;  844.300
982.508;   88.219;  -11.490;  746.340
983.061;   88.103;  -10.000;  915.260
983.615;   84.279;  -11.480;  798.800
984.168;   80.987;  -13.220;  770.080
984.721;   80.868;  -13.960;  880.760
985.274;   79.970;  -10.870;  867.500
985.827;   78.818;   -9.790;  834.220
986.380;   76.988;  -13.120;  721.340
986.933;   75.691;  -12.450;  864.800
987.486;   74.308;  -10.210;  861.920
988.039;   73.324;   -8.430;  863.100
988.591;   72.170;  -10.520;  893.260
989.144;   69.964;  -14.860;  737.260
989.697;   68.066;  -13.080;  758.740
990.250;   69.602;  -10.150;  858.100
990.802;   68.112;  -13.430;  755.860
991.355;   69.447;  -12.750;  974.880
991.907;   67.127;  -12.040;  864.320
992.460;   64.806;  -11.330;  753.760
993.012;   64.074;  -13.610;  749.540
993.565;   63.119;  -13.460;  711.360
994.117;   64.755;   -9.360;  950.780
994.669;   61.235;  -11.300;  701.320
995.221;   59.593;  -13.540;  791.920
995.774;   57.648;  -13.430;  787.580
996.326;   56.325;  -12.520;  740.220
996.878;   56.168;  -10.950;  838.420
997.430;   53.992;  -14.300;  699.860
997.982;   52.974;  -13.760;  750.140
998.534;   53.135;  -11.530;  739.060
999.086;   51.204;  -10.310;  738.220
999.638;   50.131;  -12.530;  661.380
1000.190;   49.549;  -11.840;  699.320
1000.741;   49.578;  -10.260;  742.700
1001.293;   48.729;   -8.860;  686.020
1001.845;   47.849;  -13.700;  676.640
1002.396;   47.325;  -12.100;  743.400
1002.948;   47.031;  -12.760;  737.400
1003.500;   45.202;  -10.380;  723.780
1004.051;   46.674;  -11.900;  907.580
1004.603;   44.605;  -12.250;  791.820
1005.154;   41.084;  -13.210;  608.980
1005.705;   40.535;  -10.950;  723.960
1006.257;   40.070;  -13.880;  707.220
1006.808;   39.184;  -12.840;  685.460
1007.359;   38.443;  -10.570;  763.240
1007.910;   37.852;   -9.620;  646.640
1008.461;   38.059;  -13.630;  732.940
1009.013;   36.698;  -17.200;  588.340
1009.564;   38.153;  -10.200;  793.520
1010.115;   35.190;  -12.570;  597.040
1010.665;   35.624;  -15.150;  602.160
1011.216;   35.569;  -14.480;  667.920
1011.767;   34.708;  -11.340;  697.920
1012.318;   34.607;   -9.780;  736.980
1012.869;   34.139;  -12.380;  679.000
1013.419;   33.715;  -15.560;  603.120
1013.970;   33.443;  -11.010;  666.640
1014.521;   32.652;  -11.610;  620.620
1015.071;   33.533;  -13.450;  670.380
1015.622;   33.428;  -13.870;  635.460
1016.172;   32.552;  -11.610;  596.820
1016.723;   31.365;  -12.120;  614.380
1017.273;   31.263;  -13.620;  604.160
1017.823;   32.300;  -14.140;  650.340
1018.374;   30.890;  -12.800;  611.760
1018.924;   31.333;  -12.340;  716.880
1019.474;   32.039;  -11.410;  718.880
1020.024;   30.433;  -14.770;  657.580
1020.574;   30.836;   -9.780;  726.160
1021.124;   30.810;   -8.560;  673.580
1021.674;   29.610;  -15.190;  559.120
1022.224;   30.382;  -13.530;  708.940
1022.774;   29.643;  -13.280;  668.820
1023.324;   30.485;  -10.690;  753.520
1023.874;   31.587;  -10.240;  875.760
1024.423;   29.268;  -12.540;  613.700
1024.973;   29.235;  -10.010;  610.760
1025.523;   27.798;  -10.550;  620.960
1026.072;   28.171;  -13.560;  606.420
1026.622;   27.666;  -15.120;  675.740
1027.172;   28.135;  -11.260;  715.660
1027.721;   28.170;  -11.410;  601.220
1028.270;   28.069;  -13.530;  663.400
1028.820;   27.799;  -13.680;  638.080
1029.369;   27.174;  -13.520;  612.700
1029.918;   26.983;  -10.980;  649.840
1030.468;   26.468;  -13.530;  564.780
1031.017;   27.523;  -13.170;  634.800
1031.566;   25.870;  -12.200;  608.900
1032.115;   27.066;   -9.960;  694.500
1032.664;   25.624;  -13.210;  596.480
1033.213;   26.792;  -12.500;  735.420
1033.762;   26.188;  -11.910;  635.620
1034.311;   25.551;   -9.640;  677.220
1034.860;   25.770;  -13.310;  691.000
1035.408;   26.594;  -11.830;  722.720
1035.957;   25.804;  -12.000;  719.540
1036.506;   23.570;  -11.690;  530.800
1037.055;   26.605;  -10.990;  844.320
1037.603;   24.388;  -15.120;  664.000
1038.152;   23.318;  -12.450;  534.760
1038.700;   23.522;  -10.560;  585.740
1039.249;   23.332;  -11.080;  681.220
1039.797;   24.162;  -12.540;  633.360
1040.345;   24.060;  -11.920;  705.420
1040.894;   23.069;  -11.410;  625.300
1041.442;   23.095;  -14.320;  632.200
1041.990;   22.109;  -16.240;  559.160
1042.538;   21.928;  -11.680;  536.180
1043.087;   21.730;  -10.760;  570.860
1043.635;   23.570;  -11.850;  670.500
1044.183;   22.689;  -15.480;  586.400
1044.731;   21.554;  -11.770;  576.000
1045.279;   22.069;  -13.090;  674.920
1045.827;   23.597;  -12.440;  892.400
1046.374;   20.898;  -13.840;  515.420
1046.922;   20.581;  -13.220;  590.580
1047.470;   22.479;  -10.230;  691.300
1048.018;   21.168;  -14.590;  647.960
1048.565;   23.055;  -12.050;  708.600
1049.113;   20.534;  -11.650;  557.000
1049.660;   19.881;  -10.510;  629.660
1050.208;   21.431;  -13.310;  675.640
1050.755;   20.062;  -15.900;  606.580
1051.303;   20.285;  -11.430;  686.820
1051.850;   20.293;   -8.480;  635.120
1052.397;   18.827;  -15.010;  473.960
1052.945;   19.690;  -13.960;  617.760
1053.492;   20.548;  -13.150;  741.840
1054.039;   20.572;   -9.630;  720.180
1054.586;   19.900;  -13.680;  557.240
1055.133;   20.176;  -14.570;  693.140
1055.680;   19.242;  -13.820;  646.620
1056.227;   18.414;  -11.730;  542.780
1056.774;   20.221;  -12.480;  794.980
1057.321;   18.840;  -13.930;  523.260
1057.868;   18.621;  -11.690;  651.320
1058.415;   18.173;   -9.520;  651.980
1058.961;   18.957;  -13.160;  678.940
1059.508;   18.505;  -12.920;  643.820
1060.055;   18.171;  -11.920;  581.780
1060.601;   18.499;  -11.500;  624.300
1061.148;   17.792;  -14.330;  616.820
1061.694;   16.542;  -16.870;  592.580
1062.241;   17.409;  -10.330;  596.320
1062.787;   17.881;  -10.620;  663.140
1063.334;   19.233;  -10.110;  808.560
1063.880;   17.629;  -13.400;  668.360
1064.426;   17.042;  -10.680;  706.820
1064.972;   16.570;   -9.920;  601.340
1065.518;   15.190;  -10.980;  566.640
1066.065;   17.620;  -14.890;  624.460
1066.611;   15.957;  -12.870;  598.800
1067.157;   16.977;  -12.950;  641.860
1067.703;   16.311;  -13.540;  668.480
1068.249;   15.587;  -13.540;  605.220
1068.794;   16.080;  -12.600;  626.880
1069.340;   14.497;  -10.620;  578.960
1069.886;   16.306;  -12.830;  590.700
1070.432;   14.351;  -14.870;  541.720
1070.977;   14.794;  -11.980;  601.080
1071.523;   15.049;   -8.200;  573.060
1072.068;   15.027;  -12.330;  582.000
1072.614;   15.115;  -16.370;  527.760
1073.160;   15.348;  -11.100;  687.040
1073.705;   13.744;  -10.480;  572.520
1074.250;   14.025;  -14.520;  559.900
1074.796;   15.402;  -11.460;  655.160
1075.341;   14.912;  -11.950;  664.100
1075.886;   14.145;  -11.460;  594.240
1076.431;   14.206;  -13.770;  649.880
1076.976;   14.262;  -12.680;  639.220
1077.521;   13.188;  -13.170;  583.080
1078.067;   12.739;  -10.860;  579.400
1078.612;   14.194;  -13.920;  661.620
1079.156;   13.958;  -13.880;  601.540
1079.701;   14.086;  -13.120;  693.260
1080.246;   14.009;   -9.940;  696.300
1080.791;   13.890;  -14.740;  625.020
1081.336;   13.889;  -13.750;  659.320
1081.880;   12.544;  -13.400;  649.680
1082.425;   12.236;  -12.220;  573.480
1082.970;   13.398;  -11.610;  717.040
1083.514;   12.700;  -13.580;  597.000
1084.059;   11.715;  -12.810;  586.720
1084.603;   11.902;  -12.320;  565.840
1085.147;   12.590;  -13.190;  645.220
1085.692;   13.328;  -12.480;  716.800
1086.236;   11.559;  -13.020;  503.140
1086.780;   12.731;   -9.190;  751.440
1087.325;   12.467;  -12.480;  654.620
1087.869;   12.065;  -12.450;  610.700
1088.413;   12.315;  -12.240;  705.040
1088.957;   10.599;   -9.020;  543.400
1089.501;   12.594;  -10.320;  766.640
1090.045;   12.280;  -12.720;  726.480
1090.589;    9.727;  -13.690;  569.920
1091.133;   11.133;  -10.020;  673.340
1091.676;   10.982;  -12.330;  591.940
1092.220;   10.512;  -14.970;  600.920
1092.764;   10.645;  -12.430;  706.960
1093.307;   11.026;   -9.800;  673.780
1093.851;    9.250;  -14.970;  556.540
1094.395;   10.741;  -15.310;  683.140
1094.938;    9.772;  -10.370;  632.520
1095.482;    9.309;  -11.050;  559.800
1096.025;   10.894;  -11.840;  710.880
1096.568;   11.267;  -12.840;  779.280
1097.112;    7.855;  -14.700;  508.180
1097.655;   10.282;   -8.720;  603.000
1098.198;    9.678;  -13.610;  600.180
1098.741;    8.934;  -13.350;  612.860
1099.285;   10.148;  -11.230;  657.300
1099.828;    8.147;  -11.840;  439.400
1100.371;    9.757;  -10.840;  608.160
1100.914;    9.419;  -14.190;  682.660
1101.457;    8.962;  -11.240;  679.900
1101.999;    7.680;  -11.270;  584.680
1102.542;    9.247;  -11.480;  641.440
1103.085;    8.706;  -11.750;  658.500
1103.628;    8.401;  -11.400;  762.060
1104.170;    8.310;  -10.490;  588.280
1104.713;    8.697;  -10.600;  646.700
1105.256;    7.557;  -14.360;  557.440
1105.798;    6.725;  -13.210;  499.980
1106.341;    8.939;  -10.270;  728.900
1106.883;    7.595;  -12.200;  521.340
1107.425;    7.810;  -13.110;  668.180
1107.968;    7.724;  -12.840;  612.380
1108.510;    8.432;   -6.480;  684.960
1109.052;    6.743;  -13.940;  612.620
1109.594;    7.347;  -13.690;  554.440
1110.136;    7.546;  -11.880;  643.220
1110.679;    6.618;   -9.500;  633.080
1111.221;    7.091;  -14.160;  604.460
1111.763;    6.990;  -13.980;  559.220
1112.304;    6.124;  -13.880;  547.140
1112.846;    6.444;  -12.210;  666.240
1113.388;    8.842;  -11.390;  942.180
1113.930;    6.868;  -14.540;  694.200
1114.472;    5.537;  -12.640;  606.540
1115.013;    5.533;  -11.620;  551.280
1115.555;    5.190;  -13.640;  587.100
1116.097;    5.146;  -15.380;  579.480
1116.638;    6.402;  -12.640;  684.600
1117.180;    6.583;   -9.850;  667.740
1117.721;    6.562;  -13.690;  568.580
1118.262;    6.983;  -12.680;  677.960
1118.804;    6.087;  -12.530;  637.340
1119.345;    5.182;  -11.690;  578.400
1119.886;    6.644;  -13.380;  704.040
1120.427;    5.182;  -14.070;  589.020
1120.969;    4.252;  -13.500;  597.920
1121.510;    4.318;  -11.480;  563.060
1122.051;    5.401;  -12.830;  723.580
1122.592;    5.358;  -14.290;  655.420
1123.133;    4.119;  -12.400;  547.940
1123.673;    5.715;  -10.130;  706.480
1124.214;    4.567;  -12.930;  612.460
1124.755;    5.656;  -14.380;  639.460
1125.296;    4.299;  -14.000;  627.320
1125.836;    4.771;  -10.070;  691.500
1126.377;    4.630;  -12.640;  599.660
1126.918;    4.630;  -12.960;  614.980
1127.458;    3.883;  -13.350;  622.220
1127.999;    4.620;  -10.750;  656.980
1128.539;    4.688;  -12.350;  694.240
1129.079;    3.336;  -14.860;  632.720
1129.620;    3.183;  -13.840;  558.100
1130.160;    3.052;  -12.330;  539.480
1130.700;    4.271;  -14.530;  640.840
1131.240;    5.109;  -12.530;  643.700
1131.781;    3.076;  -14.450;  619.680
1132.321;    3.360;   -9.790;  599.120
1132.861;    2.393;  -14.860;  564.200
1133.401;    2.205;  -14.290;  593.940
1133.941;    3.336;  -11.750;  626.280
1134.481;    2.945;   -9.920;  597.580
1135.020;    2.414;  -12.290;  609.160
1135.560;    3.199;  -11.650;  674.940
1136.100;    2.512;  -16.270;  501.160
1136.640;    1.802;  -10.890;  510.480
1137.179;    2.285;  -14.180;  537.960
1137.719;    2.759;  -16.250;  605.400
1138.258;    2.221;  -14.230;  587.360
1138.798;    2.934;   -9.090;  663.780
1139.337;    1.649;  -15.130;  482.840
1139.877;    2.455;  -13.680;  642.360
1140.416;    3.801;  -11.320;  878.060
1140.955;    0.970;  -10.860;  535.380
1141.494;    2.308;  -12.920;  669.280
1142.034;    1.745;  -13.930;  583.520
1142.573;    2.210;  -11.440;  646.280
1143.112;    1.123;  -12.000;  553.480
1143.651;    1.523;  -13.670;  536.480
1144.190;    2.512;  -12.730;  691.640
1144.729;    1.627;  -14.560;  607.420
1145.267;    1.110;  -11.830;  584.900
1145.806;    2.211;  -12.230;  637.040
1146.345;    1.023;  -14.130;  635.020
1146.884;    0.962;  -11.590;  622.500
1147.422;    0.098;  -12.550;  533.060
1147.961;    2.384;  -11.180;  708.460
1148.500;    2.093;  -11.510;  669.720
1149.038;    2.039;  -11.640;  632.500
1149.577;    1.942;  -10.130;  698.640
1150.115;   -0.244;  -13.970;  452.280
1150.653;    0.922;  -14.520;  607.340
1151.192;    0.465;  -12.810;  552.920
1151.730;    0.625;   -9.100;  652.560
1152.268;    0.778;  -12.220;  589.520
1152.806;    0.250;  -14.140;  571.180
1153.344;   -0.662;  -12.350;  577.640
1153.882;    0.217;   -8.980;  600.060
1154.421;   -1.031;  -15.190;  470.620
1154.958;    0.472;  -15.210;  595.240
1155.496;    1.267;  -12.850;  645.280
1156.034;    0.133;   -9.940;  721.880
1156.572;    2.199;  -13.570;  667.060
1157.110;   -0.678;  -14.590;  473.940
1157.647;    0.306;  -13.030;  676.960
1158.185;   -0.661;  -12.140;  564.320
1158.723;   -1.263;  -14.390;  509.200
1159.260;    0.046;  -14.090;  701.700
1159.798;    0.222;  -11.920;  658.160
1160.335;    0.134;  -11.110;  631.820

