
Integration time [ms]:   4.984
Averaging Nr. [scans]: 1000
Smoothing Nr. [pixels]: 0
Data measured with spectrometer [name]: 7414430SP
Wave   ;Sample   ;Dark     ;Reference
[nm]   ;[counts] ;[counts] ;[counts] 

288.544;    3.648;    4.010;  793.890
289.143;    1.710;    6.120;  681.602
289.742;    7.751;   15.950;  828.814
290.341;   -5.117;    4.280;  789.841
290.940;  -10.401;   -3.740;  730.702
291.538;   -3.042;    4.150;  881.108
292.137;  -11.265;   -2.240;  792.581
292.736;   -9.514;    1.080;  975.101
293.335;  -17.560;   -7.560;  735.086
293.934;  -15.987;   -2.280;  781.677
294.532;  -13.616;   -0.680; 1031.958
295.131;  -22.874;   -3.490;  834.394
295.730;  -22.571;   -7.110;  809.588
296.328;  -25.449;   -5.590;  783.442
296.927;  -28.902;   -5.220;  779.652
297.525;  -24.403;   -3.830;  781.236
298.124;  -34.745;  -10.920;  654.009
298.722;  -25.990;   -5.650;  761.933
299.321;  -32.665;   -6.180;  708.597
299.919;  -28.793;   -1.380;  751.918
300.518;  -36.267;  -11.870;  689.338
301.116;  -29.407;   -8.030;  691.381
301.715;  -28.817;   -3.350;  730.222
302.313;  -28.730;   -7.500;  704.943
302.911;  -34.691;   -8.620;  733.830
303.509;  -26.470;   -4.960;  925.627
304.108;  -27.089;   -2.750;  760.383
304.706;  -26.841;   -5.910;  801.664
305.304;  -35.363;   -9.850;  796.707
305.902;  -22.157;   -2.990;  784.484
306.500;  -32.846;   -7.260;  728.200
307.098;  -28.406;   -1.110;  746.560
307.696;  -29.769;   -6.050;  780.432
308.294;  -29.879;   -5.160;  731.359
308.892;  -28.069;   -6.140;  759.769
309.490;  -25.638;   -0.840;  712.161
310.088;  -32.599;   -7.580;  788.444
310.686;  -21.023;   -0.130;  821.749
311.284;  -26.295;    2.760;  766.040
311.882;  -28.857;   -2.520;  731.225
312.480;  -29.798;   -2.420;  697.167
313.078;  -25.796;    0.490;  808.331
313.675;  -26.520;   -1.910;  691.600
314.273;  -28.814;    0.960;  797.837
314.871;  -31.001;   -6.940;  589.829
315.468;  -30.809;   -3.320;  652.090
316.066;  -20.705;    2.660;  694.427
316.664;  -32.068;   -2.620;  656.351
317.261;  -23.894;   -0.760;  910.128
317.859;  -30.274;   -3.220;  768.735
318.456;  -26.431;   -1.140;  830.096
319.054;  -25.979;    2.010;  787.828
319.651;  -28.504;   -2.140;  759.928
320.249;  -28.229;   -0.310;  810.188
320.846;  -27.796;    0.750;  714.286
321.443;  -28.813;   -1.870;  832.135
322.041;  -32.594;   -7.520;  812.315
322.638;  -30.066;   -2.280;  701.456
323.235;  -26.445;   -1.830;  665.683
323.833;  -33.004;   -7.500;  740.354
324.430;  -30.373;   -4.270;  615.900
325.027;  -28.312;   -4.390;  876.855
325.624;  -26.284;   -1.800;  644.532
326.221;  -29.424;   -6.460;  689.717
326.818;  -31.711;   -8.680;  818.332
327.415;  -22.344;   -2.250;  748.828
328.012;  -26.601;   -5.100;  690.585
328.609;  -27.158;   -5.700;  731.389
329.206;  -29.346;   -9.990;  778.621
329.803;  -27.340;   -4.470;  737.841
330.400;  -29.206;   -5.910;  704.260
330.997;  -25.619;   -2.770;  817.147
331.594;  -31.622;   -7.750;  788.185
332.191;  -30.885;   -9.040;  728.722
332.787;  -27.869;   -3.430;  844.463
333.384;  -30.719;   -0.740;  763.093
333.981;  -40.604;   -8.150;  815.687
334.578;  -39.079;   -6.800;  708.378
335.174;  -33.776;    0.200;  731.469
335.771;  -39.692;   -4.720;  836.456
336.367;  -43.234;   -4.910;  710.631
336.964;  -40.000;   -5.110;  793.266
337.561;  -40.679;   -1.080;  731.112
338.157;  -45.884;   -3.570;  911.916
338.754;  -48.608;   -7.730;  796.589
339.350;  -49.696;   -5.340;  722.493
339.946;  -42.719;   -0.140;  773.135
340.543;  -51.788;   -5.280;  846.136
341.139;  -53.797;   -6.850;  720.836
341.735;  -55.738;   -5.190;  772.593
342.332;  -53.944;   -2.870;  691.472
342.928;  -53.000;   -5.300;  795.394
343.524;  -54.854;   -3.720;  761.684
344.120;  -57.274;   -3.190;  738.562
344.716;  -51.045;   -0.410;  723.717
345.313;  -51.533;   -4.380;  795.342
345.909;  -56.625;  -10.670;  627.336
346.505;  -50.706;   -4.300;  740.247
347.101;  -49.996;   -2.240;  827.864
347.697;  -49.484;   -4.320;  785.398
348.293;  -51.027;   -6.470;  627.244
348.889;  -54.209;   -9.500;  745.914
349.485;  -45.770;    1.180;  688.205
350.081;  -48.719;   -3.560;  772.592
350.676;  -54.706;   -9.270;  691.606
351.272;  -46.987;   -6.230;  809.530
351.868;  -44.932;   -0.610;  780.497
352.464;  -47.615;   -4.750;  723.932
353.059;  -51.940;   -8.880;  646.017
353.655;  -51.137;   -7.240;  777.063
354.251;  -43.148;   -0.500;  759.845
354.846;  -50.769;   -7.140;  740.646
355.442;  -54.328;   -7.940;  753.071
356.038;  -47.950;   -4.240;  751.708
356.633;  -51.721;   -4.860;  728.594
357.229;  -49.102;   -3.410;  724.757
357.824;  -51.316;   -7.260;  703.600
358.420;  -51.708;   -4.290;  679.726
359.015;  -51.724;   -4.690;  695.357
359.610;  -52.196;   -9.060;  763.920
360.206;  -53.179;   -8.330;  603.240
360.801;  -52.410;  -10.080;  646.503
361.396;  -49.234;   -5.460;  725.975
361.992;  -54.350;   -7.870;  668.220
362.587;  -55.707;   -8.290;  670.160
363.182;  -49.890;   -6.180;  689.631
363.777;  -52.508;   -4.460;  738.242
364.372;  -51.760;   -5.160;  737.314
364.967;  -55.137;   -8.600;  680.744
365.563;  -47.346;   -4.150;  815.567
366.158;  -51.814;   -4.240;  685.161
366.753;  -50.894;   -7.420;  649.263
367.348;  -52.373;   -9.740;  746.056
367.942;  -52.667;   -7.990;  697.298
368.537;  -52.592;   -4.590;  754.245
369.132;  -52.742;   -6.810;  703.428
369.727;  -54.935;   -9.290;  638.079
370.322;  -55.946;   -7.060;  580.186
370.917;  -55.002;   -3.010;  710.646
371.511;  -47.969;   -0.960;  861.834
372.106;  -54.674;   -8.730;  776.964
372.701;  -57.068;   -6.610;  585.988
373.296;  -49.602;   -2.890;  863.135
373.890;  -56.485;   -6.400;  647.840
374.485;  -54.548;   -6.650;  691.199
375.079;  -52.421;   -3.070;  738.685
375.674;  -54.498;   -6.240;  812.970
376.268;  -52.442;   -3.430;  691.759
376.863;  -63.197;  -12.220;  580.327
377.457;  -51.731;   -5.240;  662.490
378.052;  -53.820;   -2.690;  764.884
378.646;  -57.007;   -6.120;  741.167
379.240;  -56.701;   -6.930;  721.176
379.835;  -53.509;   -5.490;  636.978
380.429;  -58.217;   -5.540;  562.557
381.023;  -55.264;   -3.860;  779.205
381.617;  -57.735;   -7.820;  680.106
382.212;  -56.028;   -8.560;  685.303
382.806;  -52.020;   -2.190;  760.690
383.400;  -57.224;   -6.360;  672.281
383.994;  -56.483;   -8.170;  664.870
384.588;  -53.143;   -4.880;  697.701
385.182;  -51.704;   -6.080;  726.624
385.776;  -52.592;   -5.170;  706.875
386.370;  -56.404;   -9.740;  681.968
386.964;  -56.088;   -9.480;  684.155
387.558;  -53.244;   -6.290;  598.360
388.152;  -53.972;   -5.070;  681.959
388.745;  -53.350;   -6.790;  814.707
389.339;  -52.252;   -6.390;  747.642
389.933;  -50.167;   -5.220;  695.370
390.527;  -51.334;   -2.850;  859.029
391.120;  -58.858;   -7.590;  595.318
391.714;  -54.391;   -5.270;  711.633
392.308;  -51.294;   -2.860;  780.253
392.901;  -55.675;   -7.210;  642.460
393.495;  -57.591;   -9.770;  595.414
394.089;  -54.570;   -6.960;  760.452
394.682;  -55.350;   -4.520;  697.188
395.275;  -54.091;   -5.390;  719.927
395.869;  -56.380;   -8.060;  667.314
396.462;  -55.901;   -7.150;  616.609
397.056;  -48.390;    0.640;  776.621
397.649;  -56.395;   -6.180;  731.575
398.242;  -52.488;   -7.550;  712.645
398.836;  -51.625;   -6.590;  766.408
399.429;  -54.294;   -5.530;  631.041
400.022;  -55.545;   -5.450;  665.902
400.615;  -53.463;   -8.790;  805.609
401.208;  -52.582;   -7.880;  691.451
401.802;  -54.286;   -2.360;  699.329
402.395;  -56.681;   -7.830;  683.502
402.988;  -55.194;   -7.960;  696.627
403.581;  -53.654;   -6.750;  646.878
404.174;  -49.354;   -4.750;  686.568
404.767;  -55.527;   -9.360;  638.583
405.360;  -56.918;  -10.240;  621.445
405.953;  -49.928;   -4.870;  759.034
406.545;  -50.462;   -5.330;  725.342
407.138;  -54.245;   -7.770;  618.350
407.731;  -56.200;  -12.440;  613.303
408.324;  -47.847;   -5.910;  660.554
408.917;  -50.950;   -4.470;  681.864
409.509;  -52.404;   -5.580;  740.396
410.102;  -57.217;  -10.740;  643.948
410.695;  -46.782;   -5.650;  665.758
411.287;  -50.405;   -7.390;  599.821
411.880;  -48.647;   -6.580;  585.421
412.472;  -52.645;  -11.300;  613.092
413.065;  -51.857;   -7.910;  629.408
413.657;  -50.162;   -8.730;  576.678
414.250;  -48.516;   -6.740;  646.681
414.842;  -48.531;   -9.260;  676.353
415.434;  -50.443;  -10.170;  570.463
416.027;  -42.849;   -6.070;  652.196
416.619;  -44.103;   -3.120;  713.400
417.211;  -47.257;   -9.310;  599.352
417.804;  -42.585;   -6.990;  628.499
418.396;  -47.501;   -5.620;  607.643
418.988;  -44.584;   -7.190;  659.238
419.580;  -48.444;   -9.820;  568.276
420.172;  -48.905;  -11.260;  536.196
420.764;  -41.724;   -2.760;  672.482
421.356;  -45.951;  -10.050;  636.898
421.948;  -44.203;   -7.650;  677.661
422.540;  -37.347;   -5.110;  680.027
423.132;  -41.865;   -7.600;  600.641
423.724;  -43.551;   -6.890;  561.267
424.316;  -44.056;  -11.420;  621.345
424.908;  -39.277;   -7.410;  591.517
425.500;  -37.781;   -5.860;  647.978
426.092;  -35.988;   -7.870;  648.268
426.683;  -39.156;   -7.640;  684.836
427.275;  -36.371;   -9.650;  641.471
427.867;  -35.490;   -7.040;  668.948
428.458;  -32.781;   -5.230;  732.344
429.050;  -36.747;  -10.660;  680.749
429.642;  -33.577;   -6.110;  743.124
430.233;  -33.798;   -5.910;  569.356
430.825;  -34.717;   -9.550;  724.809
431.416;  -34.018;   -7.950;  698.241
432.008;  -31.421;   -7.710;  651.723
432.599;  -30.311;   -3.800;  656.073
433.190;  -36.673;  -10.670;  637.670
433.782;  -35.724;  -11.700;  590.395
434.373;  -27.040;   -6.020;  884.765
434.964;  -30.140;   -5.640;  602.920
435.556;  -32.250;   -5.880;  634.537
436.147;  -30.637;   -9.560;  758.490
436.738;  -30.675;   -7.230;  701.099
437.329;  -24.280;   -4.280;  721.723
437.920;  -35.808;   -9.360;  666.688
438.511;  -32.859;  -10.840;  564.526
439.103;  -27.084;   -8.700;  623.998
439.694;  -27.727;   -8.200;  681.583
440.285;  -23.405;   -4.500;  764.432
440.876;  -26.554;   -9.520;  845.738
441.466;  -26.458;   -9.420;  575.162
442.057;  -24.397;   -7.920;  665.814
442.648;  -23.691;   -6.180;  746.255
443.239;  -27.408;  -11.070;  620.477
443.830;  -21.751;  -10.140;  704.958
444.421;  -19.468;   -6.270;  655.474
445.011;  -25.536;   -6.890;  693.619
445.602;  -23.806;   -8.540;  743.126
446.193;  -25.765;  -12.110;  488.117
446.783;  -17.169;   -5.180;  640.397
447.374;  -25.080;   -7.030;  692.759
447.964;  -23.770;  -10.080;  713.770
448.555;  -14.052;   -5.950;  822.742
449.145;  -21.432;   -7.610;  662.853
449.736;  -19.773;   -7.160;  803.179
450.326;  -19.382;   -7.950;  713.626
450.917;  -15.843;   -8.850;  675.324
451.507;  -13.985;   -3.560;  600.661
452.097;  -17.756;   -8.390;  746.267
452.688;  -15.074;  -10.410;  742.160
453.278;  -14.976;   -7.790;  566.840
453.868;  -12.660;   -4.410;  793.550
454.458;  -16.791;   -9.990;  651.141
455.048;  -13.166;   -6.750;  711.783
455.639;  -14.034;  -11.850;  567.096
456.229;  -11.673;   -5.880;  710.694
456.819;   -8.354;   -5.390;  751.158
457.409;  -10.909;  -10.180;  773.993
457.999;   -3.592;   -4.410;  737.505
458.589;   -7.226;   -4.670;  686.606
459.179;   -8.690;   -7.090;  717.658
459.769;  -11.741;  -10.840;  627.099
460.358;   -6.648;   -9.100;  797.262
460.948;   -5.008;   -6.800;  689.503
461.538;   -4.617;   -5.940;  660.677
462.128;  -10.382;  -13.130;  664.934
462.717;    1.531;   -7.390;  710.326
463.307;    0.773;   -6.350;  705.846
463.897;   -5.025;   -9.430;  656.942
464.486;   -4.138;   -8.210;  837.128
465.076;    0.110;   -7.270;  733.776
465.666;    2.042;   -7.030;  652.900
466.255;   -0.593;   -5.520;  785.651
466.845;   -0.986;  -12.810;  666.749
467.434;    0.901;   -7.430;  725.873
468.023;   -0.404;   -9.310;  658.357
468.613;   -2.073;   -7.570;  713.946
469.202;    1.196;  -11.320;  646.507
469.791;    3.875;   -9.670;  737.811
470.381;    7.187;   -4.880;  742.813
470.970;    5.174;   -9.140;  711.099
471.559;    5.619;  -10.530;  733.291
472.148;    6.159;  -12.040;  675.737
472.738;   10.511;   -4.020;  765.466
473.327;    6.206;  -10.160;  637.529
473.916;    6.095;  -11.300;  737.446
474.505;   10.567;   -8.590;  751.703
475.094;   11.505;   -5.840;  806.570
475.683;   13.985;   -5.440;  797.699
476.272;    9.112;  -13.520;  730.632
476.861;   14.291;   -7.910;  706.754
477.449;   20.607;   -5.850;  728.487
478.038;   10.462;   -8.510;  692.513
478.627;   10.949;  -12.030;  714.852
479.216;   22.907;   -4.580;  769.441
479.805;   21.371;   -4.350;  783.375
480.393;   19.071;   -6.510; 1008.945
480.982;   19.463;   -5.200;  874.501
481.571;   21.422;  -10.370;  858.333
482.159;   25.399;   -7.320;  705.386
482.748;   20.636;   -9.610;  821.385
483.336;   25.095;   -8.720;  858.209
483.925;   25.066;   -5.990;  774.373
484.513;   27.032;   -9.750;  758.962
485.102;   27.089;   -6.250;  810.965
485.690;   33.807;   -7.990; 1011.050
486.278;   34.301;   -6.980;  979.329
486.867;   34.953;   -5.910;  809.662
487.455;   33.509;   -8.960;  898.229
488.043;   35.069;  -12.330;  748.361
488.631;   48.339;   -4.470; 1005.079
489.220;   51.546;   -5.420;  908.626
489.808;   53.054;  -11.060;  741.415
490.396;   69.899;   -8.740;  914.645
490.984;   83.762;   -9.520;  830.161
491.572;  104.269;   -5.450;  940.315
492.160;  120.823;   -5.500;  919.081
492.748;  137.262;  -10.710;  884.341
493.336;  179.462;   -8.210; 1019.693
493.924;  230.061;   -5.230;  958.077
494.512;  281.293;   -7.650; 1066.638
495.100;  342.866;  -10.540; 1103.280
495.687;  432.653;   -7.620; 1206.373
496.275;  522.060;   -9.620; 1150.796
496.863;  621.156;  -12.580; 1281.171
497.451;  729.003;   -9.470; 1386.805
498.038;  810.172;  -12.280; 1556.729
498.626;  974.329;   -5.930; 1741.407
499.214; 1208.471;   -5.900; 2016.609
499.801; 1365.288;   -8.330; 2220.633
500.389; 1465.229;  -12.100; 2312.494
500.976; 1604.819;   -5.080; 2744.849
501.564; 1789.482;   -8.170; 3148.565
502.151; 1973.202;  -14.210; 3515.999
502.738; 2114.891;  -11.720; 3971.274
503.326; 2230.929;   -8.300; 4403.796
503.913; 2360.505;   -6.970; 5161.749
504.500; 2529.581;   -9.580; 5986.420
505.088; 2682.094;  -11.970; 6381.201
505.675; 2801.068;   -5.420; 6925.547
506.262; 2911.731;   -7.630; 7619.060
506.849; 3094.219;  -10.060; 8733.969
507.436; 3260.489;   -9.410; 9790.121
508.023; 3164.928;   -5.740; 9985.472
508.610; 3242.868;   -2.880;10434.618
509.197; 3665.940;   -9.840;11198.435
509.784; 3879.342;   -9.190;12391.194
510.371; 3952.602;   -6.740;13603.713
510.958; 4015.035;   -9.610;14426.586
511.545; 4016.541;  -12.100;15243.775
512.132; 3969.670;   -8.660;15945.876
512.719; 4328.561;   -8.180;16340.369
513.305; 4762.679;   -6.060;18011.766
513.892; 5023.318;   -9.210;19754.971
514.479; 5317.767;   -9.950;20967.805
515.066; 5648.623;   -4.120;22299.793
515.652; 5945.109;  -10.770;22908.660
516.239; 6171.299;   -8.140;23798.875
516.825; 6274.737;   -9.690;25567.275
517.412; 6333.063;   -7.030;28154.959
517.998; 6199.463;   -4.240;28344.111
518.585; 5798.286;  -10.760;27134.219
519.171; 5849.459;  -11.780;27268.576
519.758; 6217.218;   -4.540;28964.129
520.344; 6257.818;   -8.060;30664.494
520.930; 6419.688;  -10.620;32550.605
521.516; 6648.886;  -10.230;35422.895
522.103; 6860.245;   -5.060;38280.004
522.689; 7142.654;   -9.900;37835.117
523.275; 7433.028;   -7.570;37288.613
523.861; 7589.396;   -8.580;37281.395
524.447; 7615.106;   -5.380;37846.949
525.033; 7574.481;   -6.970;38321.949
525.619; 7486.882;  -11.160;38579.285
526.205; 7455.838;   -8.250;40622.875
526.791; 7440.679;   -5.420;42258.836
527.377; 7286.818;   -7.680;42966.902
527.963; 7036.178;   -9.910;42018.949
528.549; 6814.810;   -9.130;42476.828
529.135; 6619.922;   -6.180;41854.852
529.721; 6407.393;   -9.180;41237.711
530.306; 6839.667;   -7.130;41259.445
530.892; 7320.868;   -9.550;41506.047
531.478; 7405.305;   -8.660;43559.613
532.063; 7553.315;  -10.060;47695.563
532.649; 7678.749;   -8.190;50808.324
533.235; 7743.685;   -9.570;51787.500
533.820; 7788.339;   -4.950;52145.035
534.406; 7860.551;   -7.660;51133.488
534.991; 7715.930;  -13.130;49996.805
535.576; 7276.723;  -10.670;48882.852
536.162; 7239.981;   -3.650;46942.285
536.747; 7591.215;   -7.370;45711.746
537.333; 7683.191;  -13.970;48510.180
537.918; 7684.940;   -8.270;50439.891
538.503; 7842.420;   -8.890;50863.711
539.088; 8167.384;   -6.680;50906.922
539.673; 8592.115;  -12.040;52621.965
540.259; 9041.929;  -10.650;52368.094
540.844; 9456.037;   -5.550;50879.109
541.429; 9748.398;   -9.300;52077.777
542.014; 9865.771;  -11.850;52716.695
542.599; 9919.639;   -8.580;52363.281
543.184; 9862.548;   -8.350;53187.137
543.769; 9832.053;   -9.280;54697.605
544.354; 9528.221;  -12.690;53913.914
544.938; 9037.856;  -10.280;49680.164
545.523; 9514.747;   -6.450;47386.277
546.108;10049.510;   -9.920;49151.949
546.693;10008.353;  -12.160;51384.637
547.278; 9865.735;   -7.060;51853.254
547.862; 9534.420;   -6.790;51173.750
548.447; 9739.786;   -7.010;51691.395
549.031;10588.369;  -11.840;52456.703
549.616;11097.437;   -9.310;52714.516
550.201;11250.966;   -9.290;52414.598
550.785;11430.889;   -9.910;52355.059
551.370;11743.718;  -12.090;54589.453
551.954;12028.564;  -10.260;58267.348
552.538;12431.117;   -6.280;59062.176
553.123;12809.136;   -7.550;58115.285
553.707;13207.663;  -12.880;56556.285
554.291;13664.345;   -9.310;56201.668
554.876;14132.103;   -4.810;55335.762
555.460;14625.590;   -8.360;54155.703
556.044;15135.239;  -13.640;53721.484
556.628;15566.666;  -10.620;53731.016
557.212;15667.058;   -5.460;54312.531
557.796;15449.016;   -7.800;53797.773
558.380;15129.999;  -10.960;56145.984
558.964;14916.813;   -9.860;57277.930
559.548;14871.342;   -6.030;56459.641
560.132;14977.302;   -9.020;54434.543
560.716;15356.592;  -11.600;54800.617
561.300;15892.895;  -10.360;57606.945
561.884;16475.557;   -5.950;58972.445
562.467;17114.482;   -6.470;57327.570
563.051;17552.537;  -10.970;54962.434
563.635;17605.750;  -10.720;52594.473
564.219;17402.158;   -6.270;50610.410
564.802;16846.436;   -6.220;49551.180
565.386;16145.618;  -11.200;48370.953
565.969;15275.455;   -9.190;48178.871
566.553;14589.352;   -4.430;49957.305
567.136;14251.927;   -5.920;50369.594
567.720;14234.639;   -8.750;49492.004
568.303;14481.625;   -8.790;50616.352
568.887;14841.673;   -7.980;50727.148
569.470;15059.126;   -7.440;51698.379
570.053;15012.090;  -10.090;52122.078
570.637;14320.089;  -11.590;52536.438
571.220;14227.612;   -7.430;51186.098
571.803;14334.139;   -6.130;51032.762
572.386;13995.414;  -13.580;49609.887
572.969;13540.911;   -8.790;48285.926
573.552;13159.966;   -6.590;47624.285
574.135;12414.614;  -10.320;45498.641
574.718;10491.543;  -11.540;41970.434
575.301;10756.354;   -9.370;41447.137
575.884;11021.165;   -7.200;40923.836
576.467;11717.499;   -7.800;45267.723
577.050;11850.921;  -12.670;48175.543
577.633;12025.386;   -8.160;47729.328
578.216;12277.565;   -6.530;47579.793
578.799;12460.339;   -9.050;47820.996
579.381;12519.999;   -7.100;48115.551
579.964;12590.704;  -12.510;47333.766
580.547;12810.942;   -3.590;46668.969
581.129;13241.495;   -7.550;44466.141
581.712;13548.270;  -12.430;44164.922
582.294;13835.316;   -8.780;46477.855
582.877;13983.693;   -3.670;48244.254
583.459;14062.637;   -9.680;47437.895
584.042;14040.206;  -10.080;46943.219
584.624;13735.063;  -10.170;46792.227
585.206;13538.477;   -9.780;46557.250
585.789;13334.789;   -7.190;45793.773
586.371;13014.745;  -12.370;43836.391
586.953;12567.304;   -8.490;42972.492
587.536;12868.729;   -7.300;42487.211
588.118;13306.837;  -10.560;42086.414
588.700;13536.603;   -6.030;43389.930
589.282;13521.400;   -9.590;43646.039
589.864;13389.941;   -7.900;43438.109
590.446;13205.131;   -9.550;43151.926
591.028;12783.129;  -13.100;42781.867
591.610;12257.380;   -9.310;42839.098
592.192;11786.327;   -6.870;42820.402
592.774;11077.059;  -11.610;40724.277
593.356;10492.541;  -10.690;39874.789
593.937;10768.329;  -13.200;39980.648
594.519;10765.388;   -3.370;42069.633
595.101;10623.727;  -10.940;42976.031
595.683;10756.197;  -11.690;44084.441
596.264;11026.313;  -10.400;43478.797
596.846;11400.978;   -9.270;43803.672
597.427;11792.885;   -8.210;42986.934
598.009;12232.739;  -11.570;42832.219
598.591;12651.178;  -11.780;42580.086
599.172;13174.504;   -6.310;43061.805
599.753;13840.378;   -8.060;41691.469
600.335;14683.897;  -10.500;40692.520
600.916;15674.901;   -8.600;39982.422
601.498;17031.707;   -3.410;40318.617
602.079;19149.271;   -8.100;40670.609
602.660;22188.777;  -11.690;41450.898
603.241;25459.736;  -10.530;41137.738
603.823;27706.627;   -7.780;38868.797
604.404;28526.953;  -12.500;38182.785
604.985;28365.912;  -11.270;38078.047
605.566;27759.898;   -7.940;38056.633
606.147;27104.332;   -7.310;37020.418
606.728;26529.934;  -10.640;37883.359
607.309;25883.359;  -12.670;38748.273
607.890;25274.258;  -10.720;38850.230
608.471;24698.303;   -7.920;37457.918
609.051;24190.273;  -10.240;36066.457
609.632;23697.074;  -14.560;35991.074
610.213;23230.969;   -7.290;37402.641
610.794;22887.711;   -8.400;38383.363
611.374;22469.182;   -6.040;40562.387
611.955;22406.930;  -12.450;38533.727
612.536;22250.172;  -10.380;36951.789
613.116;22193.818;   -8.430;37197.891
613.697;22241.199;   -8.300;38411.125
614.277;22191.848;  -13.760;38673.938
614.858;21841.889;   -8.670;37075.863
615.438;20237.891;   -3.880;35092.906
616.019;21396.207;   -7.830;33666.301
616.599;23522.938;  -12.790;34189.023
617.179;24169.998;  -10.380;36952.047
617.760;24340.207;   -5.610;39582.574
618.340;24424.201;   -7.010;38943.977
618.920;24629.668;   -8.740;37594.156
619.500;24821.773;  -11.640;37866.938
620.080;24926.471;   -9.620;37869.043
620.660;24949.260;   -9.160;36868.617
621.241;24839.844;  -11.830;36352.309
621.821;24564.500;   -9.900;35459.520
622.401;24301.070;   -6.830;35207.414
622.980;23754.119;  -11.160;35980.422
623.560;22993.973;   -9.050;37351.328
624.140;20352.313;  -10.450;34388.582
624.720;16681.680;   -9.070;32368.764
625.300;17473.619;  -12.250;32638.629
625.880;20516.754;  -14.300;34599.035
626.459;21592.480;   -9.800;36831.738
627.039;21878.254;   -6.650;38299.098
627.619;22120.023;   -6.650;38289.574
628.198;22666.389;   -8.250;37220.695
628.778;23383.691;   -9.100;37632.563
629.357;23936.256;   -9.210;38003.012
629.937;24332.941;   -8.410;38402.039
630.516;24217.318;  -10.050;37868.801
631.096;24097.809;  -12.670;35760.410
631.675;23399.480;   -6.590;35225.219
632.254;22769.367;   -9.840;35130.289
632.834;21871.373;  -12.700;35794.570
633.413;21342.037;   -9.650;35788.922
633.992;21194.105;   -5.880;34532.863
634.571;21295.686;   -8.430;33590.113
635.151;21678.703;  -13.740;34943.863
635.730;22468.348;  -11.940;35352.523
636.309;23495.539;   -8.220;35366.605
636.888;24834.375;   -7.810;36165.637
637.467;26045.391;  -12.740;37515.902
638.046;26734.611;  -10.750;39288.695
638.625;27083.906;   -6.000;38279.699
639.204;27093.590;   -6.740;37741.598
639.782;26549.037;  -14.990;38364.551
640.361;25219.316;   -9.480;36740.621
640.940;24898.752;   -8.440;34950.082
641.519;26763.637;   -6.380;34137.398
642.097;27318.008;  -12.970;35654.258
642.676;26780.273;  -11.110;35637.957
643.255;26513.223;   -8.380;36567.074
643.833;26313.148;   -7.390;37809.434
644.412;25706.883;  -11.690;37337.293
644.990;25446.457;  -10.860;37018.531
645.569;24980.217;   -8.200;36518.469
646.147;24466.764;   -8.830;36186.430
646.726;24171.230;  -14.270;36267.688
647.304;23850.236;   -8.340;36647.625
647.882;23881.084;  -10.340;39286.742
648.461;23753.449;  -10.630;39157.703
649.039;23723.834;  -12.900;35412.883
649.617;23743.518;  -10.000;34744.918
650.195;23654.318;   -6.690;35403.098
650.773;23608.561;  -10.960;35053.797
651.352;23255.662;  -14.040;33756.816
651.930;21431.025;  -12.470;31868.773
652.508;19582.863;   -9.410;33121.551
653.086;21537.799;   -6.630;33564.793
653.663;22401.158;  -13.850;34054.668
654.241;21986.971;  -12.520;35693.309
654.819;21637.475;  -10.200;36422.906
655.397;21292.949;  -10.340;38213.484
655.975;20739.273;  -14.690;39507.625
656.553;20255.322;   -8.350;39498.223
657.130;19386.752;   -7.710;40395.480
657.708;18215.203;   -7.770;39242.020
658.286;17777.975;  -10.880;38920.020
658.863;17914.014;  -10.430;40202.898
659.441;17706.186;   -6.740;39677.938
660.018;17060.959;   -9.490;40413.355
660.596;16410.697;  -13.260;39931.414
661.173;16021.205;  -13.110;39604.531
661.750;15616.401;   -7.930;39700.070
662.328;15560.153;  -10.050;39292.809
662.905;15840.410;  -11.310;38235.648
663.482;15837.109;  -10.770;36212.305
664.060;18661.477;  -10.370;35944.945
664.637;23798.861;   -7.870;35170.785
665.214;26415.508;  -13.260;34197.523
665.791;27338.510;   -8.180;34549.520
666.368;27284.775;  -10.330;35118.578
666.945;26972.125;  -10.440;36019.418
667.522;26592.564;  -12.500;36048.438
668.099;25963.924;  -11.320;36243.914
668.676;25532.537;   -9.560;35958.875
669.253;25489.838;   -3.900;37384.730
669.830;25465.240;  -12.800;36779.629
670.407;25656.037;   -9.930;35231.289
670.984;25021.469;   -7.960;35544.270
671.560;24397.701;   -7.530;35466.867
672.137;23646.414;  -13.420;34280.863
672.714;22966.695;  -11.380;34632.863
673.290;23267.215;   -9.640;35135.422
673.867;22921.459;   -6.300;36114.480
674.443;22472.793;  -14.070;36152.859
675.020;22948.521;  -11.440;35327.238
675.596;23699.205;   -8.710;35795.176
676.173;25183.504;  -10.530;35430.355
676.749;26664.842;  -13.850;33549.516
677.326;27394.236;  -12.950;32210.012
677.902;27786.865;  -11.880;32068.871
678.478;27905.486;   -9.900;32583.891
679.054;28571.027;  -12.790;32088.928
679.631;29526.357;   -9.370;30978.848
680.207;30640.434;   -7.990;33160.887
680.783;31479.348;   -8.500;35570.363
681.359;31952.166;  -11.450;36125.184
681.935;32258.969;  -10.930;35240.922
682.511;32048.945;   -5.170;34429.961
683.087;31630.863;  -10.020;34463.680
683.663;30860.824;  -13.370;34648.898
684.239;30086.959;  -10.860;34546.457
684.815;29495.928;   -4.640;35586.375
685.390;28897.045;   -6.970;35821.895
685.966;28448.895;  -11.860;35085.871
686.542;27831.512;  -11.410;34198.230
687.118;27288.984;  -10.080;32847.707
687.693;26921.045;  -11.870;32794.027
688.269;26247.256;  -11.620;33072.367
688.844;25862.453;  -10.690;33141.664
689.420;25719.207;   -7.920;33965.742
689.995;25597.557;   -8.370;34655.523
690.571;25749.725;  -12.640;33576.742
691.146;26098.191;  -13.600;32657.219
691.722;26289.652;   -7.510;32526.979
692.297;26639.973;   -9.900;33014.617
692.872;26940.211;  -11.440;34012.254
693.448;26891.205;  -13.480;34237.434
694.023;27158.379;   -9.590;34142.672
694.598;27167.760;   -8.290;34132.031
695.173;26541.760;  -14.640;34205.250
695.748;26144.467;  -10.540;32882.488
696.323;25726.813;   -9.790;32864.906
696.898;24957.041;   -7.280;33170.004
697.473;24832.945;  -14.450;32432.984
698.048;24922.885;  -11.370;31649.303
698.623;24970.938;   -9.350;30778.141
699.198;25609.578;   -9.200;31140.119
699.773;26123.820;  -15.060;31764.299
700.348;26264.043;  -11.880;31780.816
700.922;26713.846;   -8.680;32046.375
701.497;27080.537;   -8.620;32603.574
702.072;26851.777;  -12.280;34799.871
702.646;26718.756;  -10.700;35793.172
703.221;26521.416;   -7.100;35201.590
703.795;26135.271;  -11.930;34764.527
704.370;25939.082;  -12.770;34307.367
704.944;25474.910;  -13.270;33509.887
705.519;25173.920;   -7.070;31388.584
706.093;25148.744;  -11.220;31340.104
706.668;25006.064;  -10.160;32630.281
707.242;24707.914;   -9.200;32728.779
707.816;24777.424;   -7.970;32947.238
708.390;24530.643;  -11.300;33277.855
708.965;24431.578;  -10.210;33834.336
709.539;24647.172;  -13.290;33709.273
710.113;24737.938;   -6.840;33044.313
710.687;24625.090;   -7.350;31953.992
711.261;24542.965;  -12.460;30505.949
711.835;24170.785;  -11.280;30262.369
712.409;23827.309;   -9.300;31254.447
712.983;23993.266;  -13.200;32754.986
713.557;24280.693;  -14.370;34018.824
714.131;24254.607;  -12.890;34579.625
714.704;24499.322;   -9.090;33890.262
715.278;24480.980;   -8.410;33531.102
715.852;24085.740;  -14.730;33601.660
716.425;23886.258;   -9.240;33515.117
716.999;23474.029;  -11.400;33185.555
717.573;22768.945;  -10.500;33905.996
718.146;22364.395;  -11.510;35199.293
718.720;22153.742;  -12.260;35060.551
719.293;21999.340;   -6.900;34973.230
719.867;22006.299;   -8.840;36394.449
720.440;22039.846;  -14.000;36663.008
721.013;22029.309;  -11.570;35102.426
721.587;22255.814;  -11.520;33985.266
722.160;22550.201;   -8.290;33524.965
722.733;22871.480;  -13.810;32987.043
723.306;23280.707;  -10.450;33066.301
723.880;24081.486;  -10.840;33399.500
724.453;24888.357;   -5.950;33468.297
725.026;25501.607;  -13.500;33816.637
725.599;26268.479;  -12.710;32797.996
726.172;26707.473;   -7.600;33187.434
726.745;26681.586;   -9.620;35136.613
727.318;27043.311;  -12.300;35751.730
727.891;27239.945;  -11.350;35890.430
728.463;27002.814;   -9.590;34822.090
729.036;27264.104;  -11.560;32895.086
729.609;27591.867;  -14.160;31823.225
730.182;27383.930;  -10.880;31445.283
730.754;27810.564;  -11.240;32373.223
731.327;28295.014;   -8.190;33676.820
731.900;28157.594;  -12.310;33417.000
732.472;28039.469;  -12.780;31978.498
733.045;28273.318;   -9.090;30368.777
733.617;28127.418;  -11.600;30574.215
734.190;28308.914;  -13.370;31280.975
734.762;29118.025;  -12.640;31674.412
735.334;29614.994;   -9.310;31247.291
735.907;29657.555;   -9.800;29876.211
736.479;30010.516;  -11.440;29808.488
737.051;30276.543;  -10.150;30233.547
737.623;29912.145;   -9.180;31469.086
738.195;29950.816;   -8.960;31784.225
738.768;30104.512;  -13.020;32120.523
739.340;29843.953;  -12.130;32094.342
739.912;29638.465;   -7.440;31312.680
740.484;29864.084;   -9.060;31946.238
741.056;30049.768;  -12.480;32984.059
741.628;29832.098;  -13.010;33897.715
742.199;29783.727;   -7.500;33213.016
742.771;30008.119;   -9.660;31369.113
743.343;29633.797;  -11.570;31865.473
743.915;29060.912;  -12.280;32388.631
744.487;28877.078;   -8.360;31079.568
745.058;28390.885;   -8.650;30570.107
745.630;27620.762;  -11.210;29970.127
746.201;27341.932;  -11.900;29186.766
746.773;27308.969;  -10.000;28805.723
747.344;27256.078;   -9.900;29591.223
747.916;27113.771;  -13.200;31412.201
748.487;27231.881;  -10.500;32194.898
749.059;26960.709;   -9.310;32533.719
749.630;26324.813;   -8.270;32158.518
750.201;26055.861;  -12.930;30855.395
750.773;25695.121;   -9.870;28622.555
751.344;25584.434;   -9.520;28405.732
751.915;25694.125;   -7.700;28461.551
752.486;25262.717;  -12.950;27842.850
753.057;24438.338;  -14.490;27845.008
753.628;24452.002;  -10.260;27728.107
754.199;24922.297;   -9.940;27381.086
754.770;24526.920;  -11.910;25882.203
755.341;23976.613;  -10.670;25886.184
755.912;23713.518;   -9.610;26050.861
756.483;23012.482;   -8.330;26798.779
757.054;22748.576;  -11.430;27048.238
757.625;23124.766;  -10.030;26294.838
758.195;23191.924;   -8.980;26142.076
758.766;23153.313;  -11.090;26392.234
759.337;23422.373;  -14.540;26334.594
759.907;23872.125;  -14.080;27579.652
760.478;24011.762;   -5.830;28352.770
761.048;23542.504;   -8.990;27325.088
761.619;23271.295;  -12.200;26460.428
762.189;23032.264;  -11.440;26029.826
762.760;22416.395;   -7.700;26430.145
763.330;21852.605;   -9.710;26670.902
763.900;22053.240;  -13.960;26603.021
764.471;22231.619;  -13.220;25542.740
765.041;21926.588;   -8.450;24358.459
765.611;22122.959;   -9.660;23991.297
766.181;22820.164;  -10.630;24470.236
766.751;23156.586;  -12.140;24845.975
767.321;23074.291;   -9.450;24533.633
767.891;23299.873;   -9.780;24916.492
768.461;23523.570;  -12.220;24776.771
769.031;23473.691;  -12.090;24757.988
769.601;23788.607;   -9.390;24181.088
770.171;24497.074;   -7.610;23670.387
770.741;25143.027;  -12.480;22960.045
771.311;25606.996;  -14.230;22917.523
771.880;26302.264;   -6.560;23562.941
772.450;26575.822;  -10.730;24216.500
773.020;26192.064;  -14.690;24140.398
773.589;25574.604;  -12.320;24414.857
774.159;25154.377;  -11.530;23858.717
774.729;24502.369;  -11.760;22942.135
775.298;23435.277;  -16.800;22324.033
775.867;22567.979;  -11.100;21140.313
776.437;21889.609;   -7.210;20838.092
777.006;21133.045;  -12.690;20599.510
777.576;20513.738;   -9.470;20508.809
778.145;20301.283;  -13.070;20732.947
778.714;20067.021;   -8.060;21062.465
779.283;19600.729;   -8.360;20949.664
779.853;19514.664;  -12.240;20508.623
780.422;19430.057;  -13.060;20649.082
780.991;19006.975;  -10.290;21527.520
781.560;18725.627;   -7.870;22632.658
782.129;18692.621;  -11.960;23048.277
782.698;18578.201;  -12.200;23438.555
783.267;18575.404;  -10.800;23267.734
783.836;18752.141;   -5.930;22415.133
784.404;18984.107;  -12.220;20443.152
784.973;19175.580;  -14.320;19699.150
785.542;18845.295;   -8.010;19763.828
786.111;18292.408;  -11.710;20341.408
786.679;17942.436;  -10.890;20207.967
787.248;16970.586;  -15.060;19516.465
787.817;15790.400;   -7.730;18900.363
788.385;15816.682;   -9.100;17879.121
788.954;15761.344;  -13.320;17658.301
789.522;15452.478;  -12.240;17788.879
790.090;14855.145;   -9.200;18118.277
790.659;14374.293;  -10.850;18338.736
791.227;14258.040;  -12.560;18508.615
791.795;14001.734;  -10.160;17898.254
792.364;13736.282;  -10.280;17295.133
792.932;13592.448;   -8.610;16822.051
793.500;13396.178;  -15.060;17040.148
794.068;13095.569;  -12.860;17179.787
794.636;12709.394;   -9.770;16664.246
795.204;12605.914;  -11.680;16524.545
795.772;12440.989;  -13.880;17274.564
796.340;12120.480;  -12.180;17891.002
796.908;12136.668;   -8.050;17648.561
797.476;12195.147;  -10.710;17064.080
798.044;11991.146;  -15.930;16672.777
798.612;11864.306;  -12.300;17023.996
799.180;11806.160;  -11.500;16561.615
799.747;11566.938;  -10.240;15962.773
800.315;10887.826;  -15.290;15296.992
800.883;11078.871;  -15.600;14801.771
801.450;11614.403;   -9.010;14534.430
802.018;11917.318;  -11.020;14173.248
802.585;12112.943;  -13.690;14029.547
803.153;12098.465;  -13.180;13836.846
803.720;12255.241;  -10.490;13567.324
804.287;12425.256;   -8.550;13360.622
804.855;12510.509;  -10.980;13681.981
805.422;12338.871;  -12.580;13536.560
805.989;11800.136;   -8.890;13355.958
806.556;12416.270;   -8.970;13747.896
807.124;12652.470;  -13.690;13987.376
807.691;12301.895;  -13.390;14038.674
808.258;12095.308;  -10.710;14120.152
808.825;11822.840;   -8.560;13860.111
809.392;11484.666;   -7.860;13268.790
809.959;11076.460;  -11.380;12680.389
810.526;10731.991;   -7.100;12427.308
811.093;10579.410;   -7.120;12030.105
811.659;10163.484;  -13.820;11653.664
812.226; 9950.110;  -10.840;11637.183
812.793;10255.472;   -7.800;11611.521
813.360;10583.975;  -12.530;11885.181
813.926;10850.258;  -12.480;12770.539
814.493;10936.925;  -12.220;12677.638
815.060;11015.140;  -12.120;11974.336
815.626;11003.964;  -12.680;11594.715
816.193;10736.651;  -11.760;11579.474
816.759;10405.990;  -14.970;11666.972
817.325;10235.877;  -10.010;11325.530
817.892;10053.943;   -7.740;11105.369
818.458; 9823.522;  -13.210;10843.928
819.024; 9427.800;  -13.340;10714.406
819.591; 9282.171;   -7.060;10469.165
820.157; 9346.041;  -15.590;10235.523
820.723; 9225.455;  -14.830;10847.563
821.289; 9092.993;   -9.140;11040.980
821.855; 8889.639;   -5.960;10357.100
822.421; 8723.140;  -10.820; 9978.918
822.987; 8649.898;  -14.270; 9754.177
823.553; 8275.155;  -13.090;10065.755
824.119; 8010.935;   -9.130;10036.294
824.685; 7935.815;  -10.050;10029.192
825.251; 7861.688;  -12.930;10199.230
825.816; 7611.223;   -7.640; 9820.189
826.382; 7193.343;  -10.370; 9297.248
826.948; 6949.591;   -8.650; 9381.347
827.513; 6785.196;  -15.340; 9450.726
828.079; 6454.250;  -11.450; 9472.444
828.645; 6067.532;  -10.890; 9292.643
829.210; 5773.066;  -12.060; 9065.341
829.776; 5459.751;  -11.520; 9132.620
830.341; 5097.077;   -9.110; 9092.878
830.906; 4651.220;   -7.090; 9078.557
831.472; 4183.438;  -10.500; 8534.535
832.037; 4144.232;  -12.430; 8677.874
832.602; 4371.125;  -14.350; 8628.692
833.167; 4411.411;  -11.460; 8879.031
833.733; 4396.787;   -7.710; 9189.790
834.298; 4432.957;  -12.360; 9052.608
834.863; 4553.040;  -10.960; 8895.087
835.428; 4638.124;   -8.740; 8824.266
835.993; 4602.524;  -10.440; 8845.385
836.558; 4620.193;  -13.300; 8888.563
837.123; 4698.319;   -7.910; 8966.582
837.688; 4760.765;   -9.910; 8617.860
838.253; 4710.078;   -9.940; 8590.699
838.817; 4581.026;  -12.490; 8443.797
839.382; 4498.317;  -12.890; 8799.356
839.947; 4373.740;   -8.630; 8810.595
840.511; 4149.044;   -8.970; 8796.394
841.076; 3960.637;  -16.230; 8347.231
841.641; 3801.296;  -10.630; 8224.330
842.205; 3650.921;   -9.540; 8223.349
842.770; 3498.554;   -8.910; 8622.107
843.334; 3328.897;  -13.580; 8410.386
843.898; 3289.000;  -13.710; 8337.465
844.463; 3374.465;   -9.990; 8506.283
845.027; 3471.608;  -10.570; 8280.962
845.591; 3646.954;  -13.250; 8231.141
846.156; 3899.792;  -15.810; 7969.179
846.720; 4137.532;   -7.960; 7768.278
847.284; 4297.897;  -11.370; 7630.957
847.848; 4394.417;  -10.720; 7472.395
848.412; 4751.224;  -15.770; 7437.394
848.976; 5152.392;   -8.150; 7674.592
849.540; 5245.238;   -9.440; 7836.011
850.104; 5245.663;  -12.920; 7913.669
850.668; 5263.881;  -13.510; 7694.508
851.232; 5212.167;  -11.550; 7756.887
851.796; 5086.130;  -10.150; 7926.545
852.359; 4889.641;  -11.280; 7827.844
852.923; 4671.814;  -13.170; 7641.163
853.487; 4680.986;   -8.270; 7342.501
854.050; 4906.236;  -13.730; 7042.820
854.614; 5184.753;  -15.760; 7151.338
855.177; 5524.876;  -13.870; 7105.077
855.741; 5805.176;   -8.400; 6989.675
856.304; 5986.379;  -10.860; 6596.634
856.868; 6037.443;  -11.990; 6356.272
857.431; 5919.143;  -13.200; 6468.571
857.995; 5792.922;   -9.990; 6373.210
858.558; 5853.486;   -8.170; 6324.448
859.121; 5938.339;  -13.140; 6408.327
859.684; 5941.529;   -9.450; 6347.886
860.247; 5954.667;  -11.220; 6321.264
860.810; 5891.688;  -13.780; 6301.903
861.374; 5862.766;  -10.030; 6607.881
861.937; 5895.030;  -13.030; 6408.200
862.500; 5861.092;  -10.540; 6572.639
863.062; 5760.273;   -8.590; 6387.297
863.625; 5733.083;  -10.180; 6190.836
864.188; 5637.501;  -13.800; 5807.254
864.751; 5447.591;  -11.460; 5682.413
865.314; 5252.208;   -9.150; 5547.492
865.876; 4963.765;  -11.670; 5500.150
866.439; 4785.853;  -12.180; 5415.909
867.002; 4743.572;   -9.240; 5501.567
867.564; 4632.217;   -9.110; 5413.946
868.127; 4478.179;  -14.500; 5160.325
868.689; 4454.943;  -12.170; 5133.183
869.252; 4416.273;  -10.090; 5252.382
869.814; 4311.397;  -10.410; 5297.141
870.377; 4254.559;  -10.800; 5390.919
870.939; 4165.216;  -10.510; 5599.898
871.501; 4150.517;   -9.790; 5248.336
872.063; 4214.419;  -12.250; 4854.235
872.626; 4153.329;  -13.540; 4817.074
873.188; 4051.765;  -15.090; 4987.732
873.750; 4038.106;  -10.310; 4868.651
874.312; 4011.342;  -11.260; 4779.330
874.874; 3939.257;  -10.690; 4866.348
875.436; 3827.641;  -12.930; 4718.887
875.998; 3700.677;   -7.660; 4660.005
876.560; 3632.314;   -7.530; 4462.964
877.122; 3629.337;  -13.000; 4145.042
877.683; 3462.372;  -13.860; 4056.481
878.245; 3414.922;  -10.260; 3950.740
878.807; 3573.548;  -10.130; 4058.958
879.369; 3611.076;  -12.220; 3954.677
879.930; 3586.873;  -13.730; 3941.495
880.492; 3571.999;   -8.490; 4067.014
881.053; 3453.470;  -12.720; 3859.633
881.615; 3341.674;  -13.390; 3776.071
882.176; 3322.340;  -12.020; 3734.750
882.738; 3230.376;   -9.320; 3678.489
883.299; 3080.984;   -8.730; 3405.407
883.860; 2956.241;  -15.950; 3351.106
884.422; 2819.033;  -12.580; 3394.044
884.983; 2712.993;  -12.580; 3166.443
885.544; 2675.540;   -8.890; 3189.802
886.105; 2565.561;  -11.210; 3160.360
886.666; 2389.416;  -12.350; 3093.059
887.227; 2268.369;   -9.290; 2941.957
887.788; 2190.203;  -10.190; 2974.836
888.349; 2104.533;  -14.090; 2721.214
888.910; 2028.011;  -14.530; 2696.493
889.471; 1936.105;   -7.100; 2560.172
890.032; 1841.766;  -10.210; 2558.190
890.593; 1801.551;  -13.520; 2567.669
891.153; 1746.771;  -12.680; 2460.307
891.714; 1629.576;  -12.490; 2372.046
892.275; 1523.977;  -10.900; 2309.505
892.835; 1452.672;  -12.710; 2382.543
893.396; 1365.869;  -13.250; 2295.502
893.956; 1270.378;  -12.530; 2162.420
894.517; 1183.879;   -8.720; 2125.439
895.077; 1085.266;  -12.530; 2086.978
895.638; 1016.955;  -13.230; 2126.316
896.198;  971.648;   -9.480; 1838.275
896.758;  913.089;   -9.970; 1892.813
897.319;  842.497;  -11.840; 1792.232
897.879;  787.623;  -14.430; 1762.751
898.439;  741.193;  -11.760; 1661.149
898.999;  702.756;   -8.600; 1781.468
899.559;  669.004;  -14.490; 1703.347
900.119;  614.341;  -15.010; 1537.525
900.679;  565.511;  -10.050; 1638.384
901.239;  541.040;   -8.750; 1527.902
901.799;  524.691;  -12.020; 1456.441
902.359;  491.738;  -13.550; 1357.140
902.919;  461.039;   -8.960; 1331.118
903.479;  439.404;  -10.570; 1317.257
904.038;  412.438;  -15.670; 1262.595
904.598;  392.402;  -15.610; 1152.034
905.158;  379.710;  -11.680; 1240.893
905.717;  362.640;   -9.310; 1233.691
906.277;  344.747;  -12.560; 1217.330
906.836;  332.701;  -11.680; 1222.408
907.396;  319.097;  -10.650; 1193.047
907.955;  308.428;   -8.670; 1182.526
908.515;  296.434;  -15.210; 1099.364
909.074;  289.810;  -11.830; 1092.863
909.633;  274.862;  -12.480; 1069.121
910.192;  271.533;   -6.940; 1196.460
910.752;  263.882;  -12.500; 1029.960
911.311;  250.759;  -12.990; 1009.780
911.870;  232.017;  -11.210;  971.460
912.429;  217.679;   -9.580; 1094.080
912.988;  210.147;  -13.880; 1081.060
913.547;  210.384;  -16.370;  940.380
914.106;  216.462;  -12.180;  999.420
914.665;  213.259;  -10.650;  984.020
915.224;  209.235;  -11.860; 1035.760
915.782;  206.957;  -12.240;  922.560
916.341;  204.354;   -9.590; 1049.840
916.900;  199.205;  -10.880;  925.260
917.458;  194.834;  -14.100;  884.220
918.017;  193.428;  -16.510;  942.600
918.576;  190.847;  -12.600;  904.440
919.134;  191.971;   -8.170;  837.980
919.693;  190.831;  -14.790;  893.060
920.251;  189.556;  -14.280;  876.500
920.809;  185.815;  -13.100;  839.580
921.368;  186.347;   -7.690;  885.360
921.926;  182.434;  -14.040;  842.940
922.484;  181.049;  -14.080;  903.360
923.042;  179.140;  -11.300;  880.340
923.601;  182.992;   -7.720;  998.680
924.159;  179.625;  -13.020;  935.560
924.717;  176.246;  -15.430;  841.080
925.275;  178.825;   -9.520;  903.240
925.833;  176.962;  -10.810;  779.320
926.391;  178.046;  -14.330;  938.380
926.949;  177.689;  -14.100;  857.680
927.506;  181.124;  -12.020;  903.500
928.064;  181.310;  -10.390;  877.580
928.622;  182.362;  -11.650;  880.100
929.180;  183.069;  -14.090;  814.180
929.737;  184.090;  -13.070;  808.540
930.295;  188.859;   -9.670;  928.480
930.853;  192.175;  -15.390;  849.100
931.410;  194.936;  -14.200;  821.120
931.968;  194.392;  -10.330;  940.660
932.525;  194.200;  -11.210;  909.380
933.082;  199.065;  -18.200;  811.440
933.640;  207.713;  -13.590;  925.900
934.197;  209.117;  -10.910;  886.360
934.754;  210.365;  -10.230;  897.780
935.312;  212.100;  -14.320;  863.340
935.869;  216.965;  -10.010; 1012.980
936.426;  216.277;  -12.650;  872.800
936.983;  223.779;   -9.460;  889.020
937.540;  226.818;  -16.050;  838.280
938.097;  229.636;  -13.260;  940.120
938.654;  232.597;  -10.930;  898.860
939.211;  236.985;  -11.210;  952.480
939.768;  238.895;  -15.520;  915.420
940.324;  244.935;  -15.570;  904.200
940.881;  249.674;  -10.840;  878.500
941.438;  253.016;   -8.600; 1021.200
941.995;  252.707;  -13.690;  992.560
942.551;  257.134;  -15.050;  875.620
943.108;  264.451;   -9.990;  937.920
943.664;  261.937;  -12.640;  869.340
944.221;  264.614;  -12.030; 1088.140
944.777;  262.200;  -15.350;  869.680
945.334;  264.360;  -10.950;  884.840
945.890;  263.452;   -9.010;  946.480
946.446;  265.090;  -13.830;  947.020
947.003;  267.817;  -13.600;  964.940
947.559;  265.424;   -9.640; 1063.040
948.115;  262.757;  -10.750; 1026.540
948.671;  263.987;  -13.290;  967.300
949.227;  262.490;  -14.450;  859.560
949.783;  255.782;  -10.990;  858.900
950.339;  251.952;  -11.240;  991.000
950.895;  249.781;  -13.980; 1023.840
951.451;  244.082;  -15.110;  925.280
952.007;  233.480;  -11.670;  998.540
952.563;  218.657;  -11.150;  937.780
953.118;  195.684;  -14.340;  904.940
953.674;  181.794;  -13.650;  935.780
954.230;  191.505;   -9.690;  949.640
954.785;  221.989;  -10.680;  936.640
955.341;  252.664;  -13.300;  998.160
955.897;  265.251;  -15.560;  834.660
956.452;  268.167;  -11.510;  953.840
957.008;  267.454;  -10.390; 1083.640
957.563;  266.568;  -10.880; 1009.540
958.118;  262.803;  -16.370;  877.700
958.674;  267.275;  -12.490;  946.780
959.229;  267.318;  -10.420; 1013.980
959.784;  258.671;  -16.240;  832.400
960.339;  255.584;  -11.590; 1001.280
960.894;  252.425;  -10.940;  963.760
961.449;  252.271;   -8.960;  859.960
962.004;  251.230;  -10.890; 1212.840
962.559;  246.100;  -13.020;  860.140
963.114;  241.340;  -14.100;  742.480
963.669;  242.705;   -8.330;  915.500
964.224;  238.863;  -14.680;  874.340
964.779;  245.847;  -13.520;  828.420
965.334;  252.185;  -10.400; 1017.860
965.888;  245.625;  -11.710;  875.360
966.443;  243.713;  -14.090;  972.380
966.998;  240.444;  -14.910;  819.460
967.552;  241.241;  -11.300;  908.380
968.107;  235.491;  -12.800;  868.300
968.661;  235.999;  -14.380;  922.440
969.216;  234.109;  -14.100;  856.280
969.770;  229.210;  -11.490;  917.200
970.324;  224.723;  -11.150;  923.140
970.879;  224.286;  -14.010;  947.180
971.433;  229.379;  -12.510;  952.720
971.987;  224.069;  -11.760;  895.340
972.541;  217.624;  -11.190;  917.100
973.095;  215.404;  -11.650; 1009.460
973.649;  207.829;  -15.670;  809.480
974.203;  200.197;  -12.570;  829.040
974.757;  199.902;  -11.210;  855.220
975.311;  202.228;  -16.470;  872.600
975.865;  205.462;  -15.550;  881.820
976.419;  206.440;  -12.370;  857.400
976.973;  206.750;  -10.490;  849.620
977.526;  210.381;  -14.560;  949.920
978.080;  206.633;  -16.000;  796.780
978.634;  204.249;  -11.080;  921.320
979.187;  199.818;   -8.680;  905.400
979.741;  200.829;  -11.260; 1018.380
980.294;  193.433;  -14.740;  789.160
980.848;  187.978;  -11.440;  717.220
981.401;  188.101;  -10.330;  816.540
981.955;  188.756;  -14.260;  844.300
982.508;  181.409;  -15.800;  746.340
983.061;  179.120;  -10.860;  915.260
983.615;  175.578;  -12.010;  798.800
984.168;  175.019;  -12.840;  770.080
984.721;  170.767;  -12.990;  880.760
985.274;  167.010;  -10.810;  867.500
985.827;  162.921;  -13.400;  834.220
986.380;  157.812;  -15.690;  721.340
986.933;  155.745;  -13.410;  864.800
987.486;  153.572;   -9.030;  861.920
988.039;  150.696;  -10.370;  863.100
988.591;  146.983;  -13.170;  893.260
989.144;  140.357;  -14.450;  737.260
989.697;  135.616;  -13.040;  758.740
990.250;  135.028;   -9.060;  858.100
990.802;  128.474;  -15.460;  755.860
991.355;  128.724;  -10.290;  974.880
991.907;  124.527;  -10.920;  864.320
992.460;  120.331;  -11.550;  753.760
993.012;  115.221;  -14.150;  749.540
993.565;  110.039;  -12.660;  711.360
994.117;  109.856;  -10.170;  950.780
994.669;  103.590;  -11.730;  701.320
995.221;  100.888;  -13.860;  791.920
995.774;   99.033;  -13.500;  787.580
996.326;   94.605;  -13.710;  740.220
996.878;   93.412;  -10.480;  838.420
997.430;   90.765;  -13.470;  699.860
997.982;   87.773;  -14.710;  750.140
998.534;   87.300;  -12.870;  739.060
999.086;   85.986;   -9.030;  738.220
999.638;   83.842;  -14.720;  661.380
1000.190;   82.019;  -14.510;  699.320
1000.741;   81.525;  -11.610;  742.700
1001.293;   80.282;   -9.310;  686.020
1001.845;   77.611;  -15.080;  676.640
1002.396;   76.688;  -14.260;  743.400
1002.948;   76.434;  -10.620;  737.400
1003.500;   72.081;   -9.680;  723.780
1004.051;   71.686;  -12.980;  907.580
1004.603;   67.936;  -14.340;  791.820
1005.154;   63.902;  -13.850;  608.980
1005.705;   62.603;   -9.860;  723.960
1006.257;   59.770;  -13.870;  707.220
1006.808;   59.500;  -14.110;  685.460
1007.359;   56.266;  -10.190;  763.240
1007.910;   54.728;   -9.180;  646.640
1008.461;   53.272;  -12.210;  732.940
1009.013;   51.155;  -15.250;  588.340
1009.564;   52.023;  -10.040;  793.520
1010.115;   49.261;  -11.810;  597.040
1010.665;   48.939;  -15.200;  602.160
1011.216;   49.802;  -14.530;  667.920
1011.767;   50.632;   -9.620;  697.920
1012.318;   48.910;  -10.290;  736.980
1012.869;   49.500;  -13.690;  679.000
1013.419;   46.981;  -16.680;  603.120
1013.970;   48.649;  -10.980;  666.640
1014.521;   46.804;  -10.220;  620.620
1015.071;   46.257;  -13.820;  670.380
1015.622;   46.357;  -15.510;  635.460
1016.172;   44.757;  -13.630;  596.820
1016.723;   45.209;  -12.190;  614.380
1017.273;   44.330;  -15.000;  604.160
1017.823;   45.366;  -15.270;  650.340
1018.374;   44.387;  -10.540;  611.760
1018.924;   44.339;  -12.690;  716.880
1019.474;   44.826;  -12.420;  718.880
1020.024;   43.249;  -14.240;  657.580
1020.574;   44.329;  -10.370;  726.160
1021.124;   43.672;   -8.650;  673.580
1021.674;   41.710;  -15.610;  559.120
1022.224;   43.400;  -14.230;  708.940
1022.774;   42.413;  -11.740;  668.820
1023.324;   42.884;  -10.900;  753.520
1023.874;   45.776;   -8.900;  875.760
1024.423;   40.296;  -16.440;  613.700
1024.973;   42.435;  -12.230;  610.760
1025.523;   40.188;  -10.970;  620.960
1026.072;   40.332;  -14.660;  606.420
1026.622;   40.713;  -13.680;  675.740
1027.172;   40.015;  -12.610;  715.660
1027.721;   39.043;  -11.100;  601.220
1028.270;   39.086;  -13.960;  663.400
1028.820;   38.891;  -14.120;  638.080
1029.369;   37.296;  -13.140;  612.700
1029.918;   39.084;  -12.830;  649.840
1030.468;   36.895;  -16.360;  564.780
1031.017;   39.246;  -13.860;  634.800
1031.566;   37.547;  -11.080;  608.900
1032.115;   38.383;   -8.710;  694.500
1032.664;   35.701;  -16.770;  596.480
1033.213;   38.245;  -12.840;  735.420
1033.762;   36.068;  -12.620;  635.620
1034.311;   35.850;  -10.750;  677.220
1034.860;   35.984;  -12.880;  691.000
1035.408;   36.007;  -13.920;  722.720
1035.957;   36.349;   -8.580;  719.540
1036.506;   33.330;  -11.910;  530.800
1037.055;   38.000;  -12.760;  844.320
1037.603;   34.651;  -14.440;  664.000
1038.152;   32.227;  -14.250;  534.760
1038.700;   33.075;  -11.060;  585.740
1039.249;   32.682;  -16.010;  681.220
1039.797;   33.622;  -13.650;  633.360
1040.345;   32.578;  -10.830;  705.420
1040.894;   33.345;   -9.840;  625.300
1041.442;   31.322;  -14.770;  632.200
1041.990;   30.683;  -18.520;  559.160
1042.538;   30.013;  -12.970;  536.180
1043.087;   31.075;  -11.730;  570.860
1043.635;   32.514;  -12.880;  670.500
1044.183;   31.689;  -15.620;  586.400
1044.731;   31.714;  -11.080;  576.000
1045.279;   30.921;  -10.030;  674.920
1045.827;   33.702;  -11.020;  892.400
1046.374;   29.850;  -15.130;  515.420
1046.922;   29.640;  -12.570;  590.580
1047.470;   30.634;  -10.810;  691.300
1048.018;   29.998;  -13.900;  647.960
1048.565;   32.201;  -12.760;  708.600
1049.113;   29.456;  -13.550;  557.000
1049.660;   28.441;  -12.430;  629.660
1050.208;   30.240;  -14.770;  675.640
1050.755;   29.834;  -15.970;  606.580
1051.303;   29.096;  -11.460;  686.820
1051.850;   28.028;  -10.990;  635.120
1052.397;   26.764;  -15.980;  473.960
1052.945;   26.926;  -13.960;  617.760
1053.492;   28.947;  -10.510;  741.840
1054.039;   27.990;  -11.940;  720.180
1054.586;   27.519;  -15.500;  557.240
1055.133;   28.764;  -12.570;  693.140
1055.680;   28.244;  -11.770;  646.620
1056.227;   26.123;  -13.940;  542.780
1056.774;   29.464;  -11.440;  794.980
1057.321;   26.512;  -14.200;  523.260
1057.868;   27.922;  -10.810;  651.320
1058.415;   26.191;  -11.780;  651.980
1058.961;   27.650;  -13.070;  678.940
1059.508;   26.991;  -16.400;  643.820
1060.055;   24.855;  -14.040;  581.780
1060.601;   26.714;   -9.460;  624.300
1061.148;   24.913;  -15.430;  616.820
1061.694;   26.042;  -15.940;  592.580
1062.241;   25.750;  -13.520;  596.320
1062.787;   26.003;  -11.070;  663.140
1063.334;   28.074;  -11.220;  808.560
1063.880;   25.781;  -14.810;  668.360
1064.426;   25.537;  -10.460;  706.820
1064.972;   24.539;  -10.790;  601.340
1065.518;   23.390;  -16.930;  566.640
1066.065;   23.765;  -15.590;  624.460
1066.611;   24.564;  -12.090;  598.800
1067.157;   23.098;  -12.370;  641.860
1067.703;   24.501;  -13.220;  668.480
1068.249;   23.713;  -15.890;  605.220
1068.794;   23.649;  -12.560;  626.880
1069.340;   22.463;  -12.040;  578.960
1069.886;   22.178;  -14.660;  590.700
1070.432;   21.876;  -16.230;  541.720
1070.977;   24.191;   -9.620;  601.080
1071.523;   21.836;  -11.160;  573.060
1072.068;   22.557;  -13.510;  582.000
1072.614;   20.761;  -17.000;  527.760
1073.160;   23.671;   -9.740;  687.040
1073.705;   20.238;  -11.750;  572.520
1074.250;   21.683;  -14.070;  559.900
1074.796;   22.413;  -16.470;  655.160
1075.341;   23.693;  -11.210;  664.100
1075.886;   21.726;  -11.160;  594.240
1076.431;   21.415;  -15.540;  649.880
1076.976;   20.272;  -15.020;  639.220
1077.521;   20.982;  -10.110;  583.080
1078.067;   19.839;  -12.700;  579.400
1078.612;   20.906;  -12.010;  661.620
1079.156;   19.949;  -15.690;  601.540
1079.701;   20.779;  -12.260;  693.260
1080.246;   20.704;  -10.470;  696.300
1080.791;   20.998;  -15.620;  625.020
1081.336;   20.575;  -15.570;  659.320
1081.880;   19.434;  -12.700;  649.680
1082.425;   19.370;  -10.880;  573.480
1082.970;   21.887;  -12.050;  717.040
1083.514;   19.265;  -14.830;  597.000
1084.059;   18.878;  -13.630;  586.720
1084.603;   17.795;  -11.610;  565.840
1085.147;   18.930;  -13.170;  645.220
1085.692;   19.486;  -14.330;  716.800
1086.236;   17.843;  -10.860;  503.140
1086.780;   18.539;  -10.600;  751.440
1087.325;   19.452;  -11.690;  654.620
1087.869;   19.344;  -13.220;  610.700
1088.413;   18.953;  -12.020;  705.040
1088.957;   15.628;  -14.320;  543.400
1089.501;   20.189;  -11.420;  766.640
1090.045;   20.167;  -12.630;  726.480
1090.589;   15.873;  -13.780;  569.920
1091.133;   17.532;   -9.030;  673.340
1091.676;   17.155;  -14.350;  591.940
1092.220;   17.209;  -15.850;  600.920
1092.764;   18.014;  -10.860;  706.960
1093.307;   17.737;   -9.680;  673.780
1093.851;   14.941;  -17.180;  556.540
1094.395;   17.585;  -14.810;  683.140
1094.938;   15.967;  -13.770;  632.520
1095.482;   16.638;  -11.120;  559.800
1096.025;   18.059;  -12.780;  710.880
1096.568;   18.403;  -14.470;  779.280
1097.112;   15.022;  -12.370;  508.180
1097.655;   15.529;  -12.030;  603.000
1098.198;   14.279;  -15.440;  600.180
1098.741;   15.006;  -15.860;  612.860
1099.285;   16.327;  -13.030;  657.300
1099.828;   13.004;  -12.830;  439.400
1100.371;   15.099;  -14.870;  608.160
1100.914;   16.503;  -15.020;  682.660
1101.457;   15.180;  -12.910;  679.900
1101.999;   14.761;  -10.120;  584.680
1102.542;   15.136;  -14.110;  641.440
1103.085;   14.958;  -14.560;  658.500
1103.628;   16.871;  -10.370;  762.060
1104.170;   13.571;  -10.620;  588.280
1104.713;   13.803;  -14.580;  646.700
1105.256;   13.679;  -12.820;  557.440
1105.798;   12.429;  -13.800;  499.980
1106.341;   14.744;   -9.240;  728.900
1106.883;   11.879;  -16.780;  521.340
1107.425;   14.312;  -13.710;  668.180
1107.968;   13.789;  -12.640;  612.380
1108.510;   14.811;   -9.170;  684.960
1109.052;   12.083;  -12.700;  612.620
1109.594;   12.793;  -14.340;  554.440
1110.136;   13.231;  -10.420;  643.220
1110.679;   11.521;  -10.640;  633.080
1111.221;   11.865;  -14.610;  604.460
1111.763;   11.390;  -16.140;  559.220
1112.304;   12.150;  -13.800;  547.140
1112.846;   11.685;  -10.580;  666.240
1113.388;   17.171;   -9.890;  942.180
1113.930;   12.631;  -14.720;  694.200
1114.472;   11.782;  -11.940;  606.540
1115.013;    9.851;  -12.180;  551.280
1115.555;   10.761;  -16.040;  587.100
1116.097;    9.354;  -16.340;  579.480
1116.638;   11.562;  -12.270;  684.600
1117.180;   11.595;   -8.280;  667.740
1117.721;    8.929;  -15.290;  568.580
1118.262;   13.020;  -13.110;  677.960
1118.804;   11.377;  -12.690;  637.340
1119.345;    9.728;  -11.940;  578.400
1119.886;   11.548;  -15.090;  704.040
1120.427;   10.879;  -14.820;  589.020
1120.969;    9.664;  -11.040;  597.920
1121.510;    8.871;  -13.070;  563.060
1122.051;   11.417;  -14.060;  723.580
1122.592;    9.659;  -16.410;  655.420
1123.133;    8.405;  -13.480;  547.940
1123.673;    9.176;  -10.570;  706.480
1124.214;    9.840;  -13.230;  612.460
1124.755;    9.647;  -15.080;  639.460
1125.296;    9.582;  -11.240;  627.320
1125.836;   10.446;   -7.670;  691.500
1126.377;    8.904;  -13.370;  599.660
1126.918;    9.703;  -13.320;  614.980
1127.458;    8.089;  -13.410;  622.220
1127.999;    9.621;   -9.310;  656.980
1128.539;    9.762;  -13.340;  694.240
1129.079;    8.471;  -15.830;  632.720
1129.620;    7.184;  -13.620;  558.100
1130.160;    7.011;  -12.950;  539.480
1130.700;    7.663;  -13.720;  640.840
1131.240;    9.636;  -14.260;  643.700
1131.781;    7.619;  -13.410;  619.680
1132.321;    7.179;  -13.840;  599.120
1132.861;    6.863;  -16.310;  564.200
1133.401;    7.448;  -16.110;  593.940
1133.941;    7.979;  -10.450;  626.280
1134.481;    6.722;  -10.680;  597.580
1135.020;    6.137;  -14.480;  609.160
1135.560;    7.474;  -13.580;  674.940
1136.100;    5.490;  -13.670;  501.160
1136.640;    5.121;  -14.170;  510.480
1137.179;    5.661;  -16.700;  537.960
1137.719;    7.341;  -14.230;  605.400
1138.258;    5.990;  -14.920;  587.360
1138.798;    7.102;   -8.810;  663.780
1139.337;    5.754;  -16.230;  482.840
1139.877;    7.848;  -14.910;  642.360
1140.416;    9.776;   -7.730;  878.060
1140.955;    5.145;  -13.370;  535.380
1141.494;    7.194;  -13.300;  669.280
1142.034;    5.380;  -14.940;  583.520
1142.573;    6.573;  -12.700;  646.280
1143.112;    4.763;  -12.790;  553.480
1143.651;    5.219;  -14.310;  536.480
1144.190;    7.665;  -15.170;  691.640
1144.729;    5.142;  -14.040;  607.420
1145.267;    5.796;  -10.770;  584.900
1145.806;    6.319;  -11.880;  637.040
1146.345;    5.640;  -15.880;  635.020
1146.884;    4.918;  -11.540;  622.500
1147.422;    3.798;  -12.360;  533.060
1147.961;    6.573;  -11.920;  708.460
1148.500;    7.231;  -13.760;  669.720
1149.038;    5.232;  -12.710;  632.500
1149.577;    5.512;   -9.950;  698.640
1150.115;    3.068;  -17.560;  452.280
1150.653;    4.658;  -15.380;  607.340
1151.192;    4.408;  -11.990;  552.920
1151.730;    4.619;  -10.960;  652.560
1152.268;    4.883;  -13.890;  589.520
1152.806;    4.022;  -16.930;  571.180
1153.344;    3.589;  -11.760;  577.640
1153.882;    3.899;   -9.560;  600.060
1154.421;    2.307;  -16.140;  470.620
1154.958;    2.690;  -15.940;  595.240
1155.496;    4.262;  -13.580;  645.280
1156.034;    3.571;  -10.580;  721.880
1156.572;    3.822;  -14.520;  667.060
1157.110;    2.918;  -15.450;  473.940
1157.647;    3.973;  -11.280;  676.960
1158.185;    1.717;  -14.090;  564.320
1158.723;    2.227;  -18.640;  509.200
1159.260;    4.320;  -12.690;  701.700
1159.798;    3.266;  -10.450;  658.160
1160.335;    2.432;  -12.130;  631.820

