
Integration time [ms]:   4.984
Averaging Nr. [scans]: 1000
Smoothing Nr. [pixels]: 0
Data measured with spectrometer [name]: 7414430SP
Wave   ;Sample   ;Dark     ;Reference
[nm]   ;[counts] ;[counts] ;[counts] 

288.544;    4.880;    4.010;  793.890
289.143;    1.366;    6.120;  681.602
289.742;    7.613;   15.950;  828.814
290.341;   -8.594;    4.280;  789.841
290.940;  -15.272;   -3.740;  730.702
291.538;   -6.609;    4.150;  881.108
292.137;  -13.899;   -2.240;  792.581
292.736;  -12.611;    1.080;  975.101
293.335;  -24.852;   -7.560;  735.086
293.934;  -21.296;   -2.280;  781.677
294.532;  -18.636;   -0.680; 1031.958
295.131;  -32.763;   -3.490;  834.394
295.730;  -33.081;   -7.110;  809.588
296.328;  -36.210;   -5.590;  783.442
296.927;  -40.974;   -5.220;  779.652
297.525;  -35.452;   -3.830;  781.236
298.124;  -50.189;  -10.920;  654.009
298.722;  -37.310;   -5.650;  761.933
299.321;  -44.655;   -6.180;  708.597
299.919;  -42.821;   -1.380;  751.918
300.518;  -53.406;  -11.870;  689.338
301.116;  -43.527;   -8.030;  691.381
301.715;  -40.568;   -3.350;  730.222
302.313;  -40.876;   -7.500;  704.943
302.911;  -52.175;   -8.620;  733.830
303.509;  -39.244;   -4.960;  925.627
304.108;  -39.482;   -2.750;  760.383
304.706;  -38.671;   -5.910;  801.664
305.304;  -51.462;   -9.850;  796.707
305.902;  -33.705;   -2.990;  784.484
306.500;  -46.427;   -7.260;  728.200
307.098;  -42.152;   -1.110;  746.560
307.696;  -44.596;   -6.050;  780.432
308.294;  -43.475;   -5.160;  731.359
308.892;  -40.509;   -6.140;  759.769
309.490;  -39.740;   -0.840;  712.161
310.088;  -49.544;   -7.580;  788.444
310.686;  -33.914;   -0.130;  821.749
311.284;  -40.549;    2.760;  766.040
311.882;  -44.816;   -2.520;  731.225
312.480;  -47.587;   -2.420;  697.167
313.078;  -40.625;    0.490;  808.331
313.675;  -38.385;   -1.910;  691.600
314.273;  -45.244;    0.960;  797.837
314.871;  -47.064;   -6.940;  589.829
315.468;  -45.795;   -3.320;  652.090
316.066;  -34.262;    2.660;  694.427
316.664;  -49.409;   -2.620;  656.351
317.261;  -39.336;   -0.760;  910.128
317.859;  -47.461;   -3.220;  768.735
318.456;  -41.044;   -1.140;  830.096
319.054;  -41.873;    2.010;  787.828
319.651;  -44.108;   -2.140;  759.928
320.249;  -43.378;   -0.310;  810.188
320.846;  -41.897;    0.750;  714.286
321.443;  -44.700;   -1.870;  832.135
322.041;  -50.360;   -7.520;  812.315
322.638;  -47.081;   -2.280;  701.456
323.235;  -40.081;   -1.830;  665.683
323.833;  -48.473;   -7.500;  740.354
324.430;  -46.034;   -4.270;  615.900
325.027;  -43.306;   -4.390;  876.855
325.624;  -37.904;   -1.800;  644.532
326.221;  -43.443;   -6.460;  689.717
326.818;  -46.938;   -8.680;  818.332
327.415;  -33.866;   -2.250;  748.828
328.012;  -38.359;   -5.100;  690.585
328.609;  -39.433;   -5.700;  731.389
329.206;  -43.011;   -9.990;  778.621
329.803;  -40.265;   -4.470;  737.841
330.400;  -39.910;   -5.910;  704.260
330.997;  -38.006;   -2.770;  817.147
331.594;  -48.128;   -7.750;  788.185
332.191;  -44.314;   -9.040;  728.722
332.787;  -41.686;   -3.430;  844.463
333.384;  -48.013;   -0.740;  763.093
333.981;  -60.901;   -8.150;  815.687
334.578;  -57.782;   -6.800;  708.378
335.174;  -52.332;    0.200;  731.469
335.771;  -60.869;   -4.720;  836.456
336.367;  -66.185;   -4.910;  710.631
336.964;  -60.766;   -5.110;  793.266
337.561;  -62.990;   -1.080;  731.112
338.157;  -72.211;   -3.570;  911.916
338.754;  -75.851;   -7.730;  796.589
339.350;  -75.714;   -5.340;  722.493
339.946;  -66.360;   -0.140;  773.135
340.543;  -81.110;   -5.280;  846.136
341.139;  -85.741;   -6.850;  720.836
341.735;  -88.146;   -5.190;  772.593
342.332;  -85.390;   -2.870;  691.472
342.928;  -83.982;   -5.300;  795.394
343.524;  -87.333;   -3.720;  761.684
344.120;  -90.642;   -3.190;  738.562
344.716;  -80.949;   -0.410;  723.717
345.313;  -82.244;   -4.380;  795.342
345.909;  -88.401;  -10.670;  627.336
346.505;  -80.511;   -4.300;  740.247
347.101;  -77.779;   -2.240;  827.864
347.697;  -77.917;   -4.320;  785.398
348.293;  -80.043;   -6.470;  627.244
348.889;  -83.236;   -9.500;  745.914
349.485;  -74.575;    1.180;  688.205
350.081;  -76.307;   -3.560;  772.592
350.676;  -85.180;   -9.270;  691.606
351.272;  -74.026;   -6.230;  809.530
351.868;  -70.609;   -0.610;  780.497
352.464;  -74.174;   -4.750;  723.932
353.059;  -80.941;   -8.880;  646.017
353.655;  -77.957;   -7.240;  777.063
354.251;  -67.951;   -0.500;  759.845
354.846;  -78.655;   -7.140;  740.646
355.442;  -85.236;   -7.940;  753.071
356.038;  -75.607;   -4.240;  751.708
356.633;  -77.894;   -4.860;  728.594
357.229;  -77.490;   -3.410;  724.757
357.824;  -80.910;   -7.260;  703.600
358.420;  -79.652;   -4.290;  679.726
359.015;  -79.501;   -4.690;  695.357
359.610;  -79.569;   -9.060;  763.920
360.206;  -83.791;   -8.330;  603.240
360.801;  -80.420;  -10.080;  646.503
361.396;  -74.947;   -5.460;  725.975
361.992;  -83.759;   -7.870;  668.220
362.587;  -85.752;   -8.290;  670.160
363.182;  -79.502;   -6.180;  689.631
363.777;  -80.017;   -4.460;  738.242
364.372;  -79.955;   -5.160;  737.314
364.967;  -86.496;   -8.600;  680.744
365.563;  -74.842;   -4.150;  815.567
366.158;  -78.989;   -4.240;  685.161
366.753;  -78.254;   -7.420;  649.263
367.348;  -82.268;   -9.740;  746.056
367.942;  -80.036;   -7.990;  697.298
368.537;  -80.329;   -4.590;  754.245
369.132;  -81.157;   -6.810;  703.428
369.727;  -86.025;   -9.290;  638.079
370.322;  -84.744;   -7.060;  580.186
370.917;  -82.817;   -3.010;  710.646
371.511;  -76.869;   -0.960;  861.834
372.106;  -84.557;   -8.730;  776.964
372.701;  -87.556;   -6.610;  585.988
373.296;  -77.790;   -2.890;  863.135
373.890;  -87.725;   -6.400;  647.840
374.485;  -86.963;   -6.650;  691.199
375.079;  -80.749;   -3.070;  738.685
375.674;  -82.489;   -6.240;  812.970
376.268;  -82.112;   -3.430;  691.759
376.863;  -97.376;  -12.220;  580.327
377.457;  -81.673;   -5.240;  662.490
378.052;  -84.552;   -2.690;  764.884
378.646;  -87.757;   -6.120;  741.167
379.240;  -88.113;   -6.930;  721.176
379.835;  -83.249;   -5.490;  636.978
380.429;  -88.350;   -5.540;  562.557
381.023;  -86.313;   -3.860;  779.205
381.617;  -90.730;   -7.820;  680.106
382.212;  -84.716;   -8.560;  685.303
382.806;  -80.914;   -2.190;  760.690
383.400;  -88.404;   -6.360;  672.281
383.994;  -89.616;   -8.170;  664.870
384.588;  -82.286;   -4.880;  697.701
385.182;  -78.491;   -6.080;  726.624
385.776;  -80.331;   -5.170;  706.875
386.370;  -87.419;   -9.740;  681.968
386.964;  -85.218;   -9.480;  684.155
387.558;  -80.297;   -6.290;  598.360
388.152;  -83.933;   -5.070;  681.959
388.745;  -83.071;   -6.790;  814.707
389.339;  -80.583;   -6.390;  747.642
389.933;  -76.696;   -5.220;  695.370
390.527;  -80.257;   -2.850;  859.029
391.120;  -90.039;   -7.590;  595.318
391.714;  -82.575;   -5.270;  711.633
392.308;  -78.419;   -2.860;  780.253
392.901;  -84.934;   -7.210;  642.460
393.495;  -88.088;   -9.770;  595.414
394.089;  -84.827;   -6.960;  760.452
394.682;  -84.514;   -4.520;  697.188
395.275;  -83.637;   -5.390;  719.927
395.869;  -87.900;   -8.060;  667.314
396.462;  -84.896;   -7.150;  616.609
397.056;  -74.916;    0.640;  776.621
397.649;  -86.317;   -6.180;  731.575
398.242;  -80.162;   -7.550;  712.645
398.836;  -79.430;   -6.590;  766.408
399.429;  -80.201;   -5.530;  631.041
400.022;  -85.922;   -5.450;  665.902
400.615;  -82.088;   -8.790;  805.609
401.208;  -79.262;   -7.880;  691.451
401.802;  -81.970;   -2.360;  699.329
402.395;  -87.564;   -7.830;  683.502
402.988;  -85.428;   -7.960;  696.627
403.581;  -80.595;   -6.750;  646.878
404.174;  -75.062;   -4.750;  686.568
404.767;  -84.023;   -9.360;  638.583
405.360;  -85.995;  -10.240;  621.445
405.953;  -76.264;   -4.870;  759.034
406.545;  -76.199;   -5.330;  725.342
407.138;  -81.927;   -7.770;  618.350
407.731;  -83.344;  -12.440;  613.303
408.324;  -70.757;   -5.910;  660.554
408.917;  -75.703;   -4.470;  681.864
409.509;  -78.818;   -5.580;  740.396
410.102;  -85.882;  -10.740;  643.948
410.695;  -70.120;   -5.650;  665.758
411.287;  -73.870;   -7.390;  599.821
411.880;  -72.708;   -6.580;  585.421
412.472;  -79.916;  -11.300;  613.092
413.065;  -76.805;   -7.910;  629.408
413.657;  -73.501;   -8.730;  576.678
414.250;  -70.642;   -6.740;  646.681
414.842;  -72.463;   -9.260;  676.353
415.434;  -73.155;  -10.170;  570.463
416.027;  -61.992;   -6.070;  652.196
416.619;  -65.860;   -3.120;  713.400
417.211;  -70.755;   -9.310;  599.352
417.804;  -61.712;   -6.990;  628.499
418.396;  -69.694;   -5.620;  607.643
418.988;  -65.803;   -7.190;  659.238
419.580;  -71.335;   -9.820;  568.276
420.172;  -68.986;  -11.260;  536.196
420.764;  -58.469;   -2.760;  672.482
421.356;  -64.919;  -10.050;  636.898
421.948;  -64.695;   -7.650;  677.661
422.540;  -54.321;   -5.110;  680.027
423.132;  -57.161;   -7.600;  600.641
423.724;  -62.622;   -6.890;  561.267
424.316;  -62.456;  -11.420;  621.345
424.908;  -53.950;   -7.410;  591.517
425.500;  -51.941;   -5.860;  647.978
426.092;  -50.947;   -7.870;  648.268
426.683;  -55.516;   -7.640;  684.836
427.275;  -50.010;   -9.650;  641.471
427.867;  -47.817;   -7.040;  668.948
428.458;  -44.319;   -5.230;  732.344
429.050;  -51.708;  -10.660;  680.749
429.642;  -46.706;   -6.110;  743.124
430.233;  -44.550;   -5.910;  569.356
430.825;  -46.673;   -9.550;  724.809
431.416;  -48.645;   -7.950;  698.241
432.008;  -42.348;   -7.710;  651.723
432.599;  -39.540;   -3.800;  656.073
433.190;  -48.960;  -10.670;  637.670
433.782;  -49.628;  -11.700;  590.395
434.373;  -35.953;   -6.020;  884.765
434.964;  -37.862;   -5.640;  602.920
435.556;  -42.505;   -5.880;  634.537
436.147;  -40.319;   -9.560;  758.490
436.738;  -39.348;   -7.230;  701.099
437.329;  -29.095;   -4.280;  721.723
437.920;  -45.762;   -9.360;  666.688
438.511;  -42.826;  -10.840;  564.526
439.103;  -32.395;   -8.700;  623.998
439.694;  -31.430;   -8.200;  681.583
440.285;  -28.297;   -4.500;  764.432
440.876;  -33.606;   -9.520;  845.738
441.466;  -32.123;   -9.420;  575.162
442.057;  -24.674;   -7.920;  665.814
442.648;  -27.068;   -6.180;  746.255
443.239;  -33.158;  -11.070;  620.477
443.830;  -23.941;  -10.140;  704.958
444.421;  -19.329;   -6.270;  655.474
445.011;  -28.674;   -6.890;  693.619
445.602;  -29.166;   -8.540;  743.126
446.193;  -26.564;  -12.110;  488.117
446.783;  -14.870;   -5.180;  640.397
447.374;  -27.275;   -7.030;  692.759
447.964;  -26.291;  -10.080;  713.770
448.555;  -11.115;   -5.950;  822.742
449.145;  -19.590;   -7.610;  662.853
449.736;  -19.713;   -7.160;  803.179
450.326;  -19.653;   -7.950;  713.626
450.917;  -11.936;   -8.850;  675.324
451.507;  -10.298;   -3.560;  600.661
452.097;  -13.950;   -8.390;  746.267
452.688;  -11.404;  -10.410;  742.160
453.278;  -10.484;   -7.790;  566.840
453.868;   -5.064;   -4.410;  793.550
454.458;  -11.128;   -9.990;  651.141
455.048;   -8.123;   -6.750;  711.783
455.639;   -6.767;  -11.850;  567.096
456.229;   -2.409;   -5.880;  710.694
456.819;    1.034;   -5.390;  751.158
457.409;   -3.238;  -10.180;  773.993
457.999;    6.887;   -4.410;  737.505
458.589;    3.638;   -4.670;  686.606
459.179;    1.504;   -7.090;  717.658
459.769;   -2.905;  -10.840;  627.099
460.358;    5.700;   -9.100;  797.262
460.948;    7.156;   -6.800;  689.503
461.538;    7.453;   -5.940;  660.677
462.128;    0.726;  -13.130;  664.934
462.717;   17.250;   -7.390;  710.326
463.307;   19.715;   -6.350;  705.846
463.897;    9.221;   -9.430;  656.942
464.486;    7.792;   -8.210;  837.128
465.076;   16.475;   -7.270;  733.776
465.666;   21.272;   -7.030;  652.900
466.255;   16.347;   -5.520;  785.651
466.845;   14.643;  -12.810;  666.749
467.434;   19.909;   -7.430;  725.873
468.023;   19.207;   -9.310;  658.357
468.613;   14.567;   -7.570;  713.946
469.202;   20.523;  -11.320;  646.507
469.791;   25.368;   -9.670;  737.811
470.381;   29.066;   -4.880;  742.813
470.970;   27.917;   -9.140;  711.099
471.559;   26.917;  -10.530;  733.291
472.148;   30.991;  -12.040;  675.737
472.738;   35.820;   -4.020;  765.466
473.327;   31.268;  -10.160;  637.529
473.916;   29.088;  -11.300;  737.446
474.505;   37.278;   -8.590;  751.703
475.094;   40.390;   -5.840;  806.570
475.683;   41.703;   -5.440;  797.699
476.272;   35.532;  -13.520;  730.632
476.861;   45.058;   -7.910;  706.754
477.449;   55.200;   -5.850;  728.487
478.038;   39.993;   -8.510;  692.513
478.627;   40.050;  -12.030;  714.852
479.216;   56.806;   -4.580;  769.441
479.805;   57.249;   -4.350;  783.375
480.393;   51.538;   -6.510; 1008.945
480.982;   53.337;   -5.200;  874.501
481.571;   59.089;  -10.370;  858.333
482.159;   63.684;   -7.320;  705.386
482.748;   58.126;   -9.610;  821.385
483.336;   63.641;   -8.720;  858.209
483.925;   65.045;   -5.990;  774.373
484.513;   73.132;   -9.750;  758.962
485.102;   69.145;   -6.250;  810.965
485.690;   80.848;   -7.990; 1011.050
486.278;   84.483;   -6.980;  979.329
486.867;   86.301;   -5.910;  809.662
487.455;   86.780;   -8.960;  898.229
488.043;   91.087;  -12.330;  748.361
488.631;  113.486;   -4.470; 1005.079
489.220;  125.344;   -5.420;  908.626
489.808;  133.114;  -11.060;  741.415
490.396;  161.874;   -8.740;  914.645
490.984;  189.687;   -9.520;  830.161
491.572;  228.628;   -5.450;  940.315
492.160;  257.912;   -5.500;  919.081
492.748;  293.945;  -10.710;  884.341
493.336;  372.359;   -8.210; 1019.693
493.924;  475.457;   -5.230;  958.077
494.512;  576.921;   -7.650; 1066.638
495.100;  687.184;  -10.540; 1103.280
495.687;  841.795;   -7.620; 1206.373
496.275; 1017.216;   -9.620; 1150.796
496.863; 1229.814;  -12.580; 1281.171
497.451; 1440.971;   -9.470; 1386.805
498.038; 1580.124;  -12.280; 1556.729
498.626; 1858.853;   -5.930; 1741.407
499.214; 2287.244;   -5.900; 2016.609
499.801; 2579.244;   -8.330; 2220.633
500.389; 2801.710;  -12.100; 2312.494
500.976; 3122.050;   -5.080; 2744.849
501.564; 3557.634;   -8.170; 3148.565
502.151; 4004.561;  -14.210; 3515.999
502.738; 4392.262;  -11.720; 3971.274
503.326; 4715.797;   -8.300; 4403.796
503.913; 5085.751;   -6.970; 5161.749
504.500; 5566.083;   -9.580; 5986.420
505.088; 6027.286;  -11.970; 6381.201
505.675; 6429.477;   -5.420; 6925.547
506.262; 6838.802;   -7.630; 7619.060
506.849; 7420.067;  -10.060; 8733.969
507.436; 7960.713;   -9.410; 9790.121
508.023; 7843.229;   -5.740; 9985.472
508.610; 8148.359;   -2.880;10434.618
509.197; 9348.249;   -9.840;11198.435
509.784; 9978.969;   -9.190;12391.194
510.371;10250.175;   -6.740;13603.713
510.958;10474.240;   -9.610;14426.586
511.545;10540.718;  -12.100;15243.775
512.132;10478.163;   -8.660;15945.876
512.719;11489.676;   -8.180;16340.369
513.305;12721.127;   -6.060;18011.766
513.892;13499.995;   -9.210;19754.971
514.479;14360.247;   -9.950;20967.805
515.066;15320.875;   -4.120;22299.793
515.652;16223.483;  -10.770;22908.660
516.239;16929.266;   -8.140;23798.875
516.825;17308.244;   -9.690;25567.275
517.412;17512.805;   -7.030;28154.959
517.998;17165.686;   -4.240;28344.111
518.585;16077.837;  -10.760;27134.219
519.171;16274.776;  -11.780;27268.576
519.758;17334.004;   -4.540;28964.129
520.344;17513.936;   -8.060;30664.494
520.930;18048.561;  -10.620;32550.605
521.516;18766.023;  -10.230;35422.895
522.103;19439.350;   -5.060;38280.004
522.689;20290.354;   -9.900;37835.117
523.275;21178.041;   -7.570;37288.613
523.861;21659.512;   -8.580;37281.395
524.447;21745.279;   -5.380;37846.949
525.033;21624.074;   -6.970;38321.949
525.619;21389.783;  -11.160;38579.285
526.205;21279.371;   -8.250;40622.875
526.791;21214.021;   -5.420;42258.836
527.377;20749.727;   -7.680;42966.902
527.963;20013.455;   -9.910;42018.949
528.549;19304.777;   -9.130;42476.828
529.135;18695.332;   -6.180;41854.852
529.721;18076.771;   -9.180;41237.711
530.306;19207.691;   -7.130;41259.445
530.892;20463.482;   -9.550;41506.047
531.478;20648.385;   -8.660;43559.613
532.063;21043.854;  -10.060;47695.563
532.649;21411.793;   -8.190;50808.324
533.235;21592.307;   -9.570;51787.500
533.820;21756.514;   -4.950;52145.035
534.406;21986.322;   -7.660;51133.488
534.991;21610.465;  -13.130;49996.805
535.576;20357.527;  -10.670;48882.852
536.162;20195.900;   -3.650;46942.285
536.747;21075.064;   -7.370;45711.746
537.333;21219.871;  -13.970;48510.180
537.918;21087.707;   -8.270;50439.891
538.503;21422.408;   -8.890;50863.711
539.088;22208.418;   -6.680;50906.922
539.673;23229.357;  -12.040;52621.965
540.259;24377.457;  -10.650;52368.094
540.844;25432.395;   -5.550;50879.109
541.429;26114.506;   -9.300;52077.777
542.014;26330.850;  -11.850;52716.695
542.599;26340.893;   -8.580;52363.281
543.184;26082.352;   -8.350;53187.137
543.769;25869.393;   -9.280;54697.605
544.354;24900.746;  -12.690;53913.914
544.938;23424.104;  -10.280;49680.164
545.523;24412.516;   -6.450;47386.277
546.108;25560.869;   -9.920;49151.949
546.693;25192.080;  -12.160;51384.637
547.278;24521.705;   -7.060;51853.254
547.862;23374.654;   -6.790;51173.750
548.447;23482.596;   -7.010;51691.395
549.031;25101.508;  -11.840;52456.703
549.616;25828.742;   -9.310;52714.516
550.201;25732.271;   -9.290;52414.598
550.785;25647.080;   -9.910;52355.059
551.370;25841.260;  -12.090;54589.453
551.954;25935.830;  -10.260;58267.348
552.538;26263.068;   -6.280;59062.176
553.123;26482.400;   -7.550;58115.285
553.707;26683.580;  -12.880;56556.285
554.291;26844.107;   -9.310;56201.668
554.876;26876.270;   -4.810;55335.762
555.460;26795.035;   -8.360;54155.703
556.044;26721.578;  -13.640;53721.484
556.628;26716.162;  -10.620;53731.016
557.212;26473.639;   -5.460;54312.531
557.796;26008.914;   -7.800;53797.773
558.380;25538.420;  -10.960;56145.984
558.964;25265.809;   -9.860;57277.930
559.548;25281.443;   -6.030;56459.641
560.132;25601.094;   -9.020;54434.543
560.716;26401.203;  -11.600;54800.617
561.300;27469.500;  -10.360;57606.945
561.884;28688.836;   -5.950;58972.445
562.467;30027.104;   -6.470;57327.570
563.051;31024.705;  -10.970;54962.434
563.635;31375.414;  -10.720;52594.473
564.219;31278.498;   -6.270;50610.410
564.802;30564.686;   -6.220;49551.180
565.386;29625.262;  -11.200;48370.953
565.969;28366.688;   -9.190;48178.871
566.553;27457.086;   -4.430;49957.305
567.136;27165.725;   -5.920;50369.594
567.720;27485.256;   -8.750;49492.004
568.303;28330.865;   -8.790;50616.352
568.887;29406.098;   -7.980;50727.148
569.470;30206.184;   -7.440;51698.379
570.053;30496.219;  -10.090;52122.078
570.637;29497.266;  -11.590;52536.438
571.220;29808.447;   -7.430;51186.098
571.803;30652.844;   -6.130;51032.762
572.386;30598.885;  -13.580;49609.887
572.969;30226.041;   -8.790;48285.926
573.552;29924.816;   -6.590;47624.285
574.135;28713.754;  -10.320;45498.641
574.718;24657.881;  -11.540;41970.434
575.301;25698.563;   -9.370;41447.137
575.884;26739.246;   -7.200;40923.836
576.467;28752.641;   -7.800;45267.723
577.050;29226.346;  -12.670;48175.543
577.633;29516.035;   -8.160;47729.328
578.216;29859.230;   -6.530;47579.793
578.799;30099.512;   -9.050;47820.996
579.381;30219.320;   -7.100;48115.551
579.964;30462.025;  -12.510;47333.766
580.547;31072.348;   -3.590;46668.969
581.129;32112.051;   -7.550;44466.141
581.712;32889.320;  -12.430;44164.922
582.294;33820.383;   -8.780;46477.855
582.877;34659.129;   -3.670;48244.254
583.459;35405.844;   -9.680;47437.895
584.042;35852.426;  -10.080;46943.219
584.624;35405.086;  -10.170;46792.227
585.206;34926.262;   -9.780;46557.250
585.789;34226.023;   -7.190;45793.773
586.371;33098.777;  -12.370;43836.391
586.953;31535.912;   -8.490;42972.492
587.536;31750.596;   -7.300;42487.211
588.118;32331.844;  -10.560;42086.414
588.700;32388.295;   -6.030;43389.930
589.282;31882.846;   -9.590;43646.039
589.864;31160.674;   -7.900;43438.109
590.446;30448.258;   -9.550;43151.926
591.028;29302.123;  -13.100;42781.867
591.610;28032.631;   -9.310;42839.098
592.192;27021.148;   -6.870;42820.402
592.774;25687.521;  -11.610;40724.277
593.356;25184.275;  -10.690;39874.789
593.937;27546.584;  -13.200;39980.648
594.519;29770.197;   -3.370;42069.633
595.101;31201.123;  -10.940;42976.031
595.683;32259.955;  -11.690;44084.441
596.264;32768.641;  -10.400;43478.797
596.846;33240.820;   -9.270;43803.672
597.427;33200.445;   -8.210;42986.934
598.009;32611.805;  -11.570;42832.219
598.591;31556.207;  -11.780;42580.086
599.172;30636.734;   -6.310;43061.805
599.753;30068.453;   -8.060;41691.469
600.335;29933.598;  -10.500;40692.520
600.916;30318.383;   -8.600;39982.422
601.498;31216.174;   -3.410;40318.617
602.079;32536.693;   -8.100;40670.609
602.660;33999.301;  -11.690;41450.898
603.241;35350.648;  -10.530;41137.738
603.823;36181.664;   -7.780;38868.797
604.404;36562.602;  -12.500;38182.785
604.985;36465.469;  -11.270;38078.047
605.566;35793.465;   -7.940;38056.633
606.147;34742.992;   -7.310;37020.418
606.728;33722.383;  -10.640;37883.359
607.309;32670.322;  -12.670;38748.273
607.890;31761.912;  -10.720;38850.230
608.471;31000.557;   -7.920;37457.918
609.051;30367.027;  -10.240;36066.457
609.632;29777.148;  -14.560;35991.074
610.213;29186.572;   -7.290;37402.641
610.794;28788.520;   -8.400;38383.363
611.374;28367.387;   -6.040;40562.387
611.955;28446.998;  -12.450;38533.727
612.536;28455.297;  -10.380;36951.789
613.116;28616.781;   -8.430;37197.891
613.697;28960.627;   -8.300;38411.125
614.277;29218.908;  -13.760;38673.938
614.858;29050.992;   -8.670;37075.863
615.438;27125.896;   -3.880;35092.906
616.019;28788.193;   -7.830;33666.301
616.599;31744.781;  -12.790;34189.023
617.179;32688.889;  -10.380;36952.047
617.760;33000.988;   -5.610;39582.574
618.340;33172.035;   -7.010;38943.977
618.920;33497.594;   -8.740;37594.156
619.500;33820.906;  -11.640;37866.938
620.080;34065.770;   -9.620;37869.043
620.660;34253.730;   -9.160;36868.617
621.241;34290.129;  -11.830;36352.309
621.821;34124.996;   -9.900;35459.520
622.401;33959.523;   -6.830;35207.414
622.980;33423.238;  -11.160;35980.422
623.560;32546.770;   -9.050;37351.328
624.140;29025.586;  -10.450;34388.582
624.720;23978.324;   -9.070;32368.764
625.300;25226.064;  -12.250;32638.629
625.880;29770.988;  -14.300;34599.035
626.459;31531.814;   -9.800;36831.738
627.039;32146.207;   -6.650;38299.098
627.619;32719.494;   -6.650;38289.574
628.198;33676.379;   -8.250;37220.695
628.778;34881.156;   -9.100;37632.563
629.357;35839.129;   -9.210;38003.012
629.937;36560.328;   -8.410;38402.039
630.516;36560.527;  -10.050;37868.801
631.096;36549.633;  -12.670;35760.410
631.675;35686.078;   -6.590;35225.219
632.254;34870.246;   -9.840;35130.289
632.834;33649.477;  -12.700;35794.570
633.413;32999.684;   -9.650;35788.922
633.992;32929.637;   -5.880;34532.863
634.571;33227.223;   -8.430;33590.113
635.151;33986.691;  -13.740;34943.863
635.730;35420.988;  -11.940;35352.523
636.309;37285.195;   -8.220;35366.605
636.888;39612.941;   -7.810;36165.637
637.467;41749.395;  -12.740;37515.902
638.046;43020.668;  -10.750;39288.695
638.625;43674.836;   -6.000;38279.699
639.204;43749.762;   -6.740;37741.598
639.782;42923.121;  -14.990;38364.551
640.361;40950.469;   -9.480;36740.621
640.940;40633.910;   -8.440;34950.082
641.519;43814.906;   -6.380;34137.398
642.097;44907.578;  -12.970;35654.258
642.676;44280.711;  -11.110;35637.957
643.255;44154.828;   -8.380;36567.074
643.833;44099.305;   -7.390;37809.434
644.412;43364.695;  -11.690;37337.293
644.990;43169.879;  -10.860;37018.531
645.569;42639.180;   -8.200;36518.469
646.147;41956.840;   -8.830;36186.430
646.726;41661.770;  -14.270;36267.688
647.304;41231.773;   -8.340;36647.625
647.882;41279.367;  -10.340;39286.742
648.461;41069.898;  -10.630;39157.703
649.039;41021.930;  -12.900;35412.883
649.617;41163.059;  -10.000;34744.918
650.195;41138.758;   -6.690;35403.098
650.773;41289.008;  -10.960;35053.797
651.352;40872.699;  -14.040;33756.816
651.930;37925.230;  -12.470;31868.773
652.508;34983.129;   -9.410;33121.551
653.086;38649.711;   -6.630;33564.793
653.663;40629.418;  -13.850;34054.668
654.241;40383.629;  -12.520;35693.309
654.819;40045.289;  -10.200;36422.906
655.397;39236.473;  -10.340;38213.484
655.975;37829.441;  -14.690;39507.625
656.553;36851.543;   -8.350;39498.223
657.130;35586.426;   -7.710;40395.480
657.708;33872.594;   -7.770;39242.020
658.286;33647.910;  -10.880;38920.020
658.863;34513.695;  -10.430;40202.898
659.441;34776.430;   -6.740;39677.938
660.018;34302.902;   -9.490;40413.355
660.596;33905.125;  -13.260;39931.414
661.173;34064.906;  -13.110;39604.531
661.750;34218.004;   -7.930;39700.070
662.328;34673.230;  -10.050;39292.809
662.905;34599.180;  -11.310;38235.648
663.482;32010.018;  -10.770;36212.305
664.060;33449.637;  -10.370;35944.945
664.637;39577.348;   -7.870;35170.785
665.214;42679.027;  -13.260;34197.523
665.791;44263.953;   -8.180;34549.520
666.368;45025.586;  -10.330;35118.578
666.945;45539.574;  -10.440;36019.418
667.522;45943.285;  -12.500;36048.438
668.099;45605.973;  -11.320;36243.914
668.676;44840.668;   -9.560;35958.875
669.253;43785.105;   -3.900;37384.730
669.830;42300.063;  -12.800;36779.629
670.407;41773.227;   -9.930;35231.289
670.984;40811.637;   -7.960;35544.270
671.560;40161.488;   -7.530;35466.867
672.137;39507.598;  -13.420;34280.863
672.714;39022.188;  -11.380;34632.863
673.290;40166.355;   -9.640;35135.422
673.867;40419.438;   -6.300;36114.480
674.443;40359.758;  -14.070;36152.859
675.020;41232.211;  -11.440;35327.238
675.596;41393.883;   -8.710;35795.176
676.173;41725.668;  -10.530;35430.355
676.749;42141.340;  -13.850;33549.516
677.326;42273.191;  -12.950;32210.012
677.902;42690.363;  -11.880;32068.871
678.478;43067.660;   -9.900;32583.891
679.054;44419.797;  -12.790;32088.928
679.631;46301.910;   -9.370;30978.848
680.207;48432.000;   -7.990;33160.887
680.783;50182.656;   -8.500;35570.363
681.359;51275.660;  -11.450;36125.184
681.935;52112.758;  -10.930;35240.922
682.511;52145.195;   -5.170;34429.961
683.087;51752.492;  -10.020;34463.680
683.663;50745.508;  -13.370;34648.898
684.239;49695.500;  -10.860;34546.457
684.815;48883.008;   -4.640;35586.375
685.390;48117.285;   -6.970;35821.895
685.966;47634.238;  -11.860;35085.871
686.542;46884.453;  -11.410;34198.230
687.118;46254.391;  -10.080;32847.707
687.693;45858.816;  -11.870;32794.027
688.269;44913.984;  -11.620;33072.367
688.844;44383.066;  -10.690;33141.664
689.420;44319.574;   -7.920;33965.742
689.995;44243.121;   -8.370;34655.523
690.571;44533.617;  -12.640;33576.742
691.146;45176.703;  -13.600;32657.219
691.722;45520.887;   -7.510;32526.979
692.297;46194.992;   -9.900;33014.617
692.872;46782.492;  -11.440;34012.254
693.448;46803.832;  -13.480;34237.434
694.023;47365.102;   -9.590;34142.672
694.598;47548.859;   -8.290;34132.031
695.173;46548.168;  -14.640;34205.250
695.748;45967.578;  -10.540;32882.488
696.323;45377.664;   -9.790;32864.906
696.898;44045.379;   -7.280;33170.004
697.473;43913.035;  -14.450;32432.984
698.048;44152.711;  -11.370;31649.303
698.623;44200.328;   -9.350;30778.141
699.198;45265.629;   -9.200;31140.119
699.773;46167.594;  -15.060;31764.299
700.348;46362.992;  -11.880;31780.816
700.922;47177.410;   -8.680;32046.375
701.497;47864.141;   -8.620;32603.574
702.072;47496.477;  -12.280;34799.871
702.646;47400.258;  -10.700;35793.172
703.221;47196.938;   -7.100;35201.590
703.795;46604.969;  -11.930;34764.527
704.370;46361.887;  -12.770;34307.367
704.944;45658.949;  -13.270;33509.887
705.519;45227.582;   -7.070;31388.584
706.093;45251.359;  -11.220;31340.104
706.668;45095.699;  -10.160;32630.281
707.242;44671.895;   -9.200;32728.779
707.816;44764.594;   -7.970;32947.238
708.390;44399.680;  -11.300;33277.855
708.965;44304.156;  -10.210;33834.336
709.539;44729.254;  -13.290;33709.273
710.113;44935.688;   -6.840;33044.313
710.687;44708.621;   -7.350;31953.992
711.261;44501.293;  -12.460;30505.949
711.835;43765.988;  -11.280;30262.369
712.409;43020.887;   -9.300;31254.447
712.983;43240.914;  -13.200;32754.986
713.557;43708.988;  -14.370;34018.824
714.131;43546.137;  -12.890;34579.625
714.704;43930.379;   -9.090;33890.262
715.278;43957.469;   -8.410;33531.102
715.852;43265.980;  -14.730;33601.660
716.425;43009.996;   -9.240;33515.117
716.999;42398.113;  -11.400;33185.555
717.573;41194.602;  -10.500;33905.996
718.146;40572.340;  -11.510;35199.293
718.720;40299.715;  -12.260;35060.551
719.293;40092.750;   -6.900;34973.230
719.867;40194.133;   -8.840;36394.449
720.440;40347.883;  -14.000;36663.008
721.013;40493.480;  -11.570;35102.426
721.587;40963.832;  -11.520;33985.266
722.160;41513.008;   -8.290;33524.965
722.733;42182.301;  -13.810;32987.043
723.306;43044.000;  -10.450;33066.301
723.880;44547.641;  -10.840;33399.500
724.453;46010.777;   -5.950;33468.297
725.026;47139.289;  -13.500;33816.637
725.599;48477.992;  -12.710;32797.996
726.172;49222.113;   -7.600;33187.434
726.745;49123.930;   -9.620;35136.613
727.318;49649.105;  -12.300;35751.730
727.891;49816.219;  -11.350;35890.430
728.463;49196.230;   -9.590;34822.090
729.036;49360.973;  -11.560;32895.086
729.609;49602.250;  -14.160;31823.225
730.182;48859.047;  -10.880;31445.283
730.754;49069.559;  -11.240;32373.223
731.327;49324.922;   -8.190;33676.820
731.900;48515.023;  -12.310;33417.000
732.472;47666.695;  -12.780;31978.498
733.045;47553.020;   -9.090;30368.777
733.617;46839.922;  -11.600;30574.215
734.190;46638.168;  -13.370;31280.975
734.762;47377.789;  -12.640;31674.412
735.334;47629.723;   -9.310;31247.291
735.907;47214.492;   -9.800;29876.211
736.479;47325.074;  -11.440;29808.488
737.051;47346.543;  -10.150;30233.547
737.623;46503.516;   -9.180;31469.086
738.195;46333.152;   -8.960;31784.225
738.768;46461.313;  -13.020;32120.523
739.340;45946.523;  -12.130;32094.342
739.912;45530.129;   -7.440;31312.680
740.484;45919.672;   -9.060;31946.238
741.056;46322.359;  -12.480;32984.059
741.628;46140.406;  -13.010;33897.715
742.199;46269.488;   -7.500;33213.016
742.771;46822.859;   -9.660;31369.113
743.343;46478.512;  -11.570;31865.473
743.915;45808.578;  -12.280;32388.631
744.487;45702.172;   -8.360;31079.568
745.058;45139.211;   -8.650;30570.107
745.630;44021.531;  -11.210;29970.127
746.201;43663.496;  -11.900;29186.766
746.773;43741.871;  -10.000;28805.723
747.344;43715.742;   -9.900;29591.223
747.916;43575.582;  -13.200;31412.201
748.487;43846.227;  -10.500;32194.898
749.059;43501.266;   -9.310;32533.719
749.630;42606.891;   -8.270;32158.518
750.201;42287.195;  -12.930;30855.395
750.773;41877.559;   -9.870;28622.555
751.344;41799.813;   -9.520;28405.732
751.915;42124.508;   -7.700;28461.551
752.486;41515.867;  -12.950;27842.850
753.057;40080.160;  -14.490;27845.008
753.628;40026.098;  -10.260;27728.107
754.199;40673.129;   -9.940;27381.086
754.770;39959.438;  -11.910;25882.203
755.341;38965.992;  -10.670;25886.184
755.912;38376.539;   -9.610;26050.861
756.483;37224.809;   -8.330;26798.779
757.054;36789.129;  -11.430;27048.238
757.625;37333.867;  -10.030;26294.838
758.195;37527.418;   -8.980;26142.076
758.766;37498.148;  -11.090;26392.234
759.337;37988.168;  -14.540;26334.594
759.907;38774.359;  -14.080;27579.652
760.478;39038.965;   -5.830;28352.770
761.048;38355.520;   -8.990;27325.088
761.619;37820.426;  -12.200;26460.428
762.189;37413.715;  -11.440;26029.826
762.760;36450.414;   -7.700;26430.145
763.330;35488.359;   -9.710;26670.902
763.900;35725.043;  -13.960;26603.021
764.471;36028.648;  -13.220;25542.740
765.041;35564.969;   -8.450;24358.459
765.611;35754.672;   -9.660;23991.297
766.181;36922.543;  -10.630;24470.236
766.751;37390.805;  -12.140;24845.975
767.321;37116.504;   -9.450;24533.633
767.891;37431.176;   -9.780;24916.492
768.461;37782.734;  -12.220;24776.771
769.031;37672.707;  -12.090;24757.988
769.601;38130.934;   -9.390;24181.088
770.171;39320.824;   -7.610;23670.387
770.741;40437.258;  -12.480;22960.045
771.311;41242.617;  -14.230;22917.523
771.880;42414.742;   -6.560;23562.941
772.450;43047.371;  -10.730;24216.500
773.020;42570.914;  -14.690;24140.398
773.589;41634.012;  -12.320;24414.857
774.159;41076.836;  -11.530;23858.717
774.729;40202.004;  -11.760;22942.135
775.298;38444.570;  -16.800;22324.033
775.867;37087.801;  -11.100;21140.313
776.437;35923.367;   -7.210;20838.092
777.006;34623.301;  -12.690;20599.510
777.576;33604.391;   -9.470;20508.809
778.145;33165.801;  -13.070;20732.947
778.714;32723.748;   -8.060;21062.465
779.283;32000.518;   -8.360;20949.664
779.853;31757.998;  -12.240;20508.623
780.422;31466.514;  -13.060;20649.082
780.991;30872.920;  -10.290;21527.520
781.560;30370.271;   -7.870;22632.658
782.129;30239.045;  -11.960;23048.277
782.698;30214.066;  -12.200;23438.555
783.267;30113.180;  -10.800;23267.734
783.836;30375.482;   -5.930;22415.133
784.404;30822.186;  -12.220;20443.152
784.973;30982.814;  -14.320;19699.150
785.542;30507.855;   -8.010;19763.828
786.111;29644.793;  -11.710;20341.408
786.679;28936.176;  -10.890;20207.967
787.248;27475.654;  -15.060;19516.465
787.817;25650.400;   -7.730;18900.363
788.385;25540.791;   -9.100;17879.121
788.954;25545.637;  -13.320;17658.301
789.522;24933.715;  -12.240;17788.879
790.090;23971.943;   -9.200;18118.277
790.659;23232.131;  -10.850;18338.736
791.227;22900.697;  -12.560;18508.615
791.795;22546.771;  -10.160;17898.254
792.364;22078.314;  -10.280;17295.133
792.932;21762.965;   -8.610;16822.051
793.500;21506.309;  -15.060;17040.148
794.068;20919.115;  -12.860;17179.787
794.636;20272.955;   -9.770;16664.246
795.204;20100.170;  -11.680;16524.545
795.772;19744.463;  -13.880;17274.564
796.340;19342.613;  -12.180;17891.002
796.908;19246.531;   -8.050;17648.561
797.476;19315.471;  -10.710;17064.080
798.044;19046.820;  -15.930;16672.777
798.612;18707.432;  -12.300;17023.996
799.180;18643.105;  -11.500;16561.615
799.747;18170.508;  -10.240;15962.773
800.315;17026.396;  -15.290;15296.992
800.883;17352.016;  -15.600;14801.771
801.450;18086.361;   -9.010;14534.430
802.018;18541.371;  -11.020;14173.248
802.585;18827.600;  -13.690;14029.547
803.153;18830.340;  -13.180;13836.846
803.720;19072.398;  -10.490;13567.324
804.287;19289.484;   -8.550;13360.622
804.855;19394.736;  -10.980;13681.981
805.422;19020.049;  -12.580;13536.560
805.989;18126.855;   -8.890;13355.958
806.556;18965.666;   -8.970;13747.896
807.124;19211.023;  -13.690;13987.376
807.691;18626.563;  -13.390;14038.674
808.258;18217.451;  -10.710;14120.152
808.825;17854.607;   -8.560;13860.111
809.392;17405.406;   -7.860;13268.790
809.959;16849.291;  -11.380;12680.389
810.526;16504.514;   -7.100;12427.308
811.093;16356.541;   -7.120;12030.105
811.659;15778.804;  -13.820;11653.664
812.226;15584.667;  -10.840;11637.183
812.793;16139.074;   -7.800;11611.521
813.360;16765.273;  -12.530;11885.181
813.926;17356.271;  -12.480;12770.539
814.493;17593.004;  -12.220;12677.638
815.060;17903.510;  -12.120;11974.336
815.626;18010.119;  -12.680;11594.715
816.193;17667.996;  -11.760;11579.474
816.759;17317.982;  -14.970;11666.972
817.325;17100.855;  -10.010;11325.530
817.892;17011.713;   -7.740;11105.369
818.458;16771.941;  -13.210;10843.928
819.024;16218.646;  -13.340;10714.406
819.591;16191.926;   -7.060;10469.165
820.157;16384.623;  -15.590;10235.523
820.723;16421.479;  -14.830;10847.563
821.289;16365.945;   -9.140;11040.980
821.855;16194.638;   -5.960;10357.100
822.421;16196.533;  -10.820; 9978.918
822.987;16348.496;  -14.270; 9754.177
823.553;15963.544;  -13.090;10065.755
824.119;15694.045;   -9.130;10036.294
824.685;15721.414;  -10.050;10029.192
825.251;15712.249;  -12.930;10199.230
825.816;15398.237;   -7.640; 9820.189
826.382;14819.180;  -10.370; 9297.248
826.948;14625.264;   -8.650; 9381.347
827.513;14697.844;  -15.340; 9450.726
828.079;14366.638;  -11.450; 9472.444
828.645;13970.003;  -10.890; 9292.643
829.210;13683.813;  -12.060; 9065.341
829.776;13329.189;  -11.520; 9132.620
830.341;12791.483;   -9.110; 9092.878
830.906;11855.293;   -7.090; 9078.557
831.472;10732.897;  -10.500; 8534.535
832.037;10551.433;  -12.430; 8677.874
832.602;10924.211;  -14.350; 8628.692
833.167;10706.572;  -11.460; 8879.031
833.733;10257.563;   -7.710; 9189.790
834.298; 9925.235;  -12.360; 9052.608
834.863; 9897.052;  -10.960; 8895.087
835.428; 9862.576;   -8.740; 8824.266
835.993; 9645.073;  -10.440; 8845.385
836.558; 9602.695;  -13.300; 8888.563
837.123; 9772.659;   -7.910; 8966.582
837.688;10007.786;   -9.910; 8617.860
838.253;10051.083;   -9.940; 8590.699
838.817; 9970.729;  -12.490; 8443.797
839.382;10083.277;  -12.890; 8799.356
839.947;10163.189;   -8.630; 8810.595
840.511;10050.073;   -8.970; 8796.394
841.076;10071.999;  -16.230; 8347.231
841.641;10136.048;  -10.630; 8224.330
842.205;10294.907;   -9.540; 8223.349
842.770;10335.899;   -8.910; 8622.107
843.334;10185.615;  -13.580; 8410.386
843.898;10328.913;  -13.710; 8337.465
844.463;10655.055;   -9.990; 8506.283
845.027;10688.766;  -10.570; 8280.962
845.591;10676.856;  -13.250; 8231.141
846.156;10683.444;  -15.810; 7969.179
846.720;10519.711;   -7.960; 7768.278
847.284;10101.433;  -11.370; 7630.957
847.848; 9544.460;  -10.720; 7472.395
848.412; 9639.643;  -15.770; 7437.394
848.976; 9896.847;   -8.150; 7674.592
849.540; 9621.358;   -9.440; 7836.011
850.104; 9282.511;  -12.920; 7913.669
850.668; 9102.771;  -13.510; 7694.508
851.232; 8932.061;  -11.550; 7756.887
851.796; 8759.673;  -10.150; 7926.545
852.359; 8560.830;  -11.280; 7827.844
852.923; 8287.143;  -13.170; 7641.163
853.487; 8216.172;   -8.270; 7342.501
854.050; 8314.707;  -13.730; 7042.820
854.614; 8264.088;  -15.760; 7151.338
855.177; 8232.126;  -13.870; 7105.077
855.741; 8183.553;   -8.400; 6989.675
856.304; 8138.563;  -10.860; 6596.634
856.868; 8088.943;  -11.990; 6356.272
857.431; 7873.702;  -13.200; 6468.571
857.995; 7676.697;   -9.990; 6373.210
858.558; 7721.572;   -8.170; 6324.448
859.121; 7764.191;  -13.140; 6408.327
859.684; 7701.479;   -9.450; 6347.886
860.247; 7654.892;  -11.220; 6321.264
860.810; 7518.787;  -13.780; 6301.903
861.374; 7442.077;  -10.030; 6607.881
861.937; 7453.104;  -13.030; 6408.200
862.500; 7373.341;  -10.540; 6572.639
863.062; 7215.724;   -8.590; 6387.297
863.625; 7152.637;  -10.180; 6190.836
864.188; 7007.625;  -13.800; 5807.254
864.751; 6766.231;  -11.460; 5682.413
865.314; 6506.753;   -9.150; 5547.492
865.876; 6132.190;  -11.670; 5500.150
866.439; 5900.946;  -12.180; 5415.909
867.002; 5831.896;   -9.240; 5501.567
867.564; 5683.819;   -9.110; 5413.946
868.127; 5485.749;  -14.500; 5160.325
868.689; 5436.865;  -12.170; 5133.183
869.252; 5373.380;  -10.090; 5252.382
869.814; 5236.770;  -10.410; 5297.141
870.377; 5154.990;  -10.800; 5390.919
870.939; 5025.032;  -10.510; 5599.898
871.501; 4990.064;   -9.790; 5248.336
872.063; 5042.068;  -12.250; 4854.235
872.626; 4948.410;  -13.540; 4817.074
873.188; 4818.563;  -15.090; 4987.732
873.750; 4793.286;  -10.310; 4868.651
874.312; 4747.481;  -11.260; 4779.330
874.874; 4653.530;  -10.690; 4866.348
875.436; 4515.053;  -12.930; 4718.887
875.998; 4365.887;   -7.660; 4660.005
876.560; 4282.680;   -7.530; 4462.964
877.122; 4273.217;  -13.000; 4145.042
877.683; 4076.634;  -13.860; 4056.481
878.245; 4020.471;  -10.260; 3950.740
878.807; 4190.037;  -10.130; 4058.958
879.369; 4222.215;  -12.220; 3954.677
879.930; 4181.749;  -13.730; 3941.495
880.492; 4154.571;   -8.490; 4067.014
881.053; 4011.277;  -12.720; 3859.633
881.615; 3878.771;  -13.390; 3776.071
882.176; 3847.167;  -12.020; 3734.750
882.738; 3738.165;   -9.320; 3678.489
883.299; 3570.920;   -8.730; 3405.407
883.860; 3427.012;  -15.950; 3351.106
884.422; 3263.084;  -12.580; 3394.044
884.983; 3142.834;  -12.580; 3166.443
885.544; 3098.656;   -8.890; 3189.802
886.105; 2971.935;  -11.210; 3160.360
886.666; 2778.547;  -12.350; 3093.059
887.227; 2642.490;   -9.290; 2941.957
887.788; 2549.490;  -10.190; 2974.836
888.349; 2451.602;  -14.090; 2721.214
888.910; 2366.269;  -14.530; 2696.493
889.471; 2257.467;   -7.100; 2560.172
890.032; 2148.124;  -10.210; 2558.190
890.593; 2097.058;  -13.520; 2567.669
891.153; 2034.191;  -12.680; 2460.307
891.714; 1903.362;  -12.490; 2372.046
892.275; 1785.207;  -10.900; 2309.505
892.835; 1703.881;  -12.710; 2382.543
893.396; 1607.435;  -13.250; 2295.502
893.956; 1502.319;  -12.530; 2162.420
894.517; 1407.549;   -8.720; 2125.439
895.077; 1298.257;  -12.530; 2086.978
895.638; 1220.618;  -13.230; 2126.316
896.198; 1175.114;   -9.480; 1838.275
896.758; 1108.232;   -9.970; 1892.813
897.319; 1029.045;  -11.840; 1792.232
897.879;  967.931;  -14.430; 1762.751
898.439;  915.284;  -11.760; 1661.149
898.999;  875.938;   -8.600; 1781.468
899.559;  835.936;  -14.490; 1703.347
900.119;  775.243;  -15.010; 1537.525
900.679;  721.487;  -10.050; 1638.384
901.239;  692.680;   -8.750; 1527.902
901.799;  672.392;  -12.020; 1456.441
902.359;  635.393;  -13.550; 1357.140
902.919;  604.190;   -8.960; 1331.118
903.479;  577.982;  -10.570; 1317.257
904.038;  548.210;  -15.670; 1262.595
904.598;  527.377;  -15.610; 1152.034
905.158;  512.162;  -11.680; 1240.893
905.717;  493.305;   -9.310; 1233.691
906.277;  472.216;  -12.560; 1217.330
906.836;  458.274;  -11.680; 1222.408
907.396;  443.418;  -10.650; 1193.047
907.955;  430.489;   -8.670; 1182.526
908.515;  417.331;  -15.210; 1099.364
909.074;  408.523;  -11.830; 1092.863
909.633;  391.173;  -12.480; 1069.121
910.192;  384.615;   -6.940; 1196.460
910.752;  371.428;  -12.500; 1029.960
911.311;  360.289;  -12.990; 1009.780
911.870;  350.125;  -11.210;  971.460
912.429;  344.763;   -9.580; 1094.080
912.988;  334.701;  -13.880; 1081.060
913.547;  323.422;  -16.370;  940.380
914.106;  321.077;  -12.180;  999.420
914.665;  313.956;  -10.650;  984.020
915.224;  307.888;  -11.860; 1035.760
915.782;  303.599;  -12.240;  922.560
916.341;  302.116;   -9.590; 1049.840
916.900;  295.346;  -10.880;  925.260
917.458;  291.626;  -14.100;  884.220
918.017;  289.327;  -16.510;  942.600
918.576;  286.695;  -12.600;  904.440
919.134;  287.056;   -8.170;  837.980
919.693;  283.857;  -14.790;  893.060
920.251;  282.577;  -14.280;  876.500
920.809;  278.269;  -13.100;  839.580
921.368;  278.291;   -7.690;  885.360
921.926;  273.086;  -14.040;  842.940
922.484;  269.704;  -14.080;  903.360
923.042;  269.461;  -11.300;  880.340
923.601;  271.760;   -7.720;  998.680
924.159;  267.818;  -13.020;  935.560
924.717;  264.133;  -15.430;  841.080
925.275;  268.370;   -9.520;  903.240
925.833;  264.757;  -10.810;  779.320
926.391;  264.868;  -14.330;  938.380
926.949;  263.795;  -14.100;  857.680
927.506;  267.342;  -12.020;  903.500
928.064;  266.930;  -10.390;  877.580
928.622;  265.718;  -11.650;  880.100
929.180;  266.602;  -14.090;  814.180
929.737;  268.579;  -13.070;  808.540
930.295;  272.825;   -9.670;  928.480
930.853;  275.835;  -15.390;  849.100
931.410;  277.898;  -14.200;  821.120
931.968;  278.326;  -10.330;  940.660
932.525;  278.082;  -11.210;  909.380
933.082;  279.531;  -18.200;  811.440
933.640;  289.414;  -13.590;  925.900
934.197;  290.219;  -10.910;  886.360
934.754;  292.643;  -10.230;  897.780
935.312;  293.056;  -14.320;  863.340
935.869;  297.296;  -10.010; 1012.980
936.426;  297.614;  -12.650;  872.800
936.983;  305.408;   -9.460;  889.020
937.540;  308.326;  -16.050;  838.280
938.097;  310.637;  -13.260;  940.120
938.654;  313.677;  -10.930;  898.860
939.211;  317.905;  -11.210;  952.480
939.768;  318.683;  -15.520;  915.420
940.324;  324.626;  -15.570;  904.200
940.881;  330.703;  -10.840;  878.500
941.438;  335.006;   -8.600; 1021.200
941.995;  332.039;  -13.690;  992.560
942.551;  338.131;  -15.050;  875.620
943.108;  345.787;   -9.990;  937.920
943.664;  343.529;  -12.640;  869.340
944.221;  346.173;  -12.030; 1088.140
944.777;  344.749;  -15.350;  869.680
945.334;  346.927;  -10.950;  884.840
945.890;  348.378;   -9.010;  946.480
946.446;  347.189;  -13.830;  947.020
947.003;  348.528;  -13.600;  964.940
947.559;  344.974;   -9.640; 1063.040
948.115;  341.571;  -10.750; 1026.540
948.671;  341.203;  -13.290;  967.300
949.227;  339.540;  -14.450;  859.560
949.783;  334.108;  -10.990;  858.900
950.339;  331.457;  -11.240;  991.000
950.895;  329.879;  -13.980; 1023.840
951.451;  326.671;  -15.110;  925.280
952.007;  325.778;  -11.670;  998.540
952.563;  328.705;  -11.150;  937.780
953.118;  329.024;  -14.340;  904.940
953.674;  323.549;  -13.650;  935.780
954.230;  322.657;   -9.690;  949.640
954.785;  325.346;  -10.680;  936.640
955.341;  325.857;  -13.300;  998.160
955.897;  322.596;  -15.560;  834.660
956.452;  323.792;  -11.510;  953.840
957.008;  324.658;  -10.390; 1083.640
957.563;  320.928;  -10.880; 1009.540
958.118;  314.973;  -16.370;  877.700
958.674;  321.380;  -12.490;  946.780
959.229;  320.015;  -10.420; 1013.980
959.784;  309.692;  -16.240;  832.400
960.339;  306.322;  -11.590; 1001.280
960.894;  304.859;  -10.940;  963.760
961.449;  302.524;   -8.960;  859.960
962.004;  301.343;  -10.890; 1212.840
962.559;  295.690;  -13.020;  860.140
963.114;  292.047;  -14.100;  742.480
963.669;  293.029;   -8.330;  915.500
964.224;  288.487;  -14.680;  874.340
964.779;  293.764;  -13.520;  828.420
965.334;  299.697;  -10.400; 1017.860
965.888;  293.361;  -11.710;  875.360
966.443;  290.342;  -14.090;  972.380
966.998;  286.776;  -14.910;  819.460
967.552;  287.438;  -11.300;  908.380
968.107;  281.273;  -12.800;  868.300
968.661;  282.432;  -14.380;  922.440
969.216;  280.021;  -14.100;  856.280
969.770;  275.936;  -11.490;  917.200
970.324;  269.787;  -11.150;  923.140
970.879;  270.384;  -14.010;  947.180
971.433;  273.059;  -12.510;  952.720
971.987;  270.607;  -11.760;  895.340
972.541;  264.192;  -11.190;  917.100
973.095;  261.100;  -11.650; 1009.460
973.649;  255.466;  -15.670;  809.480
974.203;  251.771;  -12.570;  829.040
974.757;  253.709;  -11.210;  855.220
975.311;  255.297;  -16.470;  872.600
975.865;  253.844;  -15.550;  881.820
976.419;  250.539;  -12.370;  857.400
976.973;  247.379;  -10.490;  849.620
977.526;  247.930;  -14.560;  949.920
978.080;  244.988;  -16.000;  796.780
978.634;  243.334;  -11.080;  921.320
979.187;  240.429;   -8.680;  905.400
979.741;  238.341;  -11.260; 1018.380
980.294;  230.909;  -14.740;  789.160
980.848;  227.250;  -11.440;  717.220
981.401;  227.961;  -10.330;  816.540
981.955;  227.197;  -14.260;  844.300
982.508;  220.119;  -15.800;  746.340
983.061;  218.345;  -10.860;  915.260
983.615;  214.785;  -12.010;  798.800
984.168;  215.076;  -12.840;  770.080
984.721;  208.978;  -12.990;  880.760
985.274;  205.731;  -10.810;  867.500
985.827;  201.771;  -13.400;  834.220
986.380;  196.593;  -15.690;  721.340
986.933;  192.605;  -13.410;  864.800
987.486;  191.661;   -9.030;  861.920
988.039;  189.189;  -10.370;  863.100
988.591;  184.740;  -13.170;  893.260
989.144;  178.434;  -14.450;  737.260
989.697;  174.838;  -13.040;  758.740
990.250;  173.549;   -9.060;  858.100
990.802;  166.103;  -15.460;  755.860
991.355;  165.497;  -10.290;  974.880
991.907;  161.265;  -10.920;  864.320
992.460;  157.033;  -11.550;  753.760
993.012;  152.165;  -14.150;  749.540
993.565;  147.300;  -12.660;  711.360
994.117;  146.726;  -10.170;  950.780
994.669;  141.625;  -11.730;  701.320
995.221;  138.558;  -13.860;  791.920
995.774;  135.524;  -13.500;  787.580
996.326;  132.509;  -13.710;  740.220
996.878;  132.063;  -10.480;  838.420
997.430;  127.654;  -13.470;  699.860
997.982;  125.085;  -14.710;  750.140
998.534;  124.949;  -12.870;  739.060
999.086;  123.030;   -9.030;  738.220
999.638;  120.338;  -14.720;  661.380
1000.190;  117.890;  -14.510;  699.320
1000.741;  118.517;  -11.610;  742.700
1001.293;  116.335;   -9.310;  686.020
1001.845;  112.931;  -15.080;  676.640
1002.396;  112.063;  -14.260;  743.400
1002.948;  113.139;  -10.620;  737.400
1003.500;  108.413;   -9.680;  723.780
1004.051;  108.946;  -12.980;  907.580
1004.603;  103.744;  -14.340;  791.820
1005.154;   99.650;  -13.850;  608.980
1005.705;   98.517;   -9.860;  723.960
1006.257;   94.571;  -13.870;  707.220
1006.808;   94.386;  -14.110;  685.460
1007.359;   92.310;  -10.190;  763.240
1007.910;   90.226;   -9.180;  646.640
1008.461;   89.344;  -12.210;  732.940
1009.013;   85.061;  -15.250;  588.340
1009.564;   88.620;  -10.040;  793.520
1010.115;   85.326;  -11.810;  597.040
1010.665;   84.054;  -15.200;  602.160
1011.216;   83.814;  -14.530;  667.920
1011.767;   85.755;   -9.620;  697.920
1012.318;   84.855;  -10.290;  736.980
1012.869;   82.719;  -13.690;  679.000
1013.419;   80.773;  -16.680;  603.120
1013.970;   82.201;  -10.980;  666.640
1014.521;   81.114;  -10.220;  620.620
1015.071;   79.532;  -13.820;  670.380
1015.622;   79.114;  -15.510;  635.460
1016.172;   79.335;  -13.630;  596.820
1016.723;   78.623;  -12.190;  614.380
1017.273;   77.867;  -15.000;  604.160
1017.823;   77.217;  -15.270;  650.340
1018.374;   76.747;  -10.540;  611.760
1018.924;   78.118;  -12.690;  716.880
1019.474;   77.227;  -12.420;  718.880
1020.024;   74.941;  -14.240;  657.580
1020.574;   76.772;  -10.370;  726.160
1021.124;   76.721;   -8.650;  673.580
1021.674;   73.066;  -15.610;  559.120
1022.224;   74.778;  -14.230;  708.940
1022.774;   74.571;  -11.740;  668.820
1023.324;   74.664;  -10.900;  753.520
1023.874;   77.623;   -8.900;  875.760
1024.423;   71.139;  -16.440;  613.700
1024.973;   72.919;  -12.230;  610.760
1025.523;   71.006;  -10.970;  620.960
1026.072;   70.566;  -14.660;  606.420
1026.622;   70.129;  -13.680;  675.740
1027.172;   70.757;  -12.610;  715.660
1027.721;   69.857;  -11.100;  601.220
1028.270;   69.531;  -13.960;  663.400
1028.820;   68.863;  -14.120;  638.080
1029.369;   67.573;  -13.140;  612.700
1029.918;   69.394;  -12.830;  649.840
1030.468;   66.548;  -16.360;  564.780
1031.017;   68.245;  -13.860;  634.800
1031.566;   65.632;  -11.080;  608.900
1032.115;   67.714;   -8.710;  694.500
1032.664;   63.784;  -16.770;  596.480
1033.213;   67.258;  -12.840;  735.420
1033.762;   64.923;  -12.620;  635.620
1034.311;   64.736;  -10.750;  677.220
1034.860;   64.608;  -12.880;  691.000
1035.408;   63.810;  -13.920;  722.720
1035.957;   65.329;   -8.580;  719.540
1036.506;   61.680;  -11.910;  530.800
1037.055;   65.271;  -12.760;  844.320
1037.603;   62.603;  -14.440;  664.000
1038.152;   60.263;  -14.250;  534.760
1038.700;   61.418;  -11.060;  585.740
1039.249;   60.111;  -16.010;  681.220
1039.797;   60.605;  -13.650;  633.360
1040.345;   60.782;  -10.830;  705.420
1040.894;   61.536;   -9.840;  625.300
1041.442;   58.856;  -14.770;  632.200
1041.990;   57.703;  -18.520;  559.160
1042.538;   58.075;  -12.970;  536.180
1043.087;   57.842;  -11.730;  570.860
1043.635;   58.832;  -12.880;  670.500
1044.183;   58.080;  -15.620;  586.400
1044.731;   58.237;  -11.080;  576.000
1045.279;   58.190;  -10.030;  674.920
1045.827;   60.195;  -11.020;  892.400
1046.374;   55.254;  -15.130;  515.420
1046.922;   56.934;  -12.570;  590.580
1047.470;   57.289;  -10.810;  691.300
1048.018;   55.861;  -13.900;  647.960
1048.565;   56.908;  -12.760;  708.600
1049.113;   55.141;  -13.550;  557.000
1049.660;   54.318;  -12.430;  629.660
1050.208;   54.907;  -14.770;  675.640
1050.755;   54.045;  -15.970;  606.580
1051.303;   54.620;  -11.460;  686.820
1051.850;   54.140;  -10.990;  635.120
1052.397;   51.244;  -15.980;  473.960
1052.945;   51.939;  -13.960;  617.760
1053.492;   54.485;  -10.510;  741.840
1054.039;   53.045;  -11.940;  720.180
1054.586;   51.529;  -15.500;  557.240
1055.133;   53.264;  -12.570;  693.140
1055.680;   52.357;  -11.770;  646.620
1056.227;   50.809;  -13.940;  542.780
1056.774;   52.859;  -11.440;  794.980
1057.321;   49.898;  -14.200;  523.260
1057.868;   52.077;  -10.810;  651.320
1058.415;   49.745;  -11.780;  651.980
1058.961;   51.502;  -13.070;  678.940
1059.508;   49.982;  -16.400;  643.820
1060.055;   49.187;  -14.040;  581.780
1060.601;   50.736;   -9.460;  624.300
1061.148;   48.598;  -15.430;  616.820
1061.694;   48.789;  -15.940;  592.580
1062.241;   48.309;  -13.520;  596.320
1062.787;   48.814;  -11.070;  663.140
1063.334;   51.036;  -11.220;  808.560
1063.880;   47.571;  -14.810;  668.360
1064.426;   48.709;  -10.460;  706.820
1064.972;   46.995;  -10.790;  601.340
1065.518;   46.279;  -16.930;  566.640
1066.065;   46.477;  -15.590;  624.460
1066.611;   47.044;  -12.090;  598.800
1067.157;   46.583;  -12.370;  641.860
1067.703;   46.780;  -13.220;  668.480
1068.249;   45.338;  -15.890;  605.220
1068.794;   45.877;  -12.560;  626.880
1069.340;   44.815;  -12.040;  578.960
1069.886;   43.244;  -14.660;  590.700
1070.432;   43.416;  -16.230;  541.720
1070.977;   45.162;   -9.620;  601.080
1071.523;   43.709;  -11.160;  573.060
1072.068;   43.866;  -13.510;  582.000
1072.614;   41.670;  -17.000;  527.760
1073.160;   46.478;   -9.740;  687.040
1073.705;   42.032;  -11.750;  572.520
1074.250;   42.325;  -14.070;  559.900
1074.796;   42.058;  -16.470;  655.160
1075.341;   44.295;  -11.210;  664.100
1075.886;   43.066;  -11.160;  594.240
1076.431;   41.669;  -15.540;  649.880
1076.976;   40.459;  -15.020;  639.220
1077.521;   42.256;  -10.110;  583.080
1078.067;   40.350;  -12.700;  579.400
1078.612;   41.575;  -12.010;  661.620
1079.156;   39.890;  -15.690;  601.540
1079.701;   41.931;  -12.260;  693.260
1080.246;   41.566;  -10.470;  696.300
1080.791;   40.810;  -15.620;  625.020
1081.336;   39.911;  -15.570;  659.320
1081.880;   39.354;  -12.700;  649.680
1082.425;   39.259;  -10.880;  573.480
1082.970;   40.779;  -12.050;  717.040
1083.514;   38.069;  -14.830;  597.000
1084.059;   38.418;  -13.630;  586.720
1084.603;   37.812;  -11.610;  565.840
1085.147;   38.611;  -13.170;  645.220
1085.692;   37.932;  -14.330;  716.800
1086.236;   36.991;  -10.860;  503.140
1086.780;   39.282;  -10.600;  751.440
1087.325;   38.097;  -11.690;  654.620
1087.869;   37.479;  -13.220;  610.700
1088.413;   37.787;  -12.020;  705.040
1088.957;   34.824;  -14.320;  543.400
1089.501;   37.590;  -11.420;  766.640
1090.045;   37.533;  -12.630;  726.480
1090.589;   33.844;  -13.780;  569.920
1091.133;   36.292;   -9.030;  673.340
1091.676;   35.125;  -14.350;  591.940
1092.220;   35.351;  -15.850;  600.920
1092.764;   36.374;  -10.860;  706.960
1093.307;   36.838;   -9.680;  673.780
1093.851;   33.324;  -17.180;  556.540
1094.395;   35.283;  -14.810;  683.140
1094.938;   33.304;  -13.770;  632.520
1095.482;   34.743;  -11.120;  559.800
1096.025;   35.829;  -12.780;  710.880
1096.568;   35.173;  -14.470;  779.280
1097.112;   32.838;  -12.370;  508.180
1097.655;   33.842;  -12.030;  603.000
1098.198;   31.987;  -15.440;  600.180
1098.741;   32.221;  -15.860;  612.860
1099.285;   33.125;  -13.030;  657.300
1099.828;   30.478;  -12.830;  439.400
1100.371;   32.287;  -14.870;  608.160
1100.914;   32.145;  -15.020;  682.660
1101.457;   31.367;  -12.910;  679.900
1101.999;   31.636;  -10.120;  584.680
1102.542;   31.710;  -14.110;  641.440
1103.085;   30.244;  -14.560;  658.500
1103.628;   32.608;  -10.370;  762.060
1104.170;   30.469;  -10.620;  588.280
1104.713;   29.580;  -14.580;  646.700
1105.256;   29.667;  -12.820;  557.440
1105.798;   28.905;  -13.800;  499.980
1106.341;   31.607;   -9.240;  728.900
1106.883;   27.642;  -16.780;  521.340
1107.425;   29.773;  -13.710;  668.180
1107.968;   29.400;  -12.640;  612.380
1108.510;   30.699;   -9.170;  684.960
1109.052;   27.445;  -12.700;  612.620
1109.594;   27.185;  -14.340;  554.440
1110.136;   29.034;  -10.420;  643.220
1110.679;   27.925;  -10.640;  633.080
1111.221;   27.665;  -14.610;  604.460
1111.763;   26.145;  -16.140;  559.220
1112.304;   27.258;  -13.800;  547.140
1112.846;   28.236;  -10.580;  666.240
1113.388;   31.907;   -9.890;  942.180
1113.930;   26.781;  -14.720;  694.200
1114.472;   26.153;  -11.940;  606.540
1115.013;   24.603;  -12.180;  551.280
1115.555;   24.632;  -16.040;  587.100
1116.097;   24.061;  -16.340;  579.480
1116.638;   26.818;  -12.270;  684.600
1117.180;   26.403;   -8.280;  667.740
1117.721;   23.948;  -15.290;  568.580
1118.262;   26.825;  -13.110;  677.960
1118.804;   25.863;  -12.690;  637.340
1119.345;   24.522;  -11.940;  578.400
1119.886;   25.233;  -15.090;  704.040
1120.427;   24.599;  -14.820;  589.020
1120.969;   23.422;  -11.040;  597.920
1121.510;   23.061;  -13.070;  563.060
1122.051;   24.775;  -14.060;  723.580
1122.592;   22.122;  -16.410;  655.420
1123.133;   22.322;  -13.480;  547.940
1123.673;   23.949;  -10.570;  706.480
1124.214;   24.123;  -13.230;  612.460
1124.755;   22.353;  -15.080;  639.460
1125.296;   24.072;  -11.240;  627.320
1125.836;   23.963;   -7.670;  691.500
1126.377;   21.537;  -13.370;  599.660
1126.918;   22.556;  -13.320;  614.980
1127.458;   21.247;  -13.410;  622.220
1127.999;   23.174;   -9.310;  656.980
1128.539;   23.023;  -13.340;  694.240
1129.079;   20.713;  -15.830;  632.720
1129.620;   20.623;  -13.620;  558.100
1130.160;   21.135;  -12.950;  539.480
1130.700;   20.838;  -13.720;  640.840
1131.240;   21.864;  -14.260;  643.700
1131.781;   20.444;  -13.410;  619.680
1132.321;   20.520;  -13.840;  599.120
1132.861;   18.872;  -16.310;  564.200
1133.401;   18.350;  -16.110;  593.940
1133.941;   20.706;  -10.450;  626.280
1134.481;   19.234;  -10.680;  597.580
1135.020;   19.569;  -14.480;  609.160
1135.560;   19.760;  -13.580;  674.940
1136.100;   17.601;  -13.670;  501.160
1136.640;   17.915;  -14.170;  510.480
1137.179;   18.099;  -16.700;  537.960
1137.719;   18.402;  -14.230;  605.400
1138.258;   18.200;  -14.920;  587.360
1138.798;   20.016;   -8.810;  663.780
1139.337;   15.878;  -16.230;  482.840
1139.877;   18.037;  -14.910;  642.360
1140.416;   21.441;   -7.730;  878.060
1140.955;   16.922;  -13.370;  535.380
1141.494;   17.819;  -13.300;  669.280
1142.034;   16.842;  -14.940;  583.520
1142.573;   18.243;  -12.700;  646.280
1143.112;   16.985;  -12.790;  553.480
1143.651;   16.253;  -14.310;  536.480
1144.190;   17.950;  -15.170;  691.640
1144.729;   15.646;  -14.040;  607.420
1145.267;   18.182;  -10.770;  584.900
1145.806;   17.104;  -11.880;  637.040
1146.345;   15.424;  -15.880;  635.020
1146.884;   15.547;  -11.540;  622.500
1147.422;   15.164;  -12.360;  533.060
1147.961;   17.513;  -11.920;  708.460
1148.500;   16.366;  -13.760;  669.720
1149.038;   16.149;  -12.710;  632.500
1149.577;   17.035;   -9.950;  698.640
1150.115;   13.113;  -17.560;  452.280
1150.653;   14.407;  -15.380;  607.340
1151.192;   14.466;  -11.990;  552.920
1151.730;   14.959;  -10.960;  652.560
1152.268;   14.397;  -13.890;  589.520
1152.806;   13.166;  -16.930;  571.180
1153.344;   13.978;  -11.760;  577.640
1153.882;   14.203;   -9.560;  600.060
1154.421;   11.799;  -16.140;  470.620
1154.958;   11.722;  -15.940;  595.240
1155.496;   14.829;  -13.580;  645.280
1156.034;   14.101;  -10.580;  721.880
1156.572;   14.563;  -14.520;  667.060
1157.110;   11.789;  -15.450;  473.940
1157.647;   13.858;  -11.280;  676.960
1158.185;   11.746;  -14.090;  564.320
1158.723;   11.595;  -18.640;  509.200
1159.260;   12.566;  -12.690;  701.700
1159.798;   12.447;  -10.450;  658.160
1160.335;   12.853;  -12.130;  631.820

