
Integration time [ms]:   3.276
Averaging Nr. [scans]: 1000
Smoothing Nr. [pixels]: 0
Data measured with spectrometer [name]: 7414430SP
Wave   ;Sample   ;Dark     ;Reference
[nm]   ;[counts] ;[counts] ;[counts] 

288.544;  150.196;    7.793;  793.890
289.143;  154.958;    7.462;  681.602
289.742;  154.768;    8.602;  828.814
290.341;  139.517;    1.321;  789.841
290.940;  129.214;   -0.709;  730.702
291.538;  130.068;    0.881;  881.108
292.137;  130.998;    0.122;  792.581
292.736;  134.865;   -1.929;  975.101
293.335;  131.060;   -8.229;  735.086
293.934;  132.073;   -5.279;  781.677
294.532;  129.646;   -1.369; 1031.958
295.131;  115.492;   -7.641;  834.394
295.730;  116.695;   -8.420;  809.588
296.328;  115.795;   -5.611;  783.442
296.927;  115.177;   -5.781;  779.652
297.525;  117.324;   -6.361;  781.236
298.124;  107.781;  -11.382;  654.009
298.722;  111.464;   -7.641;  761.933
299.321;  108.608;   -6.811;  708.597
299.919;  106.693;   -6.991;  751.918
300.518;  104.150;  -10.362;  689.338
301.116;  105.902;   -9.581;  691.381
301.715;  105.630;   -4.891;  730.222
302.313;  104.372;   -8.801;  704.943
302.911;  100.385;   -8.522;  733.830
303.509;  105.291;   -6.171;  925.627
304.108;  102.712;   -7.311;  760.383
304.706;  102.469;   -8.321;  801.664
305.304;   96.450;  -10.222;  796.707
305.902;  101.799;   -6.021;  784.484
306.500;   98.369;   -4.971;  728.200
307.098;   96.122;   -7.061;  746.560
307.696;   93.587;   -8.801;  780.432
308.294;   94.218;   -6.411;  731.359
308.892;   96.093;   -2.901;  759.769
309.490;   93.008;   -5.041;  712.161
310.088;   90.939;   -5.002;  788.444
310.686;   95.472;   -2.041;  821.749
311.284;   91.222;   -2.351;  766.040
311.882;   87.390;   -4.422;  731.225
312.480;   85.744;   -4.192;  697.167
313.078;   87.222;   -1.172;  808.331
313.675;   87.588;   -2.601;  691.600
314.273;   83.312;   -1.312;  797.837
314.871;   82.533;   -3.942;  589.829
315.468;   80.279;   -2.802;  652.090
316.066;   82.846;   -0.701;  694.427
316.664;   75.725;   -4.362;  656.351
317.261;   80.859;   -2.872;  910.128
317.859;   76.105;   -2.022;  768.735
318.456;   75.812;   -0.531;  830.096
319.054;   71.714;   -3.912;  787.828
319.651;   71.836;   -4.752;  759.928
320.249;   70.089;   -2.602;  810.188
320.846;   67.699;   -0.821;  714.286
321.443;   65.096;   -4.642;  832.135
322.041;   62.600;   -5.002;  812.315
322.638;   59.590;   -3.982;  701.456
323.235;   61.288;   -3.411;  665.683
323.833;   58.751;   -7.361;  740.354
324.430;   54.254;   -8.611;  615.900
325.027;   54.434;   -4.061;  876.855
325.624;   54.445;   -4.031;  644.532
326.221;   51.207;   -7.481;  689.717
326.818;   50.390;   -5.281;  818.332
327.415;   53.591;   -7.460;  748.828
328.012;   53.267;   -5.510;  690.585
328.609;   51.711;   -7.880;  731.389
329.206;   50.147;   -8.331;  778.621
329.803;   50.719;   -5.121;  737.841
330.400;   52.858;   -4.510;  704.260
330.997;   53.836;   -6.441;  817.147
331.594;   53.085;   -8.831;  788.185
332.191;   57.503;   -7.621;  728.722
332.787;   60.285;   -4.591;  844.463
333.384;   59.551;   -7.412;  763.093
333.981;   58.221;   -8.293;  815.687
334.578;   61.244;   -7.052;  708.378
335.174;   63.451;   -3.102;  731.469
335.771;   63.905;   -5.943;  836.456
336.367;   60.410;   -7.393;  710.631
336.964;   64.592;   -4.063;  793.266
337.561;   61.844;   -3.813;  731.112
338.157;   57.314;   -4.654;  911.916
338.754;   55.982;   -7.934;  796.589
339.350;   54.218;   -4.414;  722.493
339.946;   56.070;   -4.664;  773.135
340.543;   47.959;   -6.375;  846.136
341.139;   42.134;   -9.815;  720.836
341.735;   40.159;   -4.526;  772.593
342.332;   38.787;   -4.895;  691.472
342.928;   38.498;   -4.295;  795.394
343.524;   33.132;   -5.476;  761.684
344.120;   29.856;   -5.856;  738.562
344.716;   32.253;   -2.155;  723.717
345.313;   30.306;   -6.275;  795.342
345.909;   24.475;   -8.815;  627.336
346.505;   27.842;   -5.305;  740.247
347.101;   27.930;   -2.674;  827.864
347.697;   27.068;   -4.344;  785.398
348.293;   21.950;   -9.975;  627.244
348.889;   22.982;   -5.774;  745.914
349.485;   22.635;   -5.004;  688.205
350.081;   22.281;   -4.704;  772.592
350.676;   17.665;   -6.635;  691.606
351.272;   22.496;   -4.504;  809.530
351.868;   21.407;   -3.914;  780.497
352.464;   18.727;   -9.044;  723.932
353.059;   15.579;   -8.314;  646.017
353.655;   19.659;   -7.024;  777.063
354.251;   20.663;   -5.343;  759.845
354.846;   14.953;   -8.604;  740.646
355.442;   12.120;   -6.945;  753.071
356.038;   14.233;   -7.564;  751.708
356.633;   14.279;   -5.814;  728.594
357.229;   12.454;   -7.364;  724.757
357.824;   11.458;   -8.024;  703.600
358.420;    9.290;   -9.384;  679.726
359.015;   10.542;   -5.104;  695.357
359.610;   11.004;   -6.854;  763.920
360.206;    5.402;  -10.185;  603.240
360.801;    8.009;   -7.054;  646.503
361.396;   10.767;   -5.034;  725.975
361.992;    5.541;   -8.284;  668.220
362.587;    3.420;   -8.625;  670.160
363.182;    5.135;   -7.674;  689.631
363.777;    5.636;   -5.164;  738.242
364.372;    5.724;   -8.604;  737.314
364.967;    1.869;   -9.055;  680.744
365.563;    5.922;   -6.114;  815.567
366.158;    2.953;   -5.814;  685.161
366.753;    3.242;   -7.854;  649.263
367.348;    2.127;   -7.804;  746.056
367.942;    2.041;   -7.954;  697.298
368.537;    0.368;   -4.984;  754.245
369.132;    0.582;   -8.564;  703.428
369.727;   -3.151;   -8.855;  638.079
370.322;   -1.726;   -6.245;  580.186
370.917;   -2.482;   -6.425;  710.646
371.511;    1.082;   -6.294;  861.834
372.106;   -2.737;   -7.685;  776.964
372.701;   -6.039;   -7.335;  585.988
373.296;   -0.255;   -4.564;  863.135
373.890;   -4.282;  -10.235;  647.840
374.485;   -6.806;   -7.885;  691.199
375.079;   -3.351;   -7.324;  738.685
375.674;   -1.640;   -3.494;  812.970
376.268;   -6.386;   -8.525;  691.759
376.863;  -11.910;  -10.086;  580.327
377.457;   -5.860;   -7.025;  662.490
378.052;   -8.592;   -3.585;  764.884
378.646;   -8.956;   -7.595;  741.167
379.240;   -9.026;   -8.335;  721.176
379.835;   -7.861;   -5.785;  636.978
380.429;   -9.960;   -4.335;  562.557
381.023;  -10.004;   -6.805;  779.205
381.617;  -12.060;   -9.195;  680.106
382.212;   -8.939;   -6.905;  685.303
382.806;   -8.839;   -3.745;  760.690
383.400;  -12.470;   -7.745;  672.281
383.994;  -13.696;   -9.765;  664.870
384.588;   -9.135;   -6.564;  697.701
385.182;   -8.103;   -5.344;  726.624
385.776;   -9.969;   -8.514;  706.875
386.370;  -12.294;   -9.555;  681.968
386.964;  -12.101;   -8.715;  684.155
387.558;  -10.715;   -6.174;  598.360
388.152;  -13.683;   -8.725;  681.959
388.745;  -11.506;   -7.965;  814.707
389.339;  -10.134;   -5.924;  747.642
389.933;   -9.469;   -5.524;  695.370
390.527;  -11.364;   -7.114;  859.029
391.120;  -16.985;  -10.725;  595.318
391.714;  -13.959;   -8.035;  711.633
392.308;  -10.759;   -3.574;  780.253
392.901;  -14.595;   -7.245;  642.460
393.495;  -16.541;   -9.285;  595.414
394.089;  -13.936;   -5.895;  760.452
394.682;  -14.464;   -4.295;  697.188
395.275;  -15.277;   -9.875;  719.927
395.869;  -16.591;   -8.485;  667.314
396.462;  -14.403;   -7.455;  616.609
397.056;  -10.804;   -5.424;  776.621
397.649;  -15.293;   -6.605;  731.575
398.242;  -13.131;   -8.224;  712.645
398.836;  -12.780;   -7.474;  766.408
399.429;  -12.976;   -7.094;  631.041
400.022;  -18.047;   -9.475;  665.902
400.615;  -13.834;   -7.145;  805.609
401.208;  -13.146;   -7.174;  691.451
401.802;  -15.228;   -5.515;  699.329
402.395;  -16.336;   -9.875;  683.502
402.988;  -17.056;   -8.845;  696.627
403.581;  -13.151;   -8.874;  646.878
404.174;  -10.728;   -5.324;  686.568
404.767;  -14.609;   -9.575;  638.583
405.360;  -16.943;  -10.965;  621.445
405.953;  -10.796;   -8.764;  759.034
406.545;  -11.313;   -7.514;  725.342
407.138;  -15.375;  -10.025;  618.350
407.731;  -14.138;  -10.034;  613.303
408.324;   -9.614;   -9.374;  660.554
408.917;  -10.788;   -6.534;  681.864
409.509;  -12.643;   -8.004;  740.396
410.102;  -15.036;   -9.875;  643.948
410.695;   -8.965;   -8.604;  665.758
411.287;   -9.839;   -6.794;  599.821
411.880;  -10.975;   -9.334;  585.421
412.472;  -14.958;  -10.254;  613.092
413.065;  -10.835;   -6.714;  629.408
413.657;   -8.647;   -7.234;  576.678
414.250;   -8.369;  -10.544;  646.681
414.842;  -10.718;   -9.744;  676.353
415.434;   -8.515;   -6.994;  570.463
416.027;   -4.299;   -5.893;  652.196
416.619;   -5.806;   -7.264;  713.400
417.211;   -6.762;  -10.374;  599.352
417.804;   -3.976;   -7.993;  628.499
418.396;   -7.668;   -7.234;  607.643
418.988;   -5.549;   -9.443;  659.238
419.580;   -8.918;  -10.724;  568.276
420.172;   -6.413;  -10.323;  536.196
420.764;   -2.713;   -8.793;  672.482
421.356;   -3.341;  -11.143;  636.898
421.948;   -3.848;   -8.293;  677.661
422.540;    1.076;   -7.893;  680.027
423.132;    0.420;   -7.082;  600.641
423.724;   -3.154;   -8.653;  561.267
424.316;   -1.312;  -10.213;  621.345
424.908;    2.315;   -9.762;  591.517
425.500;    3.272;   -5.572;  647.978
426.092;    2.982;   -8.422;  648.268
426.683;    1.788;   -9.283;  684.836
427.275;    4.812;   -7.852;  641.471
427.867;    6.565;   -5.272;  668.948
428.458;    7.144;   -7.682;  732.344
429.050;    5.997;  -10.612;  680.749
429.642;    7.894;   -9.882;  743.124
430.233;    9.025;   -6.962;  569.356
430.825;    9.213;   -6.842;  724.809
431.416;    6.547;   -9.672;  698.241
432.008;   10.720;   -6.552;  651.723
432.599;   11.586;   -6.891;  656.073
433.190;    8.323;  -10.912;  637.670
433.782;    8.226;  -11.172;  590.395
434.373;   15.493;   -6.061;  884.765
434.964;   13.121;   -8.251;  602.920
435.556;   10.541;   -9.722;  634.537
436.147;   14.160;   -9.082;  758.490
436.738;   14.238;   -8.041;  701.099
437.329;   19.232;   -7.341;  721.723
437.920;   12.038;   -8.162;  666.688
438.511;   12.749;  -11.802;  564.526
439.103;   18.691;  -10.191;  623.998
439.694;   20.795;   -7.601;  681.583
440.285;   20.826;   -8.541;  764.432
440.876;   18.677;   -9.751;  845.738
441.466;   19.251;   -9.401;  575.162
442.057;   24.307;   -7.760;  665.814
442.648;   22.851;   -9.971;  746.255
443.239;   21.150;  -11.001;  620.477
443.830;   26.772;   -7.990;  704.958
444.421;   27.516;   -7.910;  655.474
445.011;   24.565;   -8.131;  693.619
445.602;   24.075;   -7.111;  743.126
446.193;   26.488;  -10.920;  488.117
446.783;   30.835;   -6.500;  640.397
447.374;   25.754;   -8.671;  692.759
447.964;   27.106;  -10.781;  713.770
448.555;   34.764;   -9.650;  822.742
449.145;   31.368;   -8.660;  662.853
449.736;   32.626;   -8.990;  803.179
450.326;   32.120;   -9.500;  713.626
450.917;   37.461;   -8.680;  675.324
451.507;   36.158;   -7.520;  600.661
452.097;   36.978;   -8.590;  746.267
452.688;   37.600;  -11.340;  742.160
453.278;   37.781;  -10.100;  566.840
453.868;   42.648;   -6.019;  793.550
454.458;   39.513;   -9.440;  651.141
455.048;   39.756;  -10.560;  711.783
455.639;   41.588;  -11.799;  567.096
456.229;   45.565;   -6.899;  710.694
456.819;   47.371;   -7.389;  751.158
457.409;   47.896;  -11.119;  773.993
457.999;   50.518;   -9.289;  737.505
458.589;   50.648;   -6.139;  686.606
459.179;   49.866;   -8.729;  717.658
459.769;   48.199;   -9.789;  627.099
460.358;   52.882;  -10.259;  797.262
460.948;   52.669;   -7.299;  689.503
461.538;   54.251;  -10.289;  660.677
462.128;   52.909;  -11.269;  664.934
462.717;   59.400;   -9.368;  710.326
463.307;   62.469;   -7.908;  705.846
463.897;   57.615;   -9.599;  656.942
464.486;   56.712;   -9.769;  837.128
465.076;   62.069;   -8.048;  733.776
465.666;   65.346;   -9.358;  652.900
466.255;   62.189;   -7.919;  785.651
466.845;   61.384;  -11.689;  666.749
467.434;   65.285;   -7.818;  725.873
468.023;   65.750;   -7.678;  658.357
468.613;   63.672;  -10.939;  713.946
469.202;   68.313;  -10.118;  646.507
469.791;   72.235;   -9.108;  737.811
470.381;   73.076;   -6.058;  742.813
470.970;   73.704;  -10.428;  711.099
471.559;   73.228;  -10.268;  733.291
472.148;   76.467;   -8.448;  675.737
472.738;   78.400;   -6.917;  765.466
473.327;   78.116;  -11.978;  637.529
473.916;   78.524;  -11.888;  737.446
474.505;   82.152;   -9.437;  751.703
475.094;   85.393;   -6.747;  806.570
475.683;   84.580;   -9.367;  797.699
476.272;   86.006;  -12.637;  730.632
476.861;   88.416;  -10.027;  706.754
477.449;   95.067;   -8.716;  728.487
478.038;   88.848;   -9.577;  692.513
478.627;   90.089;   -9.718;  714.852
479.216;   97.085;   -8.947;  769.441
479.805;  100.267;   -6.256;  783.375
480.393;   99.550;   -7.937; 1008.945
480.982;   97.945;   -7.717;  874.501
481.571;  105.110;   -9.266;  858.333
482.159;  105.858;   -7.636;  705.386
482.748;  105.218;   -9.667;  821.385
483.336;  109.285;  -10.376;  858.209
483.925;  110.566;   -7.147;  774.373
484.513;  117.570;   -7.996;  758.962
485.102;  113.891;  -10.027;  810.965
485.690;  121.947;  -10.446; 1011.050
486.278;  124.507;   -8.446;  979.329
486.867;  124.784;   -6.356;  809.662
487.455;  126.173;   -9.136;  898.229
488.043;  127.549;  -10.646;  748.361
488.631;  137.430;   -7.456; 1005.079
489.220;  140.399;   -6.636;  908.626
489.808;  139.860;  -11.036;  741.415
490.396;  147.570;  -10.246;  914.645
490.984;  153.820;   -8.556;  830.161
491.572;  163.470;   -5.886;  940.315
492.160;  169.045;   -9.486;  919.081
492.748;  180.333;  -10.976;  884.341
493.336;  202.112;   -8.776; 1019.693
493.924;  228.278;   -5.465;  958.077
494.512;  253.995;   -9.986; 1066.638
495.100;  290.257;  -10.636; 1103.280
495.687;  344.527;  -10.885; 1206.373
496.275;  404.003;   -8.126; 1150.796
496.863;  466.606;  -10.586; 1281.171
497.451;  563.556;  -11.926; 1386.805
498.038;  699.859;  -10.885; 1556.729
498.626;  813.597;   -6.315; 1741.407
499.214;  948.819;   -7.326; 2016.609
499.801; 1135.350;  -11.906; 2220.633
500.389; 1387.170;  -10.466; 2312.494
500.976; 1704.681;   -5.236; 2744.849
501.564; 2114.955;   -8.936; 3148.565
502.151; 2474.349;  -13.176; 3515.999
502.738; 2929.491;  -10.646; 3971.274
503.326; 3325.306;   -9.525; 4403.796
503.913; 3715.592;  -10.856; 5161.749
504.500; 4022.124;  -11.586; 5986.420
505.088; 4456.290;  -10.336; 6381.201
505.675; 4988.282;   -6.355; 6925.547
506.262; 5623.123;   -9.046; 7619.060
506.849; 6377.608;  -10.416; 8733.969
507.436; 6825.114;  -10.305; 9790.121
508.023; 7327.591;   -5.496; 9985.472
508.610; 7589.937;   -7.856;10434.618
509.197; 8235.000;  -10.097;11198.435
509.784; 9633.166;  -10.886;12391.194
510.371;10675.834;   -9.315;13603.713
510.958;11389.765;   -9.936;14426.586
511.545;12113.005;   -9.326;15243.775
512.132;12923.344;  -10.075;15945.876
512.719;13471.571;   -7.796;16340.369
513.305;14345.555;  -10.606;18011.766
513.892;15080.950;  -11.486;19754.971
514.479;16578.346;   -9.126;20967.805
515.066;18124.877;   -6.026;22299.793
515.652;19234.982;   -8.466;22908.660
516.239;20407.947;  -10.886;23798.875
516.825;21333.973;  -11.496;25567.275
517.412;22206.348;   -5.796;28154.959
517.998;23024.723;  -10.506;28344.111
518.585;23195.531;  -10.076;27134.219
519.171;23327.533;   -8.315;27268.576
519.758;24281.268;   -8.596;28964.129
520.344;26114.021;   -8.466;30664.494
520.930;26533.604;  -11.006;32550.605
521.516;28210.963;  -10.495;35422.895
522.103;30796.361;   -5.526;38280.004
522.689;31624.625;   -8.746;37835.117
523.275;31359.463;  -11.376;37288.613
523.861;31961.426;  -11.156;37281.395
524.447;32900.805;   -8.135;37846.949
525.033;32470.426;   -7.896;38321.949
525.619;32851.488;  -12.476;38579.285
526.205;34429.336;   -9.516;40622.875
526.791;36946.742;   -6.926;42258.836
527.377;37054.520;   -8.346;42966.902
527.963;38866.527;   -8.717;42018.949
528.549;37666.551;  -11.016;42476.828
529.135;36129.898;   -8.536;41854.852
529.721;35623.898;   -9.666;41237.711
530.306;35046.203;  -10.066;41259.445
530.892;35163.063;  -11.356;41506.047
531.478;36447.238;   -6.596;43559.613
532.063;38506.617;   -8.836;47695.563
532.649;38646.332;  -10.047;50808.324
533.235;40004.023;   -9.746;51787.500
533.820;41296.945;   -6.566;52145.035
534.406;41962.086;  -10.817;51133.488
534.991;41519.121;   -9.416;49996.805
535.576;40553.273;   -9.036;48882.852
536.162;40976.926;   -6.156;46942.285
536.747;42046.613;  -11.607;45711.746
537.333;45426.016;  -11.787;48510.180
537.918;48389.422;  -12.437;50439.891
538.503;47226.152;   -7.196;50863.711
539.088;44271.949;  -10.556;50906.922
539.673;44255.621;   -8.767;52621.965
540.259;43794.477;  -10.026;52368.094
540.844;41232.680;   -7.416;50879.109
541.429;41929.773;   -9.467;52077.777
542.014;45396.789;   -9.527;52716.695
542.599;45444.070;   -9.946;52363.281
543.184;42627.848;   -7.927;53187.137
543.769;43321.742;   -9.297;54697.605
544.354;42972.414;  -10.127;53913.914
544.938;42375.641;   -9.267;49680.164
545.523;44539.660;   -6.506;47386.277
546.108;46711.230;   -9.787;49151.949
546.693;48987.676;  -11.587;51384.637
547.278;48583.016;  -10.986;51853.254
547.862;45356.438;   -8.206;51173.750
548.447;41167.457;  -10.067;51691.395
549.031;40618.055;   -9.637;52456.703
549.616;45125.613;   -9.926;52714.516
550.201;44396.414;   -6.347;52414.598
550.785;44849.188;   -7.917;52355.059
551.370;44532.262;  -10.867;54589.453
551.954;44788.742;   -9.047;58267.348
552.538;46512.375;   -7.827;59062.176
553.123;45113.965;  -10.287;58115.285
553.707;42633.027;  -12.178;56556.285
554.291;42831.313;   -8.717;56201.668
554.876;43907.461;   -7.457;55335.762
555.460;44658.086;  -10.387;54155.703
556.044;46713.988;   -9.618;53721.484
556.628;45222.391;  -11.567;53731.016
557.212;44288.816;   -8.097;54312.531
557.796;42641.648;  -11.077;53797.773
558.380;42759.324;  -11.108;56145.984
558.964;43702.441;   -9.057;57277.930
559.548;44656.738;   -6.977;56459.641
560.132;42792.711;  -11.457;54434.543
560.716;41550.293;  -11.378;54800.617
561.300;42087.027;   -9.577;57606.945
561.884;43160.203;   -7.127;58972.445
562.467;42401.664;   -7.118;57327.570
563.051;42089.547;  -13.358;54962.434
563.635;42568.000;  -10.178;52594.473
564.219;42803.141;   -7.837;50610.410
564.802;43355.215;  -11.398;49551.180
565.386;43705.637;  -12.788;48370.953
565.969;43462.539;   -9.077;48178.871
566.553;42653.539;   -6.207;49957.305
567.136;42613.328;   -8.568;50369.594
567.720;39000.055;  -11.868;49492.004
568.303;37224.375;   -8.268;50616.352
568.887;37190.734;   -8.698;50727.148
569.470;37534.535;   -6.808;51698.379
570.053;36398.418;  -13.188;52122.078
570.637;35172.723;  -12.037;52536.438
571.220;34724.051;   -8.577;51186.098
571.803;34872.582;   -8.498;51032.762
572.386;36709.363;  -10.498;49609.887
572.969;39326.855;   -9.388;48285.926
573.552;37916.422;   -8.338;47624.285
574.135;36748.844;   -8.518;45498.641
574.718;33728.480;  -13.628;41970.434
575.301;31850.738;  -10.893;41447.137
575.884;29972.994;   -8.158;40923.836
576.467;31090.953;  -10.328;45267.723
577.050;34190.070;  -13.058;48175.543
577.633;36902.969;   -9.458;47729.328
578.216;36467.996;   -8.928;47579.793
578.799;35642.805;   -9.358;47820.996
579.381;34208.266;  -11.388;48115.551
579.964;32469.354;  -11.718;47333.766
580.547;33737.582;   -8.588;46668.969
581.129;34441.359;   -8.859;44466.141
581.712;34739.320;  -10.729;44164.922
582.294;35655.918;  -11.118;46477.855
582.877;36141.340;   -5.218;48244.254
583.459;34058.898;   -8.679;47437.895
584.042;32359.170;  -10.709;46943.219
584.624;32874.293;  -11.669;46792.227
585.206;32157.412;   -8.218;46557.250
585.789;32164.699;  -10.569;45793.773
586.371;34953.844;  -11.859;43836.391
586.953;35504.715;  -10.719;42972.492
587.536;36029.313;   -7.198;42487.211
588.118;36072.520;   -8.720;42086.414
588.700;32811.730;  -10.439;43389.930
589.282;31660.828;   -9.198;43646.039
589.864;31902.967;   -9.199;43438.109
590.446;32229.244;  -11.319;43151.926
591.028;30637.570;  -11.159;42781.867
591.610;28144.461;  -11.779;42839.098
592.192;25648.182;   -7.668;42820.402
592.774;26203.152;  -11.949;40724.277
593.356;27062.633;  -12.129;39874.789
593.937;27516.436;  -10.669;39980.648
594.519;29710.381;   -6.509;42069.633
595.101;32128.635;  -10.849;42976.031
595.683;32348.807;  -11.679;44084.441
596.264;33470.980;   -9.049;43478.797
596.846;32351.271;   -8.849;43803.672
597.427;31588.043;   -9.570;42986.934
598.009;33263.238;  -12.620;42832.219
598.591;33852.047;  -10.039;42580.086
599.172;33263.738;  -10.369;43061.805
599.753;33466.746;   -9.140;41691.469
600.335;34944.914;  -11.430;40692.520
600.916;33347.301;   -9.939;39982.422
601.498;30812.924;   -8.479;40318.617
602.079;29408.174;  -10.920;40670.609
602.660;29355.834;  -11.480;41450.898
603.241;30481.338;  -11.699;41137.738
603.823;29343.895;   -9.579;38868.797
604.404;29090.441;  -10.620;38182.785
604.985;30425.965;  -10.450;38078.047
605.566;29769.207;   -9.129;38056.633
606.147;29626.670;   -7.510;37020.418
606.728;31866.262;  -10.660;37883.359
607.309;31019.871;  -11.740;38748.273
607.890;30205.010;   -9.759;38850.230
608.471;29963.477;   -8.250;37457.918
609.051;29246.217;   -9.240;36066.457
609.632;28133.980;  -12.120;35991.074
610.213;28976.656;   -9.110;37402.641
610.794;29706.617;   -8.030;38383.363
611.374;28808.328;   -8.110;40562.387
611.955;28868.094;  -13.560;38533.727
612.536;30451.770;  -11.400;36951.789
613.116;30391.494;   -8.070;37197.891
613.697;30884.184;  -10.830;38411.125
614.277;29224.469;  -11.641;38673.938
614.858;29973.383;  -13.310;37075.863
615.438;29515.672;   -7.460;35092.906
616.019;26811.221;   -7.601;33666.301
616.599;27470.617;  -12.020;34189.023
617.179;29397.352;  -11.780;36952.047
617.760;30066.400;   -8.570;39582.574
618.340;31328.027;  -11.471;38943.977
618.920;32936.121;  -11.170;37594.156
619.500;32373.830;  -11.071;37866.938
620.080;31674.166;   -7.750;37869.043
620.660;32660.979;  -12.711;36868.617
621.241;33312.738;  -10.211;36352.309
621.821;33191.164;  -10.961;35459.520
622.401;33007.441;   -7.720;35207.414
622.980;32265.445;   -8.981;35980.422
623.560;30687.955;   -9.331;37351.328
624.140;29918.377;   -9.850;34388.582
624.720;25227.086;   -7.451;32368.764
625.300;21437.568;   -9.070;32638.629
625.880;24595.477;  -12.601;34599.035
626.459;28350.428;  -11.751;36831.738
627.039;31335.445;   -9.281;38299.098
627.619;31376.521;   -8.801;38289.574
628.198;29669.412;  -12.071;37220.695
628.778;28996.590;   -9.461;37632.563
629.357;29827.889;   -8.491;38003.012
629.937;29724.979;   -9.721;38402.039
630.516;28944.863;   -9.951;37868.801
631.096;28767.096;  -11.731;35760.410
631.675;31666.080;   -8.572;35225.219
632.254;36816.301;  -11.282;35130.289
632.834;36367.391;  -13.322;35794.570
633.413;34630.586;  -10.301;35788.922
633.992;31722.639;   -8.582;34532.863
634.571;32824.340;   -8.352;33590.113
635.151;35846.801;  -11.912;34943.863
635.730;34131.508;  -10.511;35352.523
636.309;30613.377;   -7.731;35366.605
636.888;27838.568;   -9.952;36165.637
637.467;28419.557;  -11.672;37515.902
638.046;30610.193;   -8.901;39288.695
638.625;33860.375;   -7.912;38279.699
639.204;33665.914;  -10.022;37741.598
639.782;31719.732;  -12.252;38364.551
640.361;28008.107;  -10.041;36740.621
640.940;25136.947;  -11.161;34950.082
641.519;25406.598;   -9.701;34137.398
642.097;27911.912;  -11.271;35654.258
642.676;31036.469;   -8.651;35637.957
643.255;32175.453;   -8.711;36567.074
643.833;31131.721;   -9.581;37809.434
644.412;31502.334;  -13.711;37337.293
644.990;31027.936;  -11.811;37018.531
645.569;30765.090;   -9.411;36518.469
646.147;29366.316;  -10.291;36186.430
646.726;28623.311;  -12.401;36267.688
647.304;30069.424;  -10.411;36647.625
647.882;31913.594;   -9.651;39286.742
648.461;33377.617;   -9.631;39157.703
649.039;32064.701;  -11.881;35412.883
649.617;31879.318;   -9.661;34744.918
650.195;31779.871;   -9.301;35403.098
650.773;30588.541;  -10.511;35053.797
651.352;27760.117;  -11.521;33756.816
651.930;25268.389;  -12.211;31868.773
652.508;23696.621;   -9.171;33121.551
653.086;27398.375;   -9.371;33564.793
653.663;30489.928;  -13.161;34054.668
654.241;29186.738;  -13.031;35693.309
654.819;30767.398;   -9.371;36422.906
655.397;30764.020;  -10.511;38213.484
655.975;30589.467;  -10.371;39507.625
656.553;30690.313;  -10.051;39498.223
657.130;29122.539;  -10.061;40395.480
657.708;28604.066;   -9.561;39242.020
658.286;28529.395;  -11.511;38920.020
658.863;29592.891;  -10.261;40202.898
659.441;32039.012;   -7.531;39677.938
660.018;31175.285;   -9.501;40413.355
660.596;30344.406;  -13.301;39931.414
661.173;32655.947;  -11.211;39604.531
661.750;32730.811;   -9.951;39700.070
662.328;31367.197;   -9.390;39292.809
662.905;30609.484;  -11.330;38235.648
663.482;26503.004;   -9.050;36212.305
664.060;24467.211;   -8.240;35944.945
664.637;27060.867;  -10.050;35170.785
665.214;28904.729;  -11.760;34197.523
665.791;30739.957;  -10.530;34549.520
666.368;29594.273;   -9.690;35118.578
666.945;29970.928;   -9.320;36019.418
667.522;31297.744;  -11.860;36048.438
668.099;31659.916;  -10.770;36243.914
668.676;31233.227;   -6.260;35958.875
669.253;29641.787;   -7.000;37384.730
669.830;30026.797;  -10.190;36779.629
670.407;29662.635;   -9.550;35231.289
670.984;29996.291;   -9.260;35544.270
671.560;30243.043;   -9.280;35466.867
672.137;28880.568;  -11.810;34280.863
672.714;29601.988;  -11.490;34632.863
673.290;29863.561;   -7.740;35135.422
673.867;29863.971;  -10.660;36114.480
674.443;30368.658;  -12.230;36152.859
675.020;28949.436;  -10.450;35327.238
675.596;29910.664;   -9.260;35795.176
676.173;30377.375;  -10.780;35430.355
676.749;29831.191;  -13.690;33549.516
677.326;30027.639;  -11.980;32210.012
677.902;30294.682;   -8.630;32068.871
678.478;29446.969;  -10.730;32583.891
679.054;29202.863;  -10.520;32088.928
679.631;30064.449;  -11.920;30978.848
680.207;30982.852;   -7.490;33160.887
680.783;32217.375;   -9.860;35570.363
681.359;31453.727;  -13.380;36125.184
681.935;30410.814;  -12.480;35240.922
682.511;28907.137;   -7.900;34429.961
683.087;28674.678;   -7.710;34463.680
683.663;28892.328;  -11.480;34648.898
684.239;28424.324;  -14.090;34546.457
684.815;28067.896;   -7.560;35586.375
685.390;28374.193;   -9.910;35821.895
685.966;29069.979;  -11.159;35085.871
686.542;31869.012;  -11.169;34198.230
687.118;33808.410;   -5.959;32847.707
687.693;33727.016;  -10.329;32794.027
688.269;33012.000;  -12.059;33072.367
688.844;30899.850;  -10.909;33141.664
689.420;28998.773;   -8.019;33965.742
689.995;26812.359;   -8.399;34655.523
690.571;25492.496;  -10.949;33576.742
691.146;25978.182;   -9.619;32657.219
691.722;25272.766;   -8.999;32526.979
692.297;24953.410;  -11.589;33014.617
692.872;27084.047;  -11.739;34012.254
693.448;26772.619;  -11.059;34237.434
694.023;25832.793;  -10.139;34142.672
694.598;27705.479;   -9.029;34132.031
695.173;27933.498;  -13.319;34205.250
695.748;27641.555;  -10.169;32882.488
696.323;27695.764;   -8.339;32864.906
696.898;27572.641;   -8.169;33170.004
697.473;27159.689;  -12.309;32432.984
698.048;26973.732;  -10.989;31649.303
698.623;27527.199;   -9.329;30778.141
699.198;29494.105;   -9.849;31140.119
699.773;30298.010;  -12.329;31764.299
700.348;28619.832;  -10.389;31780.816
700.922;28622.305;   -9.269;32046.375
701.497;29098.883;   -9.329;32603.574
702.072;29257.771;  -10.789;34799.871
702.646;28459.762;  -10.839;35793.172
703.221;26610.100;   -9.099;35201.590
703.795;28861.084;  -10.939;34764.527
704.370;29368.721;  -12.859;34307.367
704.944;29652.805;  -11.559;33509.887
705.519;30759.023;   -7.939;31388.584
706.093;31894.686;  -10.499;31340.104
706.668;31873.832;  -11.289;32630.281
707.242;30367.428;  -11.509;32728.779
707.816;28695.939;   -9.639;32947.238
708.390;27371.973;  -11.429;33277.855
708.965;28323.150;  -11.869;33834.336
709.539;28979.090;  -11.689;33709.273
710.113;29686.455;  -10.478;33044.313
710.687;29031.170;  -10.228;31953.992
711.261;26683.572;  -13.698;30505.949
711.835;26344.174;  -13.378;30262.369
712.409;27405.604;   -9.698;31254.447
712.983;28822.287;  -11.898;32754.986
713.557;29631.170;  -15.138;34018.824
714.131;29395.479;  -14.098;34579.625
714.704;28423.047;   -9.958;33890.262
715.278;26028.100;  -10.028;33531.102
715.852;25513.621;  -11.148;33601.660
716.425;26384.566;   -9.068;33515.117
716.999;26727.891;  -10.038;33185.555
717.573;27705.797;   -9.798;33905.996
718.146;29031.283;  -12.378;35199.293
718.720;28647.000;  -11.918;35060.551
719.293;28025.326;   -8.088;34973.230
719.867;30940.646;  -10.888;36394.449
720.440;31132.424;  -11.938;36663.008
721.013;29815.457;  -12.818;35102.426
721.587;28361.980;  -10.298;33985.266
722.160;26623.973;  -10.048;33524.965
722.733;25757.127;  -12.108;32987.043
723.306;26557.109;  -10.818;33066.301
723.880;28692.152;   -8.908;33399.500
724.453;30400.600;   -9.878;33468.297
725.026;29244.994;  -11.188;33816.637
725.599;26470.221;  -11.678;32797.996
726.172;26830.895;   -9.618;33187.434
726.745;28190.895;   -8.258;35136.613
727.318;30010.945;  -12.978;35751.730
727.891;30856.006;  -12.148;35890.430
728.463;30700.217;   -8.968;34822.090
729.036;29473.057;  -10.188;32895.086
729.609;29523.355;  -11.788;31823.225
730.182;26046.992;  -11.788;31445.283
730.754;23453.266;  -10.268;32373.223
731.327;23527.049;   -9.998;33676.820
731.900;23668.494;  -12.228;33417.000
732.472;25227.320;  -13.848;31978.498
733.045;27593.350;   -8.698;30368.777
733.617;27623.432;  -10.607;30574.215
734.190;26969.281;  -11.507;31280.975
734.762;24110.545;  -13.647;31674.412
735.334;22548.205;   -9.767;31247.291
735.907;22948.994;   -9.897;29876.211
736.479;22564.459;  -11.637;29808.488
737.051;22199.227;   -9.567;30233.547
737.623;23699.750;   -8.187;31469.086
738.195;24887.289;  -11.187;31784.225
738.768;26565.240;  -12.337;32120.523
739.340;26369.811;  -12.227;32094.342
739.912;25084.328;  -11.057;31312.680
740.484;24011.730;  -10.207;31946.238
741.056;23033.873;  -10.047;32984.059
741.628;24800.938;  -13.627;33897.715
742.199;27159.955;   -7.177;33213.016
742.771;25553.486;  -10.797;31369.113
743.343;23102.654;  -11.997;31865.473
743.915;21842.422;  -12.867;32388.631
744.487;22073.861;   -7.617;31079.568
745.058;22353.242;   -9.557;30570.107
745.630;23106.590;   -9.877;29970.127
746.201;24065.531;  -14.177;29186.766
746.773;24388.793;   -9.237;28805.723
747.344;24203.861;   -9.847;29591.223
747.916;22691.195;  -11.657;31412.201
748.487;22458.764;  -10.587;32194.898
749.059;23760.969;   -8.707;32533.719
749.630;24938.979;  -10.537;32158.518
750.201;24101.023;  -11.687;30855.395
750.773;22414.768;  -11.647;28622.555
751.344;22548.576;   -7.147;28405.732
751.915;23661.404;   -9.757;28461.551
752.486;22844.998;  -12.427;27842.850
753.057;20415.773;  -12.227;27845.008
753.628;19318.904;  -10.417;27728.107
754.199;20497.018;  -11.767;27381.086
754.770;21551.977;  -11.187;25882.203
755.341;21568.635;  -10.507;25886.184
755.912;21846.891;   -9.387;26050.861
756.483;21073.660;  -10.647;26798.779
757.054;19186.668;  -11.837;27048.238
757.625;17924.107;  -12.716;26294.838
758.195;17606.953;   -9.666;26142.076
758.766;17306.982;   -8.656;26392.234
759.337;18215.223;  -12.856;26334.594
759.907;20151.072;  -13.366;27579.652
760.478;21132.854;   -8.576;28352.770
761.048;20770.863;  -10.526;27325.088
761.619;20104.609;  -11.116;26460.428
762.189;19894.457;  -12.136;26029.826
762.760;20713.525;   -9.456;26430.145
763.330;21841.010;   -7.136;26670.902
763.900;21126.217;  -11.786;26603.021
764.471;18226.189;  -11.546;25542.740
765.041;17008.584;   -8.096;24358.459
765.611;17419.000;   -8.876;23991.297
766.181;18011.436;  -12.196;24470.236
766.751;18763.955;  -11.636;24845.975
767.321;18608.178;  -10.156;24533.633
767.891;16718.186;  -11.766;24916.492
768.461;16113.758;  -14.936;24776.771
769.031;16524.859;  -12.356;24757.988
769.601;18255.193;   -7.526;24181.088
770.171;18184.449;  -10.766;23670.387
770.741;17185.469;  -13.176;22960.045
771.311;17329.959;  -10.616;22917.523
771.880;17582.725;   -9.576;23562.941
772.450;16985.893;  -10.336;24216.500
773.020;17027.668;  -13.516;24140.398
773.589;16811.303;  -13.466;24414.857
774.159;16450.896;   -8.686;23858.717
774.729;16005.986;   -9.476;22942.135
775.298;15373.393;  -13.666;22324.033
775.867;14968.533;  -11.716;21140.313
776.437;15017.380;   -9.906;20838.092
777.006;14662.274;  -12.166;20599.510
777.576;14655.489;  -12.356;20508.809
778.145;14918.493;  -11.646;20732.947
778.714;14833.241;   -8.226;21062.465
779.283;13937.542;   -9.556;20949.664
779.853;13538.479;  -14.116;20508.623
780.422;13972.229;  -11.506;20649.082
780.991;13479.174;   -9.556;21527.520
781.560;12487.272;   -9.095;22632.658
782.129;12390.274;  -12.135;23048.277
782.698;12318.987;  -10.865;23438.555
783.267;11893.557;   -9.335;23267.734
783.836;11850.453;  -11.045;22415.133
784.404;12866.853;  -13.865;20443.152
784.973;13246.813;  -13.095;19699.150
785.542;12998.567;  -11.575;19763.828
786.111;12828.126;   -9.705;20341.408
786.679;12479.645;  -12.105;20207.967
787.248;12320.501;  -12.455;19516.465
787.817;12120.720;  -11.535;18900.363
788.385;11678.595;   -9.765;17879.121
788.954;10985.301;  -14.005;17658.301
789.522;10534.069;  -11.955;17788.879
790.090;11144.631;  -10.135;18118.277
790.659;11506.352;  -10.975;18338.736
791.227;10923.509;  -13.375;18508.615
791.795;11401.347;  -12.375;17898.254
792.364;11830.678;  -10.725;17295.133
792.932;12117.190;   -9.715;16822.051
793.500;12248.797;  -12.675;17040.148
794.068;12504.619;  -13.495;17179.787
794.636;12684.347;  -10.885;16664.246
795.204;12190.301;  -11.045;16524.545
795.772;12171.736;  -13.175;17274.564
796.340;11684.100;  -12.445;17891.002
796.908;11532.110;   -9.735;17648.561
797.476;11504.543;   -9.815;17064.080
798.044;11027.180;  -13.985;16672.777
798.612;10116.040;  -13.115;17023.996
799.180; 9725.651;  -10.185;16561.615
799.747; 9599.874;   -9.055;15962.773
800.315; 9301.320;  -12.385;15296.992
800.883; 9006.608;  -15.035;14801.771
801.450; 8977.525;  -10.365;14534.430
802.018; 8992.563;   -9.855;14173.248
802.585; 9034.603;  -11.905;14029.547
803.153; 9086.055;  -11.585;13836.846
803.720; 9022.898;   -9.095;13567.324
804.287; 8717.442;   -9.135;13360.622
804.855; 8301.848;  -11.604;13681.981
805.422; 8136.567;  -11.794;13536.560
805.989; 8069.963;  -10.734;13355.958
806.556; 8213.113;  -10.444;13747.896
807.124; 8523.382;  -12.764;13987.376
807.691; 8485.492;  -12.964;14038.674
808.258; 8308.741;  -11.134;14120.152
808.825; 7998.563;   -9.854;13860.111
809.392; 8017.000;  -10.504;13268.790
809.959; 7499.330;  -13.054;12680.389
810.526; 7073.697;   -8.294;12427.308
811.093; 7124.402;   -8.394;12030.105
811.659; 7721.411;  -12.304;11653.664
812.226; 8190.907;  -13.944;11637.183
812.793; 7926.282;  -10.484;11611.521
813.360; 7347.979;  -10.144;11885.181
813.926; 6941.641;  -11.684;12770.539
814.493; 6650.002;  -13.644;12677.638
815.060; 6276.681;   -9.724;11974.336
815.626; 6336.044;   -9.854;11594.715
816.193; 6792.574;  -13.254;11579.474
816.759; 6863.263;  -13.204;11666.972
817.325; 7012.035;   -9.434;11325.530
817.892; 7357.292;  -10.134;11105.369
818.458; 7754.018;  -13.474;10843.928
819.024; 7413.346;  -11.854;10714.406
819.591; 7060.176;  -10.244;10469.165
820.157; 6797.628;  -10.704;10235.523
820.723; 6296.744;  -12.324;10847.563
821.289; 6035.478;   -9.444;11040.980
821.855; 6001.851;   -8.374;10357.100
822.421; 6046.997;  -10.234; 9978.918
822.987; 6009.360;  -13.294; 9754.177
823.553; 5694.341;  -10.884;10065.755
824.119; 5540.495;   -8.884;10036.294
824.685; 5634.061;   -6.784;10029.192
825.251; 5711.184;  -12.004;10199.230
825.816; 5651.095;  -11.474; 9820.189
826.382; 5427.501;   -9.174; 9297.248
826.948; 5643.409;   -9.214; 9381.347
827.513; 6092.680;  -10.774; 9450.726
828.079; 5925.881;  -11.924; 9472.444
828.645; 5329.181;  -10.543; 9292.643
829.210; 5218.646;  -10.533; 9065.341
829.776; 5183.286;  -10.753; 9132.620
830.341; 5065.038;  -10.173; 9092.878
830.906; 5267.900;  -10.743; 9078.557
831.472; 5646.818;  -11.113; 8534.535
832.037; 5407.658;  -10.603; 8677.874
832.602; 4843.183;  -13.323; 8628.692
833.167; 4497.652;  -10.823; 8879.031
833.733; 4419.654;  -10.113; 9189.790
834.298; 4519.608;  -13.583; 9052.608
834.863; 4518.710;  -12.703; 8895.087
835.428; 4480.784;  -10.523; 8824.266
835.993; 4413.558;   -6.963; 8845.385
836.558; 4299.789;  -10.763; 8888.563
837.123; 4408.821;   -9.903; 8966.582
837.688; 4600.769;   -9.913; 8617.860
838.253; 4810.922;  -10.283; 8590.699
838.817; 5025.804;  -12.963; 8443.797
839.382; 4961.567;  -14.243; 8799.356
839.947; 4642.794;  -10.733; 8810.595
840.511; 4308.260;   -9.383; 8796.394
841.076; 3928.778;  -12.563; 8347.231
841.641; 3978.963;  -12.953; 8224.330
842.205; 4059.127;   -7.043; 8223.349
842.770; 4187.819;   -8.163; 8622.107
843.334; 4448.544;  -12.503; 8410.386
843.898; 4457.904;  -11.693; 8337.465
844.463; 4482.248;  -10.203; 8506.283
845.027; 4208.388;   -9.533; 8280.962
845.591; 3983.508;  -13.443; 8231.141
846.156; 3971.684;  -13.143; 7969.179
846.720; 3825.384;   -9.433; 7768.278
847.284; 3684.492;  -11.033; 7630.957
847.848; 3505.870;  -10.403; 7472.395
848.412; 3415.608;  -11.553; 7437.394
848.976; 3480.899;   -8.393; 7674.592
849.540; 3447.231;   -8.713; 7836.011
850.104; 3545.057;  -12.463; 7913.669
850.668; 3895.195;  -12.973; 7694.508
851.232; 4009.791;  -10.793; 7756.887
851.796; 3831.916;  -10.662; 7926.545
852.359; 3517.364;  -13.082; 7827.844
852.923; 3349.486;  -12.192; 7641.163
853.487; 3160.383;  -11.912; 7342.501
854.050; 3086.518;  -10.892; 7042.820
854.614; 3237.065;  -13.992; 7151.338
855.177; 3378.045;  -11.732; 7105.077
855.741; 3440.337;   -8.962; 6989.675
856.304; 3322.707;   -9.442; 6596.634
856.868; 3246.754;  -14.192; 6356.272
857.431; 3365.826;  -12.702; 6468.571
857.995; 3484.918;   -9.942; 6373.210
858.558; 3493.528;   -9.112; 6324.448
859.121; 3212.043;  -12.932; 6408.327
859.684; 3090.950;  -13.442; 6347.886
860.247; 3225.580;  -10.632; 6321.264
860.810; 3203.691;  -11.272; 6301.903
861.374; 2947.427;   -9.832; 6607.881
861.937; 2684.841;  -11.762; 6408.200
862.500; 2641.116;   -9.722; 6572.639
863.062; 2786.976;  -10.512; 6387.297
863.625; 2963.764;  -11.232; 6190.836
864.188; 3116.971;  -14.112; 5807.254
864.751; 3165.042;  -11.302; 5682.413
865.314; 3052.467;  -10.112; 5547.492
865.876; 2878.829;  -12.182; 5500.150
866.439; 2898.831;  -10.722; 5415.909
867.002; 2849.973;   -9.252; 5501.567
867.564; 2616.991;   -9.572; 5413.946
868.127; 2393.020;  -13.142; 5160.325
868.689; 2312.818;  -12.902; 5133.183
869.252; 2260.700;   -9.732; 5252.382
869.814; 2179.441;   -9.432; 5297.141
870.377; 2190.367;  -11.552; 5390.919
870.939; 2263.307;   -9.052; 5599.898
871.501; 2316.788;  -10.982; 5248.336
872.063; 2316.550;  -12.292; 4854.235
872.626; 2281.127;  -14.912; 4817.074
873.188; 2290.411;  -13.112; 4987.732
873.750; 2237.671;  -13.442; 4868.651
874.312; 2125.505;   -9.402; 4779.330
874.874; 2036.598;  -11.062; 4866.348
875.436; 1971.127;  -13.931; 4718.887
875.998; 1967.783;   -9.561; 4660.005
876.560; 1972.368;  -11.321; 4462.964
877.122; 1907.161;  -12.221; 4145.042
877.683; 1811.208;  -12.191; 4056.481
878.245; 1741.359;  -12.101; 3950.740
878.807; 1769.212;   -8.971; 4058.958
879.369; 1776.060;  -12.071; 3954.677
879.930; 1675.465;  -14.621; 3941.495
880.492; 1623.619;  -10.311; 4067.014
881.053; 1602.993;  -10.901; 3859.633
881.615; 1491.368;  -14.411; 3776.071
882.176; 1406.769;  -13.761; 3734.750
882.738; 1380.739;   -9.181; 3678.489
883.299; 1354.700;  -11.791; 3405.407
883.860; 1356.067;  -13.121; 3351.106
884.422; 1367.415;  -11.211; 3394.044
884.983; 1324.319;  -10.091; 3166.443
885.544; 1226.841;   -8.461; 3189.802
886.105; 1143.767;  -12.361; 3160.360
886.666; 1078.301;  -14.141; 3093.059
887.227; 1021.682;  -11.361; 2941.957
887.788;  950.518;  -11.401; 2974.836
888.349;  885.595;  -13.791; 2721.214
888.910;  889.775;  -13.191; 2696.493
889.471;  903.298;   -9.881; 2560.172
890.032;  886.736;   -9.881; 2558.190
890.593;  857.468;  -10.371; 2567.669
891.153;  827.029;  -13.301; 2460.307
891.714;  777.677;  -11.431; 2372.046
892.275;  738.441;  -11.291; 2309.505
892.835;  698.415;  -11.471; 2382.543
893.396;  640.324;  -11.541; 2295.502
893.956;  584.520;  -11.181; 2162.420
894.517;  548.692;  -11.741; 2125.439
895.077;  541.374;  -11.671; 2086.978
895.638;  540.335;  -11.311; 2126.316
896.198;  512.576;   -9.831; 1838.275
896.758;  466.488;   -8.421; 1892.813
897.319;  430.918;  -12.351; 1792.232
897.879;  415.578;  -13.511; 1762.751
898.439;  388.202;  -12.001; 1661.149
898.999;  361.791;  -10.180; 1781.468
899.559;  352.017;  -12.030; 1703.347
900.119;  348.271;  -15.710; 1537.525
900.679;  346.169;   -8.900; 1638.384
901.239;  332.711;   -8.340; 1527.902
901.799;  321.296;  -13.910; 1456.441
902.359;  314.134;  -13.460; 1357.140
902.919;  305.934;  -11.490; 1331.118
903.479;  291.487;  -12.110; 1317.257
904.038;  267.344;  -11.720; 1262.595
904.598;  251.938;  -13.610; 1152.034
905.158;  246.166;  -11.040; 1240.893
905.717;  240.600;  -10.900; 1233.691
906.277;  228.364;  -15.080; 1217.330
906.836;  219.655;  -13.380; 1222.408
907.396;  211.851;  -10.780; 1193.047
907.955;  204.898;   -8.500; 1182.526
908.515;  198.420;  -12.760; 1099.364
909.074;  192.297;  -11.900; 1092.863
909.633;  185.352;   -8.950; 1069.121
910.192;  180.904;   -8.770; 1196.460
910.752;  175.808;  -12.390; 1029.960
911.311;  171.892;  -13.680; 1009.780
911.870;  168.864;  -12.370;  971.460
912.429;  170.126;  -10.900; 1094.080
912.988;  167.546;  -11.690; 1081.060
913.547;  162.599;  -13.240;  940.380
914.106;  158.352;  -11.990;  999.420
914.665;  154.054;   -9.990;  984.020
915.224;  153.209;  -12.880; 1035.760
915.782;  153.117;  -12.350;  922.560
916.341;  153.779;   -9.110; 1049.840
916.900;  148.929;   -9.270;  925.260
917.458;  146.284;  -13.240;  884.220
918.017;  146.846;  -13.550;  942.600
918.576;  146.198;  -12.320;  904.440
919.134;  143.888;  -11.490;  837.980
919.693;  141.532;  -13.670;  893.060
920.251;  139.623;  -15.470;  876.500
920.809;  139.099;  -11.290;  839.580
921.368;  138.709;  -10.210;  885.360
921.926;  136.911;  -12.140;  842.940
922.484;  135.251;  -13.080;  903.360
923.042;  135.363;  -11.720;  880.340
923.601;  138.460;   -7.480;  998.680
924.159;  136.742;  -11.570;  935.560
924.717;  133.178;  -13.840;  841.080
925.275;  134.236;  -10.640;  903.240
925.833;  133.585;  -11.540;  779.320
926.391;  135.060;  -12.960;  938.380
926.949;  132.390;  -14.130;  857.680
927.506;  132.916;  -11.750;  903.500
928.064;  133.365;  -10.250;  877.580
928.622;  131.999;  -13.030;  880.100
929.180;  131.806;  -13.400;  814.180
929.737;  132.693;  -10.700;  808.540
930.295;  137.263;  -10.070;  928.480
930.853;  138.283;  -11.960;  849.100
931.410;  139.220;  -13.120;  821.120
931.968;  139.454;  -10.770;  940.660
932.525;  138.751;  -10.680;  909.380
933.082;  138.509;  -13.130;  811.440
933.640;  139.055;  -13.210;  925.900
934.197;  138.028;  -11.060;  886.360
934.754;  138.036;   -9.580;  897.780
935.312;  141.248;  -14.000;  863.340
935.869;  145.915;  -10.710; 1012.980
936.426;  146.085;   -9.860;  872.800
936.983;  147.305;   -9.710;  889.020
937.540;  146.016;  -13.990;  838.280
938.097;  145.665;  -14.040;  940.120
938.654;  145.944;  -10.310;  898.860
939.211;  148.674;  -10.560;  952.480
939.768;  152.717;  -13.900;  915.420
940.324;  156.499;  -14.760;  904.200
940.881;  157.051;  -10.370;  878.500
941.438;  158.056;   -8.260; 1021.200
941.995;  152.836;  -12.540;  992.560
942.551;  151.154;  -14.670;  875.620
943.108;  150.745;  -10.450;  937.920
943.664;  153.425;  -10.750;  869.340
944.221;  155.731;  -11.550; 1088.140
944.777;  154.650;  -14.770;  869.680
945.334;  156.903;  -12.820;  884.840
945.890;  159.685;  -10.130;  946.480
946.446;  159.587;  -13.470;  947.020
947.003;  160.789;  -12.120;  964.940
947.559;  163.457;   -9.980; 1063.040
948.115;  162.735;   -9.080; 1026.540
948.671;  160.465;  -10.830;  967.300
949.227;  157.529;  -12.440;  859.560
949.783;  154.017;  -12.910;  858.900
950.339;  156.078;  -10.270;  991.000
950.895;  155.817;  -13.630; 1023.840
951.451;  155.466;  -15.100;  925.280
952.007;  157.660;  -11.330;  998.540
952.563;  159.133;  -10.580;  937.780
953.118;  158.705;  -13.440;  904.940
953.674;  158.295;  -12.710;  935.780
954.230;  158.117;  -10.350;  949.640
954.785;  155.981;   -9.190;  936.640
955.341;  153.989;  -11.200;  998.160
955.897;  151.161;  -16.560;  834.660
956.452;  153.137;  -12.570;  953.840
957.008;  152.077;   -7.970; 1083.640
957.563;  148.962;  -11.940; 1009.540
958.118;  144.656;  -13.450;  877.700
958.674;  145.351;  -12.030;  946.780
959.229;  147.516;   -9.410; 1013.980
959.784;  145.230;  -12.000;  832.400
960.339;  143.816;  -14.780; 1001.280
960.894;  139.878;   -9.860;  963.760
961.449;  136.384;   -9.970;  859.960
962.004;  136.216;  -10.900; 1212.840
962.559;  131.879;  -13.150;  860.140
963.114;  130.054;  -13.740;  742.480
963.669;  129.319;   -9.820;  915.500
964.224;  125.796;  -13.890;  874.340
964.779;  124.798;  -12.600;  828.420
965.334;  128.055;  -10.950; 1017.860
965.888;  128.737;  -11.170;  875.360
966.443;  133.682;  -12.540;  972.380
966.998;  134.630;  -15.780;  819.460
967.552;  131.418;   -9.760;  908.380
968.107;  120.944;   -9.060;  868.300
968.661;  112.626;  -11.950;  922.440
969.216;  103.132;  -12.800;  856.280
969.770;   95.257;  -11.210;  917.200
970.324;   90.729;  -11.610;  923.140
970.879;   89.258;  -11.370;  947.180
971.433;   91.936;  -12.540;  952.720
971.987;   91.800;  -11.320;  895.340
972.541;   92.845;  -10.720;  917.100
973.095;   93.498;   -9.680; 1009.460
973.649;   93.590;  -11.440;  809.480
974.203;   93.552;  -11.210;  829.040
974.757;   94.727;  -10.240;  855.220
975.311;   94.554;  -13.720;  872.600
975.865;   94.989;  -13.770;  881.820
976.419;   93.859;  -11.690;  857.400
976.973;   94.560;   -9.510;  849.620
977.526;   96.260;  -12.620;  949.920
978.080;   96.457;  -12.010;  796.780
978.634;   98.246;  -10.170;  921.320
979.187;   96.191;   -9.020;  905.400
979.741;   93.811;   -9.820; 1018.380
980.294;   89.562;  -14.870;  789.160
980.848;   87.812;  -12.380;  717.220
981.401;   89.812;  -10.350;  816.540
981.955;   91.909;  -13.720;  844.300
982.508;   91.099;  -11.490;  746.340
983.061;   91.666;  -10.000;  915.260
983.615;   88.089;  -11.480;  798.800
984.168;   85.623;  -13.220;  770.080
984.721;   84.741;  -13.960;  880.760
985.274;   84.280;  -10.870;  867.500
985.827;   82.794;   -9.790;  834.220
986.380;   80.871;  -13.120;  721.340
986.933;   80.283;  -12.450;  864.800
987.486;   78.284;  -10.210;  861.920
988.039;   76.977;   -8.430;  863.100
988.591;   75.172;  -10.520;  893.260
989.144;   72.950;  -14.860;  737.260
989.697;   72.357;  -13.080;  758.740
990.250;   73.618;  -10.150;  858.100
990.802;   71.754;  -13.430;  755.860
991.355;   73.013;  -12.750;  974.880
991.907;   71.391;  -12.040;  864.320
992.460;   69.768;  -11.330;  753.760
993.012;   67.479;  -13.610;  749.540
993.565;   66.745;  -13.460;  711.360
994.117;   68.835;   -9.360;  950.780
994.669;   64.723;  -11.300;  701.320
995.221;   62.240;  -13.540;  791.920
995.774;   60.952;  -13.430;  787.580
996.326;   59.956;  -12.520;  740.220
996.878;   59.133;  -10.950;  838.420
997.430;   57.305;  -14.300;  699.860
997.982;   56.367;  -13.760;  750.140
998.534;   56.634;  -11.530;  739.060
999.086;   54.499;  -10.310;  738.220
999.638;   54.120;  -12.530;  661.380
1000.190;   52.994;  -11.840;  699.320
1000.741;   53.061;  -10.260;  742.700
1001.293;   52.626;   -8.860;  686.020
1001.845;   50.434;  -13.700;  676.640
1002.396;   50.252;  -12.100;  743.400
1002.948;   49.090;  -12.760;  737.400
1003.500;   46.498;  -10.380;  723.780
1004.051;   46.946;  -11.900;  907.580
1004.603;   44.784;  -12.250;  791.820
1005.154;   42.378;  -13.210;  608.980
1005.705;   41.077;  -10.950;  723.960
1006.257;   41.385;  -13.880;  707.220
1006.808;   40.740;  -12.840;  685.460
1007.359;   41.535;  -10.570;  763.240
1007.910;   39.281;   -9.620;  646.640
1008.461;   38.971;  -13.630;  732.940
1009.013;   39.113;  -17.200;  588.340
1009.564;   39.649;  -10.200;  793.520
1010.115;   37.797;  -12.570;  597.040
1010.665;   36.965;  -15.150;  602.160
1011.216;   37.376;  -14.480;  667.920
1011.767;   37.265;  -11.340;  697.920
1012.318;   37.002;   -9.780;  736.980
1012.869;   36.442;  -12.380;  679.000
1013.419;   34.950;  -15.560;  603.120
1013.970;   35.322;  -11.010;  666.640
1014.521;   34.877;  -11.610;  620.620
1015.071;   34.904;  -13.450;  670.380
1015.622;   34.648;  -13.870;  635.460
1016.172;   34.384;  -11.610;  596.820
1016.723;   33.580;  -12.120;  614.380
1017.273;   33.824;  -13.620;  604.160
1017.823;   33.715;  -14.140;  650.340
1018.374;   33.097;  -12.800;  611.760
1018.924;   33.620;  -12.340;  716.880
1019.474;   32.810;  -11.410;  718.880
1020.024;   31.552;  -14.770;  657.580
1020.574;   33.409;   -9.780;  726.160
1021.124;   32.992;   -8.560;  673.580
1021.674;   31.026;  -15.190;  559.120
1022.224;   32.728;  -13.530;  708.940
1022.774;   32.202;  -13.280;  668.820
1023.324;   33.063;  -10.690;  753.520
1023.874;   33.442;  -10.240;  875.760
1024.423;   30.439;  -12.540;  613.700
1024.973;   30.398;  -10.010;  610.760
1025.523;   29.839;  -10.550;  620.960
1026.072;   29.118;  -13.560;  606.420
1026.622;   30.125;  -15.120;  675.740
1027.172;   31.072;  -11.260;  715.660
1027.721;   29.786;  -11.410;  601.220
1028.270;   29.765;  -13.530;  663.400
1028.820;   29.158;  -13.680;  638.080
1029.369;   29.822;  -13.520;  612.700
1029.918;   29.503;  -10.980;  649.840
1030.468;   28.253;  -13.530;  564.780
1031.017;   28.910;  -13.170;  634.800
1031.566;   27.553;  -12.200;  608.900
1032.115;   28.339;   -9.960;  694.500
1032.664;   26.991;  -13.210;  596.480
1033.213;   28.490;  -12.500;  735.420
1033.762;   27.754;  -11.910;  635.620
1034.311;   27.273;   -9.640;  677.220
1034.860;   26.842;  -13.310;  691.000
1035.408;   28.273;  -11.830;  722.720
1035.957;   27.698;  -12.000;  719.540
1036.506;   25.153;  -11.690;  530.800
1037.055;   28.147;  -10.990;  844.320
1037.603;   26.377;  -15.120;  664.000
1038.152;   24.787;  -12.450;  534.760
1038.700;   25.681;  -10.560;  585.740
1039.249;   25.451;  -11.080;  681.220
1039.797;   25.668;  -12.540;  633.360
1040.345;   25.648;  -11.920;  705.420
1040.894;   24.826;  -11.410;  625.300
1041.442;   24.370;  -14.320;  632.200
1041.990;   23.612;  -16.240;  559.160
1042.538;   24.243;  -11.680;  536.180
1043.087;   24.586;  -10.760;  570.860
1043.635;   24.996;  -11.850;  670.500
1044.183;   23.916;  -15.480;  586.400
1044.731;   23.541;  -11.770;  576.000
1045.279;   23.751;  -13.090;  674.920
1045.827;   24.889;  -12.440;  892.400
1046.374;   23.166;  -13.840;  515.420
1046.922;   21.946;  -13.220;  590.580
1047.470;   23.847;  -10.230;  691.300
1048.018;   22.611;  -14.590;  647.960
1048.565;   24.281;  -12.050;  708.600
1049.113;   22.180;  -11.650;  557.000
1049.660;   22.121;  -10.510;  629.660
1050.208;   22.302;  -13.310;  675.640
1050.755;   21.844;  -15.900;  606.580
1051.303;   22.762;  -11.430;  686.820
1051.850;   21.195;   -8.480;  635.120
1052.397;   19.949;  -15.010;  473.960
1052.945;   21.549;  -13.960;  617.760
1053.492;   22.742;  -13.150;  741.840
1054.039;   22.750;   -9.630;  720.180
1054.586;   20.079;  -13.680;  557.240
1055.133;   21.248;  -14.570;  693.140
1055.680;   21.422;  -13.820;  646.620
1056.227;   19.843;  -11.730;  542.780
1056.774;   21.533;  -12.480;  794.980
1057.321;   19.325;  -13.930;  523.260
1057.868;   20.707;  -11.690;  651.320
1058.415;   19.871;   -9.520;  651.980
1058.961;   20.279;  -13.160;  678.940
1059.508;   20.334;  -12.920;  643.820
1060.055;   19.833;  -11.920;  581.780
1060.601;   19.565;  -11.500;  624.300
1061.148;   19.657;  -14.330;  616.820
1061.694;   18.806;  -16.870;  592.580
1062.241;   19.477;  -10.330;  596.320
1062.787;   19.456;  -10.620;  663.140
1063.334;   20.433;  -10.110;  808.560
1063.880;   19.227;  -13.400;  668.360
1064.426;   19.607;  -10.680;  706.820
1064.972;   17.679;   -9.920;  601.340
1065.518;   16.569;  -10.980;  566.640
1066.065;   18.609;  -14.890;  624.460
1066.611;   18.040;  -12.870;  598.800
1067.157;   18.598;  -12.950;  641.860
1067.703;   17.046;  -13.540;  668.480
1068.249;   17.486;  -13.540;  605.220
1068.794;   17.931;  -12.600;  626.880
1069.340;   16.349;  -10.620;  578.960
1069.886;   16.644;  -12.830;  590.700
1070.432;   16.874;  -14.870;  541.720
1070.977;   16.868;  -11.980;  601.080
1071.523;   16.543;   -8.200;  573.060
1072.068;   16.014;  -12.330;  582.000
1072.614;   15.242;  -16.370;  527.760
1073.160;   17.107;  -11.100;  687.040
1073.705;   15.455;  -10.480;  572.520
1074.250;   15.580;  -14.520;  559.900
1074.796;   17.315;  -11.460;  655.160
1075.341;   16.625;  -11.950;  664.100
1075.886;   16.636;  -11.460;  594.240
1076.431;   16.425;  -13.770;  649.880
1076.976;   15.102;  -12.680;  639.220
1077.521;   15.504;  -13.170;  583.080
1078.067;   14.742;  -10.860;  579.400
1078.612;   15.125;  -13.920;  661.620
1079.156;   14.883;  -13.880;  601.540
1079.701;   15.697;  -13.120;  693.260
1080.246;   16.034;   -9.940;  696.300
1080.791;   14.683;  -14.740;  625.020
1081.336;   14.357;  -13.750;  659.320
1081.880;   14.652;  -13.400;  649.680
1082.425;   13.699;  -12.220;  573.480
1082.970;   15.761;  -11.610;  717.040
1083.514;   13.523;  -13.580;  597.000
1084.059;   13.096;  -12.810;  586.720
1084.603;   13.636;  -12.320;  565.840
1085.147;   13.794;  -13.190;  645.220
1085.692;   13.995;  -12.480;  716.800
1086.236;   13.044;  -13.020;  503.140
1086.780;   14.866;   -9.190;  751.440
1087.325;   13.614;  -12.480;  654.620
1087.869;   12.970;  -12.450;  610.700
1088.413;   14.356;  -12.240;  705.040
1088.957;   11.929;   -9.020;  543.400
1089.501;   13.586;  -10.320;  766.640
1090.045;   12.473;  -12.720;  726.480
1090.589;   10.917;  -13.690;  569.920
1091.133;   12.985;  -10.020;  673.340
1091.676;   12.599;  -12.330;  591.940
1092.220;   11.865;  -14.970;  600.920
1092.764;   13.960;  -12.430;  706.960
1093.307;   12.580;   -9.800;  673.780
1093.851;   10.516;  -14.970;  556.540
1094.395;   11.908;  -15.310;  683.140
1094.938;   11.508;  -10.370;  632.520
1095.482;   11.615;  -11.050;  559.800
1096.025;   11.537;  -11.840;  710.880
1096.568;   12.265;  -12.840;  779.280
1097.112;    9.769;  -14.700;  508.180
1097.655;   11.851;   -8.720;  603.000
1098.198;    9.976;  -13.610;  600.180
1098.741;   10.396;  -13.350;  612.860
1099.285;   11.675;  -11.230;  657.300
1099.828;    8.956;  -11.840;  439.400
1100.371;   10.548;  -10.840;  608.160
1100.914;   10.595;  -14.190;  682.660
1101.457;   11.016;  -11.240;  679.900
1101.999;    9.515;  -11.270;  584.680
1102.542;   10.050;  -11.480;  641.440
1103.085;    9.359;  -11.750;  658.500
1103.628;   11.024;  -11.400;  762.060
1104.170;    9.516;  -10.490;  588.280
1104.713;    9.845;  -10.600;  646.700
1105.256;    9.225;  -14.360;  557.440
1105.798;    8.379;  -13.210;  499.980
1106.341;   10.778;  -10.270;  728.900
1106.883;    7.970;  -12.200;  521.340
1107.425;    9.267;  -13.110;  668.180
1107.968;    8.999;  -12.840;  612.380
1108.510;   10.149;   -6.480;  684.960
1109.052;    8.308;  -13.940;  612.620
1109.594;    8.142;  -13.690;  554.440
1110.136;    9.189;  -11.880;  643.220
1110.679;    7.897;   -9.500;  633.080
1111.221;    8.656;  -14.160;  604.460
1111.763;    7.346;  -13.980;  559.220
1112.304;    7.940;  -13.880;  547.140
1112.846;    8.100;  -12.210;  666.240
1113.388;   10.520;  -11.390;  942.180
1113.930;    7.603;  -14.540;  694.200
1114.472;    7.315;  -12.640;  606.540
1115.013;    6.937;  -11.620;  551.280
1115.555;    6.121;  -13.640;  587.100
1116.097;    6.254;  -15.380;  579.480
1116.638;    7.638;  -12.640;  684.600
1117.180;    7.577;   -9.850;  667.740
1117.721;    6.763;  -13.690;  568.580
1118.262;    7.503;  -12.680;  677.960
1118.804;    8.063;  -12.530;  637.340
1119.345;    6.660;  -11.690;  578.400
1119.886;    7.445;  -13.380;  704.040
1120.427;    6.151;  -14.070;  589.020
1120.969;    5.889;  -13.500;  597.920
1121.510;    5.057;  -11.480;  563.060
1122.051;    6.244;  -12.830;  723.580
1122.592;    5.877;  -14.290;  655.420
1123.133;    4.860;  -12.400;  547.940
1123.673;    7.147;  -10.130;  706.480
1124.214;    5.403;  -12.930;  612.460
1124.755;    5.954;  -14.380;  639.460
1125.296;    6.474;  -14.000;  627.320
1125.836;    6.563;  -10.070;  691.500
1126.377;    4.889;  -12.640;  599.660
1126.918;    5.649;  -12.960;  614.980
1127.458;    5.060;  -13.350;  622.220
1127.999;    6.119;  -10.750;  656.980
1128.539;    5.145;  -12.350;  694.240
1129.079;    4.730;  -14.860;  632.720
1129.620;    4.467;  -13.840;  558.100
1130.160;    4.149;  -12.330;  539.480
1130.700;    5.018;  -14.530;  640.840
1131.240;    5.581;  -12.530;  643.700
1131.781;    4.244;  -14.450;  619.680
1132.321;    5.010;   -9.790;  599.120
1132.861;    3.163;  -14.860;  564.200
1133.401;    3.450;  -14.290;  593.940
1133.941;    4.155;  -11.750;  626.280
1134.481;    3.784;   -9.920;  597.580
1135.020;    3.225;  -12.290;  609.160
1135.560;    4.229;  -11.650;  674.940
1136.100;    3.702;  -16.270;  501.160
1136.640;    3.362;  -10.890;  510.480
1137.179;    2.999;  -14.180;  537.960
1137.719;    3.452;  -16.250;  605.400
1138.258;    4.007;  -14.230;  587.360
1138.798;    4.141;   -9.090;  663.780
1139.337;    2.041;  -15.130;  482.840
1139.877;    3.188;  -13.680;  642.360
1140.416;    5.660;  -11.320;  878.060
1140.955;    2.372;  -10.860;  535.380
1141.494;    3.364;  -12.920;  669.280
1142.034;    2.494;  -13.930;  583.520
1142.573;    4.142;  -11.440;  646.280
1143.112;    2.370;  -12.000;  553.480
1143.651;    2.701;  -13.670;  536.480
1144.190;    3.534;  -12.730;  691.640
1144.729;    3.436;  -14.560;  607.420
1145.267;    2.938;  -11.830;  584.900
1145.806;    3.291;  -12.230;  637.040
1146.345;    1.815;  -14.130;  635.020
1146.884;    1.987;  -11.590;  622.500
1147.422;    1.418;  -12.550;  533.060
1147.961;    2.996;  -11.180;  708.460
1148.500;    2.569;  -11.510;  669.720
1149.038;    2.698;  -11.640;  632.500
1149.577;    2.560;  -10.130;  698.640
1150.115;    0.493;  -13.970;  452.280
1150.653;    1.492;  -14.520;  607.340
1151.192;    2.225;  -12.810;  552.920
1151.730;    2.031;   -9.100;  652.560
1152.268;    1.147;  -12.220;  589.520
1152.806;    0.913;  -14.140;  571.180
1153.344;    0.300;  -12.350;  577.640
1153.882;    1.686;   -8.980;  600.060
1154.421;    0.192;  -15.190;  470.620
1154.958;   -0.042;  -15.210;  595.240
1155.496;    2.291;  -12.850;  645.280
1156.034;    1.240;   -9.940;  721.880
1156.572;    2.394;  -13.570;  667.060
1157.110;   -0.707;  -14.590;  473.940
1157.647;    0.997;  -13.030;  676.960
1158.185;    0.101;  -12.140;  564.320
1158.723;   -0.669;  -14.390;  509.200
1159.260;    0.811;  -14.090;  701.700
1159.798;    1.309;  -11.920;  658.160
1160.335;    0.348;  -11.110;  631.820

