
Integration time [ms]:   3.276
Averaging Nr. [scans]: 1000
Smoothing Nr. [pixels]: 0
Data measured with spectrometer [name]: 7414430SP
Wave   ;Sample   ;Dark     ;Reference
[nm]   ;[counts] ;[counts] ;[counts] 

288.544;  151.115;    7.793;  793.890
289.143;  154.885;    7.462;  681.602
289.742;  155.347;    8.602;  828.814
290.341;  141.068;    1.321;  789.841
290.940;  129.813;   -0.709;  730.702
291.538;  130.413;    0.881;  881.108
292.137;  131.402;    0.122;  792.581
292.736;  136.114;   -1.929;  975.101
293.335;  132.163;   -8.229;  735.086
293.934;  132.150;   -5.279;  781.677
294.532;  130.146;   -1.369; 1031.958
295.131;  117.983;   -7.641;  834.394
295.730;  117.476;   -8.420;  809.588
296.328;  115.105;   -5.611;  783.442
296.927;  116.799;   -5.781;  779.652
297.525;  118.436;   -6.361;  781.236
298.124;  109.161;  -11.382;  654.009
298.722;  111.875;   -7.641;  761.933
299.321;  109.570;   -6.811;  708.597
299.919;  107.673;   -6.991;  751.918
300.518;  105.470;  -10.362;  689.338
301.116;  106.041;   -9.581;  691.381
301.715;  106.472;   -4.891;  730.222
302.313;  106.044;   -8.801;  704.943
302.911;  100.887;   -8.522;  733.830
303.509;  106.074;   -6.171;  925.627
304.108;  103.086;   -7.311;  760.383
304.706;  103.123;   -8.321;  801.664
305.304;   98.125;  -10.222;  796.707
305.902;  102.270;   -6.021;  784.484
306.500;   98.437;   -4.971;  728.200
307.098;   96.999;   -7.061;  746.560
307.696;   95.139;   -8.801;  780.432
308.294;   95.133;   -6.411;  731.359
308.892;   97.089;   -2.901;  759.769
309.490;   93.595;   -5.041;  712.161
310.088;   92.527;   -5.002;  788.444
310.686;   96.764;   -2.041;  821.749
311.284;   91.747;   -2.351;  766.040
311.882;   90.383;   -4.422;  731.225
312.480;   86.998;   -4.192;  697.167
313.078;   87.849;   -1.172;  808.331
313.675;   88.830;   -2.601;  691.600
314.273;   83.715;   -1.312;  797.837
314.871;   83.575;   -3.942;  589.829
315.468;   82.074;   -2.802;  652.090
316.066;   83.663;   -0.701;  694.427
316.664;   77.720;   -4.362;  656.351
317.261;   80.917;   -2.872;  910.128
317.859;   76.332;   -2.022;  768.735
318.456;   77.777;   -0.531;  830.096
319.054;   73.727;   -3.912;  787.828
319.651;   72.085;   -4.752;  759.928
320.249;   70.931;   -2.602;  810.188
320.846;   68.672;   -0.821;  714.286
321.443;   66.765;   -4.642;  832.135
322.041;   63.534;   -5.002;  812.315
322.638;   60.924;   -3.982;  701.456
323.235;   63.013;   -3.411;  665.683
323.833;   59.788;   -7.361;  740.354
324.430;   55.240;   -8.611;  615.900
325.027;   55.805;   -4.061;  876.855
325.624;   55.560;   -4.031;  644.532
326.221;   53.049;   -7.481;  689.717
326.818;   52.403;   -5.281;  818.332
327.415;   56.317;   -7.460;  748.828
328.012;   54.997;   -5.510;  690.585
328.609;   53.200;   -7.880;  731.389
329.206;   51.698;   -8.331;  778.621
329.803;   51.945;   -5.121;  737.841
330.400;   54.482;   -4.510;  704.260
330.997;   56.307;   -6.441;  817.147
331.594;   54.740;   -8.831;  788.185
332.191;   58.844;   -7.621;  728.722
332.787;   62.436;   -4.591;  844.463
333.384;   62.156;   -7.412;  763.093
333.981;   59.977;   -8.293;  815.687
334.578;   62.830;   -7.052;  708.378
335.174;   65.113;   -3.102;  731.469
335.771;   65.513;   -5.943;  836.456
336.367;   62.305;   -7.393;  710.631
336.964;   65.697;   -4.063;  793.266
337.561;   63.390;   -3.813;  731.112
338.157;   59.720;   -4.654;  911.916
338.754;   56.820;   -7.934;  796.589
339.350;   54.965;   -4.414;  722.493
339.946;   57.287;   -4.664;  773.135
340.543;   49.497;   -6.375;  846.136
341.139;   43.557;   -9.815;  720.836
341.735;   41.043;   -4.526;  772.593
342.332;   40.291;   -4.895;  691.472
342.928;   40.896;   -4.295;  795.394
343.524;   34.891;   -5.476;  761.684
344.120;   31.188;   -5.856;  738.562
344.716;   33.979;   -2.155;  723.717
345.313;   32.531;   -6.275;  795.342
345.909;   26.147;   -8.815;  627.336
346.505;   28.017;   -5.305;  740.247
347.101;   28.797;   -2.674;  827.864
347.697;   29.816;   -4.344;  785.398
348.293;   24.358;   -9.975;  627.244
348.889;   24.517;   -5.774;  745.914
349.485;   24.252;   -5.004;  688.205
350.081;   26.042;   -4.704;  772.592
350.676;   19.804;   -6.635;  691.606
351.272;   23.858;   -4.504;  809.530
351.868;   23.987;   -3.914;  780.497
352.464;   21.459;   -9.044;  723.932
353.059;   17.834;   -8.314;  646.017
353.655;   20.953;   -7.024;  777.063
354.251;   22.198;   -5.343;  759.845
354.846;   17.479;   -8.604;  740.646
355.442;   14.729;   -6.945;  753.071
356.038;   16.045;   -7.564;  751.708
356.633;   16.322;   -5.814;  728.594
357.229;   14.779;   -7.364;  724.757
357.824;   12.999;   -8.024;  703.600
358.420;   12.182;   -9.384;  679.726
359.015;   12.309;   -5.104;  695.357
359.610;   13.202;   -6.854;  763.920
360.206;    7.123;  -10.185;  603.240
360.801;    9.968;   -7.054;  646.503
361.396;   12.813;   -5.034;  725.975
361.992;    8.193;   -8.284;  668.220
362.587;    5.562;   -8.625;  670.160
363.182;    6.782;   -7.674;  689.631
363.777;    7.126;   -5.164;  738.242
364.372;    7.971;   -8.604;  737.314
364.967;    4.096;   -9.055;  680.744
365.563;    8.395;   -6.114;  815.567
366.158;    5.176;   -5.814;  685.161
366.753;    6.051;   -7.854;  649.263
367.348;    3.947;   -7.804;  746.056
367.942;    4.455;   -7.954;  697.298
368.537;    3.044;   -4.984;  754.245
369.132;    3.002;   -8.564;  703.428
369.727;   -0.061;   -8.855;  638.079
370.322;    1.231;   -6.245;  580.186
370.917;    0.543;   -6.425;  710.646
371.511;    3.887;   -6.294;  861.834
372.106;    0.063;   -7.685;  776.964
372.701;   -2.818;   -7.335;  585.988
373.296;    2.653;   -4.564;  863.135
373.890;   -2.564;  -10.235;  647.840
374.485;   -4.519;   -7.885;  691.199
375.079;   -0.312;   -7.324;  738.685
375.674;    0.846;   -3.494;  812.970
376.268;   -3.218;   -8.525;  691.759
376.863;   -9.139;  -10.086;  580.327
377.457;   -4.186;   -7.025;  662.490
378.052;   -5.396;   -3.585;  764.884
378.646;   -5.564;   -7.595;  741.167
379.240;   -6.211;   -8.335;  721.176
379.835;   -5.511;   -5.785;  636.978
380.429;   -7.687;   -4.335;  562.557
381.023;   -6.846;   -6.805;  779.205
381.617;   -8.777;   -9.195;  680.106
382.212;   -6.153;   -6.905;  685.303
382.806;   -5.664;   -3.745;  760.690
383.400;   -8.665;   -7.745;  672.281
383.994;  -10.115;   -9.765;  664.870
384.588;   -6.600;   -6.564;  697.701
385.182;   -5.781;   -5.344;  726.624
385.776;   -7.196;   -8.514;  706.875
386.370;   -9.971;   -9.555;  681.968
386.964;   -9.081;   -8.715;  684.155
387.558;   -7.064;   -6.174;  598.360
388.152;  -10.286;   -8.725;  681.959
388.745;   -9.067;   -7.965;  814.707
389.339;   -6.974;   -5.924;  747.642
389.933;   -6.095;   -5.524;  695.370
390.527;   -6.395;   -7.114;  859.029
391.120;  -12.983;  -10.725;  595.318
391.714;  -10.461;   -8.035;  711.633
392.308;   -7.954;   -3.574;  780.253
392.901;  -10.429;   -7.245;  642.460
393.495;  -12.024;   -9.285;  595.414
394.089;  -10.206;   -5.895;  760.452
394.682;  -11.437;   -4.295;  697.188
395.275;  -11.898;   -9.875;  719.927
395.869;  -12.693;   -8.485;  667.314
396.462;  -11.374;   -7.455;  616.609
397.056;   -7.142;   -5.424;  776.621
397.649;  -11.682;   -6.605;  731.575
398.242;   -9.426;   -8.224;  712.645
398.836;   -8.834;   -7.474;  766.408
399.429;  -10.055;   -7.094;  631.041
400.022;  -13.289;   -9.475;  665.902
400.615;  -10.789;   -7.145;  805.609
401.208;   -8.357;   -7.174;  691.451
401.802;  -11.280;   -5.515;  699.329
402.395;  -12.395;   -9.875;  683.502
402.988;  -12.909;   -8.845;  696.627
403.581;  -10.482;   -8.874;  646.878
404.174;   -7.333;   -5.324;  686.568
404.767;  -10.384;   -9.575;  638.583
405.360;  -12.678;  -10.965;  621.445
405.953;   -7.615;   -8.764;  759.034
406.545;   -7.098;   -7.514;  725.342
407.138;  -10.643;  -10.025;  618.350
407.731;   -9.940;  -10.034;  613.303
408.324;   -5.885;   -9.374;  660.554
408.917;   -7.344;   -6.534;  681.864
409.509;   -8.854;   -8.004;  740.396
410.102;  -10.847;   -9.875;  643.948
410.695;   -4.878;   -8.604;  665.758
411.287;   -5.861;   -6.794;  599.821
411.880;   -7.028;   -9.334;  585.421
412.472;  -10.414;  -10.254;  613.092
413.065;   -7.553;   -6.714;  629.408
413.657;   -5.802;   -7.234;  576.678
414.250;   -4.590;  -10.544;  646.681
414.842;   -6.856;   -9.744;  676.353
415.434;   -5.230;   -6.994;  570.463
416.027;   -0.531;   -5.893;  652.196
416.619;   -1.851;   -7.264;  713.400
417.211;   -2.625;  -10.374;  599.352
417.804;    0.464;   -7.993;  628.499
418.396;   -3.551;   -7.234;  607.643
418.988;   -0.670;   -9.443;  659.238
419.580;   -4.390;  -10.724;  568.276
420.172;   -1.895;  -10.323;  536.196
420.764;    2.020;   -8.793;  672.482
421.356;    0.809;  -11.143;  636.898
421.948;    0.633;   -8.293;  677.661
422.540;    4.840;   -7.893;  680.027
423.132;    4.516;   -7.082;  600.641
423.724;    1.569;   -8.653;  561.267
424.316;    3.350;  -10.213;  621.345
424.908;    6.746;   -9.762;  591.517
425.500;    6.902;   -5.572;  647.978
426.092;    7.898;   -8.422;  648.268
426.683;    7.057;   -9.283;  684.836
427.275;    9.968;   -7.852;  641.471
427.867;   10.851;   -5.272;  668.948
428.458;   11.377;   -7.682;  732.344
429.050;   10.957;  -10.612;  680.749
429.642;   13.089;   -9.882;  743.124
430.233;   12.849;   -6.962;  569.356
430.825;   14.368;   -6.842;  724.809
431.416;   11.921;   -9.672;  698.241
432.008;   15.138;   -6.552;  651.723
432.599;   15.992;   -6.891;  656.073
433.190;   14.163;  -10.912;  637.670
433.782;   12.589;  -11.172;  590.395
434.373;   19.544;   -6.061;  884.765
434.964;   17.717;   -8.251;  602.920
435.556;   16.840;   -9.722;  634.537
436.147;   19.699;   -9.082;  758.490
436.738;   19.105;   -8.041;  701.099
437.329;   23.746;   -7.341;  721.723
437.920;   17.875;   -8.162;  666.688
438.511;   17.834;  -11.802;  564.526
439.103;   24.091;  -10.191;  623.998
439.694;   26.394;   -7.601;  681.583
440.285;   27.000;   -8.541;  764.432
440.876;   24.761;   -9.751;  845.738
441.466;   23.770;   -9.401;  575.162
442.057;   29.608;   -7.760;  665.814
442.648;   28.844;   -9.971;  746.255
443.239;   27.599;  -11.001;  620.477
443.830;   31.991;   -7.990;  704.958
444.421;   33.588;   -7.910;  655.474
445.011;   30.469;   -8.131;  693.619
445.602;   29.796;   -7.111;  743.126
446.193;   31.195;  -10.920;  488.117
446.783;   36.495;   -6.500;  640.397
447.374;   32.019;   -8.671;  692.759
447.964;   33.193;  -10.781;  713.770
448.555;   40.404;   -9.650;  822.742
449.145;   36.837;   -8.660;  662.853
449.736;   38.909;   -8.990;  803.179
450.326;   38.531;   -9.500;  713.626
450.917;   42.595;   -8.680;  675.324
451.507;   42.026;   -7.520;  600.661
452.097;   43.728;   -8.590;  746.267
452.688;   44.759;  -11.340;  742.160
453.278;   43.629;  -10.100;  566.840
453.868;   47.728;   -6.019;  793.550
454.458;   45.886;   -9.440;  651.141
455.048;   47.003;  -10.560;  711.783
455.639;   48.271;  -11.799;  567.096
456.229;   51.690;   -6.899;  710.694
456.819;   53.200;   -7.389;  751.158
457.409;   54.087;  -11.119;  773.993
457.999;   55.900;   -9.289;  737.505
458.589;   56.792;   -6.139;  686.606
459.179;   56.436;   -8.729;  717.658
459.769;   54.678;   -9.789;  627.099
460.358;   59.932;  -10.259;  797.262
460.948;   59.682;   -7.299;  689.503
461.538;   61.556;  -10.289;  660.677
462.128;   59.530;  -11.269;  664.934
462.717;   66.088;   -9.368;  710.326
463.307;   69.166;   -7.908;  705.846
463.897;   65.448;   -9.599;  656.942
464.486;   64.731;   -9.769;  837.128
465.076;   68.876;   -8.048;  733.776
465.666;   72.131;   -9.358;  652.900
466.255;   70.406;   -7.919;  785.651
466.845;   70.003;  -11.689;  666.749
467.434;   72.686;   -7.818;  725.873
468.023;   72.641;   -7.678;  658.357
468.613;   71.036;  -10.939;  713.946
469.202;   75.428;  -10.118;  646.507
469.791;   79.863;   -9.108;  737.811
470.381;   81.393;   -6.058;  742.813
470.970;   81.800;  -10.428;  711.099
471.559;   81.358;  -10.268;  733.291
472.148;   84.213;   -8.448;  675.737
472.738;   86.615;   -6.917;  765.466
473.327;   87.196;  -11.978;  637.529
473.916;   86.824;  -11.888;  737.446
474.505;   90.734;   -9.437;  751.703
475.094;   94.233;   -6.747;  806.570
475.683;   93.637;   -9.367;  797.699
476.272;   93.893;  -12.637;  730.632
476.861;   97.211;  -10.027;  706.754
477.449;  103.622;   -8.716;  728.487
478.038;   98.775;   -9.577;  692.513
478.627;   99.524;   -9.718;  714.852
479.216;  106.008;   -8.947;  769.441
479.805;  109.437;   -6.256;  783.375
480.393;  109.428;   -7.937; 1008.945
480.982;  108.284;   -7.717;  874.501
481.571;  114.706;   -9.266;  858.333
482.159;  115.056;   -7.636;  705.386
482.748;  115.813;   -9.667;  821.385
483.336;  120.490;  -10.376;  858.209
483.925;  120.350;   -7.147;  774.373
484.513;  127.242;   -7.996;  758.962
485.102;  124.045;  -10.027;  810.965
485.690;  133.400;  -10.446; 1011.050
486.278;  135.355;   -8.446;  979.329
486.867;  136.143;   -6.356;  809.662
487.455;  138.103;   -9.136;  898.229
488.043;  139.016;  -10.646;  748.361
488.631;  148.353;   -7.456; 1005.079
489.220;  152.000;   -6.636;  908.626
489.808;  153.410;  -11.036;  741.415
490.396;  161.673;  -10.246;  914.645
490.984;  167.526;   -8.556;  830.161
491.572;  178.453;   -5.886;  940.315
492.160;  184.782;   -9.486;  919.081
492.748;  197.131;  -10.976;  884.341
493.336;  222.190;   -8.776; 1019.693
493.924;  250.003;   -5.465;  958.077
494.512;  281.704;   -9.986; 1066.638
495.100;  324.688;  -10.636; 1103.280
495.687;  380.829;  -10.885; 1206.373
496.275;  447.392;   -8.126; 1150.796
496.863;  515.827;  -10.586; 1281.171
497.451;  624.662;  -11.926; 1386.805
498.038;  779.619;  -10.885; 1556.729
498.626;  906.561;   -6.315; 1741.407
499.214; 1055.087;   -7.326; 2016.609
499.801; 1268.222;  -11.906; 2220.633
500.389; 1545.220;  -10.466; 2312.494
500.976; 1909.558;   -5.236; 2744.849
501.564; 2366.978;   -8.936; 3148.565
502.151; 2775.744;  -13.176; 3515.999
502.738; 3291.579;  -10.646; 3971.274
503.326; 3705.009;   -9.525; 4403.796
503.913; 4131.805;  -10.856; 5161.749
504.500; 4497.344;  -11.586; 5986.420
505.088; 4985.699;  -10.336; 6381.201
505.675; 5566.187;   -6.355; 6925.547
506.262; 6237.010;   -9.046; 7619.060
506.849; 7062.536;  -10.416; 8733.969
507.436; 7581.683;  -10.305; 9790.121
508.023; 8132.008;   -5.496; 9985.472
508.610; 8433.104;   -7.856;10434.618
509.197; 9104.549;  -10.097;11198.435
509.784;10645.300;  -10.886;12391.194
510.371;11821.041;   -9.315;13603.713
510.958;12598.835;   -9.936;14426.586
511.545;13375.954;   -9.326;15243.775
512.132;14256.682;  -10.075;15945.876
512.719;14883.394;   -7.796;16340.369
513.305;15953.071;  -10.606;18011.766
513.892;16801.547;  -11.486;19754.971
514.479;18365.945;   -9.126;20967.805
515.066;19885.541;   -6.026;22299.793
515.652;21045.508;   -8.466;22908.660
516.239;22422.744;  -10.886;23798.875
516.825;23440.252;  -11.496;25567.275
517.412;24484.668;   -5.796;28154.959
517.998;25459.373;  -10.506;28344.111
518.585;25542.471;  -10.076;27134.219
519.171;25639.563;   -8.315;27268.576
519.758;26808.059;   -8.596;28964.129
520.344;28616.754;   -8.466;30664.494
520.930;28902.980;  -11.006;32550.605
521.516;30893.863;  -10.495;35422.895
522.103;33666.563;   -5.526;38280.004
522.689;34645.105;   -8.746;37835.117
523.275;34109.184;  -11.376;37288.613
523.861;34474.781;  -11.156;37281.395
524.447;35692.359;   -8.135;37846.949
525.033;35247.777;   -7.896;38321.949
525.619;35583.672;  -12.476;38579.285
526.205;37296.965;   -9.516;40622.875
526.791;40280.918;   -6.926;42258.836
527.377;40260.141;   -8.346;42966.902
527.963;42219.961;   -8.717;42018.949
528.549;41070.063;  -11.016;42476.828
529.135;39343.293;   -8.536;41854.852
529.721;38697.281;   -9.666;41237.711
530.306;38124.797;  -10.066;41259.445
530.892;38185.758;  -11.356;41506.047
531.478;39465.344;   -6.596;43559.613
532.063;41686.211;   -8.836;47695.563
532.649;41795.840;  -10.047;50808.324
533.235;43317.191;   -9.746;51787.500
533.820;45042.602;   -6.566;52145.035
534.406;45758.180;  -10.817;51133.488
534.991;45168.055;   -9.416;49996.805
535.576;43900.711;   -9.036;48882.852
536.162;44420.391;   -6.156;46942.285
536.747;45720.859;  -11.607;45711.746
537.333;49406.883;  -11.787;48510.180
537.918;52182.152;  -12.437;50439.891
538.503;50769.199;   -7.196;50863.711
539.088;47721.797;  -10.556;50906.922
539.673;47921.660;   -8.767;52621.965
540.259;47342.871;  -10.026;52368.094
540.844;44518.484;   -7.416;50879.109
541.429;45245.809;   -9.467;52077.777
542.014;48934.766;   -9.527;52716.695
542.599;48963.328;   -9.946;52363.281
543.184;45862.336;   -7.927;53187.137
543.769;46935.254;   -9.297;54697.605
544.354;46593.332;  -10.127;53913.914
544.938;45843.750;   -9.267;49680.164
545.523;47996.570;   -6.506;47386.277
546.108;50080.816;   -9.787;49151.949
546.693;52466.473;  -11.587;51384.637
547.278;52441.203;  -10.986;51853.254
547.862;48989.270;   -8.206;51173.750
548.447;44260.875;  -10.067;51691.395
549.031;43668.645;   -9.637;52456.703
549.616;48542.746;   -9.926;52714.516
550.201;47482.266;   -6.347;52414.598
550.785;48063.258;   -7.917;52355.059
551.370;47788.992;  -10.867;54589.453
551.954;48430.660;   -9.047;58267.348
552.538;50107.059;   -7.827;59062.176
553.123;48410.336;  -10.287;58115.285
553.707;45908.566;  -12.178;56556.285
554.291;46246.828;   -8.717;56201.668
554.876;47306.742;   -7.457;55335.762
555.460;48207.832;  -10.387;54155.703
556.044;50429.074;   -9.618;53721.484
556.628;48545.105;  -11.567;53731.016
557.212;47424.504;   -8.097;54312.531
557.796;45529.891;  -11.077;53797.773
558.380;45618.551;  -11.108;56145.984
558.964;46714.051;   -9.057;57277.930
559.548;47475.152;   -6.977;56459.641
560.132;45483.105;  -11.457;54434.543
560.716;44352.844;  -11.378;54800.617
561.300;45006.023;   -9.577;57606.945
561.884;46210.430;   -7.127;58972.445
562.467;45481.293;   -7.118;57327.570
563.051;44920.102;  -13.358;54962.434
563.635;45426.301;  -10.178;52594.473
564.219;46071.598;   -7.837;50610.410
564.802;46774.285;  -11.398;49551.180
565.386;47110.645;  -12.788;48370.953
565.969;46803.598;   -9.077;48178.871
566.553;45992.984;   -6.207;49957.305
567.136;45850.688;   -8.568;50369.594
567.720;41884.469;  -11.868;49492.004
568.303;40013.563;   -8.268;50616.352
568.887;39941.879;   -8.698;50727.148
569.470;40190.316;   -6.808;51698.379
570.053;39019.305;  -13.188;52122.078
570.637;37513.730;  -12.037;52536.438
571.220;36919.898;   -8.577;51186.098
571.803;37116.738;   -8.498;51032.762
572.386;39533.977;  -10.498;49609.887
572.969;42600.875;   -9.388;48285.926
573.552;40962.973;   -8.338;47624.285
574.135;39782.816;   -8.518;45498.641
574.718;36942.063;  -13.628;41970.434
575.301;35629.348;  -10.893;41447.137
575.884;34316.633;   -8.158;40923.836
576.467;35378.117;  -10.328;45267.723
577.050;38152.328;  -13.058;48175.543
577.633;39985.160;   -9.458;47729.328
578.216;38783.406;   -8.928;47579.793
578.799;37740.543;   -9.358;47820.996
579.381;36103.496;  -11.388;48115.551
579.964;34522.828;  -11.718;47333.766
580.547;35668.648;   -8.588;46668.969
581.129;36122.195;   -8.859;44466.141
581.712;36309.402;  -10.729;44164.922
582.294;37293.754;  -11.118;46477.855
582.877;38010.113;   -5.218;48244.254
583.459;36064.473;   -8.679;47437.895
584.042;34292.406;  -10.709;46943.219
584.624;34762.121;  -11.669;46792.227
585.206;33941.109;   -8.218;46557.250
585.789;34248.809;  -10.569;45793.773
586.371;37415.430;  -11.859;43836.391
586.953;37867.141;  -10.719;42972.492
587.536;38507.910;   -7.198;42487.211
588.118;38381.941;   -8.720;42086.414
588.700;35221.219;  -10.439;43389.930
589.282;34344.051;   -9.198;43646.039
589.864;35039.430;   -9.199;43438.109
590.446;36166.387;  -11.319;43151.926
591.028;35827.844;  -11.159;42781.867
591.610;34778.633;  -11.779;42839.098
592.192;31901.227;   -7.668;42820.402
592.774;30338.691;  -11.949;40724.277
593.356;29353.242;  -12.129;39874.789
593.937;29071.008;  -10.669;39980.648
594.519;31234.234;   -6.509;42069.633
595.101;33465.820;  -10.849;42976.031
595.683;33504.863;  -11.679;44084.441
596.264;34563.164;   -9.049;43478.797
596.846;33259.219;   -8.849;43803.672
597.427;32458.797;   -9.570;42986.934
598.009;34290.754;  -12.620;42832.219
598.591;34843.086;  -10.039;42580.086
599.172;34163.289;  -10.369;43061.805
599.753;34258.516;   -9.140;41691.469
600.335;35756.410;  -11.430;40692.520
600.916;34166.063;   -9.939;39982.422
601.498;31761.768;   -8.479;40318.617
602.079;30391.303;  -10.920;40670.609
602.660;30316.838;  -11.480;41450.898
603.241;31321.238;  -11.699;41137.738
603.823;30064.795;   -9.579;38868.797
604.404;30133.145;  -10.620;38182.785
604.985;31492.393;  -10.450;38078.047
605.566;30638.656;   -9.129;38056.633
606.147;30476.895;   -7.510;37020.418
606.728;32845.617;  -10.660;37883.359
607.309;31904.488;  -11.740;38748.273
607.890;30967.709;   -9.759;38850.230
608.471;30777.490;   -8.250;37457.918
609.051;30169.389;   -9.240;36066.457
609.632;29082.494;  -12.120;35991.074
610.213;29944.715;   -9.110;37402.641
610.794;30547.301;   -8.030;38383.363
611.374;29622.613;   -8.110;40562.387
611.955;29735.230;  -13.560;38533.727
612.536;31268.734;  -11.400;36951.789
613.116;31290.469;   -8.070;37197.891
613.697;31618.879;  -10.830;38411.125
614.277;29928.158;  -11.641;38673.938
614.858;30773.826;  -13.310;37075.863
615.438;30474.791;   -7.460;35092.906
616.019;27643.730;   -7.601;33666.301
616.599;28294.053;  -12.020;34189.023
617.179;30226.939;  -11.780;36952.047
617.760;30761.244;   -8.570;39582.574
618.340;31991.797;  -11.471;38943.977
618.920;33618.441;  -11.170;37594.156
619.500;33226.633;  -11.071;37866.938
620.080;32572.346;   -7.750;37869.043
620.660;33646.586;  -12.711;36868.617
621.241;34409.262;  -10.211;36352.309
621.821;34142.961;  -10.961;35459.520
622.401;33801.020;   -7.720;35207.414
622.980;32833.363;   -8.981;35980.422
623.560;31260.186;   -9.331;37351.328
624.140;30722.867;   -9.850;34388.582
624.720;25945.838;   -7.451;32368.764
625.300;22018.092;   -9.070;32638.629
625.880;25217.814;  -12.601;34599.035
626.459;29065.063;  -11.751;36831.738
627.039;32055.420;   -9.281;38299.098
627.619;32006.650;   -8.801;38289.574
628.198;30140.322;  -12.071;37220.695
628.778;29481.434;   -9.461;37632.563
629.357;30341.313;   -8.491;38003.012
629.937;30221.432;   -9.721;38402.039
630.516;29449.799;   -9.951;37868.801
631.096;29258.545;  -11.731;35760.410
631.675;32587.982;   -8.572;35225.219
632.254;37781.414;  -11.282;35130.289
632.834;37181.055;  -13.322;35794.570
633.413;35416.953;  -10.301;35788.922
633.992;32374.723;   -8.582;34532.863
634.571;33468.004;   -8.352;33590.113
635.151;36134.172;  -11.912;34943.863
635.730;34427.293;  -10.511;35352.523
636.309;31165.920;   -7.731;35366.605
636.888;28508.838;   -9.952;36165.637
637.467;29226.664;  -11.672;37515.902
638.046;31313.752;   -8.901;39288.695
638.625;34588.484;   -7.912;38279.699
639.204;34318.180;  -10.022;37741.598
639.782;32357.512;  -12.252;38364.551
640.361;28385.795;  -10.041;36740.621
640.940;25583.379;  -11.161;34950.082
641.519;25825.480;   -9.701;34137.398
642.097;28419.691;  -11.271;35654.258
642.676;31451.285;   -8.651;35637.957
643.255;32593.164;   -8.711;36567.074
643.833;31670.529;   -9.581;37809.434
644.412;32159.889;  -13.711;37337.293
644.990;31643.229;  -11.811;37018.531
645.569;31602.664;   -9.411;36518.469
646.147;30312.729;  -10.291;36186.430
646.726;29253.828;  -12.401;36267.688
647.304;30430.326;  -10.411;36647.625
647.882;32420.621;   -9.651;39286.742
648.461;34037.496;   -9.631;39157.703
649.039;32715.510;  -11.881;35412.883
649.617;32405.391;   -9.661;34744.918
650.195;32222.209;   -9.301;35403.098
650.773;30976.365;  -10.511;35053.797
651.352;28269.750;  -11.521;33756.816
651.930;25813.895;  -12.211;31868.773
652.508;23966.803;   -9.171;33121.551
653.086;27781.850;   -9.371;33564.793
653.663;30886.174;  -13.161;34054.668
654.241;29683.512;  -13.031;35693.309
654.819;31264.840;   -9.371;36422.906
655.397;31038.320;  -10.511;38213.484
655.975;30832.021;  -10.371;39507.625
656.553;30918.492;  -10.051;39498.223
657.130;29453.029;  -10.061;40395.480
657.708;29082.824;   -9.561;39242.020
658.286;28954.988;  -11.511;38920.020
658.863;29752.941;  -10.261;40202.898
659.441;32235.180;   -7.531;39677.938
660.018;31373.002;   -9.501;40413.355
660.596;30513.816;  -13.301;39931.414
661.173;32678.951;  -11.211;39604.531
661.750;32906.199;   -9.951;39700.070
662.328;31957.803;   -9.390;39292.809
662.905;31074.527;  -11.330;38235.648
663.482;26518.449;   -9.050;36212.305
664.060;24501.754;   -8.240;35944.945
664.637;27196.941;  -10.050;35170.785
665.214;29082.463;  -11.760;34197.523
665.791;30846.697;  -10.530;34549.520
666.368;29522.463;   -9.690;35118.578
666.945;30066.645;   -9.320;36019.418
667.522;31457.137;  -11.860;36048.438
668.099;31936.383;  -10.770;36243.914
668.676;31491.734;   -6.260;35958.875
669.253;29718.008;   -7.000;37384.730
669.830;30031.160;  -10.190;36779.629
670.407;29650.104;   -9.550;35231.289
670.984;30254.750;   -9.260;35544.270
671.560;30381.154;   -9.280;35466.867
672.137;28795.762;  -11.810;34280.863
672.714;29563.484;  -11.490;34632.863
673.290;29899.447;   -7.740;35135.422
673.867;29957.496;  -10.660;36114.480
674.443;30303.908;  -12.230;36152.859
675.020;28801.887;  -10.450;35327.238
675.596;29975.445;   -9.260;35795.176
676.173;30547.779;  -10.780;35430.355
676.749;30036.291;  -13.690;33549.516
677.326;30175.150;  -11.980;32210.012
677.902;30412.635;   -8.630;32068.871
678.478;29462.844;  -10.730;32583.891
679.054;29280.475;  -10.520;32088.928
679.631;30261.330;  -11.920;30978.848
680.207;31058.123;   -7.490;33160.887
680.783;32134.447;   -9.860;35570.363
681.359;31253.881;  -13.380;36125.184
681.935;30162.832;  -12.480;35240.922
682.511;28731.184;   -7.900;34429.961
683.087;28668.014;   -7.710;34463.680
683.663;28939.873;  -11.480;34648.898
684.239;28465.002;  -14.090;34546.457
684.815;28088.199;   -7.560;35586.375
685.390;28481.537;   -9.910;35821.895
685.966;29158.283;  -11.159;35085.871
686.542;31978.441;  -11.169;34198.230
687.118;33782.770;   -5.959;32847.707
687.693;33397.570;  -10.329;32794.027
688.269;32596.885;  -12.059;33072.367
688.844;30410.488;  -10.909;33141.664
689.420;28604.457;   -8.019;33965.742
689.995;26488.668;   -8.399;34655.523
690.571;25396.328;  -10.949;33576.742
691.146;26004.674;   -9.619;32657.219
691.722;25207.916;   -8.999;32526.979
692.297;24957.271;  -11.589;33014.617
692.872;26999.822;  -11.739;34012.254
693.448;26613.080;  -11.059;34237.434
694.023;25712.641;  -10.139;34142.672
694.598;27833.830;   -9.029;34132.031
695.173;27972.973;  -13.319;34205.250
695.748;27599.648;  -10.169;32882.488
696.323;27399.830;   -8.339;32864.906
696.898;27234.586;   -8.169;33170.004
697.473;26892.447;  -12.309;32432.984
698.048;26704.406;  -10.989;31649.303
698.623;27301.215;   -9.329;30778.141
699.198;29212.340;   -9.849;31140.119
699.773;29914.607;  -12.329;31764.299
700.348;28433.535;  -10.389;31780.816
700.922;28582.684;   -9.269;32046.375
701.497;28886.848;   -9.329;32603.574
702.072;28824.117;  -10.789;34799.871
702.646;28163.381;  -10.839;35793.172
703.221;26694.783;   -9.099;35201.590
703.795;28775.729;  -10.939;34764.527
704.370;28982.826;  -12.859;34307.367
704.944;29218.492;  -11.559;33509.887
705.519;30391.744;   -7.939;31388.584
706.093;31568.813;  -10.499;31340.104
706.668;31479.307;  -11.289;32630.281
707.242;29977.676;  -11.509;32728.779
707.816;28401.746;   -9.639;32947.238
708.390;27125.408;  -11.429;33277.855
708.965;28212.449;  -11.869;33834.336
709.539;29074.203;  -11.689;33709.273
710.113;29629.768;  -10.478;33044.313
710.687;28685.020;  -10.228;31953.992
711.261;26314.400;  -13.698;30505.949
711.835;26111.674;  -13.378;30262.369
712.409;27232.824;   -9.698;31254.447
712.983;28471.299;  -11.898;32754.986
713.557;29216.506;  -15.138;34018.824
714.131;29017.525;  -14.098;34579.625
714.704;28052.797;   -9.958;33890.262
715.278;25683.051;  -10.028;33531.102
715.852;25326.432;  -11.148;33601.660
716.425;26314.518;   -9.068;33515.117
716.999;26746.428;  -10.038;33185.555
717.573;27811.322;   -9.798;33905.996
718.146;29099.861;  -12.378;35199.293
718.720;28547.303;  -11.918;35060.551
719.293;27996.063;   -8.088;34973.230
719.867;30747.643;  -10.888;36394.449
720.440;30656.100;  -11.938;36663.008
721.013;29302.848;  -12.818;35102.426
721.587;27969.441;  -10.298;33985.266
722.160;26309.596;  -10.048;33524.965
722.733;25520.271;  -12.108;32987.043
723.306;26395.283;  -10.818;33066.301
723.880;28317.580;   -8.908;33399.500
724.453;29725.139;   -9.878;33468.297
725.026;28490.619;  -11.188;33816.637
725.599;25969.879;  -11.678;32797.996
726.172;26633.572;   -9.618;33187.434
726.745;28117.611;   -8.258;35136.613
727.318;29898.389;  -12.978;35751.730
727.891;30414.555;  -12.148;35890.430
728.463;30223.803;   -8.968;34822.090
729.036;29105.252;  -10.188;32895.086
729.609;29126.504;  -11.788;31823.225
730.182;25723.555;  -11.788;31445.283
730.754;23269.070;  -10.268;32373.223
731.327;23379.000;   -9.998;33676.820
731.900;23510.412;  -12.228;33417.000
732.472;25009.377;  -13.848;31978.498
733.045;27291.318;   -8.698;30368.777
733.617;27267.654;  -10.607;30574.215
734.190;26496.529;  -11.507;31280.975
734.762;23546.617;  -13.647;31674.412
735.334;22089.406;   -9.767;31247.291
735.907;22550.953;   -9.897;29876.211
736.479;22175.545;  -11.637;29808.488
737.051;21851.775;   -9.567;30233.547
737.623;23336.154;   -8.187;31469.086
738.195;24624.941;  -11.187;31784.225
738.768;26418.504;  -12.337;32120.523
739.340;25994.166;  -12.227;32094.342
739.912;24578.000;  -11.057;31312.680
740.484;23561.477;  -10.207;31946.238
741.056;22642.652;  -10.047;32984.059
741.628;24363.873;  -13.627;33897.715
742.199;26759.492;   -7.177;33213.016
742.771;25237.070;  -10.797;31369.113
743.343;22836.219;  -11.997;31865.473
743.915;21576.480;  -12.867;32388.631
744.487;21707.682;   -7.617;31079.568
745.058;21893.398;   -9.557;30570.107
745.630;22693.738;   -9.877;29970.127
746.201;23624.021;  -14.177;29186.766
746.773;23875.857;   -9.237;28805.723
747.344;23732.418;   -9.847;29591.223
747.916;22257.859;  -11.657;31412.201
748.487;22102.166;  -10.587;32194.898
749.059;23453.066;   -8.707;32533.719
749.630;24673.908;  -10.537;32158.518
750.201;23874.268;  -11.687;30855.395
750.773;22258.168;  -11.647;28622.555
751.344;22369.104;   -7.147;28405.732
751.915;23244.543;   -9.757;28461.551
752.486;22193.023;  -12.427;27842.850
753.057;19985.773;  -12.227;27845.008
753.628;19087.342;  -10.417;27728.107
754.199;20210.383;  -11.767;27381.086
754.770;21198.924;  -11.187;25882.203
755.341;21225.256;  -10.507;25886.184
755.912;21447.443;   -9.387;26050.861
756.483;20697.371;  -10.647;26798.779
757.054;18704.443;  -11.837;27048.238
757.625;17431.637;  -12.716;26294.838
758.195;17273.873;   -9.666;26142.076
758.766;17046.254;   -8.656;26392.234
759.337;17955.994;  -12.856;26334.594
759.907;19847.324;  -13.366;27579.652
760.478;20775.453;   -8.576;28352.770
761.048;20341.873;  -10.526;27325.088
761.619;19624.674;  -11.116;26460.428
762.189;19398.668;  -12.136;26029.826
762.760;20273.219;   -9.456;26430.145
763.330;21287.344;   -7.136;26670.902
763.900;20505.316;  -11.786;26603.021
764.471;17688.025;  -11.546;25542.740
765.041;16473.975;   -8.096;24358.459
765.611;16876.518;   -8.876;23991.297
766.181;17506.342;  -12.196;24470.236
766.751;18246.969;  -11.636;24845.975
767.321;17979.527;  -10.156;24533.633
767.891;16006.499;  -11.766;24916.492
768.461;15514.081;  -14.936;24776.771
769.031;16076.677;  -12.356;24757.988
769.601;17755.080;   -7.526;24181.088
770.171;17621.328;  -10.766;23670.387
770.741;16741.996;  -13.176;22960.045
771.311;16954.650;  -10.616;22917.523
771.880;17146.617;   -9.576;23562.941
772.450;16616.469;  -10.336;24216.500
773.020;16664.650;  -13.516;24140.398
773.589;16449.145;  -13.466;24414.857
774.159;16149.206;   -8.686;23858.717
774.729;15740.883;   -9.476;22942.135
775.298;15075.093;  -13.666;22324.033
775.867;14653.350;  -11.716;21140.313
776.437;14690.273;   -9.906;20838.092
777.006;14306.004;  -12.166;20599.510
777.576;14263.999;  -12.356;20508.809
778.145;14575.977;  -11.646;20732.947
778.714;14497.780;   -8.226;21062.465
779.283;13616.286;   -9.556;20949.664
779.853;13222.894;  -14.116;20508.623
780.422;13657.732;  -11.506;20649.082
780.991;13220.917;   -9.556;21527.520
781.560;12275.485;   -9.095;22632.658
782.129;12153.067;  -12.135;23048.277
782.698;12044.489;  -10.865;23438.555
783.267;11622.733;   -9.335;23267.734
783.836;11618.177;  -11.045;22415.133
784.404;12591.859;  -13.865;20443.152
784.973;12883.086;  -13.095;19699.150
785.542;12697.051;  -11.575;19763.828
786.111;12612.165;   -9.705;20341.408
786.679;12243.938;  -12.105;20207.967
787.248;12063.689;  -12.455;19516.465
787.817;11829.073;  -11.535;18900.363
788.385;11337.308;   -9.765;17879.121
788.954;10646.386;  -14.005;17658.301
789.522;10273.997;  -11.955;17788.879
790.090;10896.027;  -10.135;18118.277
790.659;11247.941;  -10.975;18338.736
791.227;10656.997;  -13.375;18508.615
791.795;11107.157;  -12.375;17898.254
792.364;11457.366;  -10.725;17295.133
792.932;11692.719;   -9.715;16822.051
793.500;11876.233;  -12.675;17040.148
794.068;12210.574;  -13.495;17179.787
794.636;12379.804;  -10.885;16664.246
795.204;11932.807;  -11.045;16524.545
795.772;11890.729;  -13.175;17274.564
796.340;11347.523;  -12.445;17891.002
796.908;11163.652;   -9.735;17648.561
797.476;11127.380;   -9.815;17064.080
798.044;10688.234;  -13.985;16672.777
798.612; 9855.459;  -13.115;17023.996
799.180; 9487.775;  -10.185;16561.615
799.747; 9355.270;   -9.055;15962.773
800.315; 9086.259;  -12.385;15296.992
800.883; 8761.981;  -15.035;14801.771
801.450; 8689.353;  -10.365;14534.430
802.018; 8693.779;   -9.855;14173.248
802.585; 8735.120;  -11.905;14029.547
803.153; 8829.364;  -11.585;13836.846
803.720; 8786.830;   -9.095;13567.324
804.287; 8445.432;   -9.135;13360.622
804.855; 8027.222;  -11.604;13681.981
805.422; 7890.540;  -11.794;13536.560
805.989; 7807.023;  -10.734;13355.958
806.556; 7957.383;  -10.444;13747.896
807.124; 8296.499;  -12.764;13987.376
807.691; 8261.012;  -12.964;14038.674
808.258; 8049.352;  -11.134;14120.152
808.825; 7698.664;   -9.854;13860.111
809.392; 7758.452;  -10.504;13268.790
809.959; 7325.644;  -13.054;12680.389
810.526; 6948.987;   -8.294;12427.308
811.093; 7015.262;   -8.394;12030.105
811.659; 7559.592;  -12.304;11653.664
812.226; 7951.799;  -13.944;11637.183
812.793; 7635.339;  -10.484;11611.521
813.360; 7038.500;  -10.144;11885.181
813.926; 6651.119;  -11.684;12770.539
814.493; 6373.047;  -13.644;12677.638
815.060; 6020.490;   -9.724;11974.336
815.626; 6093.840;   -9.854;11594.715
816.193; 6531.112;  -13.254;11579.474
816.759; 6615.288;  -13.204;11666.972
817.325; 6787.557;   -9.434;11325.530
817.892; 7128.478;  -10.134;11105.369
818.458; 7500.655;  -13.474;10843.928
819.024; 7137.911;  -11.854;10714.406
819.591; 6786.935;  -10.244;10469.165
820.157; 6547.429;  -10.704;10235.523
820.723; 6095.011;  -12.324;10847.563
821.289; 5877.494;   -9.444;11040.980
821.855; 5832.280;   -8.374;10357.100
822.421; 5850.916;  -10.234; 9978.918
822.987; 5770.150;  -13.294; 9754.177
823.553; 5461.741;  -10.884;10065.755
824.119; 5344.944;   -8.884;10036.294
824.685; 5453.139;   -6.784;10029.192
825.251; 5521.408;  -12.004;10199.230
825.816; 5457.801;  -11.474; 9820.189
826.382; 5262.295;   -9.174; 9297.248
826.948; 5501.145;   -9.214; 9381.347
827.513; 5921.049;  -10.774; 9450.726
828.079; 5748.616;  -11.924; 9472.444
828.645; 5193.251;  -10.543; 9292.643
829.210; 5101.548;  -10.533; 9065.341
829.776; 5051.028;  -10.753; 9132.620
830.341; 4921.494;  -10.173; 9092.878
830.906; 5112.189;  -10.743; 9078.557
831.472; 5463.097;  -11.113; 8534.535
832.037; 5213.790;  -10.603; 8677.874
832.602; 4658.232;  -13.323; 8628.692
833.167; 4333.859;  -10.823; 8879.031
833.733; 4262.061;  -10.113; 9189.790
834.298; 4356.411;  -13.583; 9052.608
834.863; 4345.880;  -12.703; 8895.087
835.428; 4328.289;  -10.523; 8824.266
835.993; 4302.315;   -6.963; 8845.385
836.558; 4201.208;  -10.763; 8888.563
837.123; 4302.396;   -9.903; 8966.582
837.688; 4476.927;   -9.913; 8617.860
838.253; 4652.840;  -10.283; 8590.699
838.817; 4837.137;  -12.963; 8443.797
839.382; 4763.989;  -14.243; 8799.356
839.947; 4467.221;  -10.733; 8810.595
840.511; 4135.708;   -9.383; 8796.394
841.076; 3774.441;  -12.563; 8347.231
841.641; 3836.286;  -12.953; 8224.330
842.205; 3906.407;   -7.043; 8223.349
842.770; 4022.044;   -8.163; 8622.107
843.334; 4273.134;  -12.503; 8410.386
843.898; 4296.848;  -11.693; 8337.465
844.463; 4333.530;  -10.203; 8506.283
845.027; 4074.680;   -9.533; 8280.962
845.591; 3867.703;  -13.443; 8231.141
846.156; 3845.967;  -13.143; 7969.179
846.720; 3706.018;   -9.433; 7768.278
847.284; 3579.072;  -11.033; 7630.957
847.848; 3413.422;  -10.403; 7472.395
848.412; 3305.655;  -11.553; 7437.394
848.976; 3350.818;   -8.393; 7674.592
849.540; 3320.377;   -8.713; 7836.011
850.104; 3424.983;  -12.463; 7913.669
850.668; 3738.926;  -12.973; 7694.508
851.232; 3830.157;  -10.793; 7756.887
851.796; 3656.429;  -10.662; 7926.545
852.359; 3351.532;  -13.082; 7827.844
852.923; 3202.199;  -12.192; 7641.163
853.487; 3039.379;  -11.912; 7342.501
854.050; 2966.234;  -10.892; 7042.820
854.614; 3092.475;  -13.992; 7151.338
855.177; 3203.136;  -11.732; 7105.077
855.741; 3248.603;   -8.962; 6989.675
856.304; 3144.555;   -9.442; 6596.634
856.868; 3088.857;  -14.192; 6356.272
857.431; 3217.073;  -12.702; 6468.571
857.995; 3337.283;   -9.942; 6373.210
858.558; 3355.002;   -9.112; 6324.448
859.121; 3095.643;  -12.932; 6408.327
859.684; 2977.913;  -13.442; 6347.886
860.247; 3089.922;  -10.632; 6321.264
860.810; 3056.794;  -11.272; 6301.903
861.374; 2802.536;   -9.832; 6607.881
861.937; 2549.584;  -11.762; 6408.200
862.500; 2518.725;   -9.722; 6572.639
863.062; 2658.534;  -10.512; 6387.297
863.625; 2817.513;  -11.232; 6190.836
864.188; 2964.537;  -14.112; 5807.254
864.751; 3020.260;  -11.302; 5682.413
865.314; 2914.717;  -10.112; 5547.492
865.876; 2762.803;  -12.182; 5500.150
866.439; 2784.810;  -10.722; 5415.909
867.002; 2729.539;   -9.252; 5501.567
867.564; 2496.422;   -9.572; 5413.946
868.127; 2278.447;  -13.142; 5160.325
868.689; 2203.907;  -12.902; 5133.183
869.252; 2148.226;   -9.732; 5252.382
869.814; 2068.264;   -9.432; 5297.141
870.377; 2086.513;  -11.552; 5390.919
870.939; 2165.982;   -9.052; 5599.898
871.501; 2212.492;  -10.982; 5248.336
872.063; 2202.671;  -12.292; 4854.235
872.626; 2164.545;  -14.912; 4817.074
873.188; 2167.803;  -13.112; 4987.732
873.750; 2118.262;  -13.442; 4868.651
874.312; 2028.347;   -9.402; 4779.330
874.874; 1945.801;  -11.062; 4866.348
875.436; 1882.235;  -13.931; 4718.887
875.998; 1881.162;   -9.561; 4660.005
876.560; 1886.048;  -11.321; 4462.964
877.122; 1825.749;  -12.221; 4145.042
877.683; 1736.319;  -12.191; 4056.481
878.245; 1667.954;  -12.101; 3950.740
878.807; 1695.721;   -8.971; 4058.958
879.369; 1699.617;  -12.071; 3954.677
879.930; 1610.563;  -14.621; 3941.495
880.492; 1565.410;  -10.311; 4067.014
881.053; 1534.381;  -10.901; 3859.633
881.615; 1418.878;  -14.411; 3776.071
882.176; 1339.174;  -13.761; 3734.750
882.738; 1319.931;   -9.181; 3678.489
883.299; 1302.402;  -11.791; 3405.407
883.860; 1308.675;  -13.121; 3351.106
884.422; 1314.041;  -11.211; 3394.044
884.983; 1266.441;  -10.091; 3166.443
885.544; 1169.498;   -8.461; 3189.802
886.105; 1093.556;  -12.361; 3160.360
886.666; 1034.770;  -14.141; 3093.059
887.227;  981.619;  -11.361; 2941.957
887.788;  913.658;  -11.401; 2974.836
888.349;  851.551;  -13.791; 2721.214
888.910;  855.864;  -13.191; 2696.493
889.471;  866.691;   -9.881; 2560.172
890.032;  847.249;   -9.881; 2558.190
890.593;  818.895;  -10.371; 2567.669
891.153;  791.441;  -13.301; 2460.307
891.714;  745.900;  -11.431; 2372.046
892.275;  710.572;  -11.291; 2309.505
892.835;  666.798;  -11.471; 2382.543
893.396;  610.606;  -11.541; 2295.502
893.956;  556.208;  -11.181; 2162.420
894.517;  521.611;  -11.741; 2125.439
895.077;  518.634;  -11.671; 2086.978
895.638;  519.431;  -11.311; 2126.316
896.198;  489.968;   -9.831; 1838.275
896.758;  448.084;   -8.421; 1892.813
897.319;  416.288;  -12.351; 1792.232
897.879;  400.032;  -13.511; 1762.751
898.439;  373.487;  -12.001; 1661.149
898.999;  348.628;  -10.180; 1781.468
899.559;  338.450;  -12.030; 1703.347
900.119;  333.006;  -15.710; 1537.525
900.679;  330.618;   -8.900; 1638.384
901.239;  317.636;   -8.340; 1527.902
901.799;  308.043;  -13.910; 1456.441
902.359;  301.109;  -13.460; 1357.140
902.919;  292.514;  -11.490; 1331.118
903.479;  279.014;  -12.110; 1317.257
904.038;  257.622;  -11.720; 1262.595
904.598;  242.398;  -13.610; 1152.034
905.158;  237.559;  -11.040; 1240.893
905.717;  230.477;  -10.900; 1233.691
906.277;  219.559;  -15.080; 1217.330
906.836;  211.339;  -13.380; 1222.408
907.396;  204.695;  -10.780; 1193.047
907.955;  196.694;   -8.500; 1182.526
908.515;  190.697;  -12.760; 1099.364
909.074;  184.741;  -11.900; 1092.863
909.633;  178.530;   -8.950; 1069.121
910.192;  174.852;   -8.770; 1196.460
910.752;  170.439;  -12.390; 1029.960
911.311;  166.480;  -13.680; 1009.780
911.870;  163.930;  -12.370;  971.460
912.429;  164.295;  -10.900; 1094.080
912.988;  163.010;  -11.690; 1081.060
913.547;  157.596;  -13.240;  940.380
914.106;  152.973;  -11.990;  999.420
914.665;  149.299;   -9.990;  984.020
915.224;  147.840;  -12.880; 1035.760
915.782;  148.865;  -12.350;  922.560
916.341;  148.263;   -9.110; 1049.840
916.900;  143.932;   -9.270;  925.260
917.458;  142.409;  -13.240;  884.220
918.017;  142.323;  -13.550;  942.600
918.576;  141.629;  -12.320;  904.440
919.134;  139.650;  -11.490;  837.980
919.693;  138.256;  -13.670;  893.060
920.251;  135.855;  -15.470;  876.500
920.809;  134.428;  -11.290;  839.580
921.368;  134.358;  -10.210;  885.360
921.926;  133.580;  -12.140;  842.940
922.484;  131.659;  -13.080;  903.360
923.042;  131.539;  -11.720;  880.340
923.601;  133.847;   -7.480;  998.680
924.159;  132.642;  -11.570;  935.560
924.717;  130.274;  -13.840;  841.080
925.275;  129.436;  -10.640;  903.240
925.833;  129.576;  -11.540;  779.320
926.391;  130.738;  -12.960;  938.380
926.949;  128.561;  -14.130;  857.680
927.506;  128.768;  -11.750;  903.500
928.064;  129.128;  -10.250;  877.580
928.622;  128.244;  -13.030;  880.100
929.180;  127.234;  -13.400;  814.180
929.737;  128.420;  -10.700;  808.540
930.295;  133.106;  -10.070;  928.480
930.853;  134.363;  -11.960;  849.100
931.410;  135.299;  -13.120;  821.120
931.968;  133.573;  -10.770;  940.660
932.525;  133.672;  -10.680;  909.380
933.082;  134.422;  -13.130;  811.440
933.640;  134.820;  -13.210;  925.900
934.197;  132.195;  -11.060;  886.360
934.754;  133.521;   -9.580;  897.780
935.312;  136.473;  -14.000;  863.340
935.869;  140.817;  -10.710; 1012.980
936.426;  140.793;   -9.860;  872.800
936.983;  141.639;   -9.710;  889.020
937.540;  140.907;  -13.990;  838.280
938.097;  139.386;  -14.040;  940.120
938.654;  139.700;  -10.310;  898.860
939.211;  142.633;  -10.560;  952.480
939.768;  146.088;  -13.900;  915.420
940.324;  149.262;  -14.760;  904.200
940.881;  149.115;  -10.370;  878.500
941.438;  149.910;   -8.260; 1021.200
941.995;  146.160;  -12.540;  992.560
942.551;  143.850;  -14.670;  875.620
943.108;  143.351;  -10.450;  937.920
943.664;  146.073;  -10.750;  869.340
944.221;  149.997;  -11.550; 1088.140
944.777;  147.811;  -14.770;  869.680
945.334;  149.693;  -12.820;  884.840
945.890;  151.715;  -10.130;  946.480
946.446;  151.729;  -13.470;  947.020
947.003;  152.765;  -12.120;  964.940
947.559;  155.057;   -9.980; 1063.040
948.115;  154.454;   -9.080; 1026.540
948.671;  152.172;  -10.830;  967.300
949.227;  149.612;  -12.440;  859.560
949.783;  145.758;  -12.910;  858.900
950.339;  148.199;  -10.270;  991.000
950.895;  147.963;  -13.630; 1023.840
951.451;  147.866;  -15.100;  925.280
952.007;  149.648;  -11.330;  998.540
952.563;  150.844;  -10.580;  937.780
953.118;  149.318;  -13.440;  904.940
953.674;  148.414;  -12.710;  935.780
954.230;  148.090;  -10.350;  949.640
954.785;  146.493;   -9.190;  936.640
955.341;  144.401;  -11.200;  998.160
955.897;  142.091;  -16.560;  834.660
956.452;  143.125;  -12.570;  953.840
957.008;  141.420;   -7.970; 1083.640
957.563;  140.214;  -11.940; 1009.540
958.118;  135.856;  -13.450;  877.700
958.674;  136.472;  -12.030;  946.780
959.229;  137.696;   -9.410; 1013.980
959.784;  135.132;  -12.000;  832.400
960.339;  133.239;  -14.780; 1001.280
960.894;  130.131;   -9.860;  963.760
961.449;  126.297;   -9.970;  859.960
962.004;  126.920;  -10.900; 1212.840
962.559;  122.345;  -13.150;  860.140
963.114;  118.873;  -13.740;  742.480
963.669;  118.692;   -9.820;  915.500
964.224;  117.417;  -13.890;  874.340
964.779;  117.503;  -12.600;  828.420
965.334;  117.268;  -10.950; 1017.860
965.888;  116.460;  -11.170;  875.360
966.443;  119.064;  -12.540;  972.380
966.998;  118.409;  -15.780;  819.460
967.552;  117.253;   -9.760;  908.380
968.107;  112.871;   -9.060;  868.300
968.661;  114.662;  -11.950;  922.440
969.216;  115.359;  -12.800;  856.280
969.770;  115.157;  -11.210;  917.200
970.324;  114.751;  -11.610;  923.140
970.879;  111.824;  -11.370;  947.180
971.433;  108.416;  -12.540;  952.720
971.987;  103.360;  -11.320;  895.340
972.541;  100.129;  -10.720;  917.100
973.095;  101.531;   -9.680; 1009.460
973.649;   99.115;  -11.440;  809.480
974.203;   98.553;  -11.210;  829.040
974.757;   98.234;  -10.240;  855.220
975.311;   99.166;  -13.720;  872.600
975.865;   98.102;  -13.770;  881.820
976.419;   96.582;  -11.690;  857.400
976.973;   96.588;   -9.510;  849.620
977.526;   98.610;  -12.620;  949.920
978.080;   98.699;  -12.010;  796.780
978.634;   98.565;  -10.170;  921.320
979.187;   96.221;   -9.020;  905.400
979.741;   94.579;   -9.820; 1018.380
980.294;   89.555;  -14.870;  789.160
980.848;   87.429;  -12.380;  717.220
981.401;   89.298;  -10.350;  816.540
981.955;   91.558;  -13.720;  844.300
982.508;   91.333;  -11.490;  746.340
983.061;   90.995;  -10.000;  915.260
983.615;   87.837;  -11.480;  798.800
984.168;   84.139;  -13.220;  770.080
984.721;   83.451;  -13.960;  880.760
985.274;   81.787;  -10.870;  867.500
985.827;   82.395;   -9.790;  834.220
986.380;   79.660;  -13.120;  721.340
986.933;   78.595;  -12.450;  864.800
987.486;   76.545;  -10.210;  861.920
988.039;   75.563;   -8.430;  863.100
988.591;   73.336;  -10.520;  893.260
989.144;   71.366;  -14.860;  737.260
989.697;   70.246;  -13.080;  758.740
990.250;   71.321;  -10.150;  858.100
990.802;   70.587;  -13.430;  755.860
991.355;   71.749;  -12.750;  974.880
991.907;   69.242;  -12.040;  864.320
992.460;   66.734;  -11.330;  753.760
993.012;   66.140;  -13.610;  749.540
993.565;   64.867;  -13.460;  711.360
994.117;   66.921;   -9.360;  950.780
994.669;   63.254;  -11.300;  701.320
995.221;   61.547;  -13.540;  791.920
995.774;   59.803;  -13.430;  787.580
996.326;   57.980;  -12.520;  740.220
996.878;   57.524;  -10.950;  838.420
997.430;   55.766;  -14.300;  699.860
997.982;   54.874;  -13.760;  750.140
998.534;   53.999;  -11.530;  739.060
999.086;   53.048;  -10.310;  738.220
999.638;   51.602;  -12.530;  661.380
1000.190;   51.261;  -11.840;  699.320
1000.741;   50.491;  -10.260;  742.700
1001.293;   50.699;   -8.860;  686.020
1001.845;   49.169;  -13.700;  676.640
1002.396;   49.671;  -12.100;  743.400
1002.948;   49.021;  -12.760;  737.400
1003.500;   46.205;  -10.380;  723.780
1004.051;   47.215;  -11.900;  907.580
1004.603;   46.001;  -12.250;  791.820
1005.154;   41.685;  -13.210;  608.980
1005.705;   40.573;  -10.950;  723.960
1006.257;   40.665;  -13.880;  707.220
1006.808;   41.126;  -12.840;  685.460
1007.359;   39.778;  -10.570;  763.240
1007.910;   38.882;   -9.620;  646.640
1008.461;   38.576;  -13.630;  732.940
1009.013;   38.389;  -17.200;  588.340
1009.564;   38.987;  -10.200;  793.520
1010.115;   36.296;  -12.570;  597.040
1010.665;   36.897;  -15.150;  602.160
1011.216;   36.622;  -14.480;  667.920
1011.767;   35.872;  -11.340;  697.920
1012.318;   36.088;   -9.780;  736.980
1012.869;   35.123;  -12.380;  679.000
1013.419;   34.043;  -15.560;  603.120
1013.970;   34.586;  -11.010;  666.640
1014.521;   34.248;  -11.610;  620.620
1015.071;   34.710;  -13.450;  670.380
1015.622;   33.272;  -13.870;  635.460
1016.172;   32.932;  -11.610;  596.820
1016.723;   32.828;  -12.120;  614.380
1017.273;   32.358;  -13.620;  604.160
1017.823;   33.120;  -14.140;  650.340
1018.374;   32.280;  -12.800;  611.760
1018.924;   32.141;  -12.340;  716.880
1019.474;   32.825;  -11.410;  718.880
1020.024;   30.759;  -14.770;  657.580
1020.574;   32.104;   -9.780;  726.160
1021.124;   32.303;   -8.560;  673.580
1021.674;   30.767;  -15.190;  559.120
1022.224;   32.378;  -13.530;  708.940
1022.774;   31.778;  -13.280;  668.820
1023.324;   30.855;  -10.690;  753.520
1023.874;   32.558;  -10.240;  875.760
1024.423;   29.991;  -12.540;  613.700
1024.973;   29.721;  -10.010;  610.760
1025.523;   29.031;  -10.550;  620.960
1026.072;   29.278;  -13.560;  606.420
1026.622;   29.445;  -15.120;  675.740
1027.172;   29.187;  -11.260;  715.660
1027.721;   28.876;  -11.410;  601.220
1028.270;   29.368;  -13.530;  663.400
1028.820;   28.746;  -13.680;  638.080
1029.369;   28.542;  -13.520;  612.700
1029.918;   28.366;  -10.980;  649.840
1030.468;   28.172;  -13.530;  564.780
1031.017;   28.363;  -13.170;  634.800
1031.566;   26.857;  -12.200;  608.900
1032.115;   27.781;   -9.960;  694.500
1032.664;   26.839;  -13.210;  596.480
1033.213;   27.504;  -12.500;  735.420
1033.762;   26.898;  -11.910;  635.620
1034.311;   26.790;   -9.640;  677.220
1034.860;   26.717;  -13.310;  691.000
1035.408;   26.872;  -11.830;  722.720
1035.957;   26.530;  -12.000;  719.540
1036.506;   24.061;  -11.690;  530.800
1037.055;   27.534;  -10.990;  844.320
1037.603;   26.169;  -15.120;  664.000
1038.152;   23.921;  -12.450;  534.760
1038.700;   24.576;  -10.560;  585.740
1039.249;   24.894;  -11.080;  681.220
1039.797;   24.926;  -12.540;  633.360
1040.345;   24.919;  -11.920;  705.420
1040.894;   24.667;  -11.410;  625.300
1041.442;   24.084;  -14.320;  632.200
1041.990;   22.654;  -16.240;  559.160
1042.538;   22.506;  -11.680;  536.180
1043.087;   23.201;  -10.760;  570.860
1043.635;   24.533;  -11.850;  670.500
1044.183;   23.527;  -15.480;  586.400
1044.731;   23.390;  -11.770;  576.000
1045.279;   21.609;  -13.090;  674.920
1045.827;   25.515;  -12.440;  892.400
1046.374;   22.623;  -13.840;  515.420
1046.922;   21.401;  -13.220;  590.580
1047.470;   23.230;  -10.230;  691.300
1048.018;   22.316;  -14.590;  647.960
1048.565;   23.344;  -12.050;  708.600
1049.113;   21.406;  -11.650;  557.000
1049.660;   21.363;  -10.510;  629.660
1050.208;   21.936;  -13.310;  675.640
1050.755;   20.796;  -15.900;  606.580
1051.303;   21.783;  -11.430;  686.820
1051.850;   21.007;   -8.480;  635.120
1052.397;   19.909;  -15.010;  473.960
1052.945;   20.133;  -13.960;  617.760
1053.492;   21.944;  -13.150;  741.840
1054.039;   21.281;   -9.630;  720.180
1054.586;   20.159;  -13.680;  557.240
1055.133;   20.557;  -14.570;  693.140
1055.680;   20.929;  -13.820;  646.620
1056.227;   19.327;  -11.730;  542.780
1056.774;   21.015;  -12.480;  794.980
1057.321;   19.544;  -13.930;  523.260
1057.868;   19.986;  -11.690;  651.320
1058.415;   19.359;   -9.520;  651.980
1058.961;   19.852;  -13.160;  678.940
1059.508;   19.581;  -12.920;  643.820
1060.055;   19.313;  -11.920;  581.780
1060.601;   19.323;  -11.500;  624.300
1061.148;   18.982;  -14.330;  616.820
1061.694;   18.309;  -16.870;  592.580
1062.241;   18.208;  -10.330;  596.320
1062.787;   18.306;  -10.620;  663.140
1063.334;   20.610;  -10.110;  808.560
1063.880;   19.009;  -13.400;  668.360
1064.426;   18.455;  -10.680;  706.820
1064.972;   17.374;   -9.920;  601.340
1065.518;   16.825;  -10.980;  566.640
1066.065;   17.758;  -14.890;  624.460
1066.611;   17.104;  -12.870;  598.800
1067.157;   17.731;  -12.950;  641.860
1067.703;   17.556;  -13.540;  668.480
1068.249;   17.448;  -13.540;  605.220
1068.794;   16.492;  -12.600;  626.880
1069.340;   15.835;  -10.620;  578.960
1069.886;   16.807;  -12.830;  590.700
1070.432;   16.008;  -14.870;  541.720
1070.977;   15.464;  -11.980;  601.080
1071.523;   15.957;   -8.200;  573.060
1072.068;   16.810;  -12.330;  582.000
1072.614;   16.471;  -16.370;  527.760
1073.160;   16.473;  -11.100;  687.040
1073.705;   14.410;  -10.480;  572.520
1074.250;   15.975;  -14.520;  559.900
1074.796;   15.716;  -11.460;  655.160
1075.341;   16.447;  -11.950;  664.100
1075.886;   15.167;  -11.460;  594.240
1076.431;   14.897;  -13.770;  649.880
1076.976;   15.714;  -12.680;  639.220
1077.521;   14.176;  -13.170;  583.080
1078.067;   13.575;  -10.860;  579.400
1078.612;   15.324;  -13.920;  661.620
1079.156;   14.970;  -13.880;  601.540
1079.701;   13.944;  -13.120;  693.260
1080.246;   15.072;   -9.940;  696.300
1080.791;   14.581;  -14.740;  625.020
1081.336;   14.795;  -13.750;  659.320
1081.880;   13.037;  -13.400;  649.680
1082.425;   13.694;  -12.220;  573.480
1082.970;   14.989;  -11.610;  717.040
1083.514;   14.108;  -13.580;  597.000
1084.059;   12.578;  -12.810;  586.720
1084.603;   12.911;  -12.320;  565.840
1085.147;   12.886;  -13.190;  645.220
1085.692;   14.190;  -12.480;  716.800
1086.236;   12.382;  -13.020;  503.140
1086.780;   14.145;   -9.190;  751.440
1087.325;   12.793;  -12.480;  654.620
1087.869;   12.944;  -12.450;  610.700
1088.413;   12.987;  -12.240;  705.040
1088.957;   10.561;   -9.020;  543.400
1089.501;   13.705;  -10.320;  766.640
1090.045;   12.742;  -12.720;  726.480
1090.589;   10.594;  -13.690;  569.920
1091.133;   12.058;  -10.020;  673.340
1091.676;   12.459;  -12.330;  591.940
1092.220;   11.444;  -14.970;  600.920
1092.764;   12.527;  -12.430;  706.960
1093.307;   12.467;   -9.800;  673.780
1093.851;   10.441;  -14.970;  556.540
1094.395;   11.455;  -15.310;  683.140
1094.938;   10.430;  -10.370;  632.520
1095.482;   11.029;  -11.050;  559.800
1096.025;   11.804;  -11.840;  710.880
1096.568;   12.110;  -12.840;  779.280
1097.112;    9.462;  -14.700;  508.180
1097.655;   10.984;   -8.720;  603.000
1098.198;   10.225;  -13.610;  600.180
1098.741;   10.029;  -13.350;  612.860
1099.285;   10.731;  -11.230;  657.300
1099.828;    8.554;  -11.840;  439.400
1100.371;   10.130;  -10.840;  608.160
1100.914;   10.538;  -14.190;  682.660
1101.457;    9.949;  -11.240;  679.900
1101.999;    8.357;  -11.270;  584.680
1102.542;   10.315;  -11.480;  641.440
1103.085;    9.265;  -11.750;  658.500
1103.628;    9.611;  -11.400;  762.060
1104.170;    8.720;  -10.490;  588.280
1104.713;    9.723;  -10.600;  646.700
1105.256;    8.408;  -14.360;  557.440
1105.798;    7.917;  -13.210;  499.980
1106.341;    9.804;  -10.270;  728.900
1106.883;    8.551;  -12.200;  521.340
1107.425;    8.950;  -13.110;  668.180
1107.968;    8.343;  -12.840;  612.380
1108.510;    8.866;   -6.480;  684.960
1109.052;    7.297;  -13.940;  612.620
1109.594;    7.614;  -13.690;  554.440
1110.136;    8.711;  -11.880;  643.220
1110.679;    8.369;   -9.500;  633.080
1111.221;    8.839;  -14.160;  604.460
1111.763;    8.179;  -13.980;  559.220
1112.304;    7.141;  -13.880;  547.140
1112.846;    7.315;  -12.210;  666.240
1113.388;   10.777;  -11.390;  942.180
1113.930;    8.127;  -14.540;  694.200
1114.472;    6.117;  -12.640;  606.540
1115.013;    6.406;  -11.620;  551.280
1115.555;    6.428;  -13.640;  587.100
1116.097;    5.887;  -15.380;  579.480
1116.638;    6.964;  -12.640;  684.600
1117.180;    6.687;   -9.850;  667.740
1117.721;    7.033;  -13.690;  568.580
1118.262;    7.271;  -12.680;  677.960
1118.804;    7.147;  -12.530;  637.340
1119.345;    5.153;  -11.690;  578.400
1119.886;    7.199;  -13.380;  704.040
1120.427;    6.039;  -14.070;  589.020
1120.969;    5.115;  -13.500;  597.920
1121.510;    5.477;  -11.480;  563.060
1122.051;    6.435;  -12.830;  723.580
1122.592;    6.116;  -14.290;  655.420
1123.133;    4.923;  -12.400;  547.940
1123.673;    6.584;  -10.130;  706.480
1124.214;    6.184;  -12.930;  612.460
1124.755;    6.016;  -14.380;  639.460
1125.296;    5.556;  -14.000;  627.320
1125.836;    5.984;  -10.070;  691.500
1126.377;    5.114;  -12.640;  599.660
1126.918;    5.513;  -12.960;  614.980
1127.458;    4.439;  -13.350;  622.220
1127.999;    5.448;  -10.750;  656.980
1128.539;    5.382;  -12.350;  694.240
1129.079;    4.369;  -14.860;  632.720
1129.620;    3.850;  -13.840;  558.100
1130.160;    3.731;  -12.330;  539.480
1130.700;    5.064;  -14.530;  640.840
1131.240;    5.056;  -12.530;  643.700
1131.781;    4.440;  -14.450;  619.680
1132.321;    4.092;   -9.790;  599.120
1132.861;    3.938;  -14.860;  564.200
1133.401;    3.184;  -14.290;  593.940
1133.941;    3.536;  -11.750;  626.280
1134.481;    3.127;   -9.920;  597.580
1135.020;    3.374;  -12.290;  609.160
1135.560;    4.361;  -11.650;  674.940
1136.100;    2.626;  -16.270;  501.160
1136.640;    3.479;  -10.890;  510.480
1137.179;    3.568;  -14.180;  537.960
1137.719;    3.524;  -16.250;  605.400
1138.258;    3.398;  -14.230;  587.360
1138.798;    3.601;   -9.090;  663.780
1139.337;    1.753;  -15.130;  482.840
1139.877;    3.330;  -13.680;  642.360
1140.416;    4.255;  -11.320;  878.060
1140.955;    2.240;  -10.860;  535.380
1141.494;    3.066;  -12.920;  669.280
1142.034;    2.769;  -13.930;  583.520
1142.573;    3.127;  -11.440;  646.280
1143.112;    2.108;  -12.000;  553.480
1143.651;    2.291;  -13.670;  536.480
1144.190;    3.238;  -12.730;  691.640
1144.729;    1.780;  -14.560;  607.420
1145.267;    2.408;  -11.830;  584.900
1145.806;    3.386;  -12.230;  637.040
1146.345;    2.023;  -14.130;  635.020
1146.884;    2.004;  -11.590;  622.500
1147.422;    1.501;  -12.550;  533.060
1147.961;    3.389;  -11.180;  708.460
1148.500;    3.227;  -11.510;  669.720
1149.038;    2.617;  -11.640;  632.500
1149.577;    2.234;  -10.130;  698.640
1150.115;    0.845;  -13.970;  452.280
1150.653;    1.813;  -14.520;  607.340
1151.192;    1.521;  -12.810;  552.920
1151.730;    1.286;   -9.100;  652.560
1152.268;    0.496;  -12.220;  589.520
1152.806;    1.279;  -14.140;  571.180
1153.344;   -0.500;  -12.350;  577.640
1153.882;    1.112;   -8.980;  600.060
1154.421;    0.293;  -15.190;  470.620
1154.958;    0.220;  -15.210;  595.240
1155.496;    1.718;  -12.850;  645.280
1156.034;    0.979;   -9.940;  721.880
1156.572;    2.010;  -13.570;  667.060
1157.110;   -0.121;  -14.590;  473.940
1157.647;    1.450;  -13.030;  676.960
1158.185;   -0.003;  -12.140;  564.320
1158.723;   -0.762;  -14.390;  509.200
1159.260;    1.023;  -14.090;  701.700
1159.798;    1.380;  -11.920;  658.160
1160.335;    0.061;  -11.110;  631.820

