
Integration time [ms]:   3.276
Averaging Nr. [scans]: 1000
Smoothing Nr. [pixels]: 0
Data measured with spectrometer [name]: 7414430SP
Wave   ;Sample   ;Dark     ;Reference
[nm]   ;[counts] ;[counts] ;[counts] 

288.544;  150.245;    7.793;  793.890
289.143;  155.267;    7.462;  681.602
289.742;  154.330;    8.602;  828.814
290.341;  139.842;    1.321;  789.841
290.940;  128.862;   -0.709;  730.702
291.538;  129.828;    0.881;  881.108
292.137;  130.657;    0.122;  792.581
292.736;  135.063;   -1.929;  975.101
293.335;  131.243;   -8.229;  735.086
293.934;  132.348;   -5.279;  781.677
294.532;  130.939;   -1.369; 1031.958
295.131;  116.172;   -7.641;  834.394
295.730;  116.349;   -8.420;  809.588
296.328;  115.590;   -5.611;  783.442
296.927;  115.710;   -5.781;  779.652
297.525;  117.118;   -6.361;  781.236
298.124;  107.961;  -11.382;  654.009
298.722;  111.908;   -7.641;  761.933
299.321;  109.085;   -6.811;  708.597
299.919;  106.967;   -6.991;  751.918
300.518;  104.473;  -10.362;  689.338
301.116;  106.634;   -9.581;  691.381
301.715;  105.932;   -4.891;  730.222
302.313;  104.746;   -8.801;  704.943
302.911;  100.542;   -8.522;  733.830
303.509;  105.261;   -6.171;  925.627
304.108;  103.356;   -7.311;  760.383
304.706;  102.032;   -8.321;  801.664
305.304;   96.848;  -10.222;  796.707
305.902;  102.529;   -6.021;  784.484
306.500;   98.891;   -4.971;  728.200
307.098;   95.435;   -7.061;  746.560
307.696;   94.772;   -8.801;  780.432
308.294;   95.292;   -6.411;  731.359
308.892;   96.692;   -2.901;  759.769
309.490;   92.498;   -5.041;  712.161
310.088;   90.877;   -5.002;  788.444
310.686;   95.652;   -2.041;  821.749
311.284;   91.288;   -2.351;  766.040
311.882;   88.969;   -4.422;  731.225
312.480;   86.077;   -4.192;  697.167
313.078;   87.169;   -1.172;  808.331
313.675;   87.864;   -2.601;  691.600
314.273;   82.793;   -1.312;  797.837
314.871;   82.814;   -3.942;  589.829
315.468;   81.051;   -2.802;  652.090
316.066;   83.614;   -0.701;  694.427
316.664;   75.755;   -4.362;  656.351
317.261;   79.918;   -2.872;  910.128
317.859;   76.095;   -2.022;  768.735
318.456;   76.272;   -0.531;  830.096
319.054;   71.610;   -3.912;  787.828
319.651;   71.091;   -4.752;  759.928
320.249;   69.978;   -2.602;  810.188
320.846;   67.346;   -0.821;  714.286
321.443;   65.339;   -4.642;  832.135
322.041;   62.554;   -5.002;  812.315
322.638;   59.950;   -3.982;  701.456
323.235;   61.034;   -3.411;  665.683
323.833;   57.918;   -7.361;  740.354
324.430;   53.620;   -8.611;  615.900
325.027;   54.532;   -4.061;  876.855
325.624;   54.480;   -4.031;  644.532
326.221;   51.620;   -7.481;  689.717
326.818;   50.772;   -5.281;  818.332
327.415;   53.794;   -7.460;  748.828
328.012;   53.224;   -5.510;  690.585
328.609;   51.891;   -7.880;  731.389
329.206;   51.140;   -8.331;  778.621
329.803;   51.283;   -5.121;  737.841
330.400;   52.752;   -4.510;  704.260
330.997;   54.553;   -6.441;  817.147
331.594;   53.274;   -8.831;  788.185
332.191;   58.443;   -7.621;  728.722
332.787;   61.593;   -4.591;  844.463
333.384;   59.926;   -7.412;  763.093
333.981;   58.034;   -8.293;  815.687
334.578;   61.870;   -7.052;  708.378
335.174;   64.063;   -3.102;  731.469
335.771;   63.711;   -5.943;  836.456
336.367;   60.720;   -7.393;  710.631
336.964;   64.842;   -4.063;  793.266
337.561;   62.941;   -3.813;  731.112
338.157;   58.259;   -4.654;  911.916
338.754;   55.571;   -7.934;  796.589
339.350;   53.887;   -4.414;  722.493
339.946;   56.493;   -4.664;  773.135
340.543;   47.665;   -6.375;  846.136
341.139;   42.292;   -9.815;  720.836
341.735;   40.840;   -4.526;  772.593
342.332;   39.177;   -4.895;  691.472
342.928;   38.675;   -4.295;  795.394
343.524;   33.338;   -5.476;  761.684
344.120;   29.926;   -5.856;  738.562
344.716;   32.874;   -2.155;  723.717
345.313;   30.613;   -6.275;  795.342
345.909;   25.741;   -8.815;  627.336
346.505;   27.557;   -5.305;  740.247
347.101;   28.080;   -2.674;  827.864
347.697;   27.384;   -4.344;  785.398
348.293;   22.291;   -9.975;  627.244
348.889;   23.494;   -5.774;  745.914
349.485;   23.088;   -5.004;  688.205
350.081;   23.113;   -4.704;  772.592
350.676;   18.649;   -6.635;  691.606
351.272;   23.072;   -4.504;  809.530
351.868;   21.933;   -3.914;  780.497
352.464;   18.659;   -9.044;  723.932
353.059;   15.971;   -8.314;  646.017
353.655;   19.406;   -7.024;  777.063
354.251;   20.866;   -5.343;  759.845
354.846;   15.343;   -8.604;  740.646
355.442;   12.922;   -6.945;  753.071
356.038;   15.117;   -7.564;  751.708
356.633;   14.540;   -5.814;  728.594
357.229;   12.679;   -7.364;  724.757
357.824;   10.582;   -8.024;  703.600
358.420;    9.940;   -9.384;  679.726
359.015;   11.046;   -5.104;  695.357
359.610;   11.292;   -6.854;  763.920
360.206;    5.240;  -10.185;  603.240
360.801;    8.783;   -7.054;  646.503
361.396;   10.659;   -5.034;  725.975
361.992;    5.783;   -8.284;  668.220
362.587;    3.034;   -8.625;  670.160
363.182;    5.694;   -7.674;  689.631
363.777;    6.632;   -5.164;  738.242
364.372;    5.588;   -8.604;  737.314
364.967;    1.307;   -9.055;  680.744
365.563;    6.210;   -6.114;  815.567
366.158;    3.954;   -5.814;  685.161
366.753;    3.256;   -7.854;  649.263
367.348;    1.591;   -7.804;  746.056
367.942;    1.837;   -7.954;  697.298
368.537;    1.586;   -4.984;  754.245
369.132;    1.706;   -8.564;  703.428
369.727;   -2.580;   -8.855;  638.079
370.322;   -1.096;   -6.245;  580.186
370.917;   -1.673;   -6.425;  710.646
371.511;    0.660;   -6.294;  861.834
372.106;   -3.130;   -7.685;  776.964
372.701;   -4.600;   -7.335;  585.988
373.296;    0.065;   -4.564;  863.135
373.890;   -4.861;  -10.235;  647.840
374.485;   -7.247;   -7.885;  691.199
375.079;   -3.088;   -7.324;  738.685
375.674;   -1.708;   -3.494;  812.970
376.268;   -5.947;   -8.525;  691.759
376.863;  -12.098;  -10.086;  580.327
377.457;   -5.504;   -7.025;  662.490
378.052;   -7.457;   -3.585;  764.884
378.646;   -8.826;   -7.595;  741.167
379.240;   -8.338;   -8.335;  721.176
379.835;   -7.646;   -5.785;  636.978
380.429;   -9.091;   -4.335;  562.557
381.023;   -9.788;   -6.805;  779.205
381.617;  -12.633;   -9.195;  680.106
382.212;   -8.667;   -6.905;  685.303
382.806;   -7.835;   -3.745;  760.690
383.400;  -12.045;   -7.745;  672.281
383.994;  -13.268;   -9.765;  664.870
384.588;   -8.914;   -6.564;  697.701
385.182;   -7.657;   -5.344;  726.624
385.776;   -9.824;   -8.514;  706.875
386.370;  -12.290;   -9.555;  681.968
386.964;  -11.010;   -8.715;  684.155
387.558;   -9.959;   -6.174;  598.360
388.152;  -13.383;   -8.725;  681.959
388.745;  -11.272;   -7.965;  814.707
389.339;   -9.193;   -5.924;  747.642
389.933;   -8.547;   -5.524;  695.370
390.527;   -9.992;   -7.114;  859.029
391.120;  -15.753;  -10.725;  595.318
391.714;  -12.816;   -8.035;  711.633
392.308;  -10.524;   -3.574;  780.253
392.901;  -13.541;   -7.245;  642.460
393.495;  -15.500;   -9.285;  595.414
394.089;  -13.376;   -5.895;  760.452
394.682;  -14.157;   -4.295;  697.188
395.275;  -14.225;   -9.875;  719.927
395.869;  -15.513;   -8.485;  667.314
396.462;  -13.697;   -7.455;  616.609
397.056;  -10.570;   -5.424;  776.621
397.649;  -15.399;   -6.605;  731.575
398.242;  -12.837;   -8.224;  712.645
398.836;  -11.746;   -7.474;  766.408
399.429;  -12.755;   -7.094;  631.041
400.022;  -16.441;   -9.475;  665.902
400.615;  -14.236;   -7.145;  805.609
401.208;  -11.538;   -7.174;  691.451
401.802;  -14.374;   -5.515;  699.329
402.395;  -14.936;   -9.875;  683.502
402.988;  -16.684;   -8.845;  696.627
403.581;  -13.336;   -8.874;  646.878
404.174;  -10.470;   -5.324;  686.568
404.767;  -14.194;   -9.575;  638.583
405.360;  -16.358;  -10.965;  621.445
405.953;  -10.084;   -8.764;  759.034
406.545;   -9.775;   -7.514;  725.342
407.138;  -14.881;  -10.025;  618.350
407.731;  -13.769;  -10.034;  613.303
408.324;   -9.284;   -9.374;  660.554
408.917;   -9.919;   -6.534;  681.864
409.509;  -12.258;   -8.004;  740.396
410.102;  -14.318;   -9.875;  643.948
410.695;   -7.409;   -8.604;  665.758
411.287;   -9.845;   -6.794;  599.821
411.880;  -10.851;   -9.334;  585.421
412.472;  -13.369;  -10.254;  613.092
413.065;  -10.864;   -6.714;  629.408
413.657;   -8.479;   -7.234;  576.678
414.250;   -8.611;  -10.544;  646.681
414.842;  -10.665;   -9.744;  676.353
415.434;   -8.175;   -6.994;  570.463
416.027;   -3.486;   -5.893;  652.196
416.619;   -5.705;   -7.264;  713.400
417.211;   -6.923;  -10.374;  599.352
417.804;   -2.284;   -7.993;  628.499
418.396;   -6.952;   -7.234;  607.643
418.988;   -5.131;   -9.443;  659.238
419.580;   -8.249;  -10.724;  568.276
420.172;   -5.674;  -10.323;  536.196
420.764;   -1.528;   -8.793;  672.482
421.356;   -3.126;  -11.143;  636.898
421.948;   -4.146;   -8.293;  677.661
422.540;    1.894;   -7.893;  680.027
423.132;    0.325;   -7.082;  600.641
423.724;   -2.303;   -8.653;  561.267
424.316;   -0.105;  -10.213;  621.345
424.908;    3.192;   -9.762;  591.517
425.500;    3.183;   -5.572;  647.978
426.092;    3.445;   -8.422;  648.268
426.683;    2.570;   -9.283;  684.836
427.275;    5.781;   -7.852;  641.471
427.867;    6.800;   -5.272;  668.948
428.458;    7.504;   -7.682;  732.344
429.050;    6.089;  -10.612;  680.749
429.642;    8.428;   -9.882;  743.124
430.233;    8.756;   -6.962;  569.356
430.825;    9.861;   -6.842;  724.809
431.416;    7.314;   -9.672;  698.241
432.008;   11.908;   -6.552;  651.723
432.599;   11.124;   -6.891;  656.073
433.190;    8.878;  -10.912;  637.670
433.782;    7.563;  -11.172;  590.395
434.373;   15.371;   -6.061;  884.765
434.964;   13.928;   -8.251;  602.920
435.556;   11.717;   -9.722;  634.537
436.147;   14.750;   -9.082;  758.490
436.738;   14.852;   -8.041;  701.099
437.329;   19.740;   -7.341;  721.723
437.920;   12.519;   -8.162;  666.688
438.511;   12.383;  -11.802;  564.526
439.103;   19.452;  -10.191;  623.998
439.694;   21.247;   -7.601;  681.583
440.285;   21.889;   -8.541;  764.432
440.876;   20.045;   -9.751;  845.738
441.466;   20.017;   -9.401;  575.162
442.057;   24.691;   -7.760;  665.814
442.648;   22.858;   -9.971;  746.255
443.239;   21.133;  -11.001;  620.477
443.830;   26.973;   -7.990;  704.958
444.421;   28.843;   -7.910;  655.474
445.011;   24.900;   -8.131;  693.619
445.602;   24.615;   -7.111;  743.126
446.193;   27.197;  -10.920;  488.117
446.783;   30.830;   -6.500;  640.397
447.374;   25.768;   -8.671;  692.759
447.964;   27.152;  -10.781;  713.770
448.555;   35.745;   -9.650;  822.742
449.145;   31.886;   -8.660;  662.853
449.736;   32.422;   -8.990;  803.179
450.326;   32.390;   -9.500;  713.626
450.917;   36.975;   -8.680;  675.324
451.507;   37.178;   -7.520;  600.661
452.097;   37.218;   -8.590;  746.267
452.688;   38.006;  -11.340;  742.160
453.278;   37.683;  -10.100;  566.840
453.868;   42.342;   -6.019;  793.550
454.458;   39.852;   -9.440;  651.141
455.048;   40.338;  -10.560;  711.783
455.639;   42.536;  -11.799;  567.096
456.229;   45.739;   -6.899;  710.694
456.819;   47.375;   -7.389;  751.158
457.409;   47.729;  -11.119;  773.993
457.999;   50.564;   -9.289;  737.505
458.589;   50.534;   -6.139;  686.606
459.179;   50.439;   -8.729;  717.658
459.769;   48.012;   -9.789;  627.099
460.358;   53.051;  -10.259;  797.262
460.948;   52.719;   -7.299;  689.503
461.538;   54.533;  -10.289;  660.677
462.128;   52.691;  -11.269;  664.934
462.717;   59.352;   -9.368;  710.326
463.307;   62.533;   -7.908;  705.846
463.897;   58.089;   -9.599;  656.942
464.486;   56.969;   -9.769;  837.128
465.076;   61.413;   -8.048;  733.776
465.666;   65.772;   -9.358;  652.900
466.255;   62.353;   -7.919;  785.651
466.845;   61.717;  -11.689;  666.749
467.434;   66.152;   -7.818;  725.873
468.023;   66.573;   -7.678;  658.357
468.613;   63.926;  -10.939;  713.946
469.202;   67.931;  -10.118;  646.507
469.791;   72.023;   -9.108;  737.811
470.381;   74.579;   -6.058;  742.813
470.970;   73.827;  -10.428;  711.099
471.559;   73.673;  -10.268;  733.291
472.148;   77.691;   -8.448;  675.737
472.738;   80.191;   -6.917;  765.466
473.327;   78.654;  -11.978;  637.529
473.916;   78.016;  -11.888;  737.446
474.505;   82.620;   -9.437;  751.703
475.094;   85.141;   -6.747;  806.570
475.683;   84.939;   -9.367;  797.699
476.272;   86.624;  -12.637;  730.632
476.861;   89.634;  -10.027;  706.754
477.449;   95.637;   -8.716;  728.487
478.038;   89.410;   -9.577;  692.513
478.627;   91.096;   -9.718;  714.852
479.216;   97.404;   -8.947;  769.441
479.805;   99.990;   -6.256;  783.375
480.393;   99.544;   -7.937; 1008.945
480.982;   99.043;   -7.717;  874.501
481.571;  105.502;   -9.266;  858.333
482.159;  106.914;   -7.636;  705.386
482.748;  106.004;   -9.667;  821.385
483.336;  110.217;  -10.376;  858.209
483.925;  111.087;   -7.147;  774.373
484.513;  118.634;   -7.996;  758.962
485.102;  113.865;  -10.027;  810.965
485.690;  122.874;  -10.446; 1011.050
486.278;  126.195;   -8.446;  979.329
486.867;  125.857;   -6.356;  809.662
487.455;  126.393;   -9.136;  898.229
488.043;  129.384;  -10.646;  748.361
488.631;  138.867;   -7.456; 1005.079
489.220;  142.157;   -6.636;  908.626
489.808;  142.273;  -11.036;  741.415
490.396;  150.991;  -10.246;  914.645
490.984;  156.800;   -8.556;  830.161
491.572;  167.014;   -5.886;  940.315
492.160;  172.777;   -9.486;  919.081
492.748;  185.614;  -10.976;  884.341
493.336;  208.761;   -8.776; 1019.693
493.924;  237.003;   -5.465;  958.077
494.512;  267.096;   -9.986; 1066.638
495.100;  308.899;  -10.636; 1103.280
495.687;  364.783;  -10.885; 1206.373
496.275;  425.594;   -8.126; 1150.796
496.863;  490.606;  -10.586; 1281.171
497.451;  593.523;  -11.926; 1386.805
498.038;  738.588;  -10.885; 1556.729
498.626;  858.429;   -6.315; 1741.407
499.214; 1019.158;   -7.326; 2016.609
499.801; 1229.559;  -11.906; 2220.633
500.389; 1489.765;  -10.466; 2312.494
500.976; 1834.367;   -5.236; 2744.849
501.564; 2266.507;   -8.936; 3148.565
502.151; 2647.435;  -13.176; 3515.999
502.738; 3174.151;  -10.646; 3971.274
503.326; 3603.327;   -9.525; 4403.796
503.913; 4041.317;  -10.856; 5161.749
504.500; 4359.753;  -11.586; 5986.420
505.088; 4792.436;  -10.336; 6381.201
505.675; 5361.009;   -6.355; 6925.547
506.262; 5966.246;   -9.046; 7619.060
506.849; 6656.262;  -10.416; 8733.969
507.436; 7202.891;  -10.305; 9790.121
508.023; 7664.367;   -5.496; 9985.472
508.610; 7924.031;   -7.856;10434.618
509.197; 8747.985;  -10.097;11198.435
509.784;10352.183;  -10.886;12391.194
510.371;11506.439;   -9.315;13603.713
510.958;12220.878;   -9.936;14426.586
511.545;12855.457;   -9.326;15243.775
512.132;13213.441;  -10.075;15945.876
512.719;13622.817;   -7.796;16340.369
513.305;15028.648;  -10.606;18011.766
513.892;15958.848;  -11.486;19754.971
514.479;17284.256;   -9.126;20967.805
515.066;18458.986;   -6.026;22299.793
515.652;19520.941;   -8.466;22908.660
516.239;20940.852;  -10.886;23798.875
516.825;21464.637;  -11.496;25567.275
517.412;21827.904;   -5.796;28154.959
517.998;22704.922;  -10.506;28344.111
518.585;23308.678;  -10.076;27134.219
519.171;23523.283;   -8.315;27268.576
519.758;24905.393;   -8.596;28964.129
520.344;26219.301;   -8.466;30664.494
520.930;26224.166;  -11.006;32550.605
521.516;27930.555;  -10.495;35422.895
522.103;30065.525;   -5.526;38280.004
522.689;30704.900;   -8.746;37835.117
523.275;29635.818;  -11.376;37288.613
523.861;29643.572;  -11.156;37281.395
524.447;31101.908;   -8.135;37846.949
525.033;30788.576;   -7.896;38321.949
525.619;30092.775;  -12.476;38579.285
526.205;29012.248;   -9.516;40622.875
526.791;29338.277;   -6.926;42258.836
527.377;31133.264;   -8.346;42966.902
527.963;36354.594;   -8.717;42018.949
528.549;37807.637;  -11.016;42476.828
529.135;36356.883;   -8.536;41854.852
529.721;35871.164;   -9.666;41237.711
530.306;35428.715;  -10.066;41259.445
530.892;35297.570;  -11.356;41506.047
531.478;36084.691;   -6.596;43559.613
532.063;38095.305;   -8.836;47695.563
532.649;38508.152;  -10.047;50808.324
533.235;40395.156;   -9.746;51787.500
533.820;41867.754;   -6.566;52145.035
534.406;41901.719;  -10.817;51133.488
534.991;40603.281;   -9.416;49996.805
535.576;39368.961;   -9.036;48882.852
536.162;40052.371;   -6.156;46942.285
536.747;40534.469;  -11.607;45711.746
537.333;42581.922;  -11.787;48510.180
537.918;44253.785;  -12.437;50439.891
538.503;42068.852;   -7.196;50863.711
539.088;38380.859;  -10.556;50906.922
539.673;36921.375;   -8.767;52621.965
540.259;35335.109;  -10.026;52368.094
540.844;33835.453;   -7.416;50879.109
541.429;37753.750;   -9.467;52077.777
542.014;44164.344;   -9.527;52716.695
542.599;46431.758;   -9.946;52363.281
543.184;43971.129;   -7.927;53187.137
543.769;44588.641;   -9.297;54697.605
544.354;44813.504;  -10.127;53913.914
544.938;44201.781;   -9.267;49680.164
545.523;46356.293;   -6.506;47386.277
546.108;48118.965;   -9.787;49151.949
546.693;49937.699;  -11.587;51384.637
547.278;50127.598;  -10.986;51853.254
547.862;46768.059;   -8.206;51173.750
548.447;42296.637;  -10.067;51691.395
549.031;41516.406;   -9.637;52456.703
549.616;46024.660;   -9.926;52714.516
550.201;46650.129;   -6.347;52414.598
550.785;46324.004;   -7.917;52355.059
551.370;45716.410;  -10.867;54589.453
551.954;45928.000;   -9.047;58267.348
552.538;47933.574;   -7.827;59062.176
553.123;46932.898;  -10.287;58115.285
553.707;44941.324;  -12.178;56556.285
554.291;45034.617;   -8.717;56201.668
554.876;44890.527;   -7.457;55335.762
555.460;45245.109;  -10.387;54155.703
556.044;48060.148;   -9.618;53721.484
556.628;46042.191;  -11.567;53731.016
557.212;45609.852;   -8.097;54312.531
557.796;44075.672;  -11.077;53797.773
558.380;44709.906;  -11.108;56145.984
558.964;45034.359;   -9.057;57277.930
559.548;44693.273;   -6.977;56459.641
560.132;42777.746;  -11.457;54434.543
560.716;41835.891;  -11.378;54800.617
561.300;41908.328;   -9.577;57606.945
561.884;43516.438;   -7.127;58972.445
562.467;43206.426;   -7.118;57327.570
563.051;42506.430;  -13.358;54962.434
563.635;42756.887;  -10.178;52594.473
564.219;44064.691;   -7.837;50610.410
564.802;44997.781;  -11.398;49551.180
565.386;44832.785;  -12.788;48370.953
565.969;44160.004;   -9.077;48178.871
566.553;43581.348;   -6.207;49957.305
567.136;44173.949;   -8.568;50369.594
567.720;40579.551;  -11.868;49492.004
568.303;39432.266;   -8.268;50616.352
568.887;39314.973;   -8.698;50727.148
569.470;38891.598;   -6.808;51698.379
570.053;36907.707;  -13.188;52122.078
570.637;35628.613;  -12.037;52536.438
571.220;35576.852;   -8.577;51186.098
571.803;36219.750;   -8.498;51032.762
572.386;38123.094;  -10.498;49609.887
572.969;41178.785;   -9.388;48285.926
573.552;39917.434;   -8.338;47624.285
574.135;39153.543;   -8.518;45498.641
574.718;36424.586;  -13.628;41970.434
575.301;35461.211;  -10.893;41447.137
575.884;34497.840;   -8.158;40923.836
576.467;34876.352;  -10.328;45267.723
577.050;37220.488;  -13.058;48175.543
577.633;38706.570;   -9.458;47729.328
578.216;37350.094;   -8.928;47579.793
578.799;36538.863;   -9.358;47820.996
579.381;35261.414;  -11.388;48115.551
579.964;33331.438;  -11.718;47333.766
580.547;34497.645;   -8.588;46668.969
581.129;35024.512;   -8.859;44466.141
581.712;35202.492;  -10.729;44164.922
582.294;35954.742;  -11.118;46477.855
582.877;37250.594;   -5.218;48244.254
583.459;36048.859;   -8.679;47437.895
584.042;33974.773;  -10.709;46943.219
584.624;34020.105;  -11.669;46792.227
585.206;33095.867;   -8.218;46557.250
585.789;33880.891;  -10.569;45793.773
586.371;36925.344;  -11.859;43836.391
586.953;37230.414;  -10.719;42972.492
587.536;37457.355;   -7.198;42487.211
588.118;37507.156;   -8.720;42086.414
588.700;34410.984;  -10.439;43389.930
589.282;33705.930;   -9.198;43646.039
589.864;34060.195;   -9.199;43438.109
590.446;35399.574;  -11.319;43151.926
591.028;35348.340;  -11.159;42781.867
591.610;34632.703;  -11.779;42839.098
592.192;31645.000;   -7.668;42820.402
592.774;29879.576;  -11.949;40724.277
593.356;28745.199;  -12.129;39874.789
593.937;28932.914;  -10.669;39980.648
594.519;31082.682;   -6.509;42069.633
595.101;32317.428;  -10.849;42976.031
595.683;32525.723;  -11.679;44084.441
596.264;33786.684;   -9.049;43478.797
596.846;32939.520;   -8.849;43803.672
597.427;31991.510;   -9.570;42986.934
598.009;33738.758;  -12.620;42832.219
598.591;34392.594;  -10.039;42580.086
599.172;34101.016;  -10.369;43061.805
599.753;34223.914;   -9.140;41691.469
600.335;35529.105;  -11.430;40692.520
600.916;33514.422;   -9.939;39982.422
601.498;31872.934;   -8.479;40318.617
602.079;30950.555;  -10.920;40670.609
602.660;30634.184;  -11.480;41450.898
603.241;30544.027;  -11.699;41137.738
603.823;29039.328;   -9.579;38868.797
604.404;29533.041;  -10.620;38182.785
604.985;31294.727;  -10.450;38078.047
605.566;30646.945;   -9.129;38056.633
606.147;30032.301;   -7.510;37020.418
606.728;32590.254;  -10.660;37883.359
607.309;31997.563;  -11.740;38748.273
607.890;30856.455;   -9.759;38850.230
608.471;30577.125;   -8.250;37457.918
609.051;30655.502;   -9.240;36066.457
609.632;29290.938;  -12.120;35991.074
610.213;29561.430;   -9.110;37402.641
610.794;29986.664;   -8.030;38383.363
611.374;28599.072;   -8.110;40562.387
611.955;28485.176;  -13.560;38533.727
612.536;30434.645;  -11.400;36951.789
613.116;30516.473;   -8.070;37197.891
613.697;31254.367;  -10.830;38411.125
614.277;29776.906;  -11.641;38673.938
614.858;30542.229;  -13.310;37075.863
615.438;30789.918;   -7.460;35092.906
616.019;28568.154;   -7.601;33666.301
616.599;29128.885;  -12.020;34189.023
617.179;30803.061;  -11.780;36952.047
617.760;30946.969;   -8.570;39582.574
618.340;32308.121;  -11.471;38943.977
618.920;33963.242;  -11.170;37594.156
619.500;33449.660;  -11.071;37866.938
620.080;32792.000;   -7.750;37869.043
620.660;33466.082;  -12.711;36868.617
621.241;34178.770;  -10.211;36352.309
621.821;33603.090;  -10.961;35459.520
622.401;33363.363;   -7.720;35207.414
622.980;32485.582;   -8.981;35980.422
623.560;31033.529;   -9.331;37351.328
624.140;30220.559;   -9.850;34388.582
624.720;26224.283;   -7.451;32368.764
625.300;22330.393;   -9.070;32638.629
625.880;24809.320;  -12.601;34599.035
626.459;28518.703;  -11.751;36831.738
627.039;31206.193;   -9.281;38299.098
627.619;31177.648;   -8.801;38289.574
628.198;29892.969;  -12.071;37220.695
628.778;29712.377;   -9.461;37632.563
629.357;30447.271;   -8.491;38003.012
629.937;29922.965;   -9.721;38402.039
630.516;28930.998;   -9.951;37868.801
631.096;29242.490;  -11.731;35760.410
631.675;32382.660;   -8.572;35225.219
632.254;37784.211;  -11.282;35130.289
632.834;36622.109;  -13.322;35794.570
633.413;34811.543;  -10.301;35788.922
633.992;32422.441;   -8.582;34532.863
634.571;33872.828;   -8.352;33590.113
635.151;35856.496;  -11.912;34943.863
635.730;33441.910;  -10.511;35352.523
636.309;30435.686;   -7.731;35366.605
636.888;28139.986;   -9.952;36165.637
637.467;28221.244;  -11.672;37515.902
638.046;30281.305;   -8.901;39288.695
638.625;33062.461;   -7.912;38279.699
639.204;33230.277;  -10.022;37741.598
639.782;31813.135;  -12.252;38364.551
640.361;28629.205;  -10.041;36740.621
640.940;26071.332;  -11.161;34950.082
641.519;25829.678;   -9.701;34137.398
642.097;27710.885;  -11.271;35654.258
642.676;30933.283;   -8.651;35637.957
643.255;32444.582;   -8.711;36567.074
643.833;31064.822;   -9.581;37809.434
644.412;31216.910;  -13.711;37337.293
644.990;31171.854;  -11.811;37018.531
645.569;31299.293;   -9.411;36518.469
646.147;30089.941;  -10.291;36186.430
646.726;29329.736;  -12.401;36267.688
647.304;30587.076;  -10.411;36647.625
647.882;31793.699;   -9.651;39286.742
648.461;33174.441;   -9.631;39157.703
649.039;32953.398;  -11.881;35412.883
649.617;32706.488;   -9.661;34744.918
650.195;32249.256;   -9.301;35403.098
650.773;31420.348;  -10.511;35053.797
651.352;29422.391;  -11.521;33756.816
651.930;26389.111;  -12.211;31868.773
652.508;23526.934;   -9.171;33121.551
653.086;26637.383;   -9.371;33564.793
653.663;30747.035;  -13.161;34054.668
654.241;29742.020;  -13.031;35693.309
654.819;30736.984;   -9.371;36422.906
655.397;29951.188;  -10.511;38213.484
655.975;29552.426;  -10.371;39507.625
656.553;30257.570;  -10.051;39498.223
657.130;29330.205;  -10.061;40395.480
657.708;28557.816;   -9.561;39242.020
658.286;28266.254;  -11.511;38920.020
658.863;29085.598;  -10.261;40202.898
659.441;31061.436;   -7.531;39677.938
660.018;30570.180;   -9.501;40413.355
660.596;30234.898;  -13.301;39931.414
661.173;31974.975;  -11.211;39604.531
661.750;31885.973;   -9.951;39700.070
662.328;31015.881;   -9.390;39292.809
662.905;30648.516;  -11.330;38235.648
663.482;26560.988;   -9.050;36212.305
664.060;24152.234;   -8.240;35944.945
664.637;26404.477;  -10.050;35170.785
665.214;27977.520;  -11.760;34197.523
665.791;30075.301;  -10.530;34549.520
666.368;29658.490;   -9.690;35118.578
666.945;29902.729;   -9.320;36019.418
667.522;30884.713;  -11.860;36048.438
668.099;30985.230;  -10.770;36243.914
668.676;30530.260;   -6.260;35958.875
669.253;29096.594;   -7.000;37384.730
669.830;28721.920;  -10.190;36779.629
670.407;28173.629;   -9.550;35231.289
670.984;29211.623;   -9.260;35544.270
671.560;29545.566;   -9.280;35466.867
672.137;28140.121;  -11.810;34280.863
672.714;28908.879;  -11.490;34632.863
673.290;29249.596;   -7.740;35135.422
673.867;29080.309;  -10.660;36114.480
674.443;29590.014;  -12.230;36152.859
675.020;27813.549;  -10.450;35327.238
675.596;29218.967;   -9.260;35795.176
676.173;30120.406;  -10.780;35430.355
676.749;29272.451;  -13.690;33549.516
677.326;29197.078;  -11.980;32210.012
677.902;29683.400;   -8.630;32068.871
678.478;28844.381;  -10.730;32583.891
679.054;28601.752;  -10.520;32088.928
679.631;30018.486;  -11.920;30978.848
680.207;30971.521;   -7.490;33160.887
680.783;32166.221;   -9.860;35570.363
681.359;31076.281;  -13.380;36125.184
681.935;29786.396;  -12.480;35240.922
682.511;28406.672;   -7.900;34429.961
683.087;28004.686;   -7.710;34463.680
683.663;28153.533;  -11.480;34648.898
684.239;28090.488;  -14.090;34546.457
684.815;28438.705;   -7.560;35586.375
685.390;28637.758;   -9.910;35821.895
685.966;28625.855;  -11.159;35085.871
686.542;30903.807;  -11.169;34198.230
687.118;33095.883;   -5.959;32847.707
687.693;33091.227;  -10.329;32794.027
688.269;32416.020;  -12.059;33072.367
688.844;30141.764;  -10.909;33141.664
689.420;28762.959;   -8.019;33965.742
689.995;27484.816;   -8.399;34655.523
690.571;26731.182;  -10.949;33576.742
691.146;26885.703;   -9.619;32657.219
691.722;25870.549;   -8.999;32526.979
692.297;25078.611;  -11.589;33014.617
692.872;26808.354;  -11.739;34012.254
693.448;27190.545;  -11.059;34237.434
694.023;25753.289;  -10.139;34142.672
694.598;27388.891;   -9.029;34132.031
695.173;27612.439;  -13.319;34205.250
695.748;27040.156;  -10.169;32882.488
696.323;26728.260;   -8.339;32864.906
696.898;26144.211;   -8.169;33170.004
697.473;26346.543;  -12.309;32432.984
698.048;26863.391;  -10.989;31649.303
698.623;27187.672;   -9.329;30778.141
699.198;28454.525;   -9.849;31140.119
699.773;29295.816;  -12.329;31764.299
700.348;28406.939;  -10.389;31780.816
700.922;28958.480;   -9.269;32046.375
701.497;29504.740;   -9.329;32603.574
702.072;29776.916;  -10.789;34799.871
702.646;29635.889;  -10.839;35793.172
703.221;28748.813;   -9.099;35201.590
703.795;30172.299;  -10.939;34764.527
704.370;29337.178;  -12.859;34307.367
704.944;29341.469;  -11.559;33509.887
705.519;30736.807;   -7.939;31388.584
706.093;31807.086;  -10.499;31340.104
706.668;31730.535;  -11.289;32630.281
707.242;30228.469;  -11.509;32728.779
707.816;29192.564;   -9.639;32947.238
708.390;27551.818;  -11.429;33277.855
708.965;27766.762;  -11.869;33834.336
709.539;28227.182;  -11.689;33709.273
710.113;28704.797;  -10.478;33044.313
710.687;27878.035;  -10.228;31953.992
711.261;25376.428;  -13.698;30505.949
711.835;25132.311;  -13.378;30262.369
712.409;26204.898;   -9.698;31254.447
712.983;27635.504;  -11.898;32754.986
713.557;28869.842;  -15.138;34018.824
714.131;29012.709;  -14.098;34579.625
714.704;27882.174;   -9.958;33890.262
715.278;25239.018;  -10.028;33531.102
715.852;25551.301;  -11.148;33601.660
716.425;27164.662;   -9.068;33515.117
716.999;27673.990;  -10.038;33185.555
717.573;28221.820;   -9.798;33905.996
718.146;28968.107;  -12.378;35199.293
718.720;29091.301;  -11.918;35060.551
719.293;29441.570;   -8.088;34973.230
719.867;32035.215;  -10.888;36394.449
720.440;32003.986;  -11.938;36663.008
721.013;30565.807;  -12.818;35102.426
721.587;29176.068;  -10.298;33985.266
722.160;26933.287;  -10.048;33524.965
722.733;25496.932;  -12.108;32987.043
723.306;26312.572;  -10.818;33066.301
723.880;27992.443;   -8.908;33399.500
724.453;30119.008;   -9.878;33468.297
725.026;29210.857;  -11.188;33816.637
725.599;25950.584;  -11.678;32797.996
726.172;25873.363;   -9.618;33187.434
726.745;27601.201;   -8.258;35136.613
727.318;29812.717;  -12.978;35751.730
727.891;31076.021;  -12.148;35890.430
728.463;30875.805;   -8.968;34822.090
729.036;29205.217;  -10.188;32895.086
729.609;29403.066;  -11.788;31823.225
730.182;25749.357;  -11.788;31445.283
730.754;23352.699;  -10.268;32373.223
731.327;23530.547;   -9.998;33676.820
731.900;23163.178;  -12.228;33417.000
732.472;24453.514;  -13.848;31978.498
733.045;27488.234;   -8.698;30368.777
733.617;28055.322;  -10.607;30574.215
734.190;27325.248;  -11.507;31280.975
734.762;23996.873;  -13.647;31674.412
735.334;22368.080;   -9.767;31247.291
735.907;23114.799;   -9.897;29876.211
736.479;23225.262;  -11.637;29808.488
737.051;22610.648;   -9.567;30233.547
737.623;23557.842;   -8.187;31469.086
738.195;24338.389;  -11.187;31784.225
738.768;25874.748;  -12.337;32120.523
739.340;25864.898;  -12.227;32094.342
739.912;24578.744;  -11.057;31312.680
740.484;23910.002;  -10.207;31946.238
741.056;23135.473;  -10.047;32984.059
741.628;24694.602;  -13.627;33897.715
742.199;27011.748;   -7.177;33213.016
742.771;25772.857;  -10.797;31369.113
743.343;23446.996;  -11.997;31865.473
743.915;21844.078;  -12.867;32388.631
744.487;21732.336;   -7.617;31079.568
745.058;22153.461;   -9.557;30570.107
745.630;23186.775;   -9.877;29970.127
746.201;24758.787;  -14.177;29186.766
746.773;25146.449;   -9.237;28805.723
747.344;24495.131;   -9.847;29591.223
747.916;22687.256;  -11.657;31412.201
748.487;22097.467;  -10.587;32194.898
749.059;23361.334;   -8.707;32533.719
749.630;24339.994;  -10.537;32158.518
750.201;23370.260;  -11.687;30855.395
750.773;22222.338;  -11.647;28622.555
751.344;22493.396;   -7.147;28405.732
751.915;23577.771;   -9.757;28461.551
752.486;22686.605;  -12.427;27842.850
753.057;20237.639;  -12.227;27845.008
753.628;19109.631;  -10.417;27728.107
754.199;19724.924;  -11.767;27381.086
754.770;20690.855;  -11.187;25882.203
755.341;20974.064;  -10.507;25886.184
755.912;21234.898;   -9.387;26050.861
756.483;21067.639;  -10.647;26798.779
757.054;19372.146;  -11.837;27048.238
757.625;17902.676;  -12.716;26294.838
758.195;17419.303;   -9.666;26142.076
758.766;17164.725;   -8.656;26392.234
759.337;18210.625;  -12.856;26334.594
759.907;19857.881;  -13.366;27579.652
760.478;21010.563;   -8.576;28352.770
761.048;21031.016;  -10.526;27325.088
761.619;20345.271;  -11.116;26460.428
762.189;19908.068;  -12.136;26029.826
762.760;20243.852;   -9.456;26430.145
763.330;21219.457;   -7.136;26670.902
763.900;20518.014;  -11.786;26603.021
764.471;17664.002;  -11.546;25542.740
765.041;16573.348;   -8.096;24358.459
765.611;17190.563;   -8.876;23991.297
766.181;17924.854;  -12.196;24470.236
766.751;18767.791;  -11.636;24845.975
767.321;18526.324;  -10.156;24533.633
767.891;16338.705;  -11.766;24916.492
768.461;15598.038;  -14.936;24776.771
769.031;15988.281;  -12.356;24757.988
769.601;17689.234;   -7.526;24181.088
770.171;17942.113;  -10.766;23670.387
770.741;17276.398;  -13.176;22960.045
771.311;17227.459;  -10.616;22917.523
771.880;17357.586;   -9.576;23562.941
772.450;16824.582;  -10.336;24216.500
773.020;16730.871;  -13.516;24140.398
773.589;16510.541;  -13.466;24414.857
774.159;16432.469;   -8.686;23858.717
774.729;16296.582;   -9.476;22942.135
775.298;15547.202;  -13.666;22324.033
775.867;14855.446;  -11.716;21140.313
776.437;14919.106;   -9.906;20838.092
777.006;14837.312;  -12.166;20599.510
777.576;14862.915;  -12.356;20508.809
778.145;15066.746;  -11.646;20732.947
778.714;14888.491;   -8.226;21062.465
779.283;13792.977;   -9.556;20949.664
779.853;13463.774;  -14.116;20508.623
780.422;13991.847;  -11.506;20649.082
780.991;13402.357;   -9.556;21527.520
781.560;12340.941;   -9.095;22632.658
782.129;12275.720;  -12.135;23048.277
782.698;12166.831;  -10.865;23438.555
783.267;11765.058;   -9.335;23267.734
783.836;11586.928;  -11.045;22415.133
784.404;12373.936;  -13.865;20443.152
784.973;12616.612;  -13.095;19699.150
785.542;12404.483;  -11.575;19763.828
786.111;12319.373;   -9.705;20341.408
786.679;12212.015;  -12.105;20207.967
787.248;12320.920;  -12.455;19516.465
787.817;12017.579;  -11.535;18900.363
788.385;11423.571;   -9.765;17879.121
788.954;10603.977;  -14.005;17658.301
789.522;10242.655;  -11.955;17788.879
790.090;10944.211;  -10.135;18118.277
790.659;11412.804;  -10.975;18338.736
791.227;10799.914;  -13.375;18508.615
791.795;11155.088;  -12.375;17898.254
792.364;11523.601;  -10.725;17295.133
792.932;11804.920;   -9.715;16822.051
793.500;11858.003;  -12.675;17040.148
794.068;11952.788;  -13.495;17179.787
794.636;12113.980;  -10.885;16664.246
795.204;11633.340;  -11.045;16524.545
795.772;11407.280;  -13.175;17274.564
796.340;10869.027;  -12.445;17891.002
796.908;10660.699;   -9.735;17648.561
797.476;10571.070;   -9.815;17064.080
798.044;10211.429;  -13.985;16672.777
798.612; 9576.019;  -13.115;17023.996
799.180; 9370.767;  -10.185;16561.615
799.747; 9370.530;   -9.055;15962.773
800.315; 9071.785;  -12.385;15296.992
800.883; 8719.590;  -15.035;14801.771
801.450; 8591.784;  -10.365;14534.430
802.018; 8588.221;   -9.855;14173.248
802.585; 8602.261;  -11.905;14029.547
803.153; 8664.066;  -11.585;13836.846
803.720; 8610.262;   -9.095;13567.324
804.287; 8290.453;   -9.135;13360.622
804.855; 7833.180;  -11.604;13681.981
805.422; 7662.527;  -11.794;13536.560
805.989; 7515.886;  -10.734;13355.958
806.556; 7640.406;  -10.444;13747.896
807.124; 8048.867;  -12.764;13987.376
807.691; 7988.147;  -12.964;14038.674
808.258; 7765.126;  -11.134;14120.152
808.825; 7519.157;   -9.854;13860.111
809.392; 7611.245;  -10.504;13268.790
809.959; 7227.476;  -13.054;12680.389
810.526; 6840.040;   -8.294;12427.308
811.093; 6861.729;   -8.394;12030.105
811.659; 7520.661;  -12.304;11653.664
812.226; 8028.740;  -13.944;11637.183
812.793; 7743.865;  -10.484;11611.521
813.360; 7077.131;  -10.144;11885.181
813.926; 6522.256;  -11.684;12770.539
814.493; 6202.144;  -13.644;12677.638
815.060; 5812.592;   -9.724;11974.336
815.626; 5789.447;   -9.854;11594.715
816.193; 6253.723;  -13.254;11579.474
816.759; 6423.248;  -13.204;11666.972
817.325; 6616.928;   -9.434;11325.530
817.892; 7013.964;  -10.134;11105.369
818.458; 7417.326;  -13.474;10843.928
819.024; 7039.253;  -11.854;10714.406
819.591; 6685.046;  -10.244;10469.165
820.157; 6418.233;  -10.704;10235.523
820.723; 6015.229;  -12.324;10847.563
821.289; 5851.955;   -9.444;11040.980
821.855; 5869.289;   -8.374;10357.100
822.421; 6001.547;  -10.234; 9978.918
822.987; 5940.555;  -13.294; 9754.177
823.553; 5568.948;  -10.884;10065.755
824.119; 5354.082;   -8.884;10036.294
824.685; 5446.485;   -6.784;10029.192
825.251; 5515.171;  -12.004;10199.230
825.816; 5457.640;  -11.474; 9820.189
826.382; 5326.289;   -9.174; 9297.248
826.948; 5571.400;   -9.214; 9381.347
827.513; 6001.846;  -10.774; 9450.726
828.079; 5844.871;  -11.924; 9472.444
828.645; 5271.601;  -10.543; 9292.643
829.210; 5171.254;  -10.533; 9065.341
829.776; 5154.714;  -10.753; 9132.620
830.341; 5097.456;  -10.173; 9092.878
830.906; 5330.803;  -10.743; 9078.557
831.472; 5725.004;  -11.113; 8534.535
832.037; 5539.502;  -10.603; 8677.874
832.602; 4945.361;  -13.323; 8628.692
833.167; 4495.493;  -10.823; 8879.031
833.733; 4408.992;  -10.113; 9189.790
834.298; 4535.917;  -13.583; 9052.608
834.863; 4532.887;  -12.703; 8895.087
835.428; 4535.186;  -10.523; 8824.266
835.993; 4624.963;   -6.963; 8845.385
836.558; 4560.512;  -10.763; 8888.563
837.123; 4567.787;   -9.903; 8966.582
837.688; 4689.955;   -9.913; 8617.860
838.253; 4882.658;  -10.283; 8590.699
838.817; 5087.419;  -12.963; 8443.797
839.382; 5061.636;  -14.243; 8799.356
839.947; 4758.285;  -10.733; 8810.595
840.511; 4475.293;   -9.383; 8796.394
841.076; 4104.299;  -12.563; 8347.231
841.641; 4067.720;  -12.953; 8224.330
842.205; 4108.825;   -7.043; 8223.349
842.770; 4238.260;   -8.163; 8622.107
843.334; 4577.063;  -12.503; 8410.386
843.898; 4611.219;  -11.693; 8337.465
844.463; 4552.954;  -10.203; 8506.283
845.027; 4240.988;   -9.533; 8280.962
845.591; 4050.134;  -13.443; 8231.141
846.156; 4130.515;  -13.143; 7969.179
846.720; 4055.963;   -9.433; 7768.278
847.284; 3959.014;  -11.033; 7630.957
847.848; 3751.118;  -10.403; 7472.395
848.412; 3577.880;  -11.553; 7437.394
848.976; 3599.252;   -8.393; 7674.592
849.540; 3554.056;   -8.713; 7836.011
850.104; 3620.829;  -12.463; 7913.669
850.668; 3915.292;  -12.973; 7694.508
851.232; 4022.007;  -10.793; 7756.887
851.796; 3875.304;  -10.662; 7926.545
852.359; 3555.716;  -13.082; 7827.844
852.923; 3418.700;  -12.192; 7641.163
853.487; 3316.395;  -11.912; 7342.501
854.050; 3269.235;  -10.892; 7042.820
854.614; 3417.792;  -13.992; 7151.338
855.177; 3549.266;  -11.732; 7105.077
855.741; 3571.031;   -8.962; 6989.675
856.304; 3391.340;   -9.442; 6596.634
856.868; 3324.984;  -14.192; 6356.272
857.431; 3465.747;  -12.702; 6468.571
857.995; 3586.444;   -9.942; 6373.210
858.558; 3638.220;   -9.112; 6324.448
859.121; 3380.422;  -12.932; 6408.327
859.684; 3227.456;  -13.442; 6347.886
860.247; 3324.169;  -10.632; 6321.264
860.810; 3280.006;  -11.272; 6301.903
861.374; 2968.613;   -9.832; 6607.881
861.937; 2669.773;  -11.762; 6408.200
862.500; 2633.705;   -9.722; 6572.639
863.062; 2770.856;  -10.512; 6387.297
863.625; 2897.729;  -11.232; 6190.836
864.188; 3037.616;  -14.112; 5807.254
864.751; 3130.257;  -11.302; 5682.413
865.314; 3043.761;  -10.112; 5547.492
865.876; 2873.521;  -12.182; 5500.150
866.439; 2858.359;  -10.722; 5415.909
867.002; 2762.457;   -9.252; 5501.567
867.564; 2515.668;   -9.572; 5413.946
868.127; 2299.978;  -13.142; 5160.325
868.689; 2247.044;  -12.902; 5133.183
869.252; 2214.350;   -9.732; 5252.382
869.814; 2131.192;   -9.432; 5297.141
870.377; 2128.451;  -11.552; 5390.919
870.939; 2212.345;   -9.052; 5599.898
871.501; 2278.399;  -10.982; 5248.336
872.063; 2297.348;  -12.292; 4854.235
872.626; 2277.300;  -14.912; 4817.074
873.188; 2246.557;  -13.112; 4987.732
873.750; 2198.622;  -13.442; 4868.651
874.312; 2115.592;   -9.402; 4779.330
874.874; 2040.417;  -11.062; 4866.348
875.436; 1974.455;  -13.931; 4718.887
875.998; 1967.254;   -9.561; 4660.005
876.560; 1976.582;  -11.321; 4462.964
877.122; 1970.740;  -12.221; 4145.042
877.683; 1974.310;  -12.191; 4056.481
878.245; 2010.605;  -12.101; 3950.740
878.807; 2082.992;   -8.971; 4058.958
879.369; 2003.219;  -12.071; 3954.677
879.930; 1651.862;  -14.621; 3941.495
880.492; 1283.564;  -10.311; 4067.014
881.053; 1001.625;  -10.901; 3859.633
881.615;  840.082;  -14.411; 3776.071
882.176;  837.203;  -13.761; 3734.750
882.738;  912.622;   -9.181; 3678.489
883.299;  973.886;  -11.791; 3405.407
883.860; 1022.101;  -13.121; 3351.106
884.422; 1056.175;  -11.211; 3394.044
884.983; 1053.662;  -10.091; 3166.443
885.544; 1004.071;   -8.461; 3189.802
886.105;  962.187;  -12.361; 3160.360
886.666;  944.896;  -14.141; 3093.059
887.227;  918.712;  -11.361; 2941.957
887.788;  857.009;  -11.401; 2974.836
888.349;  795.281;  -13.791; 2721.214
888.910;  804.178;  -13.191; 2696.493
889.471;  816.560;   -9.881; 2560.172
890.032;  797.606;   -9.881; 2558.190
890.593;  765.885;  -10.371; 2567.669
891.153;  746.287;  -13.301; 2460.307
891.714;  711.066;  -11.431; 2372.046
892.275;  684.446;  -11.291; 2309.505
892.835;  657.231;  -11.471; 2382.543
893.396;  608.244;  -11.541; 2295.502
893.956;  557.734;  -11.181; 2162.420
894.517;  519.958;  -11.741; 2125.439
895.077;  516.592;  -11.671; 2086.978
895.638;  521.027;  -11.311; 2126.316
896.198;  497.130;   -9.831; 1838.275
896.758;  449.853;   -8.421; 1892.813
897.319;  414.279;  -12.351; 1792.232
897.879;  402.087;  -13.511; 1762.751
898.439;  379.687;  -12.001; 1661.149
898.999;  353.049;  -10.180; 1781.468
899.559;  343.177;  -12.030; 1703.347
900.119;  341.494;  -15.710; 1537.525
900.679;  338.020;   -8.900; 1638.384
901.239;  324.387;   -8.340; 1527.902
901.799;  313.608;  -13.910; 1456.441
902.359;  306.221;  -13.460; 1357.140
902.919;  296.745;  -11.490; 1331.118
903.479;  282.393;  -12.110; 1317.257
904.038;  260.953;  -11.720; 1262.595
904.598;  246.604;  -13.610; 1152.034
905.158;  242.246;  -11.040; 1240.893
905.717;  234.024;  -10.900; 1233.691
906.277;  223.014;  -15.080; 1217.330
906.836;  213.786;  -13.380; 1222.408
907.396;  205.505;  -10.780; 1193.047
907.955;  198.855;   -8.500; 1182.526
908.515;  193.554;  -12.760; 1099.364
909.074;  187.137;  -11.900; 1092.863
909.633;  181.140;   -8.950; 1069.121
910.192;  177.942;   -8.770; 1196.460
910.752;  173.827;  -12.390; 1029.960
911.311;  169.593;  -13.680; 1009.780
911.870;  165.797;  -12.370;  971.460
912.429;  164.382;  -10.900; 1094.080
912.988;  160.294;  -11.690; 1081.060
913.547;  154.939;  -13.240;  940.380
914.106;  149.659;  -11.990;  999.420
914.665;  146.902;   -9.990;  984.020
915.224;  146.437;  -12.880; 1035.760
915.782;  146.479;  -12.350;  922.560
916.341;  147.251;   -9.110; 1049.840
916.900;  143.662;   -9.270;  925.260
917.458;  142.572;  -13.240;  884.220
918.017;  142.574;  -13.550;  942.600
918.576;  141.861;  -12.320;  904.440
919.134;  139.899;  -11.490;  837.980
919.693;  138.212;  -13.670;  893.060
920.251;  136.861;  -15.470;  876.500
920.809;  134.757;  -11.290;  839.580
921.368;  134.821;  -10.210;  885.360
921.926;  133.938;  -12.140;  842.940
922.484;  132.905;  -13.080;  903.360
923.042;  132.149;  -11.720;  880.340
923.601;  135.635;   -7.480;  998.680
924.159;  133.147;  -11.570;  935.560
924.717;  130.785;  -13.840;  841.080
925.275;  130.647;  -10.640;  903.240
925.833;  129.942;  -11.540;  779.320
926.391;  131.133;  -12.960;  938.380
926.949;  128.500;  -14.130;  857.680
927.506;  129.692;  -11.750;  903.500
928.064;  129.144;  -10.250;  877.580
928.622;  128.695;  -13.030;  880.100
929.180;  128.023;  -13.400;  814.180
929.737;  128.807;  -10.700;  808.540
930.295;  131.803;  -10.070;  928.480
930.853;  134.199;  -11.960;  849.100
931.410;  135.465;  -13.120;  821.120
931.968;  133.596;  -10.770;  940.660
932.525;  134.142;  -10.680;  909.380
933.082;  134.088;  -13.130;  811.440
933.640;  135.461;  -13.210;  925.900
934.197;  133.907;  -11.060;  886.360
934.754;  135.222;   -9.580;  897.780
935.312;  137.958;  -14.000;  863.340
935.869;  141.891;  -10.710; 1012.980
936.426;  140.740;   -9.860;  872.800
936.983;  141.394;   -9.710;  889.020
937.540;  140.930;  -13.990;  838.280
938.097;  140.563;  -14.040;  940.120
938.654;  141.608;  -10.310;  898.860
939.211;  143.373;  -10.560;  952.480
939.768;  146.094;  -13.900;  915.420
940.324;  150.189;  -14.760;  904.200
940.881;  151.269;  -10.370;  878.500
941.438;  152.143;   -8.260; 1021.200
941.995;  149.069;  -12.540;  992.560
942.551;  145.728;  -14.670;  875.620
943.108;  144.936;  -10.450;  937.920
943.664;  147.208;  -10.750;  869.340
944.221;  151.081;  -11.550; 1088.140
944.777;  149.723;  -14.770;  869.680
945.334;  150.849;  -12.820;  884.840
945.890;  152.797;  -10.130;  946.480
946.446;  153.657;  -13.470;  947.020
947.003;  154.884;  -12.120;  964.940
947.559;  156.061;   -9.980; 1063.040
948.115;  154.934;   -9.080; 1026.540
948.671;  152.616;  -10.830;  967.300
949.227;  149.852;  -12.440;  859.560
949.783;  147.819;  -12.910;  858.900
950.339;  149.291;  -10.270;  991.000
950.895;  149.488;  -13.630; 1023.840
951.451;  148.609;  -15.100;  925.280
952.007;  149.751;  -11.330;  998.540
952.563;  151.349;  -10.580;  937.780
953.118;  149.786;  -13.440;  904.940
953.674;  149.851;  -12.710;  935.780
954.230;  150.668;  -10.350;  949.640
954.785;  148.241;   -9.190;  936.640
955.341;  146.693;  -11.200;  998.160
955.897;  144.275;  -16.560;  834.660
956.452;  145.561;  -12.570;  953.840
957.008;  143.891;   -7.970; 1083.640
957.563;  141.145;  -11.940; 1009.540
958.118;  136.390;  -13.450;  877.700
958.674;  136.872;  -12.030;  946.780
959.229;  137.113;   -9.410; 1013.980
959.784;  134.758;  -12.000;  832.400
960.339;  133.501;  -14.780; 1001.280
960.894;  130.294;   -9.860;  963.760
961.449;  124.819;   -9.970;  859.960
962.004;  127.761;  -10.900; 1212.840
962.559;  122.749;  -13.150;  860.140
963.114;  120.840;  -13.740;  742.480
963.669;  120.040;   -9.820;  915.500
964.224;  118.042;  -13.890;  874.340
964.779;  117.835;  -12.600;  828.420
965.334;  117.649;  -10.950; 1017.860
965.888;  117.326;  -11.170;  875.360
966.443;  119.495;  -12.540;  972.380
966.998;  117.267;  -15.780;  819.460
967.552;  116.524;   -9.760;  908.380
968.107;  113.221;   -9.060;  868.300
968.661;  114.414;  -11.950;  922.440
969.216;  114.802;  -12.800;  856.280
969.770;  114.960;  -11.210;  917.200
970.324;  114.463;  -11.610;  923.140
970.879;  110.915;  -11.370;  947.180
971.433;  108.076;  -12.540;  952.720
971.987;  103.464;  -11.320;  895.340
972.541;   99.741;  -10.720;  917.100
973.095;  100.109;   -9.680; 1009.460
973.649;   98.569;  -11.440;  809.480
974.203;   98.234;  -11.210;  829.040
974.757;   99.397;  -10.240;  855.220
975.311;   99.567;  -13.720;  872.600
975.865;   99.691;  -13.770;  881.820
976.419;   97.763;  -11.690;  857.400
976.973;   97.507;   -9.510;  849.620
977.526;   98.153;  -12.620;  949.920
978.080;   99.542;  -12.010;  796.780
978.634;  100.046;  -10.170;  921.320
979.187;   98.212;   -9.020;  905.400
979.741;   95.246;   -9.820; 1018.380
980.294;   90.072;  -14.870;  789.160
980.848;   87.477;  -12.380;  717.220
981.401;   89.282;  -10.350;  816.540
981.955;   90.915;  -13.720;  844.300
982.508;   91.103;  -11.490;  746.340
983.061;   91.755;  -10.000;  915.260
983.615;   88.606;  -11.480;  798.800
984.168;   85.777;  -13.220;  770.080
984.721;   84.588;  -13.960;  880.760
985.274;   83.355;  -10.870;  867.500
985.827;   82.633;   -9.790;  834.220
986.380;   79.979;  -13.120;  721.340
986.933;   79.994;  -12.450;  864.800
987.486;   78.454;  -10.210;  861.920
988.039;   76.311;   -8.430;  863.100
988.591;   74.868;  -10.520;  893.260
989.144;   72.334;  -14.860;  737.260
989.697;   71.434;  -13.080;  758.740
990.250;   71.543;  -10.150;  858.100
990.802;   70.537;  -13.430;  755.860
991.355;   72.245;  -12.750;  974.880
991.907;   69.576;  -12.040;  864.320
992.460;   66.906;  -11.330;  753.760
993.012;   66.203;  -13.610;  749.540
993.565;   64.882;  -13.460;  711.360
994.117;   67.389;   -9.360;  950.780
994.669;   62.900;  -11.300;  701.320
995.221;   62.065;  -13.540;  791.920
995.774;   59.607;  -13.430;  787.580
996.326;   58.242;  -12.520;  740.220
996.878;   57.495;  -10.950;  838.420
997.430;   56.107;  -14.300;  699.860
997.982;   56.042;  -13.760;  750.140
998.534;   54.671;  -11.530;  739.060
999.086;   52.459;  -10.310;  738.220
999.638;   52.211;  -12.530;  661.380
1000.190;   51.912;  -11.840;  699.320
1000.741;   51.774;  -10.260;  742.700
1001.293;   50.698;   -8.860;  686.020
1001.845;   49.407;  -13.700;  676.640
1002.396;   49.655;  -12.100;  743.400
1002.948;   48.399;  -12.760;  737.400
1003.500;   47.371;  -10.380;  723.780
1004.051;   47.567;  -11.900;  907.580
1004.603;   46.079;  -12.250;  791.820
1005.154;   41.942;  -13.210;  608.980
1005.705;   41.694;  -10.950;  723.960
1006.257;   40.747;  -13.880;  707.220
1006.808;   40.927;  -12.840;  685.460
1007.359;   39.885;  -10.570;  763.240
1007.910;   38.946;   -9.620;  646.640
1008.461;   38.548;  -13.630;  732.940
1009.013;   38.066;  -17.200;  588.340
1009.564;   38.292;  -10.200;  793.520
1010.115;   36.426;  -12.570;  597.040
1010.665;   36.230;  -15.150;  602.160
1011.216;   36.732;  -14.480;  667.920
1011.767;   35.903;  -11.340;  697.920
1012.318;   36.347;   -9.780;  736.980
1012.869;   35.009;  -12.380;  679.000
1013.419;   34.285;  -15.560;  603.120
1013.970;   34.993;  -11.010;  666.640
1014.521;   33.423;  -11.610;  620.620
1015.071;   34.339;  -13.450;  670.380
1015.622;   34.116;  -13.870;  635.460
1016.172;   33.056;  -11.610;  596.820
1016.723;   32.774;  -12.120;  614.380
1017.273;   32.987;  -13.620;  604.160
1017.823;   32.937;  -14.140;  650.340
1018.374;   32.280;  -12.800;  611.760
1018.924;   32.401;  -12.340;  716.880
1019.474;   33.143;  -11.410;  718.880
1020.024;   31.115;  -14.770;  657.580
1020.574;   31.765;   -9.780;  726.160
1021.124;   32.389;   -8.560;  673.580
1021.674;   30.514;  -15.190;  559.120
1022.224;   31.904;  -13.530;  708.940
1022.774;   31.524;  -13.280;  668.820
1023.324;   31.976;  -10.690;  753.520
1023.874;   32.735;  -10.240;  875.760
1024.423;   30.225;  -12.540;  613.700
1024.973;   29.971;  -10.010;  610.760
1025.523;   29.122;  -10.550;  620.960
1026.072;   28.914;  -13.560;  606.420
1026.622;   28.908;  -15.120;  675.740
1027.172;   29.910;  -11.260;  715.660
1027.721;   28.551;  -11.410;  601.220
1028.270;   28.945;  -13.530;  663.400
1028.820;   28.959;  -13.680;  638.080
1029.369;   28.689;  -13.520;  612.700
1029.918;   28.287;  -10.980;  649.840
1030.468;   28.030;  -13.530;  564.780
1031.017;   28.482;  -13.170;  634.800
1031.566;   27.222;  -12.200;  608.900
1032.115;   27.605;   -9.960;  694.500
1032.664;   26.256;  -13.210;  596.480
1033.213;   27.748;  -12.500;  735.420
1033.762;   26.451;  -11.910;  635.620
1034.311;   26.481;   -9.640;  677.220
1034.860;   27.069;  -13.310;  691.000
1035.408;   27.606;  -11.830;  722.720
1035.957;   26.743;  -12.000;  719.540
1036.506;   25.131;  -11.690;  530.800
1037.055;   27.255;  -10.990;  844.320
1037.603;   25.997;  -15.120;  664.000
1038.152;   24.309;  -12.450;  534.760
1038.700;   24.493;  -10.560;  585.740
1039.249;   24.562;  -11.080;  681.220
1039.797;   25.581;  -12.540;  633.360
1040.345;   25.101;  -11.920;  705.420
1040.894;   24.407;  -11.410;  625.300
1041.442;   25.250;  -14.320;  632.200
1041.990;   23.614;  -16.240;  559.160
1042.538;   23.111;  -11.680;  536.180
1043.087;   22.975;  -10.760;  570.860
1043.635;   24.547;  -11.850;  670.500
1044.183;   24.251;  -15.480;  586.400
1044.731;   22.140;  -11.770;  576.000
1045.279;   22.828;  -13.090;  674.920
1045.827;   24.910;  -12.440;  892.400
1046.374;   22.473;  -13.840;  515.420
1046.922;   21.517;  -13.220;  590.580
1047.470;   23.485;  -10.230;  691.300
1048.018;   23.154;  -14.590;  647.960
1048.565;   22.892;  -12.050;  708.600
1049.113;   21.435;  -11.650;  557.000
1049.660;   21.260;  -10.510;  629.660
1050.208;   21.540;  -13.310;  675.640
1050.755;   21.182;  -15.900;  606.580
1051.303;   21.579;  -11.430;  686.820
1051.850;   20.272;   -8.480;  635.120
1052.397;   19.348;  -15.010;  473.960
1052.945;   20.875;  -13.960;  617.760
1053.492;   21.433;  -13.150;  741.840
1054.039;   21.927;   -9.630;  720.180
1054.586;   20.432;  -13.680;  557.240
1055.133;   20.519;  -14.570;  693.140
1055.680;   20.845;  -13.820;  646.620
1056.227;   19.208;  -11.730;  542.780
1056.774;   20.771;  -12.480;  794.980
1057.321;   19.059;  -13.930;  523.260
1057.868;   19.515;  -11.690;  651.320
1058.415;   19.651;   -9.520;  651.980
1058.961;   19.749;  -13.160;  678.940
1059.508;   18.883;  -12.920;  643.820
1060.055;   19.583;  -11.920;  581.780
1060.601;   19.751;  -11.500;  624.300
1061.148;   19.166;  -14.330;  616.820
1061.694;   18.628;  -16.870;  592.580
1062.241;   18.750;  -10.330;  596.320
1062.787;   18.671;  -10.620;  663.140
1063.334;   20.119;  -10.110;  808.560
1063.880;   18.750;  -13.400;  668.360
1064.426;   18.574;  -10.680;  706.820
1064.972;   16.910;   -9.920;  601.340
1065.518;   16.811;  -10.980;  566.640
1066.065;   18.217;  -14.890;  624.460
1066.611;   16.747;  -12.870;  598.800
1067.157;   17.706;  -12.950;  641.860
1067.703;   17.780;  -13.540;  668.480
1068.249;   17.614;  -13.540;  605.220
1068.794;   16.570;  -12.600;  626.880
1069.340;   15.892;  -10.620;  578.960
1069.886;   16.649;  -12.830;  590.700
1070.432;   15.686;  -14.870;  541.720
1070.977;   16.422;  -11.980;  601.080
1071.523;   15.984;   -8.200;  573.060
1072.068;   16.260;  -12.330;  582.000
1072.614;   15.580;  -16.370;  527.760
1073.160;   16.969;  -11.100;  687.040
1073.705;   14.959;  -10.480;  572.520
1074.250;   15.585;  -14.520;  559.900
1074.796;   16.593;  -11.460;  655.160
1075.341;   16.097;  -11.950;  664.100
1075.886;   14.488;  -11.460;  594.240
1076.431;   14.809;  -13.770;  649.880
1076.976;   15.029;  -12.680;  639.220
1077.521;   14.239;  -13.170;  583.080
1078.067;   13.785;  -10.860;  579.400
1078.612;   15.205;  -13.920;  661.620
1079.156;   14.151;  -13.880;  601.540
1079.701;   14.975;  -13.120;  693.260
1080.246;   15.085;   -9.940;  696.300
1080.791;   14.104;  -14.740;  625.020
1081.336;   14.458;  -13.750;  659.320
1081.880;   14.213;  -13.400;  649.680
1082.425;   13.130;  -12.220;  573.480
1082.970;   14.488;  -11.610;  717.040
1083.514;   13.869;  -13.580;  597.000
1084.059;   12.462;  -12.810;  586.720
1084.603;   12.218;  -12.320;  565.840
1085.147;   14.325;  -13.190;  645.220
1085.692;   13.891;  -12.480;  716.800
1086.236;   12.435;  -13.020;  503.140
1086.780;   14.644;   -9.190;  751.440
1087.325;   13.558;  -12.480;  654.620
1087.869;   12.841;  -12.450;  610.700
1088.413;   13.384;  -12.240;  705.040
1088.957;   11.124;   -9.020;  543.400
1089.501;   13.131;  -10.320;  766.640
1090.045;   12.576;  -12.720;  726.480
1090.589;   10.972;  -13.690;  569.920
1091.133;   11.902;  -10.020;  673.340
1091.676;   12.354;  -12.330;  591.940
1092.220;   11.658;  -14.970;  600.920
1092.764;   12.759;  -12.430;  706.960
1093.307;   11.309;   -9.800;  673.780
1093.851;   11.152;  -14.970;  556.540
1094.395;   11.842;  -15.310;  683.140
1094.938;   10.618;  -10.370;  632.520
1095.482;   11.058;  -11.050;  559.800
1096.025;   12.040;  -11.840;  710.880
1096.568;   12.116;  -12.840;  779.280
1097.112;    8.862;  -14.700;  508.180
1097.655;   10.755;   -8.720;  603.000
1098.198;    9.759;  -13.610;  600.180
1098.741;    9.613;  -13.350;  612.860
1099.285;   11.473;  -11.230;  657.300
1099.828;    9.270;  -11.840;  439.400
1100.371;   10.420;  -10.840;  608.160
1100.914;   10.206;  -14.190;  682.660
1101.457;   10.330;  -11.240;  679.900
1101.999;    8.128;  -11.270;  584.680
1102.542;    9.438;  -11.480;  641.440
1103.085;    9.961;  -11.750;  658.500
1103.628;   10.470;  -11.400;  762.060
1104.170;    9.116;  -10.490;  588.280
1104.713;    9.599;  -10.600;  646.700
1105.256;    9.171;  -14.360;  557.440
1105.798;    8.182;  -13.210;  499.980
1106.341;    9.627;  -10.270;  728.900
1106.883;    8.097;  -12.200;  521.340
1107.425;    8.632;  -13.110;  668.180
1107.968;    8.490;  -12.840;  612.380
1108.510;    8.192;   -6.480;  684.960
1109.052;    7.790;  -13.940;  612.620
1109.594;    7.877;  -13.690;  554.440
1110.136;    8.559;  -11.880;  643.220
1110.679;    6.827;   -9.500;  633.080
1111.221;    8.354;  -14.160;  604.460
1111.763;    8.029;  -13.980;  559.220
1112.304;    6.623;  -13.880;  547.140
1112.846;    7.869;  -12.210;  666.240
1113.388;   10.434;  -11.390;  942.180
1113.930;    7.498;  -14.540;  694.200
1114.472;    6.764;  -12.640;  606.540
1115.013;    6.073;  -11.620;  551.280
1115.555;    6.286;  -13.640;  587.100
1116.097;    5.256;  -15.380;  579.480
1116.638;    7.066;  -12.640;  684.600
1117.180;    7.317;   -9.850;  667.740
1117.721;    6.126;  -13.690;  568.580
1118.262;    7.714;  -12.680;  677.960
1118.804;    7.764;  -12.530;  637.340
1119.345;    5.816;  -11.690;  578.400
1119.886;    8.011;  -13.380;  704.040
1120.427;    5.809;  -14.070;  589.020
1120.969;    5.610;  -13.500;  597.920
1121.510;    4.801;  -11.480;  563.060
1122.051;    5.227;  -12.830;  723.580
1122.592;    5.259;  -14.290;  655.420
1123.133;    4.261;  -12.400;  547.940
1123.673;    6.352;  -10.130;  706.480
1124.214;    5.638;  -12.930;  612.460
1124.755;    6.045;  -14.380;  639.460
1125.296;    5.781;  -14.000;  627.320
1125.836;    6.111;  -10.070;  691.500
1126.377;    5.079;  -12.640;  599.660
1126.918;    5.905;  -12.960;  614.980
1127.458;    4.634;  -13.350;  622.220
1127.999;    5.814;  -10.750;  656.980
1128.539;    5.173;  -12.350;  694.240
1129.079;    3.963;  -14.860;  632.720
1129.620;    4.178;  -13.840;  558.100
1130.160;    3.780;  -12.330;  539.480
1130.700;    4.781;  -14.530;  640.840
1131.240;    5.260;  -12.530;  643.700
1131.781;    4.135;  -14.450;  619.680
1132.321;    4.051;   -9.790;  599.120
1132.861;    2.850;  -14.860;  564.200
1133.401;    3.274;  -14.290;  593.940
1133.941;    4.642;  -11.750;  626.280
1134.481;    2.933;   -9.920;  597.580
1135.020;    3.324;  -12.290;  609.160
1135.560;    4.019;  -11.650;  674.940
1136.100;    3.373;  -16.270;  501.160
1136.640;    2.990;  -10.890;  510.480
1137.179;    3.303;  -14.180;  537.960
1137.719;    3.437;  -16.250;  605.400
1138.258;    2.732;  -14.230;  587.360
1138.798;    3.246;   -9.090;  663.780
1139.337;    2.181;  -15.130;  482.840
1139.877;    3.205;  -13.680;  642.360
1140.416;    5.180;  -11.320;  878.060
1140.955;    1.689;  -10.860;  535.380
1141.494;    2.830;  -12.920;  669.280
1142.034;    2.305;  -13.930;  583.520
1142.573;    3.214;  -11.440;  646.280
1143.112;    1.736;  -12.000;  553.480
1143.651;    2.439;  -13.670;  536.480
1144.190;    3.074;  -12.730;  691.640
1144.729;    2.136;  -14.560;  607.420
1145.267;    1.549;  -11.830;  584.900
1145.806;    3.317;  -12.230;  637.040
1146.345;    1.731;  -14.130;  635.020
1146.884;    1.276;  -11.590;  622.500
1147.422;    0.463;  -12.550;  533.060
1147.961;    3.126;  -11.180;  708.460
1148.500;    2.668;  -11.510;  669.720
1149.038;    2.248;  -11.640;  632.500
1149.577;    1.794;  -10.130;  698.640
1150.115;   -0.014;  -13.970;  452.280
1150.653;    1.135;  -14.520;  607.340
1151.192;    1.440;  -12.810;  552.920
1151.730;    1.009;   -9.100;  652.560
1152.268;    1.074;  -12.220;  589.520
1152.806;    0.824;  -14.140;  571.180
1153.344;   -0.021;  -12.350;  577.640
1153.882;    0.465;   -8.980;  600.060
1154.421;   -0.803;  -15.190;  470.620
1154.958;    0.308;  -15.210;  595.240
1155.496;    1.214;  -12.850;  645.280
1156.034;    0.618;   -9.940;  721.880
1156.572;    1.514;  -13.570;  667.060
1157.110;    0.138;  -14.590;  473.940
1157.647;    1.025;  -13.030;  676.960
1158.185;   -0.995;  -12.140;  564.320
1158.723;   -0.493;  -14.390;  509.200
1159.260;    1.092;  -14.090;  701.700
1159.798;    0.593;  -11.920;  658.160
1160.335;   -0.186;  -11.110;  631.820

