
Integration time [ms]:   3.276
Averaging Nr. [scans]: 1000
Smoothing Nr. [pixels]: 0
Data measured with spectrometer [name]: 7414430SP
Wave   ;Sample   ;Dark     ;Reference
[nm]   ;[counts] ;[counts] ;[counts] 

288.544;  150.741;    7.793;  793.890
289.143;  154.552;    7.462;  681.602
289.742;  154.589;    8.602;  828.814
290.341;  139.724;    1.321;  789.841
290.940;  128.591;   -0.709;  730.702
291.538;  129.812;    0.881;  881.108
292.137;  130.740;    0.122;  792.581
292.736;  135.080;   -1.929;  975.101
293.335;  130.712;   -8.229;  735.086
293.934;  130.953;   -5.279;  781.677
294.532;  129.755;   -1.369; 1031.958
295.131;  116.531;   -7.641;  834.394
295.730;  116.092;   -8.420;  809.588
296.328;  115.258;   -5.611;  783.442
296.927;  116.252;   -5.781;  779.652
297.525;  117.404;   -6.361;  781.236
298.124;  107.060;  -11.382;  654.009
298.722;  110.871;   -7.641;  761.933
299.321;  108.844;   -6.811;  708.597
299.919;  107.635;   -6.991;  751.918
300.518;  104.133;  -10.362;  689.338
301.116;  105.444;   -9.581;  691.381
301.715;  105.821;   -4.891;  730.222
302.313;  104.370;   -8.801;  704.943
302.911;   99.790;   -8.522;  733.830
303.509;  105.429;   -6.171;  925.627
304.108;  102.603;   -7.311;  760.383
304.706;  101.667;   -8.321;  801.664
305.304;   96.432;  -10.222;  796.707
305.902;  101.531;   -6.021;  784.484
306.500;   97.696;   -4.971;  728.200
307.098;   96.303;   -7.061;  746.560
307.696;   94.478;   -8.801;  780.432
308.294;   95.654;   -6.411;  731.359
308.892;   97.163;   -2.901;  759.769
309.490;   92.708;   -5.041;  712.161
310.088;   91.039;   -5.002;  788.444
310.686;   95.503;   -2.041;  821.749
311.284;   90.609;   -2.351;  766.040
311.882;   88.907;   -4.422;  731.225
312.480;   85.506;   -4.192;  697.167
313.078;   87.311;   -1.172;  808.331
313.675;   87.889;   -2.601;  691.600
314.273;   83.096;   -1.312;  797.837
314.871;   82.422;   -3.942;  589.829
315.468;   80.390;   -2.802;  652.090
316.066;   83.181;   -0.701;  694.427
316.664;   76.870;   -4.362;  656.351
317.261;   80.576;   -2.872;  910.128
317.859;   75.846;   -2.022;  768.735
318.456;   75.685;   -0.531;  830.096
319.054;   72.612;   -3.912;  787.828
319.651;   71.309;   -4.752;  759.928
320.249;   69.741;   -2.602;  810.188
320.846;   67.585;   -0.821;  714.286
321.443;   64.892;   -4.642;  832.135
322.041;   62.139;   -5.002;  812.315
322.638;   59.264;   -3.982;  701.456
323.235;   61.178;   -3.411;  665.683
323.833;   58.766;   -7.361;  740.354
324.430;   53.414;   -8.611;  615.900
325.027;   54.632;   -4.061;  876.855
325.624;   53.002;   -4.031;  644.532
326.221;   51.797;   -7.481;  689.717
326.818;   51.425;   -5.281;  818.332
327.415;   54.637;   -7.460;  748.828
328.012;   53.763;   -5.510;  690.585
328.609;   52.037;   -7.880;  731.389
329.206;   49.505;   -8.331;  778.621
329.803;   49.630;   -5.121;  737.841
330.400;   52.831;   -4.510;  704.260
330.997;   54.729;   -6.441;  817.147
331.594;   52.809;   -8.831;  788.185
332.191;   58.518;   -7.621;  728.722
332.787;   61.983;   -4.591;  844.463
333.384;   60.152;   -7.412;  763.093
333.981;   57.588;   -8.293;  815.687
334.578;   61.131;   -7.052;  708.378
335.174;   63.682;   -3.102;  731.469
335.771;   63.674;   -5.943;  836.456
336.367;   60.509;   -7.393;  710.631
336.964;   64.509;   -4.063;  793.266
337.561;   62.262;   -3.813;  731.112
338.157;   58.315;   -4.654;  911.916
338.754;   55.253;   -7.934;  796.589
339.350;   53.907;   -4.414;  722.493
339.946;   55.940;   -4.664;  773.135
340.543;   48.192;   -6.375;  846.136
341.139;   41.957;   -9.815;  720.836
341.735;   40.437;   -4.526;  772.593
342.332;   39.028;   -4.895;  691.472
342.928;   38.856;   -4.295;  795.394
343.524;   33.665;   -5.476;  761.684
344.120;   29.655;   -5.856;  738.562
344.716;   32.692;   -2.155;  723.717
345.313;   30.876;   -6.275;  795.342
345.909;   24.931;   -8.815;  627.336
346.505;   27.337;   -5.305;  740.247
347.101;   27.369;   -2.674;  827.864
347.697;   27.744;   -4.344;  785.398
348.293;   22.590;   -9.975;  627.244
348.889;   23.348;   -5.774;  745.914
349.485;   22.799;   -5.004;  688.205
350.081;   23.466;   -4.704;  772.592
350.676;   18.807;   -6.635;  691.606
351.272;   22.140;   -4.504;  809.530
351.868;   22.403;   -3.914;  780.497
352.464;   19.871;   -9.044;  723.932
353.059;   15.595;   -8.314;  646.017
353.655;   19.026;   -7.024;  777.063
354.251;   20.677;   -5.343;  759.845
354.846;   14.968;   -8.604;  740.646
355.442;   13.013;   -6.945;  753.071
356.038;   15.166;   -7.564;  751.708
356.633;   13.942;   -5.814;  728.594
357.229;   12.337;   -7.364;  724.757
357.824;   11.058;   -8.024;  703.600
358.420;    9.491;   -9.384;  679.726
359.015;   10.374;   -5.104;  695.357
359.610;   11.355;   -6.854;  763.920
360.206;    4.952;  -10.185;  603.240
360.801;    8.180;   -7.054;  646.503
361.396;   10.910;   -5.034;  725.975
361.992;    5.780;   -8.284;  668.220
362.587;    3.893;   -8.625;  670.160
363.182;    5.674;   -7.674;  689.631
363.777;    5.856;   -5.164;  738.242
364.372;    5.821;   -8.604;  737.314
364.967;    1.503;   -9.055;  680.744
365.563;    6.103;   -6.114;  815.567
366.158;    3.660;   -5.814;  685.161
366.753;    4.234;   -7.854;  649.263
367.348;    1.978;   -7.804;  746.056
367.942;    1.968;   -7.954;  697.298
368.537;    1.164;   -4.984;  754.245
369.132;    0.814;   -8.564;  703.428
369.727;   -2.476;   -8.855;  638.079
370.322;   -1.600;   -6.245;  580.186
370.917;   -2.072;   -6.425;  710.646
371.511;    1.523;   -6.294;  861.834
372.106;   -2.990;   -7.685;  776.964
372.701;   -5.491;   -7.335;  585.988
373.296;    0.045;   -4.564;  863.135
373.890;   -4.507;  -10.235;  647.840
374.485;   -6.475;   -7.885;  691.199
375.079;   -3.324;   -7.324;  738.685
375.674;   -2.522;   -3.494;  812.970
376.268;   -5.951;   -8.525;  691.759
376.863;  -11.825;  -10.086;  580.327
377.457;   -5.811;   -7.025;  662.490
378.052;   -7.576;   -3.585;  764.884
378.646;   -8.260;   -7.595;  741.167
379.240;   -9.158;   -8.335;  721.176
379.835;   -8.070;   -5.785;  636.978
380.429;   -9.721;   -4.335;  562.557
381.023;   -9.828;   -6.805;  779.205
381.617;  -12.439;   -9.195;  680.106
382.212;   -8.742;   -6.905;  685.303
382.806;   -8.375;   -3.745;  760.690
383.400;  -12.071;   -7.745;  672.281
383.994;  -13.069;   -9.765;  664.870
384.588;   -9.439;   -6.564;  697.701
385.182;   -7.522;   -5.344;  726.624
385.776;   -9.610;   -8.514;  706.875
386.370;  -12.551;   -9.555;  681.968
386.964;  -11.673;   -8.715;  684.155
387.558;  -10.444;   -6.174;  598.360
388.152;  -13.108;   -8.725;  681.959
388.745;  -11.707;   -7.965;  814.707
389.339;   -9.630;   -5.924;  747.642
389.933;   -9.117;   -5.524;  695.370
390.527;  -10.293;   -7.114;  859.029
391.120;  -15.960;  -10.725;  595.318
391.714;  -12.966;   -8.035;  711.633
392.308;  -10.540;   -3.574;  780.253
392.901;  -13.878;   -7.245;  642.460
393.495;  -16.165;   -9.285;  595.414
394.089;  -13.279;   -5.895;  760.452
394.682;  -13.485;   -4.295;  697.188
395.275;  -14.975;   -9.875;  719.927
395.869;  -16.203;   -8.485;  667.314
396.462;  -14.686;   -7.455;  616.609
397.056;  -10.673;   -5.424;  776.621
397.649;  -15.431;   -6.605;  731.575
398.242;  -12.903;   -8.224;  712.645
398.836;  -12.078;   -7.474;  766.408
399.429;  -14.077;   -7.094;  631.041
400.022;  -16.498;   -9.475;  665.902
400.615;  -14.069;   -7.145;  805.609
401.208;  -11.539;   -7.174;  691.451
401.802;  -14.557;   -5.515;  699.329
402.395;  -15.379;   -9.875;  683.502
402.988;  -16.929;   -8.845;  696.627
403.581;  -13.487;   -8.874;  646.878
404.174;  -11.311;   -5.324;  686.568
404.767;  -13.679;   -9.575;  638.583
405.360;  -16.299;  -10.965;  621.445
405.953;  -11.036;   -8.764;  759.034
406.545;  -10.677;   -7.514;  725.342
407.138;  -14.675;  -10.025;  618.350
407.731;  -13.576;  -10.034;  613.303
408.324;   -9.394;   -9.374;  660.554
408.917;  -10.898;   -6.534;  681.864
409.509;  -12.043;   -8.004;  740.396
410.102;  -14.181;   -9.875;  643.948
410.695;   -8.849;   -8.604;  665.758
411.287;   -9.276;   -6.794;  599.821
411.880;  -11.276;   -9.334;  585.421
412.472;  -14.016;  -10.254;  613.092
413.065;  -10.865;   -6.714;  629.408
413.657;   -9.023;   -7.234;  576.678
414.250;   -8.308;  -10.544;  646.681
414.842;  -11.109;   -9.744;  676.353
415.434;   -8.061;   -6.994;  570.463
416.027;   -4.371;   -5.893;  652.196
416.619;   -5.988;   -7.264;  713.400
417.211;   -6.860;  -10.374;  599.352
417.804;   -2.630;   -7.993;  628.499
418.396;   -7.631;   -7.234;  607.643
418.988;   -4.809;   -9.443;  659.238
419.580;   -8.123;  -10.724;  568.276
420.172;   -6.338;  -10.323;  536.196
420.764;   -1.800;   -8.793;  672.482
421.356;   -3.023;  -11.143;  636.898
421.948;   -3.577;   -8.293;  677.661
422.540;    0.483;   -7.893;  680.027
423.132;    0.596;   -7.082;  600.641
423.724;   -2.901;   -8.653;  561.267
424.316;   -0.998;  -10.213;  621.345
424.908;    2.895;   -9.762;  591.517
425.500;    2.366;   -5.572;  647.978
426.092;    3.366;   -8.422;  648.268
426.683;    2.903;   -9.283;  684.836
427.275;    5.195;   -7.852;  641.471
427.867;    6.619;   -5.272;  668.948
428.458;    6.980;   -7.682;  732.344
429.050;    5.157;  -10.612;  680.749
429.642;    8.331;   -9.882;  743.124
430.233;    8.570;   -6.962;  569.356
430.825;   10.144;   -6.842;  724.809
431.416;    6.402;   -9.672;  698.241
432.008;   11.361;   -6.552;  651.723
432.599;   11.447;   -6.891;  656.073
433.190;    8.827;  -10.912;  637.670
433.782;    8.362;  -11.172;  590.395
434.373;   15.497;   -6.061;  884.765
434.964;   13.164;   -8.251;  602.920
435.556;   11.541;   -9.722;  634.537
436.147;   14.334;   -9.082;  758.490
436.738;   14.141;   -8.041;  701.099
437.329;   19.397;   -7.341;  721.723
437.920;   12.039;   -8.162;  666.688
438.511;   12.680;  -11.802;  564.526
439.103;   18.132;  -10.191;  623.998
439.694;   20.296;   -7.601;  681.583
440.285;   21.094;   -8.541;  764.432
440.876;   19.780;   -9.751;  845.738
441.466;   18.889;   -9.401;  575.162
442.057;   24.494;   -7.760;  665.814
442.648;   23.858;   -9.971;  746.255
443.239;   21.343;  -11.001;  620.477
443.830;   26.852;   -7.990;  704.958
444.421;   28.444;   -7.910;  655.474
445.011;   24.626;   -8.131;  693.619
445.602;   24.265;   -7.111;  743.126
446.193;   26.575;  -10.920;  488.117
446.783;   30.942;   -6.500;  640.397
447.374;   26.657;   -8.671;  692.759
447.964;   27.140;  -10.781;  713.770
448.555;   34.861;   -9.650;  822.742
449.145;   32.104;   -8.660;  662.853
449.736;   31.897;   -8.990;  803.179
450.326;   32.206;   -9.500;  713.626
450.917;   36.907;   -8.680;  675.324
451.507;   35.905;   -7.520;  600.661
452.097;   36.972;   -8.590;  746.267
452.688;   38.301;  -11.340;  742.160
453.278;   37.061;  -10.100;  566.840
453.868;   42.566;   -6.019;  793.550
454.458;   39.560;   -9.440;  651.141
455.048;   40.669;  -10.560;  711.783
455.639;   41.437;  -11.799;  567.096
456.229;   45.520;   -6.899;  710.694
456.819;   47.039;   -7.389;  751.158
457.409;   47.009;  -11.119;  773.993
457.999;   50.355;   -9.289;  737.505
458.589;   50.498;   -6.139;  686.606
459.179;   50.656;   -8.729;  717.658
459.769;   47.826;   -9.789;  627.099
460.358;   53.274;  -10.259;  797.262
460.948;   52.725;   -7.299;  689.503
461.538;   54.261;  -10.289;  660.677
462.128;   51.911;  -11.269;  664.934
462.717;   58.912;   -9.368;  710.326
463.307;   62.019;   -7.908;  705.846
463.897;   57.418;   -9.599;  656.942
464.486;   57.593;   -9.769;  837.128
465.076;   61.826;   -8.048;  733.776
465.666;   65.026;   -9.358;  652.900
466.255;   63.121;   -7.919;  785.651
466.845;   62.585;  -11.689;  666.749
467.434;   64.865;   -7.818;  725.873
468.023;   66.133;   -7.678;  658.357
468.613;   63.969;  -10.939;  713.946
469.202;   67.681;  -10.118;  646.507
469.791;   72.132;   -9.108;  737.811
470.381;   73.963;   -6.058;  742.813
470.970;   73.348;  -10.428;  711.099
471.559;   73.766;  -10.268;  733.291
472.148;   76.374;   -8.448;  675.737
472.738;   79.840;   -6.917;  765.466
473.327;   78.989;  -11.978;  637.529
473.916;   78.670;  -11.888;  737.446
474.505;   82.116;   -9.437;  751.703
475.094;   85.372;   -6.747;  806.570
475.683;   84.632;   -9.367;  797.699
476.272;   85.259;  -12.637;  730.632
476.861;   88.920;  -10.027;  706.754
477.449;   94.675;   -8.716;  728.487
478.038;   89.807;   -9.577;  692.513
478.627;   90.474;   -9.718;  714.852
479.216;   97.292;   -8.947;  769.441
479.805;   99.543;   -6.256;  783.375
480.393;   99.933;   -7.937; 1008.945
480.982;   98.392;   -7.717;  874.501
481.571;  105.588;   -9.266;  858.333
482.159;  105.385;   -7.636;  705.386
482.748;  105.281;   -9.667;  821.385
483.336;  108.986;  -10.376;  858.209
483.925;  111.482;   -7.147;  774.373
484.513;  117.429;   -7.996;  758.962
485.102;  114.381;  -10.027;  810.965
485.690;  122.765;  -10.446; 1011.050
486.278;  124.594;   -8.446;  979.329
486.867;  124.587;   -6.356;  809.662
487.455;  127.406;   -9.136;  898.229
488.043;  128.524;  -10.646;  748.361
488.631;  137.313;   -7.456; 1005.079
489.220;  140.994;   -6.636;  908.626
489.808;  141.873;  -11.036;  741.415
490.396;  149.333;  -10.246;  914.645
490.984;  155.539;   -8.556;  830.161
491.572;  165.567;   -5.886;  940.315
492.160;  171.405;   -9.486;  919.081
492.748;  183.351;  -10.976;  884.341
493.336;  207.276;   -8.776; 1019.693
493.924;  234.542;   -5.465;  958.077
494.512;  263.478;   -9.986; 1066.638
495.100;  302.574;  -10.636; 1103.280
495.687;  357.231;  -10.885; 1206.373
496.275;  419.020;   -8.126; 1150.796
496.863;  485.189;  -10.586; 1281.171
497.451;  586.093;  -11.926; 1386.805
498.038;  732.844;  -10.885; 1556.729
498.626;  853.059;   -6.315; 1741.407
499.214;  995.754;   -7.326; 2016.609
499.801; 1197.814;  -11.906; 2220.633
500.389; 1461.065;  -10.466; 2312.494
500.976; 1811.862;   -5.236; 2744.849
501.564; 2220.602;   -8.936; 3148.565
502.151; 2591.697;  -13.176; 3515.999
502.738; 3068.095;  -10.646; 3971.274
503.326; 3466.480;   -9.525; 4403.796
503.913; 3927.411;  -10.856; 5161.749
504.500; 4272.226;  -11.586; 5986.420
505.088; 4675.482;  -10.336; 6381.201
505.675; 5223.602;   -6.355; 6925.547
506.262; 5836.229;   -9.046; 7619.060
506.849; 6595.353;  -10.416; 8733.969
507.436; 7079.734;  -10.305; 9790.121
508.023; 7466.291;   -5.496; 9985.472
508.610; 7726.292;   -7.856;10434.618
509.197; 8472.977;  -10.097;11198.435
509.784;10017.267;  -10.886;12391.194
510.371;11175.668;   -9.315;13603.713
510.958;11888.979;   -9.936;14426.586
511.545;12482.723;   -9.326;15243.775
512.132;12943.758;  -10.075;15945.876
512.719;13463.947;   -7.796;16340.369
513.305;14751.282;  -10.606;18011.766
513.892;15698.866;  -11.486;19754.971
514.479;17225.783;   -9.126;20967.805
515.066;18506.309;   -6.026;22299.793
515.652;19503.113;   -8.466;22908.660
516.239;20738.406;  -10.886;23798.875
516.825;21234.818;  -11.496;25567.275
517.412;22098.480;   -5.796;28154.959
517.998;23081.998;  -10.506;28344.111
518.585;23159.293;  -10.076;27134.219
519.171;23069.457;   -8.315;27268.576
519.758;24523.848;   -8.596;28964.129
520.344;26090.746;   -8.466;30664.494
520.930;26042.453;  -11.006;32550.605
521.516;27838.266;  -10.495;35422.895
522.103;30511.465;   -5.526;38280.004
522.689;31316.299;   -8.746;37835.117
523.275;30341.055;  -11.376;37288.613
523.861;30855.213;  -11.156;37281.395
524.447;32594.219;   -8.135;37846.949
525.033;32715.129;   -7.896;38321.949
525.619;33036.980;  -12.476;38579.285
526.205;34112.605;   -9.516;40622.875
526.791;36407.016;   -6.926;42258.836
527.377;36656.945;   -8.346;42966.902
527.963;38531.871;   -8.717;42018.949
528.549;37895.863;  -11.016;42476.828
529.135;35811.441;   -8.536;41854.852
529.721;35227.598;   -9.666;41237.711
530.306;34638.715;  -10.066;41259.445
530.892;34871.516;  -11.356;41506.047
531.478;35697.395;   -6.596;43559.613
532.063;37858.438;   -8.836;47695.563
532.649;38421.609;  -10.047;50808.324
533.235;40023.473;   -9.746;51787.500
533.820;41239.574;   -6.566;52145.035
534.406;41079.105;  -10.817;51133.488
534.991;40207.566;   -9.416;49996.805
535.576;39344.141;   -9.036;48882.852
536.162;40050.465;   -6.156;46942.285
536.747;40965.664;  -11.607;45711.746
537.333;44018.277;  -11.787;48510.180
537.918;46686.684;  -12.437;50439.891
538.503;45714.742;   -7.196;50863.711
539.088;43177.406;  -10.556;50906.922
539.673;44081.730;   -8.767;52621.965
540.259;44350.465;  -10.026;52368.094
540.844;41213.824;   -7.416;50879.109
541.429;41520.168;   -9.467;52077.777
542.014;44752.898;   -9.527;52716.695
542.599;45341.539;   -9.946;52363.281
543.184;41953.410;   -7.927;53187.137
543.769;42449.965;   -9.297;54697.605
544.354;42960.883;  -10.127;53913.914
544.938;42415.012;   -9.267;49680.164
545.523;44777.188;   -6.506;47386.277
546.108;46628.527;   -9.787;49151.949
546.693;48140.070;  -11.587;51384.637
547.278;48003.285;  -10.986;51853.254
547.862;44887.848;   -8.206;51173.750
548.447;40712.836;  -10.067;51691.395
549.031;39980.617;   -9.637;52456.703
549.616;44450.414;   -9.926;52714.516
550.201;44738.781;   -6.347;52414.598
550.785;44614.109;   -7.917;52355.059
551.370;44388.371;  -10.867;54589.453
551.954;44685.617;   -9.047;58267.348
552.538;46380.852;   -7.827;59062.176
553.123;45387.609;  -10.287;58115.285
553.707;43118.594;  -12.178;56556.285
554.291;43041.656;   -8.717;56201.668
554.876;43389.266;   -7.457;55335.762
555.460;44182.070;  -10.387;54155.703
556.044;46403.645;   -9.618;53721.484
556.628;44657.859;  -11.567;53731.016
557.212;44294.805;   -8.097;54312.531
557.796;42861.445;  -11.077;53797.773
558.380;43144.988;  -11.108;56145.984
558.964;43235.012;   -9.057;57277.930
559.548;43619.672;   -6.977;56459.641
560.132;42096.422;  -11.457;54434.543
560.716;41136.199;  -11.378;54800.617
561.300;41227.484;   -9.577;57606.945
561.884;42775.512;   -7.127;58972.445
562.467;42392.867;   -7.118;57327.570
563.051;41468.676;  -13.358;54962.434
563.635;41591.633;  -10.178;52594.473
564.219;42797.098;   -7.837;50610.410
564.802;43650.793;  -11.398;49551.180
565.386;43678.891;  -12.788;48370.953
565.969;43110.484;   -9.077;48178.871
566.553;42456.523;   -6.207;49957.305
567.136;42769.902;   -8.568;50369.594
567.720;39267.047;  -11.868;49492.004
568.303;37689.422;   -8.268;50616.352
568.887;37691.027;   -8.698;50727.148
569.470;38145.203;   -6.808;51698.379
570.053;36777.348;  -13.188;52122.078
570.637;35538.723;  -12.037;52536.438
571.220;35246.770;   -8.577;51186.098
571.803;35459.727;   -8.498;51032.762
572.386;37122.629;  -10.498;49609.887
572.969;40057.063;   -9.388;48285.926
573.552;38874.098;   -8.338;47624.285
574.135;37814.547;   -8.518;45498.641
574.718;34197.137;  -13.628;41970.434
575.301;32330.289;  -10.893;41447.137
575.884;30463.441;   -8.158;40923.836
576.467;31540.404;  -10.328;45267.723
577.050;35382.320;  -13.058;48175.543
577.633;37912.680;   -9.458;47729.328
578.216;37246.094;   -8.928;47579.793
578.799;36406.211;   -9.358;47820.996
579.381;34729.449;  -11.388;48115.551
579.964;32911.613;  -11.718;47333.766
580.547;33954.219;   -8.588;46668.969
581.129;34232.695;   -8.859;44466.141
581.712;34403.230;  -10.729;44164.922
582.294;35094.672;  -11.118;46477.855
582.877;36236.512;   -5.218;48244.254
583.459;34911.418;   -8.679;47437.895
584.042;33072.488;  -10.709;46943.219
584.624;33161.887;  -11.669;46792.227
585.206;32047.486;   -8.218;46557.250
585.789;32625.242;  -10.569;45793.773
586.371;35612.309;  -11.859;43836.391
586.953;35829.770;  -10.719;42972.492
587.536;36241.059;   -7.198;42487.211
588.118;36623.535;   -8.720;42086.414
588.700;33473.805;  -10.439;43389.930
589.282;32255.277;   -9.198;43646.039
589.864;32131.688;   -9.199;43438.109
590.446;33072.781;  -11.319;43151.926
591.028;31730.268;  -11.159;42781.867
591.610;29348.402;  -11.779;42839.098
592.192;25932.244;   -7.668;42820.402
592.774;25547.543;  -11.949;40724.277
593.356;26736.318;  -12.129;39874.789
593.937;27931.982;  -10.669;39980.648
594.519;30577.246;   -6.509;42069.633
595.101;32530.701;  -10.849;42976.031
595.683;32792.004;  -11.679;44084.441
596.264;34050.570;   -9.049;43478.797
596.846;32839.344;   -8.849;43803.672
597.427;31714.359;   -9.570;42986.934
598.009;33292.512;  -12.620;42832.219
598.591;33844.754;  -10.039;42580.086
599.172;33617.949;  -10.369;43061.805
599.753;33872.922;   -9.140;41691.469
600.335;35207.703;  -11.430;40692.520
600.916;33423.023;   -9.939;39982.422
601.498;31540.578;   -8.479;40318.617
602.079;30367.873;  -10.920;40670.609
602.660;30104.156;  -11.480;41450.898
603.241;30395.689;  -11.699;41137.738
603.823;28832.920;   -9.579;38868.797
604.404;29348.016;  -10.620;38182.785
604.985;30968.244;  -10.450;38078.047
605.566;30126.572;   -9.129;38056.633
606.147;29631.652;   -7.510;37020.418
606.728;32171.350;  -10.660;37883.359
607.309;31585.738;  -11.740;38748.273
607.890;30708.502;   -9.759;38850.230
608.471;30300.834;   -8.250;37457.918
609.051;29919.279;   -9.240;36066.457
609.632;28723.246;  -12.120;35991.074
610.213;29339.066;   -9.110;37402.641
610.794;29847.883;   -8.030;38383.363
611.374;28783.340;   -8.110;40562.387
611.955;28668.008;  -13.560;38533.727
612.536;30265.158;  -11.400;36951.789
613.116;30426.469;   -8.070;37197.891
613.697;31350.494;  -10.830;38411.125
614.277;29812.391;  -11.641;38673.938
614.858;30397.203;  -13.310;37075.863
615.438;30669.885;   -7.460;35092.906
616.019;28296.521;   -7.601;33666.301
616.599;28477.373;  -12.020;34189.023
617.179;30161.861;  -11.780;36952.047
617.760;30473.072;   -8.570;39582.574
618.340;31712.004;  -11.471;38943.977
618.920;33241.199;  -11.170;37594.156
619.500;32734.297;  -11.071;37866.938
620.080;32469.648;   -7.750;37869.043
620.660;33355.609;  -12.711;36868.617
621.241;34030.453;  -10.211;36352.309
621.821;33416.480;  -10.961;35459.520
622.401;33141.383;   -7.720;35207.414
622.980;32294.393;   -8.981;35980.422
623.560;30789.186;   -9.331;37351.328
624.140;30285.996;   -9.850;34388.582
624.720;26237.590;   -7.451;32368.764
625.300;22249.268;   -9.070;32638.629
625.880;24951.430;  -12.601;34599.035
626.459;28385.672;  -11.751;36831.738
627.039;31033.748;   -9.281;38299.098
627.619;31081.008;   -8.801;38289.574
628.198;29783.865;  -12.071;37220.695
628.778;29813.205;   -9.461;37632.563
629.357;30623.781;   -8.491;38003.012
629.937;30087.920;   -9.721;38402.039
630.516;29228.998;   -9.951;37868.801
631.096;29366.291;  -11.731;35760.410
631.675;32330.365;   -8.572;35225.219
632.254;37403.898;  -11.282;35130.289
632.834;36624.133;  -13.322;35794.570
633.413;35139.414;  -10.301;35788.922
633.992;32220.615;   -8.582;34532.863
634.571;33412.141;   -8.352;33590.113
635.151;35816.434;  -11.912;34943.863
635.730;33730.383;  -10.511;35352.523
636.309;30624.680;   -7.731;35366.605
636.888;28061.420;   -9.952;36165.637
637.467;28105.092;  -11.672;37515.902
638.046;30302.602;   -8.901;39288.695
638.625;33368.281;   -7.912;38279.699
639.204;33274.793;  -10.022;37741.598
639.782;31691.076;  -12.252;38364.551
640.361;28255.920;  -10.041;36740.621
640.940;25390.676;  -11.161;34950.082
641.519;25038.998;   -9.701;34137.398
642.097;27373.127;  -11.271;35654.258
642.676;30854.057;   -8.651;35637.957
643.255;32641.486;   -8.711;36567.074
643.833;31443.383;   -9.581;37809.434
644.412;31680.650;  -13.711;37337.293
644.990;31267.379;  -11.811;37018.531
645.569;31087.039;   -9.411;36518.469
646.147;29622.121;  -10.291;36186.430
646.726;28890.150;  -12.401;36267.688
647.304;30423.064;  -10.411;36647.625
647.882;31571.873;   -9.651;39286.742
648.461;32865.449;   -9.631;39157.703
649.039;32695.908;  -11.881;35412.883
649.617;32570.535;   -9.661;34744.918
650.195;32409.135;   -9.301;35403.098
650.773;31605.361;  -10.511;35053.797
651.352;29333.238;  -11.521;33756.816
651.930;26334.791;  -12.211;31868.773
652.508;23553.543;   -9.171;33121.551
653.086;26987.188;   -9.371;33564.793
653.663;30808.303;  -13.161;34054.668
654.241;29632.074;  -13.031;35693.309
654.819;30895.041;   -9.371;36422.906
655.397;30188.125;  -10.511;38213.484
655.975;29831.629;  -10.371;39507.625
656.553;30192.926;  -10.051;39498.223
657.130;29127.879;  -10.061;40395.480
657.708;29019.650;   -9.561;39242.020
658.286;28862.508;  -11.511;38920.020
658.863;29362.973;  -10.261;40202.898
659.441;31340.576;   -7.531;39677.938
660.018;30614.820;   -9.501;40413.355
660.596;30020.930;  -13.301;39931.414
661.173;31994.555;  -11.211;39604.531
661.750;32126.352;   -9.951;39700.070
662.328;31104.338;   -9.390;39292.809
662.905;30389.805;  -11.330;38235.648
663.482;26173.494;   -9.050;36212.305
664.060;23948.416;   -8.240;35944.945
664.637;26376.027;  -10.050;35170.785
665.214;28007.211;  -11.760;34197.523
665.791;29867.055;  -10.530;34549.520
666.368;29414.551;   -9.690;35118.578
666.945;29998.055;   -9.320;36019.418
667.522;31028.873;  -11.860;36048.438
668.099;31209.467;  -10.770;36243.914
668.676;30811.334;   -6.260;35958.875
669.253;29335.754;   -7.000;37384.730
669.830;29011.008;  -10.190;36779.629
670.407;28608.719;   -9.550;35231.289
670.984;29582.551;   -9.260;35544.270
671.560;29626.109;   -9.280;35466.867
672.137;28137.234;  -11.810;34280.863
672.714;29188.363;  -11.490;34632.863
673.290;29419.520;   -7.740;35135.422
673.867;29302.602;  -10.660;36114.480
674.443;29752.195;  -12.230;36152.859
675.020;27820.498;  -10.450;35327.238
675.596;29158.104;   -9.260;35795.176
676.173;30128.033;  -10.780;35430.355
676.749;29312.516;  -13.690;33549.516
677.326;29107.479;  -11.980;32210.012
677.902;29359.213;   -8.630;32068.871
678.478;28740.115;  -10.730;32583.891
679.054;28746.607;  -10.520;32088.928
679.631;30157.932;  -11.920;30978.848
680.207;30991.150;   -7.490;33160.887
680.783;32213.186;   -9.860;35570.363
681.359;31037.191;  -13.380;36125.184
681.935;29530.289;  -12.480;35240.922
682.511;28221.156;   -7.900;34429.961
683.087;28067.217;   -7.710;34463.680
683.663;28379.844;  -11.480;34648.898
684.239;28367.549;  -14.090;34546.457
684.815;28430.695;   -7.560;35586.375
685.390;28520.211;   -9.910;35821.895
685.966;28656.645;  -11.159;35085.871
686.542;31101.217;  -11.169;34198.230
687.118;33431.582;   -5.959;32847.707
687.693;33451.941;  -10.329;32794.027
688.269;32714.986;  -12.059;33072.367
688.844;30326.988;  -10.909;33141.664
689.420;28710.043;   -8.019;33965.742
689.995;27113.098;   -8.399;34655.523
690.571;26149.813;  -10.949;33576.742
691.146;26528.316;   -9.619;32657.219
691.722;25640.102;   -8.999;32526.979
692.297;24977.592;  -11.589;33014.617
692.872;26908.365;  -11.739;34012.254
693.448;27302.307;  -11.059;34237.434
694.023;25949.924;  -10.139;34142.672
694.598;27534.340;   -9.029;34132.031
695.173;27575.096;  -13.319;34205.250
695.748;27042.205;  -10.169;32882.488
696.323;26695.434;   -8.339;32864.906
696.898;26363.059;   -8.169;33170.004
697.473;26504.012;  -12.309;32432.984
698.048;26723.287;  -10.989;31649.303
698.623;27323.645;   -9.329;30778.141
699.198;28908.395;   -9.849;31140.119
699.773;29807.619;  -12.329;31764.299
700.348;28817.279;  -10.389;31780.816
700.922;29181.000;   -9.269;32046.375
701.497;29620.371;   -9.329;32603.574
702.072;29532.424;  -10.789;34799.871
702.646;28999.652;  -10.839;35793.172
703.221;27810.494;   -9.099;35201.590
703.795;29784.449;  -10.939;34764.527
704.370;29687.641;  -12.859;34307.367
704.944;29657.229;  -11.559;33509.887
705.519;30860.492;   -7.939;31388.584
706.093;32009.480;  -10.499;31340.104
706.668;31699.482;  -11.289;32630.281
707.242;29943.867;  -11.509;32728.779
707.816;28721.354;   -9.639;32947.238
708.390;27238.852;  -11.429;33277.855
708.965;27881.287;  -11.869;33834.336
709.539;28680.791;  -11.689;33709.273
710.113;29136.996;  -10.478;33044.313
710.687;28316.445;  -10.228;31953.992
711.261;25845.209;  -13.698;30505.949
711.835;25689.551;  -13.378;30262.369
712.409;26881.906;   -9.698;31254.447
712.983;28264.273;  -11.898;32754.986
713.557;29445.510;  -15.138;34018.824
714.131;29318.979;  -14.098;34579.625
714.704;28255.840;   -9.958;33890.262
715.278;25857.461;  -10.028;33531.102
715.852;25738.182;  -11.148;33601.660
716.425;26872.348;   -9.068;33515.117
716.999;27437.805;  -10.038;33185.555
717.573;28198.658;   -9.798;33905.996
718.146;29148.098;  -12.378;35199.293
718.720;29101.412;  -11.918;35060.551
719.293;28989.033;   -8.088;34973.230
719.867;31504.176;  -10.888;36394.449
720.440;31719.346;  -11.938;36663.008
721.013;30656.631;  -12.818;35102.426
721.587;29242.607;  -10.298;33985.266
722.160;26853.799;  -10.048;33524.965
722.733;25639.676;  -12.108;32987.043
723.306;26500.793;  -10.818;33066.301
723.880;28196.635;   -8.908;33399.500
724.453;29938.436;   -9.878;33468.297
725.026;29033.197;  -11.188;33816.637
725.599;26080.201;  -11.678;32797.996
726.172;26279.910;   -9.618;33187.434
726.745;27865.434;   -8.258;35136.613
727.318;29734.357;  -12.978;35751.730
727.891;30648.383;  -12.148;35890.430
728.463;30496.811;   -8.968;34822.090
729.036;29049.711;  -10.188;32895.086
729.609;29086.301;  -11.788;31823.225
730.182;25452.762;  -11.788;31445.283
730.754;22982.355;  -10.268;32373.223
731.327;23356.498;   -9.998;33676.820
731.900;23387.033;  -12.228;33417.000
732.472;24875.154;  -13.848;31978.498
733.045;27640.896;   -8.698;30368.777
733.617;27812.441;  -10.607;30574.215
734.190;27187.646;  -11.507;31280.975
734.762;24234.094;  -13.647;31674.412
735.334;22711.229;   -9.767;31247.291
735.907;23329.535;   -9.897;29876.211
736.479;23081.672;  -11.637;29808.488
737.051;22506.955;   -9.567;30233.547
737.623;23571.053;   -8.187;31469.086
738.195;24340.504;  -11.187;31784.225
738.768;25905.861;  -12.337;32120.523
739.340;25840.410;  -12.227;32094.342
739.912;24488.777;  -11.057;31312.680
740.484;23896.887;  -10.207;31946.238
741.056;22940.752;  -10.047;32984.059
741.628;24254.219;  -13.627;33897.715
742.199;26675.553;   -7.177;33213.016
742.771;25488.658;  -10.797;31369.113
743.343;23025.416;  -11.997;31865.473
743.915;21707.322;  -12.867;32388.631
744.487;21743.977;   -7.617;31079.568
745.058;22060.453;   -9.557;30570.107
745.630;23098.535;   -9.877;29970.127
746.201;24686.387;  -14.177;29186.766
746.773;25133.412;   -9.237;28805.723
747.344;24599.180;   -9.847;29591.223
747.916;22767.564;  -11.657;31412.201
748.487;21921.662;  -10.587;32194.898
749.059;23212.598;   -8.707;32533.719
749.630;24607.680;  -10.537;32158.518
750.201;24050.207;  -11.687;30855.395
750.773;22884.348;  -11.647;28622.555
751.344;23176.611;   -7.147;28405.732
751.915;24087.127;   -9.757;28461.551
752.486;22959.273;  -12.427;27842.850
753.057;20535.982;  -12.227;27845.008
753.628;19393.186;  -10.417;27728.107
754.199;20076.793;  -11.767;27381.086
754.770;21089.652;  -11.187;25882.203
755.341;21365.625;  -10.507;25886.184
755.912;21512.814;   -9.387;26050.861
756.483;21056.215;  -10.647;26798.779
757.054;19319.049;  -11.837;27048.238
757.625;17964.377;  -12.716;26294.838
758.195;17623.926;   -9.666;26142.076
758.766;17403.391;   -8.656;26392.234
759.337;18352.863;  -12.856;26334.594
759.907;20072.779;  -13.366;27579.652
760.478;21236.799;   -8.576;28352.770
761.048;21191.057;  -10.526;27325.088
761.619;20518.721;  -11.116;26460.428
762.189;19983.283;  -12.136;26029.826
762.760;20328.158;   -9.456;26430.145
763.330;21405.650;   -7.136;26670.902
763.900;20795.779;  -11.786;26603.021
764.471;17793.266;  -11.546;25542.740
765.041;16498.838;   -8.096;24358.459
765.611;17159.676;   -8.876;23991.297
766.181;17938.678;  -12.196;24470.236
766.751;18757.068;  -11.636;24845.975
767.321;18438.762;  -10.156;24533.633
767.891;16213.195;  -11.766;24916.492
768.461;15448.942;  -14.936;24776.771
769.031;15917.420;  -12.356;24757.988
769.601;17818.510;   -7.526;24181.088
770.171;18065.797;  -10.766;23670.387
770.741;17323.520;  -13.176;22960.045
771.311;17216.660;  -10.616;22917.523
771.880;17262.047;   -9.576;23562.941
772.450;16875.533;  -10.336;24216.500
773.020;16958.541;  -13.516;24140.398
773.589;16760.971;  -13.466;24414.857
774.159;16621.645;   -8.686;23858.717
774.729;16251.449;   -9.476;22942.135
775.298;15462.323;  -13.666;22324.033
775.867;14883.315;  -11.716;21140.313
776.437;14909.985;   -9.906;20838.092
777.006;14621.878;  -12.166;20599.510
777.576;14591.821;  -12.356;20508.809
778.145;14848.443;  -11.646;20732.947
778.714;14762.106;   -8.226;21062.465
779.283;13790.154;   -9.556;20949.664
779.853;13467.278;  -14.116;20508.623
780.422;14000.121;  -11.506;20649.082
780.991;13503.517;   -9.556;21527.520
781.560;12561.498;   -9.095;22632.658
782.129;12431.370;  -12.135;23048.277
782.698;12245.330;  -10.865;23438.555
783.267;11865.930;   -9.335;23267.734
783.836;11848.028;  -11.045;22415.133
784.404;12724.032;  -13.865;20443.152
784.973;12908.039;  -13.095;19699.150
785.542;12695.846;  -11.575;19763.828
786.111;12663.745;   -9.705;20341.408
786.679;12489.125;  -12.105;20207.967
787.248;12406.871;  -12.455;19516.465
787.817;11982.604;  -11.535;18900.363
788.385;11371.754;   -9.765;17879.121
788.954;10633.822;  -14.005;17658.301
789.522;10282.617;  -11.955;17788.879
790.090;10915.786;  -10.135;18118.277
790.659;11374.460;  -10.975;18338.736
791.227;10777.978;  -13.375;18508.615
791.795;11138.130;  -12.375;17898.254
792.364;11486.177;  -10.725;17295.133
792.932;11752.804;   -9.715;16822.051
793.500;11876.966;  -12.675;17040.148
794.068;12083.060;  -13.495;17179.787
794.636;12293.704;  -10.885;16664.246
795.204;11821.907;  -11.045;16524.545
795.772;11656.659;  -13.175;17274.564
796.340;11125.576;  -12.445;17891.002
796.908;10981.641;   -9.735;17648.561
797.476;10897.749;   -9.815;17064.080
798.044;10392.559;  -13.985;16672.777
798.612; 9668.677;  -13.115;17023.996
799.180; 9449.247;  -10.185;16561.615
799.747; 9397.853;   -9.055;15962.773
800.315; 9052.862;  -12.385;15296.992
800.883; 8738.792;  -15.035;14801.771
801.450; 8703.097;  -10.365;14534.430
802.018; 8730.613;   -9.855;14173.248
802.585; 8750.740;  -11.905;14029.547
803.153; 8791.151;  -11.585;13836.846
803.720; 8722.264;   -9.095;13567.324
804.287; 8350.199;   -9.135;13360.622
804.855; 7899.126;  -11.604;13681.981
805.422; 7773.887;  -11.794;13536.560
805.989; 7647.554;  -10.734;13355.958
806.556; 7820.292;  -10.444;13747.896
807.124; 8279.815;  -12.764;13987.376
807.691; 8345.544;  -12.964;14038.674
808.258; 8142.347;  -11.134;14120.152
808.825; 7764.545;   -9.854;13860.111
809.392; 7771.532;  -10.504;13268.790
809.959; 7336.439;  -13.054;12680.389
810.526; 6900.990;   -8.294;12427.308
811.093; 6857.781;   -8.394;12030.105
811.659; 7445.546;  -12.304;11653.664
812.226; 7967.657;  -13.944;11637.183
812.793; 7741.515;  -10.484;11611.521
813.360; 7152.332;  -10.144;11885.181
813.926; 6646.468;  -11.684;12770.539
814.493; 6325.838;  -13.644;12677.638
815.060; 5930.915;   -9.724;11974.336
815.626; 5949.583;   -9.854;11594.715
816.193; 6444.220;  -13.254;11579.474
816.759; 6560.632;  -13.204;11666.972
817.325; 6743.854;   -9.434;11325.530
817.892; 7137.123;  -10.134;11105.369
818.458; 7557.509;  -13.474;10843.928
819.024; 7239.465;  -11.854;10714.406
819.591; 6936.523;  -10.244;10469.165
820.157; 6667.580;  -10.704;10235.523
820.723; 6235.832;  -12.324;10847.563
821.289; 6068.651;   -9.444;11040.980
821.855; 6074.759;   -8.374;10357.100
822.421; 6144.280;  -10.234; 9978.918
822.987; 6056.078;  -13.294; 9754.177
823.553; 5679.959;  -10.884;10065.755
824.119; 5494.800;   -8.884;10036.294
824.685; 5600.845;   -6.784;10029.192
825.251; 5653.517;  -12.004;10199.230
825.816; 5626.932;  -11.474; 9820.189
826.382; 5485.388;   -9.174; 9297.248
826.948; 5720.403;   -9.214; 9381.347
827.513; 6147.421;  -10.774; 9450.726
828.079; 5980.772;  -11.924; 9472.444
828.645; 5370.939;  -10.543; 9292.643
829.210; 5244.570;  -10.533; 9065.341
829.776; 5229.922;  -10.753; 9132.620
830.341; 5168.334;  -10.173; 9092.878
830.906; 5377.560;  -10.743; 9078.557
831.472; 5770.125;  -11.113; 8534.535
832.037; 5619.900;  -10.603; 8677.874
832.602; 5074.676;  -13.323; 8628.692
833.167; 4638.958;  -10.823; 8879.031
833.733; 4512.778;  -10.113; 9189.790
834.298; 4600.479;  -13.583; 9052.608
834.863; 4597.911;  -12.703; 8895.087
835.428; 4615.299;  -10.523; 8824.266
835.993; 4671.887;   -6.963; 8845.385
836.558; 4583.308;  -10.763; 8888.563
837.123; 4626.942;   -9.903; 8966.582
837.688; 4780.894;   -9.913; 8617.860
838.253; 4957.859;  -10.283; 8590.699
838.817; 5150.741;  -12.963; 8443.797
839.382; 5120.135;  -14.243; 8799.356
839.947; 4817.719;  -10.733; 8810.595
840.511; 4494.449;   -9.383; 8796.394
841.076; 4103.370;  -12.563; 8347.231
841.641; 4100.366;  -12.953; 8224.330
842.205; 4134.194;   -7.043; 8223.349
842.770; 4267.522;   -8.163; 8622.107
843.334; 4582.559;  -12.503; 8410.386
843.898; 4589.477;  -11.693; 8337.465
844.463; 4559.648;  -10.203; 8506.283
845.027; 4283.474;   -9.533; 8280.962
845.591; 4076.983;  -13.443; 8231.141
846.156; 4095.593;  -13.143; 7969.179
846.720; 3980.858;   -9.433; 7768.278
847.284; 3864.490;  -11.033; 7630.957
847.848; 3650.866;  -10.403; 7472.395
848.412; 3503.874;  -11.553; 7437.394
848.976; 3545.340;   -8.393; 7674.592
849.540; 3506.297;   -8.713; 7836.011
850.104; 3581.618;  -12.463; 7913.669
850.668; 3899.433;  -12.973; 7694.508
851.232; 4001.958;  -10.793; 7756.887
851.796; 3844.917;  -10.662; 7926.545
852.359; 3541.019;  -13.082; 7827.844
852.923; 3404.402;  -12.192; 7641.163
853.487; 3266.972;  -11.912; 7342.501
854.050; 3207.193;  -10.892; 7042.820
854.614; 3361.394;  -13.992; 7151.338
855.177; 3497.244;  -11.732; 7105.077
855.741; 3522.572;   -8.962; 6989.675
856.304; 3357.330;   -9.442; 6596.634
856.868; 3300.147;  -14.192; 6356.272
857.431; 3456.248;  -12.702; 6468.571
857.995; 3585.996;   -9.942; 6373.210
858.558; 3634.252;   -9.112; 6324.448
859.121; 3368.001;  -12.932; 6408.327
859.684; 3198.620;  -13.442; 6347.886
860.247; 3279.383;  -10.632; 6321.264
860.810; 3242.589;  -11.272; 6301.903
861.374; 2960.514;   -9.832; 6607.881
861.937; 2666.498;  -11.762; 6408.200
862.500; 2612.956;   -9.722; 6572.639
863.062; 2733.468;  -10.512; 6387.297
863.625; 2873.475;  -11.232; 6190.836
864.188; 3013.642;  -14.112; 5807.254
864.751; 3091.142;  -11.302; 5682.413
865.314; 2995.661;  -10.112; 5547.492
865.876; 2823.989;  -12.182; 5500.150
866.439; 2841.621;  -10.722; 5415.909
867.002; 2763.410;   -9.252; 5501.567
867.564; 2531.359;   -9.572; 5413.946
868.127; 2321.419;  -13.142; 5160.325
868.689; 2269.017;  -12.902; 5133.183
869.252; 2222.653;   -9.732; 5252.382
869.814; 2129.423;   -9.432; 5297.141
870.377; 2120.420;  -11.552; 5390.919
870.939; 2199.200;   -9.052; 5599.898
871.501; 2264.963;  -10.982; 5248.336
872.063; 2277.037;  -12.292; 4854.235
872.626; 2242.454;  -14.912; 4817.074
873.188; 2217.428;  -13.112; 4987.732
873.750; 2163.384;  -13.442; 4868.651
874.312; 2079.474;   -9.402; 4779.330
874.874; 2007.326;  -11.062; 4866.348
875.436; 1945.652;  -13.931; 4718.887
875.998; 1937.812;   -9.561; 4660.005
876.560; 1932.594;  -11.321; 4462.964
877.122; 1867.427;  -12.221; 4145.042
877.683; 1771.218;  -12.191; 4056.481
878.245; 1702.480;  -12.101; 3950.740
878.807; 1721.495;   -8.971; 4058.958
879.369; 1709.208;  -12.071; 3954.677
879.930; 1599.228;  -14.621; 3941.495
880.492; 1544.203;  -10.311; 4067.014
881.053; 1525.281;  -10.901; 3859.633
881.615; 1430.019;  -14.411; 3776.071
882.176; 1370.254;  -13.761; 3734.750
882.738; 1358.750;   -9.181; 3678.489
883.299; 1351.539;  -11.791; 3405.407
883.860; 1352.411;  -13.121; 3351.106
884.422; 1343.647;  -11.211; 3394.044
884.983; 1296.809;  -10.091; 3166.443
885.544; 1201.687;   -8.461; 3189.802
886.105; 1127.603;  -12.361; 3160.360
886.666; 1080.368;  -14.141; 3093.059
887.227; 1028.976;  -11.361; 2941.957
887.788;  950.162;  -11.401; 2974.836
888.349;  877.088;  -13.791; 2721.214
888.910;  881.060;  -13.191; 2696.493
889.471;  890.357;   -9.881; 2560.172
890.032;  864.039;   -9.881; 2558.190
890.593;  830.748;  -10.371; 2567.669
891.153;  805.587;  -13.301; 2460.307
891.714;  763.118;  -11.431; 2372.046
892.275;  728.969;  -11.291; 2309.505
892.835;  691.416;  -11.471; 2382.543
893.396;  634.450;  -11.541; 2295.502
893.956;  581.841;  -11.181; 2162.420
894.517;  542.396;  -11.741; 2125.439
895.077;  535.893;  -11.671; 2086.978
895.638;  539.823;  -11.311; 2126.316
896.198;  513.225;   -9.831; 1838.275
896.758;  465.292;   -8.421; 1892.813
897.319;  429.534;  -12.351; 1792.232
897.879;  416.755;  -13.511; 1762.751
898.439;  391.310;  -12.001; 1661.149
898.999;  362.940;  -10.180; 1781.468
899.559;  352.697;  -12.030; 1703.347
900.119;  348.462;  -15.710; 1537.525
900.679;  347.286;   -8.900; 1638.384
901.239;  334.409;   -8.340; 1527.902
901.799;  323.414;  -13.910; 1456.441
902.359;  314.465;  -13.460; 1357.140
902.919;  305.117;  -11.490; 1331.118
903.479;  289.446;  -12.110; 1317.257
904.038;  266.998;  -11.720; 1262.595
904.598;  250.679;  -13.610; 1152.034
905.158;  246.888;  -11.040; 1240.893
905.717;  238.524;  -10.900; 1233.691
906.277;  226.851;  -15.080; 1217.330
906.836;  217.602;  -13.380; 1222.408
907.396;  209.388;  -10.780; 1193.047
907.955;  203.002;   -8.500; 1182.526
908.515;  197.644;  -12.760; 1099.364
909.074;  190.435;  -11.900; 1092.863
909.633;  184.472;   -8.950; 1069.121
910.192;  180.340;   -8.770; 1196.460
910.752;  175.916;  -12.390; 1029.960
911.311;  171.428;  -13.680; 1009.780
911.870;  168.404;  -12.370;  971.460
912.429;  169.386;  -10.900; 1094.080
912.988;  166.502;  -11.690; 1081.060
913.547;  161.486;  -13.240;  940.380
914.106;  157.742;  -11.990;  999.420
914.665;  154.013;   -9.990;  984.020
915.224;  152.560;  -12.880; 1035.760
915.782;  152.751;  -12.350;  922.560
916.341;  151.982;   -9.110; 1049.840
916.900;  148.991;   -9.270;  925.260
917.458;  146.686;  -13.240;  884.220
918.017;  146.050;  -13.550;  942.600
918.576;  144.784;  -12.320;  904.440
919.134;  143.718;  -11.490;  837.980
919.693;  141.246;  -13.670;  893.060
920.251;  138.301;  -15.470;  876.500
920.809;  137.998;  -11.290;  839.580
921.368;  137.967;  -10.210;  885.360
921.926;  136.472;  -12.140;  842.940
922.484;  136.068;  -13.080;  903.360
923.042;  135.168;  -11.720;  880.340
923.601;  138.400;   -7.480;  998.680
924.159;  136.451;  -11.570;  935.560
924.717;  133.233;  -13.840;  841.080
925.275;  133.069;  -10.640;  903.240
925.833;  132.461;  -11.540;  779.320
926.391;  133.541;  -12.960;  938.380
926.949;  131.134;  -14.130;  857.680
927.506;  131.897;  -11.750;  903.500
928.064;  132.306;  -10.250;  877.580
928.622;  130.910;  -13.030;  880.100
929.180;  130.732;  -13.400;  814.180
929.737;  131.818;  -10.700;  808.540
930.295;  136.157;  -10.070;  928.480
930.853;  137.590;  -11.960;  849.100
931.410;  139.099;  -13.120;  821.120
931.968;  138.267;  -10.770;  940.660
932.525;  137.514;  -10.680;  909.380
933.082;  137.661;  -13.130;  811.440
933.640;  137.660;  -13.210;  925.900
934.197;  136.332;  -11.060;  886.360
934.754;  137.463;   -9.580;  897.780
935.312;  141.262;  -14.000;  863.340
935.869;  145.605;  -10.710; 1012.980
936.426;  145.560;   -9.860;  872.800
936.983;  146.220;   -9.710;  889.020
937.540;  145.200;  -13.990;  838.280
938.097;  143.431;  -14.040;  940.120
938.654;  145.345;  -10.310;  898.860
939.211;  148.562;  -10.560;  952.480
939.768;  151.073;  -13.900;  915.420
940.324;  155.984;  -14.760;  904.200
940.881;  156.745;  -10.370;  878.500
941.438;  157.354;   -8.260; 1021.200
941.995;  153.021;  -12.540;  992.560
942.551;  148.638;  -14.670;  875.620
943.108;  148.603;  -10.450;  937.920
943.664;  152.672;  -10.750;  869.340
944.221;  156.511;  -11.550; 1088.140
944.777;  154.487;  -14.770;  869.680
945.334;  157.091;  -12.820;  884.840
945.890;  159.744;  -10.130;  946.480
946.446;  158.689;  -13.470;  947.020
947.003;  159.967;  -12.120;  964.940
947.559;  161.857;   -9.980; 1063.040
948.115;  161.394;   -9.080; 1026.540
948.671;  158.944;  -10.830;  967.300
949.227;  155.043;  -12.440;  859.560
949.783;  153.498;  -12.910;  858.900
950.339;  155.158;  -10.270;  991.000
950.895;  155.760;  -13.630; 1023.840
951.451;  155.179;  -15.100;  925.280
952.007;  156.559;  -11.330;  998.540
952.563;  158.734;  -10.580;  937.780
953.118;  157.858;  -13.440;  904.940
953.674;  156.736;  -12.710;  935.780
954.230;  157.666;  -10.350;  949.640
954.785;  155.872;   -9.190;  936.640
955.341;  154.250;  -11.200;  998.160
955.897;  151.044;  -16.560;  834.660
956.452;  152.304;  -12.570;  953.840
957.008;  150.577;   -7.970; 1083.640
957.563;  148.114;  -11.940; 1009.540
958.118;  144.466;  -13.450;  877.700
958.674;  144.699;  -12.030;  946.780
959.229;  147.321;   -9.410; 1013.980
959.784;  144.126;  -12.000;  832.400
960.339;  142.142;  -14.780; 1001.280
960.894;  138.518;   -9.860;  963.760
961.449;  134.339;   -9.970;  859.960
962.004;  136.339;  -10.900; 1212.840
962.559;  131.097;  -13.150;  860.140
963.114;  127.836;  -13.740;  742.480
963.669;  126.256;   -9.820;  915.500
964.224;  124.296;  -13.890;  874.340
964.779;  123.189;  -12.600;  828.420
965.334;  126.132;  -10.950; 1017.860
965.888;  128.970;  -11.170;  875.360
966.443;  132.283;  -12.540;  972.380
966.998;  128.781;  -15.780;  819.460
967.552;  121.487;   -9.760;  908.380
968.107;  108.601;   -9.060;  868.300
968.661;   99.831;  -11.950;  922.440
969.216;   91.962;  -12.800;  856.280
969.770;   89.297;  -11.210;  917.200
970.324;   90.619;  -11.610;  923.140
970.879;   92.885;  -11.370;  947.180
971.433;   94.076;  -12.540;  952.720
971.987;   93.403;  -11.320;  895.340
972.541;   92.342;  -10.720;  917.100
973.095;   92.654;   -9.680; 1009.460
973.649;   92.254;  -11.440;  809.480
974.203;   92.080;  -11.210;  829.040
974.757;   94.334;  -10.240;  855.220
975.311;   95.478;  -13.720;  872.600
975.865;   94.818;  -13.770;  881.820
976.419;   93.880;  -11.690;  857.400
976.973;   94.060;   -9.510;  849.620
977.526;   95.821;  -12.620;  949.920
978.080;   96.157;  -12.010;  796.780
978.634;   97.659;  -10.170;  921.320
979.187;   95.648;   -9.020;  905.400
979.741;   92.896;   -9.820; 1018.380
980.294;   88.861;  -14.870;  789.160
980.848;   86.515;  -12.380;  717.220
981.401;   89.450;  -10.350;  816.540
981.955;   91.191;  -13.720;  844.300
982.508;   90.483;  -11.490;  746.340
983.061;   91.292;  -10.000;  915.260
983.615;   88.094;  -11.480;  798.800
984.168;   85.269;  -13.220;  770.080
984.721;   84.854;  -13.960;  880.760
985.274;   83.995;  -10.870;  867.500
985.827;   83.394;   -9.790;  834.220
986.380;   80.933;  -13.120;  721.340
986.933;   79.965;  -12.450;  864.800
987.486;   77.669;  -10.210;  861.920
988.039;   77.537;   -8.430;  863.100
988.591;   75.459;  -10.520;  893.260
989.144;   72.465;  -14.860;  737.260
989.697;   71.518;  -13.080;  758.740
990.250;   72.824;  -10.150;  858.100
990.802;   72.348;  -13.430;  755.860
991.355;   72.864;  -12.750;  974.880
991.907;   70.947;  -12.040;  864.320
992.460;   69.029;  -11.330;  753.760
993.012;   68.096;  -13.610;  749.540
993.565;   66.355;  -13.460;  711.360
994.117;   68.165;   -9.360;  950.780
994.669;   64.867;  -11.300;  701.320
995.221;   62.957;  -13.540;  791.920
995.774;   61.338;  -13.430;  787.580
996.326;   59.741;  -12.520;  740.220
996.878;   59.661;  -10.950;  838.420
997.430;   56.848;  -14.300;  699.860
997.982;   56.420;  -13.760;  750.140
998.534;   55.856;  -11.530;  739.060
999.086;   54.367;  -10.310;  738.220
999.638;   52.876;  -12.530;  661.380
1000.190;   52.953;  -11.840;  699.320
1000.741;   53.153;  -10.260;  742.700
1001.293;   52.557;   -8.860;  686.020
1001.845;   50.210;  -13.700;  676.640
1002.396;   51.114;  -12.100;  743.400
1002.948;   49.362;  -12.760;  737.400
1003.500;   47.989;  -10.380;  723.780
1004.051;   46.819;  -11.900;  907.580
1004.603;   46.026;  -12.250;  791.820
1005.154;   42.407;  -13.210;  608.980
1005.705;   41.372;  -10.950;  723.960
1006.257;   41.121;  -13.880;  707.220
1006.808;   41.192;  -12.840;  685.460
1007.359;   40.143;  -10.570;  763.240
1007.910;   39.218;   -9.620;  646.640
1008.461;   38.673;  -13.630;  732.940
1009.013;   38.161;  -17.200;  588.340
1009.564;   39.601;  -10.200;  793.520
1010.115;   37.612;  -12.570;  597.040
1010.665;   36.906;  -15.150;  602.160
1011.216;   37.506;  -14.480;  667.920
1011.767;   36.443;  -11.340;  697.920
1012.318;   36.438;   -9.780;  736.980
1012.869;   35.531;  -12.380;  679.000
1013.419;   34.784;  -15.560;  603.120
1013.970;   35.618;  -11.010;  666.640
1014.521;   34.744;  -11.610;  620.620
1015.071;   35.350;  -13.450;  670.380
1015.622;   34.126;  -13.870;  635.460
1016.172;   33.660;  -11.610;  596.820
1016.723;   34.071;  -12.120;  614.380
1017.273;   33.267;  -13.620;  604.160
1017.823;   33.126;  -14.140;  650.340
1018.374;   33.090;  -12.800;  611.760
1018.924;   32.968;  -12.340;  716.880
1019.474;   33.526;  -11.410;  718.880
1020.024;   32.042;  -14.770;  657.580
1020.574;   32.748;   -9.780;  726.160
1021.124;   32.689;   -8.560;  673.580
1021.674;   31.442;  -15.190;  559.120
1022.224;   31.902;  -13.530;  708.940
1022.774;   31.822;  -13.280;  668.820
1023.324;   32.676;  -10.690;  753.520
1023.874;   32.074;  -10.240;  875.760
1024.423;   30.427;  -12.540;  613.700
1024.973;   30.664;  -10.010;  610.760
1025.523;   30.598;  -10.550;  620.960
1026.072;   29.537;  -13.560;  606.420
1026.622;   29.418;  -15.120;  675.740
1027.172;   30.159;  -11.260;  715.660
1027.721;   29.157;  -11.410;  601.220
1028.270;   29.005;  -13.530;  663.400
1028.820;   29.412;  -13.680;  638.080
1029.369;   28.890;  -13.520;  612.700
1029.918;   29.477;  -10.980;  649.840
1030.468;   28.002;  -13.530;  564.780
1031.017;   28.960;  -13.170;  634.800
1031.566;   27.657;  -12.200;  608.900
1032.115;   28.577;   -9.960;  694.500
1032.664;   26.737;  -13.210;  596.480
1033.213;   27.936;  -12.500;  735.420
1033.762;   27.167;  -11.910;  635.620
1034.311;   27.161;   -9.640;  677.220
1034.860;   27.540;  -13.310;  691.000
1035.408;   27.459;  -11.830;  722.720
1035.957;   27.467;  -12.000;  719.540
1036.506;   25.320;  -11.690;  530.800
1037.055;   27.647;  -10.990;  844.320
1037.603;   26.031;  -15.120;  664.000
1038.152;   24.327;  -12.450;  534.760
1038.700;   25.049;  -10.560;  585.740
1039.249;   25.552;  -11.080;  681.220
1039.797;   25.921;  -12.540;  633.360
1040.345;   25.050;  -11.920;  705.420
1040.894;   24.860;  -11.410;  625.300
1041.442;   24.102;  -14.320;  632.200
1041.990;   23.401;  -16.240;  559.160
1042.538;   23.453;  -11.680;  536.180
1043.087;   23.989;  -10.760;  570.860
1043.635;   25.163;  -11.850;  670.500
1044.183;   23.316;  -15.480;  586.400
1044.731;   22.932;  -11.770;  576.000
1045.279;   23.594;  -13.090;  674.920
1045.827;   24.681;  -12.440;  892.400
1046.374;   22.365;  -13.840;  515.420
1046.922;   22.337;  -13.220;  590.580
1047.470;   23.357;  -10.230;  691.300
1048.018;   22.357;  -14.590;  647.960
1048.565;   23.613;  -12.050;  708.600
1049.113;   21.627;  -11.650;  557.000
1049.660;   22.141;  -10.510;  629.660
1050.208;   22.466;  -13.310;  675.640
1050.755;   20.929;  -15.900;  606.580
1051.303;   22.032;  -11.430;  686.820
1051.850;   21.519;   -8.480;  635.120
1052.397;   19.344;  -15.010;  473.960
1052.945;   20.505;  -13.960;  617.760
1053.492;   22.402;  -13.150;  741.840
1054.039;   22.000;   -9.630;  720.180
1054.586;   20.330;  -13.680;  557.240
1055.133;   20.594;  -14.570;  693.140
1055.680;   20.877;  -13.820;  646.620
1056.227;   20.392;  -11.730;  542.780
1056.774;   21.652;  -12.480;  794.980
1057.321;   19.394;  -13.930;  523.260
1057.868;   18.960;  -11.690;  651.320
1058.415;   20.094;   -9.520;  651.980
1058.961;   20.340;  -13.160;  678.940
1059.508;   19.427;  -12.920;  643.820
1060.055;   19.413;  -11.920;  581.780
1060.601;   20.205;  -11.500;  624.300
1061.148;   18.955;  -14.330;  616.820
1061.694;   18.469;  -16.870;  592.580
1062.241;   18.550;  -10.330;  596.320
1062.787;   18.935;  -10.620;  663.140
1063.334;   20.650;  -10.110;  808.560
1063.880;   19.362;  -13.400;  668.360
1064.426;   19.202;  -10.680;  706.820
1064.972;   18.158;   -9.920;  601.340
1065.518;   16.898;  -10.980;  566.640
1066.065;   18.385;  -14.890;  624.460
1066.611;   17.322;  -12.870;  598.800
1067.157;   18.085;  -12.950;  641.860
1067.703;   17.426;  -13.540;  668.480
1068.249;   17.619;  -13.540;  605.220
1068.794;   17.565;  -12.600;  626.880
1069.340;   16.678;  -10.620;  578.960
1069.886;   17.135;  -12.830;  590.700
1070.432;   16.245;  -14.870;  541.720
1070.977;   15.887;  -11.980;  601.080
1071.523;   15.888;   -8.200;  573.060
1072.068;   16.878;  -12.330;  582.000
1072.614;   16.386;  -16.370;  527.760
1073.160;   17.245;  -11.100;  687.040
1073.705;   15.887;  -10.480;  572.520
1074.250;   15.004;  -14.520;  559.900
1074.796;   16.197;  -11.460;  655.160
1075.341;   16.984;  -11.950;  664.100
1075.886;   16.039;  -11.460;  594.240
1076.431;   15.418;  -13.770;  649.880
1076.976;   15.483;  -12.680;  639.220
1077.521;   14.875;  -13.170;  583.080
1078.067;   14.276;  -10.860;  579.400
1078.612;   14.039;  -13.920;  661.620
1079.156;   14.596;  -13.880;  601.540
1079.701;   15.582;  -13.120;  693.260
1080.246;   15.444;   -9.940;  696.300
1080.791;   15.135;  -14.740;  625.020
1081.336;   14.549;  -13.750;  659.320
1081.880;   14.615;  -13.400;  649.680
1082.425;   13.691;  -12.220;  573.480
1082.970;   14.810;  -11.610;  717.040
1083.514;   14.032;  -13.580;  597.000
1084.059;   12.824;  -12.810;  586.720
1084.603;   13.848;  -12.320;  565.840
1085.147;   13.106;  -13.190;  645.220
1085.692;   14.434;  -12.480;  716.800
1086.236;   11.947;  -13.020;  503.140
1086.780;   14.707;   -9.190;  751.440
1087.325;   13.634;  -12.480;  654.620
1087.869;   12.506;  -12.450;  610.700
1088.413;   13.412;  -12.240;  705.040
1088.957;   11.628;   -9.020;  543.400
1089.501;   13.615;  -10.320;  766.640
1090.045;   13.137;  -12.720;  726.480
1090.589;   11.085;  -13.690;  569.920
1091.133;   12.406;  -10.020;  673.340
1091.676;   12.043;  -12.330;  591.940
1092.220;   12.140;  -14.970;  600.920
1092.764;   12.610;  -12.430;  706.960
1093.307;   12.446;   -9.800;  673.780
1093.851;   10.836;  -14.970;  556.540
1094.395;   11.357;  -15.310;  683.140
1094.938;   10.812;  -10.370;  632.520
1095.482;   11.032;  -11.050;  559.800
1096.025;   11.878;  -11.840;  710.880
1096.568;   12.329;  -12.840;  779.280
1097.112;   10.047;  -14.700;  508.180
1097.655;   11.067;   -8.720;  603.000
1098.198;   10.060;  -13.610;  600.180
1098.741;   10.040;  -13.350;  612.860
1099.285;   11.451;  -11.230;  657.300
1099.828;    9.650;  -11.840;  439.400
1100.371;   10.096;  -10.840;  608.160
1100.914;   10.309;  -14.190;  682.660
1101.457;   10.434;  -11.240;  679.900
1101.999;    9.106;  -11.270;  584.680
1102.542;    9.680;  -11.480;  641.440
1103.085;    9.754;  -11.750;  658.500
1103.628;   10.039;  -11.400;  762.060
1104.170;    9.588;  -10.490;  588.280
1104.713;   10.091;  -10.600;  646.700
1105.256;    8.518;  -14.360;  557.440
1105.798;    8.297;  -13.210;  499.980
1106.341;   10.262;  -10.270;  728.900
1106.883;    8.141;  -12.200;  521.340
1107.425;    9.007;  -13.110;  668.180
1107.968;    8.406;  -12.840;  612.380
1108.510;    9.706;   -6.480;  684.960
1109.052;    7.388;  -13.940;  612.620
1109.594;    8.042;  -13.690;  554.440
1110.136;    8.584;  -11.880;  643.220
1110.679;    7.864;   -9.500;  633.080
1111.221;    8.885;  -14.160;  604.460
1111.763;    7.825;  -13.980;  559.220
1112.304;    7.567;  -13.880;  547.140
1112.846;    8.233;  -12.210;  666.240
1113.388;   10.859;  -11.390;  942.180
1113.930;    7.937;  -14.540;  694.200
1114.472;    6.756;  -12.640;  606.540
1115.013;    6.267;  -11.620;  551.280
1115.555;    6.820;  -13.640;  587.100
1116.097;    6.155;  -15.380;  579.480
1116.638;    7.440;  -12.640;  684.600
1117.180;    7.962;   -9.850;  667.740
1117.721;    7.370;  -13.690;  568.580
1118.262;    7.788;  -12.680;  677.960
1118.804;    7.090;  -12.530;  637.340
1119.345;    6.989;  -11.690;  578.400
1119.886;    7.797;  -13.380;  704.040
1120.427;    6.332;  -14.070;  589.020
1120.969;    5.930;  -13.500;  597.920
1121.510;    5.949;  -11.480;  563.060
1122.051;    6.657;  -12.830;  723.580
1122.592;    5.033;  -14.290;  655.420
1123.133;    4.972;  -12.400;  547.940
1123.673;    6.512;  -10.130;  706.480
1124.214;    5.788;  -12.930;  612.460
1124.755;    6.285;  -14.380;  639.460
1125.296;    5.867;  -14.000;  627.320
1125.836;    6.511;  -10.070;  691.500
1126.377;    5.334;  -12.640;  599.660
1126.918;    5.435;  -12.960;  614.980
1127.458;    5.210;  -13.350;  622.220
1127.999;    5.806;  -10.750;  656.980
1128.539;    5.796;  -12.350;  694.240
1129.079;    4.371;  -14.860;  632.720
1129.620;    4.386;  -13.840;  558.100
1130.160;    4.913;  -12.330;  539.480
1130.700;    4.945;  -14.530;  640.840
1131.240;    5.936;  -12.530;  643.700
1131.781;    4.468;  -14.450;  619.680
1132.321;    4.419;   -9.790;  599.120
1132.861;    3.248;  -14.860;  564.200
1133.401;    3.613;  -14.290;  593.940
1133.941;    3.728;  -11.750;  626.280
1134.481;    3.902;   -9.920;  597.580
1135.020;    3.422;  -12.290;  609.160
1135.560;    4.208;  -11.650;  674.940
1136.100;    3.592;  -16.270;  501.160
1136.640;    3.220;  -10.890;  510.480
1137.179;    3.654;  -14.180;  537.960
1137.719;    3.658;  -16.250;  605.400
1138.258;    3.014;  -14.230;  587.360
1138.798;    4.311;   -9.090;  663.780
1139.337;    2.348;  -15.130;  482.840
1139.877;    2.887;  -13.680;  642.360
1140.416;    5.078;  -11.320;  878.060
1140.955;    2.538;  -10.860;  535.380
1141.494;    3.385;  -12.920;  669.280
1142.034;    2.192;  -13.930;  583.520
1142.573;    2.959;  -11.440;  646.280
1143.112;    2.479;  -12.000;  553.480
1143.651;    2.254;  -13.670;  536.480
1144.190;    2.749;  -12.730;  691.640
1144.729;    2.055;  -14.560;  607.420
1145.267;    2.536;  -11.830;  584.900
1145.806;    3.438;  -12.230;  637.040
1146.345;    1.811;  -14.130;  635.020
1146.884;    1.452;  -11.590;  622.500
1147.422;    1.679;  -12.550;  533.060
1147.961;    3.125;  -11.180;  708.460
1148.500;    2.171;  -11.510;  669.720
1149.038;    3.235;  -11.640;  632.500
1149.577;    3.295;  -10.130;  698.640
1150.115;    0.469;  -13.970;  452.280
1150.653;    2.180;  -14.520;  607.340
1151.192;    2.143;  -12.810;  552.920
1151.730;    1.624;   -9.100;  652.560
1152.268;    1.122;  -12.220;  589.520
1152.806;    0.645;  -14.140;  571.180
1153.344;    0.263;  -12.350;  577.640
1153.882;    0.687;   -8.980;  600.060
1154.421;   -0.300;  -15.190;  470.620
1154.958;    0.615;  -15.210;  595.240
1155.496;    1.327;  -12.850;  645.280
1156.034;    0.983;   -9.940;  721.880
1156.572;    2.327;  -13.570;  667.060
1157.110;    0.207;  -14.590;  473.940
1157.647;    1.222;  -13.030;  676.960
1158.185;    0.827;  -12.140;  564.320
1158.723;   -0.413;  -14.390;  509.200
1159.260;    0.802;  -14.090;  701.700
1159.798;    1.263;  -11.920;  658.160
1160.335;    0.094;  -11.110;  631.820

