
Integration time [ms]:   3.276
Averaging Nr. [scans]: 1000
Smoothing Nr. [pixels]: 0
Data measured with spectrometer [name]: 7414430SP
Wave   ;Sample   ;Dark     ;Reference
[nm]   ;[counts] ;[counts] ;[counts] 

288.544;  150.986;    7.793;  793.890
289.143;  154.999;    7.462;  681.602
289.742;  154.823;    8.602;  828.814
290.341;  140.571;    1.321;  789.841
290.940;  129.188;   -0.709;  730.702
291.538;  129.967;    0.881;  881.108
292.137;  130.383;    0.122;  792.581
292.736;  135.604;   -1.929;  975.101
293.335;  131.613;   -8.229;  735.086
293.934;  131.823;   -5.279;  781.677
294.532;  131.291;   -1.369; 1031.958
295.131;  116.294;   -7.641;  834.394
295.730;  116.749;   -8.420;  809.588
296.328;  116.180;   -5.611;  783.442
296.927;  117.209;   -5.781;  779.652
297.525;  116.756;   -6.361;  781.236
298.124;  107.646;  -11.382;  654.009
298.722;  111.120;   -7.641;  761.933
299.321;  109.448;   -6.811;  708.597
299.919;  107.248;   -6.991;  751.918
300.518;  104.063;  -10.362;  689.338
301.116;  104.800;   -9.581;  691.381
301.715;  105.591;   -4.891;  730.222
302.313;  105.182;   -8.801;  704.943
302.911;  100.446;   -8.522;  733.830
303.509;  105.586;   -6.171;  925.627
304.108;  102.868;   -7.311;  760.383
304.706;  102.407;   -8.321;  801.664
305.304;   97.454;  -10.222;  796.707
305.902;  102.217;   -6.021;  784.484
306.500;   98.812;   -4.971;  728.200
307.098;   96.848;   -7.061;  746.560
307.696;   94.564;   -8.801;  780.432
308.294;   95.664;   -6.411;  731.359
308.892;   97.529;   -2.901;  759.769
309.490;   93.135;   -5.041;  712.161
310.088;   92.284;   -5.002;  788.444
310.686;   96.218;   -2.041;  821.749
311.284;   92.439;   -2.351;  766.040
311.882;   88.824;   -4.422;  731.225
312.480;   85.972;   -4.192;  697.167
313.078;   88.318;   -1.172;  808.331
313.675;   89.117;   -2.601;  691.600
314.273;   84.123;   -1.312;  797.837
314.871;   82.692;   -3.942;  589.829
315.468;   81.565;   -2.802;  652.090
316.066;   84.374;   -0.701;  694.427
316.664;   77.086;   -4.362;  656.351
317.261;   80.837;   -2.872;  910.128
317.859;   76.347;   -2.022;  768.735
318.456;   75.640;   -0.531;  830.096
319.054;   72.851;   -3.912;  787.828
319.651;   71.711;   -4.752;  759.928
320.249;   70.379;   -2.602;  810.188
320.846;   68.386;   -0.821;  714.286
321.443;   66.777;   -4.642;  832.135
322.041;   63.272;   -5.002;  812.315
322.638;   61.388;   -3.982;  701.456
323.235;   62.546;   -3.411;  665.683
323.833;   59.105;   -7.361;  740.354
324.430;   54.454;   -8.611;  615.900
325.027;   55.843;   -4.061;  876.855
325.624;   55.825;   -4.031;  644.532
326.221;   52.082;   -7.481;  689.717
326.818;   52.968;   -5.281;  818.332
327.415;   55.285;   -7.460;  748.828
328.012;   55.071;   -5.510;  690.585
328.609;   53.405;   -7.880;  731.389
329.206;   51.800;   -8.331;  778.621
329.803;   52.276;   -5.121;  737.841
330.400;   54.621;   -4.510;  704.260
330.997;   55.986;   -6.441;  817.147
331.594;   54.101;   -8.831;  788.185
332.191;   59.782;   -7.621;  728.722
332.787;   62.808;   -4.591;  844.463
333.384;   61.334;   -7.412;  763.093
333.981;   58.719;   -8.293;  815.687
334.578;   62.465;   -7.052;  708.378
335.174;   66.161;   -3.102;  731.469
335.771;   64.687;   -5.943;  836.456
336.367;   61.376;   -7.393;  710.631
336.964;   65.373;   -4.063;  793.266
337.561;   63.263;   -3.813;  731.112
338.157;   59.361;   -4.654;  911.916
338.754;   56.794;   -7.934;  796.589
339.350;   54.725;   -4.414;  722.493
339.946;   57.679;   -4.664;  773.135
340.543;   49.200;   -6.375;  846.136
341.139;   43.793;   -9.815;  720.836
341.735;   41.520;   -4.526;  772.593
342.332;   39.288;   -4.895;  691.472
342.928;   40.567;   -4.295;  795.394
343.524;   34.787;   -5.476;  761.684
344.120;   30.850;   -5.856;  738.562
344.716;   34.986;   -2.155;  723.717
345.313;   31.647;   -6.275;  795.342
345.909;   27.057;   -8.815;  627.336
346.505;   28.725;   -5.305;  740.247
347.101;   29.961;   -2.674;  827.864
347.697;   29.955;   -4.344;  785.398
348.293;   24.109;   -9.975;  627.244
348.889;   25.264;   -5.774;  745.914
349.485;   23.470;   -5.004;  688.205
350.081;   25.335;   -4.704;  772.592
350.676;   20.323;   -6.635;  691.606
351.272;   24.280;   -4.504;  809.530
351.868;   24.892;   -3.914;  780.497
352.464;   21.415;   -9.044;  723.932
353.059;   17.455;   -8.314;  646.017
353.655;   20.573;   -7.024;  777.063
354.251;   22.933;   -5.343;  759.845
354.846;   17.060;   -8.604;  740.646
355.442;   14.708;   -6.945;  753.071
356.038;   17.023;   -7.564;  751.708
356.633;   16.861;   -5.814;  728.594
357.229;   14.634;   -7.364;  724.757
357.824;   12.378;   -8.024;  703.600
358.420;   12.081;   -9.384;  679.726
359.015;   12.473;   -5.104;  695.357
359.610;   13.672;   -6.854;  763.920
360.206;    7.177;  -10.185;  603.240
360.801;   10.284;   -7.054;  646.503
361.396;   12.807;   -5.034;  725.975
361.992;    7.633;   -8.284;  668.220
362.587;    5.117;   -8.625;  670.160
363.182;    7.613;   -7.674;  689.631
363.777;    7.755;   -5.164;  738.242
364.372;    8.065;   -8.604;  737.314
364.967;    4.319;   -9.055;  680.744
365.563;    8.513;   -6.114;  815.567
366.158;    6.124;   -5.814;  685.161
366.753;    6.166;   -7.854;  649.263
367.348;    4.359;   -7.804;  746.056
367.942;    4.404;   -7.954;  697.298
368.537;    2.712;   -4.984;  754.245
369.132;    2.581;   -8.564;  703.428
369.727;   -0.277;   -8.855;  638.079
370.322;    1.306;   -6.245;  580.186
370.917;    0.730;   -6.425;  710.646
371.511;    3.710;   -6.294;  861.834
372.106;    0.438;   -7.685;  776.964
372.701;   -2.726;   -7.335;  585.988
373.296;    1.859;   -4.564;  863.135
373.890;   -2.698;  -10.235;  647.840
374.485;   -4.288;   -7.885;  691.199
375.079;   -0.699;   -7.324;  738.685
375.674;    0.860;   -3.494;  812.970
376.268;   -4.083;   -8.525;  691.759
376.863;   -9.316;  -10.086;  580.327
377.457;   -2.937;   -7.025;  662.490
378.052;   -5.174;   -3.585;  764.884
378.646;   -6.339;   -7.595;  741.167
379.240;   -6.270;   -8.335;  721.176
379.835;   -5.562;   -5.785;  636.978
380.429;   -7.077;   -4.335;  562.557
381.023;   -7.065;   -6.805;  779.205
381.617;   -9.245;   -9.195;  680.106
382.212;   -5.946;   -6.905;  685.303
382.806;   -5.178;   -3.745;  760.690
383.400;   -9.177;   -7.745;  672.281
383.994;   -9.872;   -9.765;  664.870
384.588;   -5.862;   -6.564;  697.701
385.182;   -5.070;   -5.344;  726.624
385.776;   -6.488;   -8.514;  706.875
386.370;   -9.306;   -9.555;  681.968
386.964;   -9.011;   -8.715;  684.155
387.558;   -7.027;   -6.174;  598.360
388.152;   -9.829;   -8.725;  681.959
388.745;   -9.054;   -7.965;  814.707
389.339;   -6.203;   -5.924;  747.642
389.933;   -6.466;   -5.524;  695.370
390.527;   -6.865;   -7.114;  859.029
391.120;  -13.641;  -10.725;  595.318
391.714;   -9.987;   -8.035;  711.633
392.308;   -6.430;   -3.574;  780.253
392.901;  -11.580;   -7.245;  642.460
393.495;  -12.795;   -9.285;  595.414
394.089;  -10.194;   -5.895;  760.452
394.682;  -10.829;   -4.295;  697.188
395.275;  -12.031;   -9.875;  719.927
395.869;  -12.676;   -8.485;  667.314
396.462;  -11.377;   -7.455;  616.609
397.056;   -6.768;   -5.424;  776.621
397.649;  -12.114;   -6.605;  731.575
398.242;   -9.841;   -8.224;  712.645
398.836;   -9.397;   -7.474;  766.408
399.429;  -10.126;   -7.094;  631.041
400.022;  -13.259;   -9.475;  665.902
400.615;  -10.136;   -7.145;  805.609
401.208;   -8.486;   -7.174;  691.451
401.802;  -11.152;   -5.515;  699.329
402.395;  -11.573;   -9.875;  683.502
402.988;  -13.506;   -8.845;  696.627
403.581;   -9.720;   -8.874;  646.878
404.174;   -6.908;   -5.324;  686.568
404.767;  -11.013;   -9.575;  638.583
405.360;  -13.095;  -10.965;  621.445
405.953;   -7.708;   -8.764;  759.034
406.545;   -7.038;   -7.514;  725.342
407.138;  -11.659;  -10.025;  618.350
407.731;   -9.941;  -10.034;  613.303
408.324;   -6.052;   -9.374;  660.554
408.917;   -6.803;   -6.534;  681.864
409.509;   -8.757;   -8.004;  740.396
410.102;  -10.831;   -9.875;  643.948
410.695;   -5.217;   -8.604;  665.758
411.287;   -5.576;   -6.794;  599.821
411.880;   -6.960;   -9.334;  585.421
412.472;   -9.989;  -10.254;  613.092
413.065;   -6.155;   -6.714;  629.408
413.657;   -5.233;   -7.234;  576.678
414.250;   -5.083;  -10.544;  646.681
414.842;   -6.695;   -9.744;  676.353
415.434;   -4.613;   -6.994;  570.463
416.027;   -0.316;   -5.893;  652.196
416.619;   -2.923;   -7.264;  713.400
417.211;   -2.847;  -10.374;  599.352
417.804;    0.419;   -7.993;  628.499
418.396;   -2.611;   -7.234;  607.643
418.988;   -0.623;   -9.443;  659.238
419.580;   -4.403;  -10.724;  568.276
420.172;   -1.690;  -10.323;  536.196
420.764;    1.593;   -8.793;  672.482
421.356;    0.826;  -11.143;  636.898
421.948;    0.381;   -8.293;  677.661
422.540;    5.593;   -7.893;  680.027
423.132;    4.803;   -7.082;  600.641
423.724;    1.642;   -8.653;  561.267
424.316;    2.871;  -10.213;  621.345
424.908;    6.746;   -9.762;  591.517
425.500;    7.021;   -5.572;  647.978
426.092;    8.129;   -8.422;  648.268
426.683;    6.122;   -9.283;  684.836
427.275;   10.237;   -7.852;  641.471
427.867;   11.966;   -5.272;  668.948
428.458;   11.547;   -7.682;  732.344
429.050;   10.112;  -10.612;  680.749
429.642;   11.946;   -9.882;  743.124
430.233;   12.808;   -6.962;  569.356
430.825;   14.650;   -6.842;  724.809
431.416;   11.262;   -9.672;  698.241
432.008;   15.270;   -6.552;  651.723
432.599;   15.800;   -6.891;  656.073
433.190;   13.363;  -10.912;  637.670
433.782;   12.750;  -11.172;  590.395
434.373;   19.589;   -6.061;  884.765
434.964;   18.313;   -8.251;  602.920
435.556;   16.725;   -9.722;  634.537
436.147;   19.234;   -9.082;  758.490
436.738;   18.587;   -8.041;  701.099
437.329;   24.182;   -7.341;  721.723
437.920;   17.483;   -8.162;  666.688
438.511;   17.294;  -11.802;  564.526
439.103;   24.356;  -10.191;  623.998
439.694;   26.472;   -7.601;  681.583
440.285;   26.728;   -8.541;  764.432
440.876;   24.619;   -9.751;  845.738
441.466;   24.828;   -9.401;  575.162
442.057;   30.004;   -7.760;  665.814
442.648;   28.355;   -9.971;  746.255
443.239;   27.119;  -11.001;  620.477
443.830;   31.728;   -7.990;  704.958
444.421;   33.581;   -7.910;  655.474
445.011;   30.111;   -8.131;  693.619
445.602;   30.389;   -7.111;  743.126
446.193;   31.327;  -10.920;  488.117
446.783;   36.268;   -6.500;  640.397
447.374;   31.886;   -8.671;  692.759
447.964;   32.298;  -10.781;  713.770
448.555;   40.398;   -9.650;  822.742
449.145;   36.954;   -8.660;  662.853
449.736;   38.036;   -8.990;  803.179
450.326;   37.924;   -9.500;  713.626
450.917;   43.159;   -8.680;  675.324
451.507;   41.622;   -7.520;  600.661
452.097;   42.045;   -8.590;  746.267
452.688;   43.574;  -11.340;  742.160
453.278;   43.332;  -10.100;  566.840
453.868;   48.306;   -6.019;  793.550
454.458;   46.170;   -9.440;  651.141
455.048;   45.885;  -10.560;  711.783
455.639;   48.030;  -11.799;  567.096
456.229;   52.328;   -6.899;  710.694
456.819;   53.762;   -7.389;  751.158
457.409;   53.606;  -11.119;  773.993
457.999;   57.286;   -9.289;  737.505
458.589;   56.428;   -6.139;  686.606
459.179;   56.642;   -8.729;  717.658
459.769;   54.609;   -9.789;  627.099
460.358;   59.199;  -10.259;  797.262
460.948;   59.280;   -7.299;  689.503
461.538;   60.649;  -10.289;  660.677
462.128;   58.602;  -11.269;  664.934
462.717;   65.643;   -9.368;  710.326
463.307;   69.480;   -7.908;  705.846
463.897;   64.258;   -9.599;  656.942
464.486;   63.622;   -9.769;  837.128
465.076;   68.824;   -8.048;  733.776
465.666;   71.857;   -9.358;  652.900
466.255;   69.986;   -7.919;  785.651
466.845;   68.517;  -11.689;  666.749
467.434;   71.746;   -7.818;  725.873
468.023;   72.846;   -7.678;  658.357
468.613;   71.197;  -10.939;  713.946
469.202;   75.055;  -10.118;  646.507
469.791;   78.924;   -9.108;  737.811
470.381;   81.116;   -6.058;  742.813
470.970;   82.241;  -10.428;  711.099
471.559;   81.620;  -10.268;  733.291
472.148;   84.097;   -8.448;  675.737
472.738;   86.749;   -6.917;  765.466
473.327;   85.765;  -11.978;  637.529
473.916;   86.097;  -11.888;  737.446
474.505;   90.258;   -9.437;  751.703
475.094;   93.312;   -6.747;  806.570
475.683;   92.986;   -9.367;  797.699
476.272;   93.987;  -12.637;  730.632
476.861;   96.920;  -10.027;  706.754
477.449;  103.218;   -8.716;  728.487
478.038;   97.781;   -9.577;  692.513
478.627;   99.476;   -9.718;  714.852
479.216;  105.257;   -8.947;  769.441
479.805;  108.747;   -6.256;  783.375
480.393;  108.510;   -7.937; 1008.945
480.982;  107.779;   -7.717;  874.501
481.571;  114.388;   -9.266;  858.333
482.159;  114.690;   -7.636;  705.386
482.748;  115.564;   -9.667;  821.385
483.336;  119.573;  -10.376;  858.209
483.925;  120.566;   -7.147;  774.373
484.513;  127.853;   -7.996;  758.962
485.102;  123.804;  -10.027;  810.965
485.690;  133.021;  -10.446; 1011.050
486.278;  135.116;   -8.446;  979.329
486.867;  136.217;   -6.356;  809.662
487.455;  138.596;   -9.136;  898.229
488.043;  139.701;  -10.646;  748.361
488.631;  149.585;   -7.456; 1005.079
489.220;  153.306;   -6.636;  908.626
489.808;  153.153;  -11.036;  741.415
490.396;  162.923;  -10.246;  914.645
490.984;  170.376;   -8.556;  830.161
491.572;  180.765;   -5.886;  940.315
492.160;  187.075;   -9.486;  919.081
492.748;  199.862;  -10.976;  884.341
493.336;  227.208;   -8.776; 1019.693
493.924;  256.696;   -5.465;  958.077
494.512;  290.229;   -9.986; 1066.638
495.100;  334.793;  -10.636; 1103.280
495.687;  394.645;  -10.885; 1206.373
496.275;  462.705;   -8.126; 1150.796
496.863;  535.846;  -10.586; 1281.171
497.451;  645.862;  -11.926; 1386.805
498.038;  808.544;  -10.885; 1556.729
498.626;  944.744;   -6.315; 1741.407
499.214; 1106.509;   -7.326; 2016.609
499.801; 1333.955;  -11.906; 2220.633
500.389; 1620.926;  -10.466; 2312.494
500.976; 2011.732;   -5.236; 2744.849
501.564; 2475.563;   -8.936; 3148.565
502.151; 2885.814;  -13.176; 3515.999
502.738; 3414.469;  -10.646; 3971.274
503.326; 3854.040;   -9.525; 4403.796
503.913; 4363.232;  -10.856; 5161.749
504.500; 4730.951;  -11.586; 5986.420
505.088; 5170.378;  -10.336; 6381.201
505.675; 5786.163;   -6.355; 6925.547
506.262; 6465.755;   -9.046; 7619.060
506.849; 7292.431;  -10.416; 8733.969
507.436; 7830.672;  -10.305; 9790.121
508.023; 8261.636;   -5.496; 9985.472
508.610; 8547.458;   -7.856;10434.618
509.197; 9377.160;  -10.097;11198.435
509.784;11103.693;  -10.886;12391.194
510.371;12420.361;   -9.315;13603.713
510.958;13206.799;   -9.936;14426.586
511.545;13808.759;   -9.326;15243.775
512.132;14286.784;  -10.075;15945.876
512.719;14841.784;   -7.796;16340.369
513.305;16294.851;  -10.606;18011.766
513.892;17330.953;  -11.486;19754.971
514.479;18949.459;   -9.126;20967.805
515.066;20308.373;   -6.026;22299.793
515.652;21427.373;   -8.466;22908.660
516.239;22816.045;  -10.886;23798.875
516.825;23355.385;  -11.496;25567.275
517.412;24256.451;   -5.796;28154.959
517.998;25333.912;  -10.506;28344.111
518.585;25493.949;  -10.076;27134.219
519.171;25406.896;   -8.315;27268.576
519.758;26994.189;   -8.596;28964.129
520.344;28657.898;   -8.466;30664.494
520.930;28486.957;  -11.006;32550.605
521.516;30364.559;  -10.495;35422.895
522.103;33333.129;   -5.526;38280.004
522.689;34235.828;   -8.746;37835.117
523.275;33083.512;  -11.376;37288.613
523.861;33601.566;  -11.156;37281.395
524.447;35550.324;   -8.135;37846.949
525.033;35706.770;   -7.896;38321.949
525.619;36004.500;  -12.476;38579.285
526.205;37105.262;   -9.516;40622.875
526.791;39648.230;   -6.926;42258.836
527.377;39945.965;   -8.346;42966.902
527.963;41854.844;   -8.717;42018.949
528.549;41230.926;  -11.016;42476.828
529.135;38954.262;   -8.536;41854.852
529.721;38263.688;   -9.666;41237.711
530.306;37657.098;  -10.066;41259.445
530.892;37869.121;  -11.356;41506.047
531.478;38818.578;   -6.596;43559.613
532.063;41156.035;   -8.836;47695.563
532.649;41743.027;  -10.047;50808.324
533.235;43468.992;   -9.746;51787.500
533.820;44742.203;   -6.566;52145.035
534.406;44509.520;  -10.817;51133.488
534.991;43513.762;   -9.416;49996.805
535.576;42449.898;   -9.036;48882.852
536.162;43209.344;   -6.156;46942.285
536.747;44162.203;  -11.607;45711.746
537.333;47322.633;  -11.787;48510.180
537.918;50192.242;  -12.437;50439.891
538.503;49114.906;   -7.196;50863.711
539.088;46394.512;  -10.556;50906.922
539.673;47498.969;   -8.767;52621.965
540.259;47902.559;  -10.026;52368.094
540.844;44467.523;   -7.416;50879.109
541.429;44755.684;   -9.467;52077.777
542.014;48072.852;   -9.527;52716.695
542.599;48678.227;   -9.946;52363.281
543.184;45067.469;   -7.927;53187.137
543.769;45528.852;   -9.297;54697.605
544.354;46103.047;  -10.127;53913.914
544.938;45523.000;   -9.267;49680.164
545.523;48063.090;   -6.506;47386.277
546.108;50078.785;   -9.787;49151.949
546.693;51667.590;  -11.587;51384.637
547.278;51404.359;  -10.986;51853.254
547.862;48208.195;   -8.206;51173.750
548.447;43854.258;  -10.067;51691.395
549.031;42968.672;   -9.637;52456.703
549.616;47650.398;   -9.926;52714.516
550.201;48030.227;   -6.347;52414.598
550.785;47917.613;   -7.917;52355.059
551.370;47560.043;  -10.867;54589.453
551.954;47775.680;   -9.047;58267.348
552.538;49505.566;   -7.827;59062.176
553.123;48384.328;  -10.287;58115.285
553.707;45952.875;  -12.178;56556.285
554.291;45949.438;   -8.717;56201.668
554.876;46379.703;   -7.457;55335.762
555.460;47121.047;  -10.387;54155.703
556.044;49410.270;   -9.618;53721.484
556.628;47509.152;  -11.567;53731.016
557.212;47108.352;   -8.097;54312.531
557.796;45597.145;  -11.077;53797.773
558.380;46058.496;  -11.108;56145.984
558.964;46149.426;   -9.057;57277.930
559.548;46405.672;   -6.977;56459.641
560.132;44602.770;  -11.457;54434.543
560.716;43684.227;  -11.378;54800.617
561.300;43813.008;   -9.577;57606.945
561.884;45341.508;   -7.127;58972.445
562.467;44897.441;   -7.118;57327.570
563.051;43968.797;  -13.358;54962.434
563.635;44239.309;  -10.178;52594.473
564.219;45465.457;   -7.837;50610.410
564.802;46306.563;  -11.398;49551.180
565.386;46345.934;  -12.788;48370.953
565.969;45881.219;   -9.077;48178.871
566.553;45086.023;   -6.207;49957.305
567.136;45358.234;   -8.568;50369.594
567.720;41643.891;  -11.868;49492.004
568.303;39987.176;   -8.268;50616.352
568.887;40021.574;   -8.698;50727.148
569.470;40489.598;   -6.808;51698.379
570.053;39041.293;  -13.188;52122.078
570.637;37638.941;  -12.037;52536.438
571.220;37332.219;   -8.577;51186.098
571.803;37752.938;   -8.498;51032.762
572.386;39662.906;  -10.498;49609.887
572.969;42856.504;   -9.388;48285.926
573.552;41780.836;   -8.338;47624.285
574.135;40952.234;   -8.518;45498.641
574.718;37665.387;  -13.628;41970.434
575.301;36398.207;  -10.893;41447.137
575.884;35131.023;   -8.158;40923.836
576.467;35580.313;  -10.328;45267.723
577.050;38517.703;  -13.058;48175.543
577.633;40318.867;   -9.458;47729.328
578.216;39258.574;   -8.928;47579.793
578.799;38228.074;   -9.358;47820.996
579.381;36571.301;  -11.388;48115.551
579.964;34683.820;  -11.718;47333.766
580.547;35776.023;   -8.588;46668.969
581.129;35955.535;   -8.859;44466.141
581.712;36089.027;  -10.729;44164.922
582.294;36793.215;  -11.118;46477.855
582.877;38128.672;   -5.218;48244.254
583.459;36839.465;   -8.679;47437.895
584.042;34854.922;  -10.709;46943.219
584.624;34896.480;  -11.669;46792.227
585.206;33767.887;   -8.218;46557.250
585.789;34436.469;  -10.569;45793.773
586.371;37622.613;  -11.859;43836.391
586.953;37839.172;  -10.719;42972.492
587.536;38341.906;   -7.198;42487.211
588.118;38915.574;   -8.720;42086.414
588.700;35733.516;  -10.439;43389.930
589.282;34607.723;   -9.198;43646.039
589.864;34804.301;   -9.199;43438.109
590.446;36481.340;  -11.319;43151.926
591.028;36214.063;  -11.159;42781.867
591.610;35375.547;  -11.779;42839.098
592.192;32329.016;   -7.668;42820.402
592.774;30613.307;  -11.949;40724.277
593.356;29661.236;  -12.129;39874.789
593.937;29406.143;  -10.669;39980.648
594.519;31593.348;   -6.509;42069.633
595.101;33439.215;  -10.849;42976.031
595.683;33684.609;  -11.679;44084.441
596.264;34866.117;   -9.049;43478.797
596.846;33773.309;   -8.849;43803.672
597.427;32676.760;   -9.570;42986.934
598.009;34269.605;  -12.620;42832.219
598.591;34947.750;  -10.039;42580.086
599.172;34819.059;  -10.369;43061.805
599.753;35041.477;   -9.140;41691.469
600.335;36244.453;  -11.430;40692.520
600.916;34395.152;   -9.939;39982.422
601.498;32507.705;   -8.479;40318.617
602.079;31238.008;  -10.920;40670.609
602.660;30863.674;  -11.480;41450.898
603.241;31256.602;  -11.699;41137.738
603.823;29712.500;   -9.579;38868.797
604.404;30169.143;  -10.620;38182.785
604.985;31844.869;  -10.450;38078.047
605.566;31062.727;   -9.129;38056.633
606.147;30514.881;   -7.510;37020.418
606.728;33095.449;  -10.660;37883.359
607.309;32573.760;  -11.740;38748.273
607.890;31754.170;   -9.759;38850.230
608.471;31287.936;   -8.250;37457.918
609.051;30859.895;   -9.240;36066.457
609.632;29517.275;  -12.120;35991.074
610.213;30118.270;   -9.110;37402.641
610.794;30715.877;   -8.030;38383.363
611.374;29588.830;   -8.110;40562.387
611.955;29502.164;  -13.560;38533.727
612.536;31135.648;  -11.400;36951.789
613.116;31262.041;   -8.070;37197.891
613.697;32183.682;  -10.830;38411.125
614.277;30549.570;  -11.641;38673.938
614.858;31210.113;  -13.310;37075.863
615.438;31544.604;   -7.460;35092.906
616.019;29162.656;   -7.601;33666.301
616.599;29378.145;  -12.020;34189.023
617.179;31084.965;  -11.780;36952.047
617.760;31392.824;   -8.570;39582.574
618.340;32626.838;  -11.471;38943.977
618.920;34102.113;  -11.170;37594.156
619.500;33553.922;  -11.071;37866.938
620.080;33285.266;   -7.750;37869.043
620.660;34187.805;  -12.711;36868.617
621.241;34911.813;  -10.211;36352.309
621.821;34239.738;  -10.961;35459.520
622.401;34012.715;   -7.720;35207.414
622.980;33181.289;   -8.981;35980.422
623.560;31617.959;   -9.331;37351.328
624.140;30964.451;   -9.850;34388.582
624.720;26865.268;   -7.451;32368.764
625.300;22763.582;   -9.070;32638.629
625.880;25491.668;  -12.601;34599.035
626.459;29014.627;  -11.751;36831.738
627.039;31658.641;   -9.281;38299.098
627.619;31704.291;   -8.801;38289.574
628.198;30407.500;  -12.071;37220.695
628.778;30411.600;   -9.461;37632.563
629.357;31194.316;   -8.491;38003.012
629.937;30659.217;   -9.721;38402.039
630.516;29778.240;   -9.951;37868.801
631.096;29944.928;  -11.731;35760.410
631.675;32891.914;   -8.572;35225.219
632.254;37980.957;  -11.282;35130.289
632.834;37153.715;  -13.322;35794.570
633.413;35734.023;  -10.301;35788.922
633.992;32856.535;   -8.582;34532.863
634.571;34047.496;   -8.352;33590.113
635.151;36455.262;  -11.912;34943.863
635.730;34376.754;  -10.511;35352.523
636.309;31179.137;   -7.731;35366.605
636.888;28462.984;   -9.952;36165.637
637.467;28405.980;  -11.672;37515.902
638.046;30578.680;   -8.901;39288.695
638.625;33708.508;   -7.912;38279.699
639.204;33664.047;  -10.022;37741.598
639.782;32160.893;  -12.252;38364.551
640.361;28701.762;  -10.041;36740.621
640.940;25847.912;  -11.161;34950.082
641.519;25449.080;   -9.701;34137.398
642.097;27786.912;  -11.271;35654.258
642.676;31317.236;   -8.651;35637.957
643.255;33183.387;   -8.711;36567.074
643.833;31896.855;   -9.581;37809.434
644.412;32031.807;  -13.711;37337.293
644.990;31603.539;  -11.811;37018.531
645.569;31377.006;   -9.411;36518.469
646.147;29962.354;  -10.291;36186.430
646.726;29299.111;  -12.401;36267.688
647.304;30749.014;  -10.411;36647.625
647.882;31872.754;   -9.651;39286.742
648.461;33252.516;   -9.631;39157.703
649.039;33162.293;  -11.881;35412.883
649.617;33039.445;   -9.661;34744.918
650.195;32773.344;   -9.301;35403.098
650.773;31919.795;  -10.511;35053.797
651.352;29608.664;  -11.521;33756.816
651.930;26535.191;  -12.211;31868.773
652.508;23673.434;   -9.171;33121.551
653.086;27084.172;   -9.371;33564.793
653.663;30985.951;  -13.161;34054.668
654.241;29827.258;  -13.031;35693.309
654.819;31030.330;   -9.371;36422.906
655.397;30308.992;  -10.511;38213.484
655.975;29902.414;  -10.371;39507.625
656.553;30244.623;  -10.051;39498.223
657.130;29246.258;  -10.061;40395.480
657.708;29170.518;   -9.561;39242.020
658.286;29051.645;  -11.511;38920.020
658.863;29552.939;  -10.261;40202.898
659.441;31535.324;   -7.531;39677.938
660.018;30845.629;   -9.501;40413.355
660.596;30201.422;  -13.301;39931.414
661.173;32106.180;  -11.211;39604.531
661.750;32281.664;   -9.951;39700.070
662.328;31205.572;   -9.390;39292.809
662.905;30496.111;  -11.330;38235.648
663.482;26333.047;   -9.050;36212.305
664.060;24063.906;   -8.240;35944.945
664.637;26392.727;  -10.050;35170.785
665.214;27945.795;  -11.760;34197.523
665.791;29894.877;  -10.530;34549.520
666.368;29472.766;   -9.690;35118.578
666.945;30033.141;   -9.320;36019.418
667.522;31024.613;  -11.860;36048.438
668.099;31097.020;  -10.770;36243.914
668.676;30721.980;   -6.260;35958.875
669.253;29315.184;   -7.000;37384.730
669.830;29004.076;  -10.190;36779.629
670.407;28576.496;   -9.550;35231.289
670.984;29551.701;   -9.260;35544.270
671.560;29741.191;   -9.280;35466.867
672.137;28285.973;  -11.810;34280.863
672.714;29293.979;  -11.490;34632.863
673.290;29588.396;   -7.740;35135.422
673.867;29350.285;  -10.660;36114.480
674.443;29826.900;  -12.230;36152.859
675.020;27969.059;  -10.450;35327.238
675.596;29325.695;   -9.260;35795.176
676.173;30316.572;  -10.780;35430.355
676.749;29408.658;  -13.690;33549.516
677.326;29101.313;  -11.980;32210.012
677.902;29306.557;   -8.630;32068.871
678.478;28660.885;  -10.730;32583.891
679.054;28617.639;  -10.520;32088.928
679.631;30096.094;  -11.920;30978.848
680.207;30880.535;   -7.490;33160.887
680.783;32021.154;   -9.860;35570.363
681.359;30869.697;  -13.380;36125.184
681.935;29471.313;  -12.480;35240.922
682.511;28220.502;   -7.900;34429.961
683.087;28029.438;   -7.710;34463.680
683.663;28253.441;  -11.480;34648.898
684.239;28265.668;  -14.090;34546.457
684.815;28443.221;   -7.560;35586.375
685.390;28513.518;   -9.910;35821.895
685.966;28642.330;  -11.159;35085.871
686.542;31097.875;  -11.169;34198.230
687.118;33480.977;   -5.959;32847.707
687.693;33469.176;  -10.329;32794.027
688.269;32710.080;  -12.059;33072.367
688.844;30362.154;  -10.909;33141.664
689.420;28860.891;   -8.019;33965.742
689.995;27327.555;   -8.399;34655.523
690.571;26306.791;  -10.949;33576.742
691.146;26619.854;   -9.619;32657.219
691.722;25727.340;   -8.999;32526.979
692.297;24910.277;  -11.589;33014.617
692.872;26727.779;  -11.739;34012.254
693.448;27116.826;  -11.059;34237.434
694.023;25750.943;  -10.139;34142.672
694.598;27359.080;   -9.029;34132.031
695.173;27461.787;  -13.319;34205.250
695.748;26978.313;  -10.169;32882.488
696.323;26699.313;   -8.339;32864.906
696.898;26299.516;   -8.169;33170.004
697.473;26388.912;  -12.309;32432.984
698.048;26596.490;  -10.989;31649.303
698.623;27082.469;   -9.329;30778.141
699.198;28535.682;   -9.849;31140.119
699.773;29504.361;  -12.329;31764.299
700.348;28667.168;  -10.389;31780.816
700.922;29068.963;   -9.269;32046.375
701.497;29506.898;   -9.329;32603.574
702.072;29382.801;  -10.789;34799.871
702.646;28854.135;  -10.839;35793.172
703.221;27750.838;   -9.099;35201.590
703.795;29655.467;  -10.939;34764.527
704.370;29446.217;  -12.859;34307.367
704.944;29336.629;  -11.559;33509.887
705.519;30546.709;   -7.939;31388.584
706.093;31689.297;  -10.499;31340.104
706.668;31440.127;  -11.289;32630.281
707.242;29732.629;  -11.509;32728.779
707.816;28502.393;   -9.639;32947.238
708.390;27025.443;  -11.429;33277.855
708.965;27605.211;  -11.869;33834.336
709.539;28310.441;  -11.689;33709.273
710.113;28722.656;  -10.478;33044.313
710.687;27946.809;  -10.228;31953.992
711.261;25546.502;  -13.698;30505.949
711.835;25380.996;  -13.378;30262.369
712.409;26478.803;   -9.698;31254.447
712.983;27816.313;  -11.898;32754.986
713.557;29012.820;  -15.138;34018.824
714.131;28888.389;  -14.098;34579.625
714.704;27795.947;   -9.958;33890.262
715.278;25414.293;  -10.028;33531.102
715.852;25387.699;  -11.148;33601.660
716.425;26594.104;   -9.068;33515.117
716.999;27150.783;  -10.038;33185.555
717.573;27869.600;   -9.798;33905.996
718.146;28769.135;  -12.378;35199.293
718.720;28732.129;  -11.918;35060.551
719.293;28673.762;   -8.088;34973.230
719.867;31182.801;  -10.888;36394.449
720.440;31429.043;  -11.938;36663.008
721.013;30392.268;  -12.818;35102.426
721.587;28955.102;  -10.298;33985.266
722.160;26578.932;  -10.048;33524.965
722.733;25300.916;  -12.108;32987.043
723.306;26110.887;  -10.818;33066.301
723.880;27758.836;   -8.908;33399.500
724.453;29539.330;   -9.878;33468.297
725.026;28711.445;  -11.188;33816.637
725.599;25764.684;  -11.678;32797.996
726.172;25875.102;   -9.618;33187.434
726.745;27422.561;   -8.258;35136.613
727.318;29262.662;  -12.978;35751.730
727.891;30239.605;  -12.148;35890.430
728.463;30107.408;   -8.968;34822.090
729.036;28616.021;  -10.188;32895.086
729.609;28606.596;  -11.788;31823.225
730.182;25052.678;  -11.788;31445.283
730.754;22619.813;  -10.268;32373.223
731.327;22992.309;   -9.998;33676.820
731.900;22980.549;  -12.228;33417.000
732.472;24360.361;  -13.848;31978.498
733.045;27109.971;   -8.698;30368.777
733.617;27313.260;  -10.607;30574.215
734.190;26725.240;  -11.507;31280.975
734.762;23890.211;  -13.647;31674.412
735.334;22382.371;   -9.767;31247.291
735.907;22870.896;   -9.897;29876.211
736.479;22632.688;  -11.637;29808.488
737.051;22127.578;   -9.567;30233.547
737.623;23171.521;   -8.187;31469.086
738.195;23904.627;  -11.187;31784.225
738.768;25473.547;  -12.337;32120.523
739.340;25502.488;  -12.227;32094.342
739.912;24194.908;  -11.057;31312.680
740.484;23532.518;  -10.207;31946.238
741.056;22520.217;  -10.047;32984.059
741.628;23762.240;  -13.627;33897.715
742.199;26109.068;   -7.177;33213.016
742.771;24984.186;  -10.797;31369.113
743.343;22673.402;  -11.997;31865.473
743.915;21363.563;  -12.867;32388.631
744.487;21318.035;   -7.617;31079.568
745.058;21620.852;   -9.557;30570.107
745.630;22694.727;   -9.877;29970.127
746.201;24321.498;  -14.177;29186.766
746.773;24792.232;   -9.237;28805.723
747.344;24258.330;   -9.847;29591.223
747.916;22379.236;  -11.657;31412.201
748.487;21507.729;  -10.587;32194.898
749.059;22744.428;   -8.707;32533.719
749.630;24087.709;  -10.537;32158.518
750.201;23498.973;  -11.687;30855.395
750.773;22357.168;  -11.647;28622.555
751.344;22611.240;   -7.147;28405.732
751.915;23464.475;   -9.757;28461.551
752.486;22428.607;  -12.427;27842.850
753.057;20077.020;  -12.227;27845.008
753.628;18949.900;  -10.417;27728.107
754.199;19577.354;  -11.767;27381.086
754.770;20583.260;  -11.187;25882.203
755.341;20922.938;  -10.507;25886.184
755.912;21096.139;   -9.387;26050.861
756.483;20623.232;  -10.647;26798.779
757.054;18932.770;  -11.837;27048.238
757.625;17606.045;  -12.716;26294.838
758.195;17250.816;   -9.666;26142.076
758.766;17029.709;   -8.656;26392.234
759.337;17934.945;  -12.856;26334.594
759.907;19565.289;  -13.366;27579.652
760.478;20693.512;   -8.576;28352.770
761.048;20680.371;  -10.526;27325.088
761.619;20027.352;  -11.116;26460.428
762.189;19471.305;  -12.136;26029.826
762.760;19782.430;   -9.456;26430.145
763.330;20819.887;   -7.136;26670.902
763.900;20216.088;  -11.786;26603.021
764.471;17328.824;  -11.546;25542.740
765.041;16108.346;   -8.096;24358.459
765.611;16732.615;   -8.876;23991.297
766.181;17454.535;  -12.196;24470.236
766.751;18278.137;  -11.636;24845.975
767.321;18017.529;  -10.156;24533.633
767.891;15839.133;  -11.766;24916.492
768.461;15091.556;  -14.936;24776.771
769.031;15553.527;  -12.356;24757.988
769.601;17400.057;   -7.526;24181.088
770.171;17590.713;  -10.766;23670.387
770.741;16796.805;  -13.176;22960.045
771.311;16704.770;  -10.616;22917.523
771.880;16794.199;   -9.576;23562.941
772.450;16424.160;  -10.336;24216.500
773.020;16489.150;  -13.516;24140.398
773.589;16295.072;  -13.466;24414.857
774.159;16153.142;   -8.686;23858.717
774.729;15806.528;   -9.476;22942.135
775.298;15032.948;  -13.666;22324.033
775.867;14456.016;  -11.716;21140.313
776.437;14523.144;   -9.906;20838.092
777.006;14271.471;  -12.166;20599.510
777.576;14209.279;  -12.356;20508.809
778.145;14414.146;  -11.646;20732.947
778.714;14314.974;   -8.226;21062.465
779.283;13372.595;   -9.556;20949.664
779.853;13054.745;  -14.116;20508.623
780.422;13549.213;  -11.506;20649.082
780.991;13060.345;   -9.556;21527.520
781.560;12153.593;   -9.095;22632.658
782.129;12023.584;  -12.135;23048.277
782.698;11820.113;  -10.865;23438.555
783.267;11440.222;   -9.335;23267.734
783.836;11413.600;  -11.045;22415.133
784.404;12290.778;  -13.865;20443.152
784.973;12495.475;  -13.095;19699.150
785.542;12301.975;  -11.575;19763.828
786.111;12233.386;   -9.705;20341.408
786.679;12058.164;  -12.105;20207.967
787.248;11982.235;  -12.455;19516.465
787.817;11574.585;  -11.535;18900.363
788.385;11014.663;   -9.765;17879.121
788.954;10312.684;  -14.005;17658.301
789.522; 9944.336;  -11.955;17788.879
790.090;10547.736;  -10.135;18118.277
790.659;11000.840;  -10.975;18338.736
791.227;10434.949;  -13.375;18508.615
791.795;10763.539;  -12.375;17898.254
792.364;11102.923;  -10.725;17295.133
792.932;11381.469;   -9.715;16822.051
793.500;11501.298;  -12.675;17040.148
794.068;11699.580;  -13.495;17179.787
794.636;11900.034;  -10.885;16664.246
795.204;11427.789;  -11.045;16524.545
795.772;11242.815;  -13.175;17274.564
796.340;10723.993;  -12.445;17891.002
796.908;10576.094;   -9.735;17648.561
797.476;10498.683;   -9.815;17064.080
798.044;10022.785;  -13.985;16672.777
798.612; 9341.168;  -13.115;17023.996
799.180; 9138.190;  -10.185;16561.615
799.747; 9093.510;   -9.055;15962.773
800.315; 8773.920;  -12.385;15296.992
800.883; 8473.032;  -15.035;14801.771
801.450; 8416.650;  -10.365;14534.430
802.018; 8429.312;   -9.855;14173.248
802.585; 8460.665;  -11.905;14029.547
803.153; 8495.521;  -11.585;13836.846
803.720; 8413.931;   -9.095;13567.324
804.287; 8060.145;   -9.135;13360.622
804.855; 7617.547;  -11.604;13681.981
805.422; 7498.809;  -11.794;13536.560
805.989; 7375.022;  -10.734;13355.958
806.556; 7508.509;  -10.444;13747.896
807.124; 7932.225;  -12.764;13987.376
807.691; 7992.040;  -12.964;14038.674
808.258; 7820.072;  -11.134;14120.152
808.825; 7492.193;   -9.854;13860.111
809.392; 7540.827;  -10.504;13268.790
809.959; 7141.100;  -13.054;12680.389
810.526; 6729.207;   -8.294;12427.308
811.093; 6676.377;   -8.394;12030.105
811.659; 7248.275;  -12.304;11653.664
812.226; 7735.468;  -13.944;11637.183
812.793; 7480.658;  -10.484;11611.521
813.360; 6887.614;  -10.144;11885.181
813.926; 6390.265;  -11.684;12770.539
814.493; 6079.542;  -13.644;12677.638
815.060; 5699.714;   -9.724;11974.336
815.626; 5697.415;   -9.854;11594.715
816.193; 6154.747;  -13.254;11579.474
816.759; 6273.537;  -13.204;11666.972
817.325; 6460.018;   -9.434;11325.530
817.892; 6834.576;  -10.134;11105.369
818.458; 7233.791;  -13.474;10843.928
819.024; 6916.178;  -11.854;10714.406
819.591; 6623.057;  -10.244;10469.165
820.157; 6364.447;  -10.704;10235.523
820.723; 5951.380;  -12.324;10847.563
821.289; 5796.073;   -9.444;11040.980
821.855; 5804.879;   -8.374;10357.100
822.421; 5879.874;  -10.234; 9978.918
822.987; 5799.932;  -13.294; 9754.177
823.553; 5429.664;  -10.884;10065.755
824.119; 5242.474;   -8.884;10036.294
824.685; 5340.420;   -6.784;10029.192
825.251; 5404.632;  -12.004;10199.230
825.816; 5385.660;  -11.474; 9820.189
826.382; 5243.268;   -9.174; 9297.248
826.948; 5452.786;   -9.214; 9381.347
827.513; 5861.823;  -10.774; 9450.726
828.079; 5715.114;  -11.924; 9472.444
828.645; 5134.397;  -10.543; 9292.643
829.210; 5000.839;  -10.533; 9065.341
829.776; 4974.808;  -10.753; 9132.620
830.341; 4919.470;  -10.173; 9092.878
830.906; 5122.077;  -10.743; 9078.557
831.472; 5504.954;  -11.113; 8534.535
832.037; 5369.673;  -10.603; 8677.874
832.602; 4853.972;  -13.323; 8628.692
833.167; 4439.406;  -10.823; 8879.031
833.733; 4316.636;  -10.113; 9189.790
834.298; 4408.155;  -13.583; 9052.608
834.863; 4413.783;  -12.703; 8895.087
835.428; 4439.302;  -10.523; 8824.266
835.993; 4500.574;   -6.963; 8845.385
836.558; 4407.394;  -10.763; 8888.563
837.123; 4435.995;   -9.903; 8966.582
837.688; 4583.160;   -9.913; 8617.860
838.253; 4763.668;  -10.283; 8590.699
838.817; 4945.930;  -12.963; 8443.797
839.382; 4918.779;  -14.243; 8799.356
839.947; 4630.961;  -10.733; 8810.595
840.511; 4320.941;   -9.383; 8796.394
841.076; 3944.322;  -12.563; 8347.231
841.641; 3942.876;  -12.953; 8224.330
842.205; 3976.572;   -7.043; 8223.349
842.770; 4092.993;   -8.163; 8622.107
843.334; 4395.284;  -12.503; 8410.386
843.898; 4403.609;  -11.693; 8337.465
844.463; 4373.940;  -10.203; 8506.283
845.027; 4114.313;   -9.533; 8280.962
845.591; 3918.035;  -13.443; 8231.141
846.156; 3935.398;  -13.143; 7969.179
846.720; 3827.139;   -9.433; 7768.278
847.284; 3729.361;  -11.033; 7630.957
847.848; 3537.436;  -10.403; 7472.395
848.412; 3401.331;  -11.553; 7437.394
848.976; 3447.284;   -8.393; 7674.592
849.540; 3408.052;   -8.713; 7836.011
850.104; 3477.895;  -12.463; 7913.669
850.668; 3770.505;  -12.973; 7694.508
851.232; 3859.443;  -10.793; 7756.887
851.796; 3695.201;  -10.662; 7926.545
852.359; 3396.479;  -13.082; 7827.844
852.923; 3272.017;  -12.192; 7641.163
853.487; 3148.089;  -11.912; 7342.501
854.050; 3089.733;  -10.892; 7042.820
854.614; 3232.357;  -13.992; 7151.338
855.177; 3361.038;  -11.732; 7105.077
855.741; 3383.117;   -8.962; 6989.675
856.304; 3227.521;   -9.442; 6596.634
856.868; 3172.799;  -14.192; 6356.272
857.431; 3320.484;  -12.702; 6468.571
857.995; 3444.752;   -9.942; 6373.210
858.558; 3491.118;   -9.112; 6324.448
859.121; 3238.278;  -12.932; 6408.327
859.684; 3073.262;  -13.442; 6347.886
860.247; 3149.117;  -10.632; 6321.264
860.810; 3115.897;  -11.272; 6301.903
861.374; 2843.937;   -9.832; 6607.881
861.937; 2559.523;  -11.762; 6408.200
862.500; 2503.350;   -9.722; 6572.639
863.062; 2614.045;  -10.512; 6387.297
863.625; 2745.202;  -11.232; 6190.836
864.188; 2886.545;  -14.112; 5807.254
864.751; 2959.552;  -11.302; 5682.413
865.314; 2864.011;  -10.112; 5547.492
865.876; 2700.239;  -12.182; 5500.150
866.439; 2712.549;  -10.722; 5415.909
867.002; 2642.974;   -9.252; 5501.567
867.564; 2423.949;   -9.572; 5413.946
868.127; 2224.648;  -13.142; 5160.325
868.689; 2169.170;  -12.902; 5133.183
869.252; 2120.946;   -9.732; 5252.382
869.814; 2031.096;   -9.432; 5297.141
870.377; 2024.950;  -11.552; 5390.919
870.939; 2097.810;   -9.052; 5599.898
871.501; 2159.700;  -10.982; 5248.336
872.063; 2170.700;  -12.292; 4854.235
872.626; 2138.045;  -14.912; 4817.074
873.188; 2111.001;  -13.112; 4987.732
873.750; 2058.361;  -13.442; 4868.651
874.312; 1979.161;   -9.402; 4779.330
874.874; 1912.852;  -11.062; 4866.348
875.436; 1856.607;  -13.931; 4718.887
875.998; 1850.728;   -9.561; 4660.005
876.560; 1847.401;  -11.321; 4462.964
877.122; 1783.837;  -12.221; 4145.042
877.683; 1688.643;  -12.191; 4056.481
878.245; 1621.838;  -12.101; 3950.740
878.807; 1640.530;   -8.971; 4058.958
879.369; 1631.704;  -12.071; 3954.677
879.930; 1527.949;  -14.621; 3941.495
880.492; 1475.558;  -10.311; 4067.014
881.053; 1455.203;  -10.901; 3859.633
881.615; 1364.089;  -14.411; 3776.071
882.176; 1303.934;  -13.761; 3734.750
882.738; 1294.092;   -9.181; 3678.489
883.299; 1289.752;  -11.791; 3405.407
883.860; 1288.007;  -13.121; 3351.106
884.422; 1275.734;  -11.211; 3394.044
884.983; 1231.796;  -10.091; 3166.443
885.544; 1140.966;   -8.461; 3189.802
886.105; 1071.552;  -12.361; 3160.360
886.666; 1028.192;  -14.141; 3093.059
887.227;  979.537;  -11.361; 2941.957
887.788;  903.730;  -11.401; 2974.836
888.349;  832.163;  -13.791; 2721.214
888.910;  836.726;  -13.191; 2696.493
889.471;  844.171;   -9.881; 2560.172
890.032;  821.222;   -9.881; 2558.190
890.593;  787.304;  -10.371; 2567.669
891.153;  763.373;  -13.301; 2460.307
891.714;  723.571;  -11.431; 2372.046
892.275;  692.295;  -11.291; 2309.505
892.835;  657.028;  -11.471; 2382.543
893.396;  605.445;  -11.541; 2295.502
893.956;  552.849;  -11.181; 2162.420
894.517;  517.195;  -11.741; 2125.439
895.077;  511.498;  -11.671; 2086.978
895.638;  515.944;  -11.311; 2126.316
896.198;  490.797;   -9.831; 1838.275
896.758;  442.876;   -8.421; 1892.813
897.319;  410.276;  -12.351; 1792.232
897.879;  396.209;  -13.511; 1762.751
898.439;  374.269;  -12.001; 1661.149
898.999;  346.643;  -10.180; 1781.468
899.559;  336.090;  -12.030; 1703.347
900.119;  333.089;  -15.710; 1537.525
900.679;  332.378;   -8.900; 1638.384
901.239;  320.425;   -8.340; 1527.902
901.799;  309.675;  -13.910; 1456.441
902.359;  301.319;  -13.460; 1357.140
902.919;  291.752;  -11.490; 1331.118
903.479;  277.303;  -12.110; 1317.257
904.038;  256.424;  -11.720; 1262.595
904.598;  241.976;  -13.610; 1152.034
905.158;  236.442;  -11.040; 1240.893
905.717;  229.429;  -10.900; 1233.691
906.277;  217.802;  -15.080; 1217.330
906.836;  208.527;  -13.380; 1222.408
907.396;  201.193;  -10.780; 1193.047
907.955;  195.013;   -8.500; 1182.526
908.515;  189.579;  -12.760; 1099.364
909.074;  183.467;  -11.900; 1092.863
909.633;  177.589;   -8.950; 1069.121
910.192;  173.683;   -8.770; 1196.460
910.752;  169.555;  -12.390; 1029.960
911.311;  165.281;  -13.680; 1009.780
911.870;  162.908;  -12.370;  971.460
912.429;  162.165;  -10.900; 1094.080
912.988;  161.112;  -11.690; 1081.060
913.547;  156.289;  -13.240;  940.380
914.106;  151.803;  -11.990;  999.420
914.665;  148.614;   -9.990;  984.020
915.224;  147.650;  -12.880; 1035.760
915.782;  146.974;  -12.350;  922.560
916.341;  146.891;   -9.110; 1049.840
916.900;  143.133;   -9.270;  925.260
917.458;  141.884;  -13.240;  884.220
918.017;  140.914;  -13.550;  942.600
918.576;  140.832;  -12.320;  904.440
919.134;  138.466;  -11.490;  837.980
919.693;  135.669;  -13.670;  893.060
920.251;  134.146;  -15.470;  876.500
920.809;  133.562;  -11.290;  839.580
921.368;  132.941;  -10.210;  885.360
921.926;  132.109;  -12.140;  842.940
922.484;  130.119;  -13.080;  903.360
923.042;  130.550;  -11.720;  880.340
923.601;  133.384;   -7.480;  998.680
924.159;  131.369;  -11.570;  935.560
924.717;  128.174;  -13.840;  841.080
925.275;  128.265;  -10.640;  903.240
925.833;  127.935;  -11.540;  779.320
926.391;  128.280;  -12.960;  938.380
926.949;  126.518;  -14.130;  857.680
927.506;  126.211;  -11.750;  903.500
928.064;  127.217;  -10.250;  877.580
928.622;  126.855;  -13.030;  880.100
929.180;  126.493;  -13.400;  814.180
929.737;  127.178;  -10.700;  808.540
930.295;  130.547;  -10.070;  928.480
930.853;  132.569;  -11.960;  849.100
931.410;  133.834;  -13.120;  821.120
931.968;  132.445;  -10.770;  940.660
932.525;  131.838;  -10.680;  909.380
933.082;  132.784;  -13.130;  811.440
933.640;  132.694;  -13.210;  925.900
934.197;  131.183;  -11.060;  886.360
934.754;  131.027;   -9.580;  897.780
935.312;  134.943;  -14.000;  863.340
935.869;  138.743;  -10.710; 1012.980
936.426;  138.590;   -9.860;  872.800
936.983;  139.792;   -9.710;  889.020
937.540;  138.389;  -13.990;  838.280
938.097;  138.150;  -14.040;  940.120
938.654;  138.606;  -10.310;  898.860
939.211;  140.979;  -10.560;  952.480
939.768;  144.268;  -13.900;  915.420
940.324;  147.683;  -14.760;  904.200
940.881;  148.921;  -10.370;  878.500
941.438;  149.464;   -8.260; 1021.200
941.995;  145.315;  -12.540;  992.560
942.551;  141.804;  -14.670;  875.620
943.108;  141.936;  -10.450;  937.920
943.664;  144.708;  -10.750;  869.340
944.221;  148.556;  -11.550; 1088.140
944.777;  146.659;  -14.770;  869.680
945.334;  148.794;  -12.820;  884.840
945.890;  150.425;  -10.130;  946.480
946.446;  150.097;  -13.470;  947.020
947.003;  151.645;  -12.120;  964.940
947.559;  153.289;   -9.980; 1063.040
948.115;  152.576;   -9.080; 1026.540
948.671;  150.005;  -10.830;  967.300
949.227;  146.795;  -12.440;  859.560
949.783;  144.892;  -12.910;  858.900
950.339;  146.990;  -10.270;  991.000
950.895;  146.434;  -13.630; 1023.840
951.451;  146.584;  -15.100;  925.280
952.007;  146.870;  -11.330;  998.540
952.563;  147.947;  -10.580;  937.780
953.118;  146.834;  -13.440;  904.940
953.674;  146.310;  -12.710;  935.780
954.230;  147.554;  -10.350;  949.640
954.785;  145.223;   -9.190;  936.640
955.341;  144.066;  -11.200;  998.160
955.897;  141.985;  -16.560;  834.660
956.452;  142.040;  -12.570;  953.840
957.008;  140.397;   -7.970; 1083.640
957.563;  137.380;  -11.940; 1009.540
958.118;  133.565;  -13.450;  877.700
958.674;  134.212;  -12.030;  946.780
959.229;  135.993;   -9.410; 1013.980
959.784;  132.808;  -12.000;  832.400
960.339;  131.737;  -14.780; 1001.280
960.894;  127.958;   -9.860;  963.760
961.449;  123.648;   -9.970;  859.960
962.004;  125.086;  -10.900; 1212.840
962.559;  119.925;  -13.150;  860.140
963.114;  117.999;  -13.740;  742.480
963.669;  117.560;   -9.820;  915.500
964.224;  114.716;  -13.890;  874.340
964.779;  114.735;  -12.600;  828.420
965.334;  115.068;  -10.950; 1017.860
965.888;  113.434;  -11.170;  875.360
966.443;  116.973;  -12.540;  972.380
966.998;  115.973;  -15.780;  819.460
967.552;  114.832;   -9.760;  908.380
968.107;  111.735;   -9.060;  868.300
968.661;  112.421;  -11.950;  922.440
969.216;  112.723;  -12.800;  856.280
969.770;  113.573;  -11.210;  917.200
970.324;  112.193;  -11.610;  923.140
970.879;  108.705;  -11.370;  947.180
971.433;  105.969;  -12.540;  952.720
971.987;  100.385;  -11.320;  895.340
972.541;   98.063;  -10.720;  917.100
973.095;   98.185;   -9.680; 1009.460
973.649;   96.352;  -11.440;  809.480
974.203;   96.993;  -11.210;  829.040
974.757;   97.889;  -10.240;  855.220
975.311;   97.751;  -13.720;  872.600
975.865;   97.232;  -13.770;  881.820
976.419;   94.897;  -11.690;  857.400
976.973;   94.762;   -9.510;  849.620
977.526;   96.260;  -12.620;  949.920
978.080;   96.234;  -12.010;  796.780
978.634;   97.914;  -10.170;  921.320
979.187;   96.101;   -9.020;  905.400
979.741;   93.300;   -9.820; 1018.380
980.294;   88.702;  -14.870;  789.160
980.848;   86.790;  -12.380;  717.220
981.401;   88.023;  -10.350;  816.540
981.955;   89.790;  -13.720;  844.300
982.508;   88.948;  -11.490;  746.340
983.061;   89.758;  -10.000;  915.260
983.615;   86.568;  -11.480;  798.800
984.168;   84.124;  -13.220;  770.080
984.721;   83.006;  -13.960;  880.760
985.274;   81.806;  -10.870;  867.500
985.827;   80.905;   -9.790;  834.220
986.380;   78.490;  -13.120;  721.340
986.933;   77.632;  -12.450;  864.800
987.486;   75.833;  -10.210;  861.920
988.039;   74.821;   -8.430;  863.100
988.591;   73.460;  -10.520;  893.260
989.144;   70.597;  -14.860;  737.260
989.697;   69.910;  -13.080;  758.740
990.250;   70.891;  -10.150;  858.100
990.802;   69.484;  -13.430;  755.860
991.355;   71.221;  -12.750;  974.880
991.907;   68.743;  -12.040;  864.320
992.460;   66.266;  -11.330;  753.760
993.012;   65.565;  -13.610;  749.540
993.565;   64.077;  -13.460;  711.360
994.117;   66.246;   -9.360;  950.780
994.669;   62.488;  -11.300;  701.320
995.221;   60.485;  -13.540;  791.920
995.774;   59.342;  -13.430;  787.580
996.326;   56.892;  -12.520;  740.220
996.878;   56.780;  -10.950;  838.420
997.430;   54.826;  -14.300;  699.860
997.982;   54.203;  -13.760;  750.140
998.534;   53.286;  -11.530;  739.060
999.086;   52.288;  -10.310;  738.220
999.638;   50.662;  -12.530;  661.380
1000.190;   50.107;  -11.840;  699.320
1000.741;   50.182;  -10.260;  742.700
1001.293;   50.024;   -8.860;  686.020
1001.845;   48.135;  -13.700;  676.640
1002.396;   48.803;  -12.100;  743.400
1002.948;   47.747;  -12.760;  737.400
1003.500;   46.303;  -10.380;  723.780
1004.051;   47.251;  -11.900;  907.580
1004.603;   45.798;  -12.250;  791.820
1005.154;   40.880;  -13.210;  608.980
1005.705;   41.263;  -10.950;  723.960
1006.257;   40.330;  -13.880;  707.220
1006.808;   39.831;  -12.840;  685.460
1007.359;   39.968;  -10.570;  763.240
1007.910;   38.208;   -9.620;  646.640
1008.461;   38.324;  -13.630;  732.940
1009.013;   36.823;  -17.200;  588.340
1009.564;   37.870;  -10.200;  793.520
1010.115;   36.175;  -12.570;  597.040
1010.665;   36.030;  -15.150;  602.160
1011.216;   36.406;  -14.480;  667.920
1011.767;   35.231;  -11.340;  697.920
1012.318;   34.973;   -9.780;  736.980
1012.869;   34.780;  -12.380;  679.000
1013.419;   33.832;  -15.560;  603.120
1013.970;   34.222;  -11.010;  666.640
1014.521;   33.097;  -11.610;  620.620
1015.071;   33.703;  -13.450;  670.380
1015.622;   33.112;  -13.870;  635.460
1016.172;   33.260;  -11.610;  596.820
1016.723;   32.431;  -12.120;  614.380
1017.273;   32.083;  -13.620;  604.160
1017.823;   32.186;  -14.140;  650.340
1018.374;   31.542;  -12.800;  611.760
1018.924;   31.813;  -12.340;  716.880
1019.474;   31.785;  -11.410;  718.880
1020.024;   31.214;  -14.770;  657.580
1020.574;   31.319;   -9.780;  726.160
1021.124;   31.341;   -8.560;  673.580
1021.674;   30.348;  -15.190;  559.120
1022.224;   31.477;  -13.530;  708.940
1022.774;   30.177;  -13.280;  668.820
1023.324;   31.704;  -10.690;  753.520
1023.874;   32.414;  -10.240;  875.760
1024.423;   29.459;  -12.540;  613.700
1024.973;   29.766;  -10.010;  610.760
1025.523;   29.111;  -10.550;  620.960
1026.072;   28.731;  -13.560;  606.420
1026.622;   28.207;  -15.120;  675.740
1027.172;   29.111;  -11.260;  715.660
1027.721;   28.338;  -11.410;  601.220
1028.270;   28.079;  -13.530;  663.400
1028.820;   28.560;  -13.680;  638.080
1029.369;   28.077;  -13.520;  612.700
1029.918;   28.264;  -10.980;  649.840
1030.468;   27.089;  -13.530;  564.780
1031.017;   27.936;  -13.170;  634.800
1031.566;   26.709;  -12.200;  608.900
1032.115;   27.150;   -9.960;  694.500
1032.664;   25.052;  -13.210;  596.480
1033.213;   27.096;  -12.500;  735.420
1033.762;   26.910;  -11.910;  635.620
1034.311;   25.982;   -9.640;  677.220
1034.860;   26.278;  -13.310;  691.000
1035.408;   26.652;  -11.830;  722.720
1035.957;   26.877;  -12.000;  719.540
1036.506;   24.894;  -11.690;  530.800
1037.055;   26.836;  -10.990;  844.320
1037.603;   24.847;  -15.120;  664.000
1038.152;   23.610;  -12.450;  534.760
1038.700;   24.589;  -10.560;  585.740
1039.249;   23.950;  -11.080;  681.220
1039.797;   24.199;  -12.540;  633.360
1040.345;   24.478;  -11.920;  705.420
1040.894;   24.183;  -11.410;  625.300
1041.442;   23.975;  -14.320;  632.200
1041.990;   23.069;  -16.240;  559.160
1042.538;   22.771;  -11.680;  536.180
1043.087;   22.525;  -10.760;  570.860
1043.635;   23.955;  -11.850;  670.500
1044.183;   22.991;  -15.480;  586.400
1044.731;   22.514;  -11.770;  576.000
1045.279;   22.775;  -13.090;  674.920
1045.827;   23.852;  -12.440;  892.400
1046.374;   21.650;  -13.840;  515.420
1046.922;   21.154;  -13.220;  590.580
1047.470;   22.908;  -10.230;  691.300
1048.018;   22.817;  -14.590;  647.960
1048.565;   23.204;  -12.050;  708.600
1049.113;   21.432;  -11.650;  557.000
1049.660;   20.856;  -10.510;  629.660
1050.208;   21.830;  -13.310;  675.640
1050.755;   20.513;  -15.900;  606.580
1051.303;   21.999;  -11.430;  686.820
1051.850;   20.475;   -8.480;  635.120
1052.397;   18.887;  -15.010;  473.960
1052.945;   19.359;  -13.960;  617.760
1053.492;   21.518;  -13.150;  741.840
1054.039;   20.949;   -9.630;  720.180
1054.586;   19.734;  -13.680;  557.240
1055.133;   20.272;  -14.570;  693.140
1055.680;   19.818;  -13.820;  646.620
1056.227;   19.774;  -11.730;  542.780
1056.774;   20.437;  -12.480;  794.980
1057.321;   18.402;  -13.930;  523.260
1057.868;   19.095;  -11.690;  651.320
1058.415;   19.002;   -9.520;  651.980
1058.961;   18.811;  -13.160;  678.940
1059.508;   19.122;  -12.920;  643.820
1060.055;   19.623;  -11.920;  581.780
1060.601;   19.570;  -11.500;  624.300
1061.148;   18.916;  -14.330;  616.820
1061.694;   17.527;  -16.870;  592.580
1062.241;   17.830;  -10.330;  596.320
1062.787;   18.449;  -10.620;  663.140
1063.334;   19.535;  -10.110;  808.560
1063.880;   18.147;  -13.400;  668.360
1064.426;   18.072;  -10.680;  706.820
1064.972;   17.340;   -9.920;  601.340
1065.518;   16.485;  -10.980;  566.640
1066.065;   17.782;  -14.890;  624.460
1066.611;   16.815;  -12.870;  598.800
1067.157;   17.216;  -12.950;  641.860
1067.703;   16.741;  -13.540;  668.480
1068.249;   16.942;  -13.540;  605.220
1068.794;   16.945;  -12.600;  626.880
1069.340;   15.740;  -10.620;  578.960
1069.886;   16.447;  -12.830;  590.700
1070.432;   15.179;  -14.870;  541.720
1070.977;   15.549;  -11.980;  601.080
1071.523;   15.933;   -8.200;  573.060
1072.068;   15.839;  -12.330;  582.000
1072.614;   15.295;  -16.370;  527.760
1073.160;   16.580;  -11.100;  687.040
1073.705;   14.512;  -10.480;  572.520
1074.250;   14.712;  -14.520;  559.900
1074.796;   16.299;  -11.460;  655.160
1075.341;   15.388;  -11.950;  664.100
1075.886;   15.075;  -11.460;  594.240
1076.431;   14.357;  -13.770;  649.880
1076.976;   14.531;  -12.680;  639.220
1077.521;   14.308;  -13.170;  583.080
1078.067;   13.756;  -10.860;  579.400
1078.612;   13.755;  -13.920;  661.620
1079.156;   13.911;  -13.880;  601.540
1079.701;   14.309;  -13.120;  693.260
1080.246;   14.791;   -9.940;  696.300
1080.791;   14.609;  -14.740;  625.020
1081.336;   14.063;  -13.750;  659.320
1081.880;   14.115;  -13.400;  649.680
1082.425;   13.140;  -12.220;  573.480
1082.970;   14.563;  -11.610;  717.040
1083.514;   12.978;  -13.580;  597.000
1084.059;   12.572;  -12.810;  586.720
1084.603;   11.990;  -12.320;  565.840
1085.147;   12.833;  -13.190;  645.220
1085.692;   13.657;  -12.480;  716.800
1086.236;   11.203;  -13.020;  503.140
1086.780;   13.373;   -9.190;  751.440
1087.325;   12.708;  -12.480;  654.620
1087.869;   13.073;  -12.450;  610.700
1088.413;   13.238;  -12.240;  705.040
1088.957;   10.989;   -9.020;  543.400
1089.501;   12.797;  -10.320;  766.640
1090.045;   12.133;  -12.720;  726.480
1090.589;   10.424;  -13.690;  569.920
1091.133;   11.195;  -10.020;  673.340
1091.676;   11.779;  -12.330;  591.940
1092.220;   11.390;  -14.970;  600.920
1092.764;   12.238;  -12.430;  706.960
1093.307;   11.450;   -9.800;  673.780
1093.851;   10.274;  -14.970;  556.540
1094.395;   11.709;  -15.310;  683.140
1094.938;   10.182;  -10.370;  632.520
1095.482;   11.287;  -11.050;  559.800
1096.025;   10.402;  -11.840;  710.880
1096.568;   12.113;  -12.840;  779.280
1097.112;    9.317;  -14.700;  508.180
1097.655;   11.035;   -8.720;  603.000
1098.198;    9.283;  -13.610;  600.180
1098.741;    9.860;  -13.350;  612.860
1099.285;   10.595;  -11.230;  657.300
1099.828;    9.632;  -11.840;  439.400
1100.371;    9.751;  -10.840;  608.160
1100.914;    9.681;  -14.190;  682.660
1101.457;    9.522;  -11.240;  679.900
1101.999;    8.467;  -11.270;  584.680
1102.542;    9.517;  -11.480;  641.440
1103.085;    9.152;  -11.750;  658.500
1103.628;    9.440;  -11.400;  762.060
1104.170;    8.956;  -10.490;  588.280
1104.713;    9.167;  -10.600;  646.700
1105.256;    8.353;  -14.360;  557.440
1105.798;    7.470;  -13.210;  499.980
1106.341;    9.527;  -10.270;  728.900
1106.883;    8.064;  -12.200;  521.340
1107.425;    8.507;  -13.110;  668.180
1107.968;    8.513;  -12.840;  612.380
1108.510;    9.373;   -6.480;  684.960
1109.052;    6.996;  -13.940;  612.620
1109.594;    6.919;  -13.690;  554.440
1110.136;    7.680;  -11.880;  643.220
1110.679;    7.587;   -9.500;  633.080
1111.221;    8.440;  -14.160;  604.460
1111.763;    8.065;  -13.980;  559.220
1112.304;    6.991;  -13.880;  547.140
1112.846;    7.838;  -12.210;  666.240
1113.388;   10.180;  -11.390;  942.180
1113.930;    7.568;  -14.540;  694.200
1114.472;    6.134;  -12.640;  606.540
1115.013;    5.558;  -11.620;  551.280
1115.555;    6.157;  -13.640;  587.100
1116.097;    5.985;  -15.380;  579.480
1116.638;    7.075;  -12.640;  684.600
1117.180;    6.985;   -9.850;  667.740
1117.721;    6.170;  -13.690;  568.580
1118.262;    6.864;  -12.680;  677.960
1118.804;    7.085;  -12.530;  637.340
1119.345;    5.471;  -11.690;  578.400
1119.886;    6.936;  -13.380;  704.040
1120.427;    5.217;  -14.070;  589.020
1120.969;    5.231;  -13.500;  597.920
1121.510;    4.774;  -11.480;  563.060
1122.051;    6.155;  -12.830;  723.580
1122.592;    5.399;  -14.290;  655.420
1123.133;    4.133;  -12.400;  547.940
1123.673;    5.661;  -10.130;  706.480
1124.214;    5.096;  -12.930;  612.460
1124.755;    6.274;  -14.380;  639.460
1125.296;    4.709;  -14.000;  627.320
1125.836;    5.937;  -10.070;  691.500
1126.377;    4.724;  -12.640;  599.660
1126.918;    5.128;  -12.960;  614.980
1127.458;    4.155;  -13.350;  622.220
1127.999;    4.801;  -10.750;  656.980
1128.539;    4.531;  -12.350;  694.240
1129.079;    3.962;  -14.860;  632.720
1129.620;    3.631;  -13.840;  558.100
1130.160;    3.821;  -12.330;  539.480
1130.700;    4.522;  -14.530;  640.840
1131.240;    4.927;  -12.530;  643.700
1131.781;    3.820;  -14.450;  619.680
1132.321;    3.976;   -9.790;  599.120
1132.861;    2.592;  -14.860;  564.200
1133.401;    3.526;  -14.290;  593.940
1133.941;    3.932;  -11.750;  626.280
1134.481;    3.398;   -9.920;  597.580
1135.020;    2.777;  -12.290;  609.160
1135.560;    3.812;  -11.650;  674.940
1136.100;    3.635;  -16.270;  501.160
1136.640;    2.487;  -10.890;  510.480
1137.179;    2.732;  -14.180;  537.960
1137.719;    3.013;  -16.250;  605.400
1138.258;    3.422;  -14.230;  587.360
1138.798;    2.887;   -9.090;  663.780
1139.337;    1.748;  -15.130;  482.840
1139.877;    2.811;  -13.680;  642.360
1140.416;    4.685;  -11.320;  878.060
1140.955;    1.889;  -10.860;  535.380
1141.494;    2.966;  -12.920;  669.280
1142.034;    1.826;  -13.930;  583.520
1142.573;    3.096;  -11.440;  646.280
1143.112;    1.788;  -12.000;  553.480
1143.651;    2.045;  -13.670;  536.480
1144.190;    2.662;  -12.730;  691.640
1144.729;    1.875;  -14.560;  607.420
1145.267;    1.354;  -11.830;  584.900
1145.806;    2.422;  -12.230;  637.040
1146.345;    1.206;  -14.130;  635.020
1146.884;    1.121;  -11.590;  622.500
1147.422;    0.308;  -12.550;  533.060
1147.961;    3.049;  -11.180;  708.460
1148.500;    2.198;  -11.510;  669.720
1149.038;    2.192;  -11.640;  632.500
1149.577;    1.930;  -10.130;  698.640
1150.115;   -0.383;  -13.970;  452.280
1150.653;    1.729;  -14.520;  607.340
1151.192;    1.405;  -12.810;  552.920
1151.730;    1.129;   -9.100;  652.560
1152.268;    1.086;  -12.220;  589.520
1152.806;    0.789;  -14.140;  571.180
1153.344;   -0.135;  -12.350;  577.640
1153.882;    0.953;   -8.980;  600.060
1154.421;   -0.245;  -15.190;  470.620
1154.958;    0.188;  -15.210;  595.240
1155.496;    1.461;  -12.850;  645.280
1156.034;    1.296;   -9.940;  721.880
1156.572;    1.421;  -13.570;  667.060
1157.110;    0.031;  -14.590;  473.940
1157.647;    1.310;  -13.030;  676.960
1158.185;   -0.463;  -12.140;  564.320
1158.723;   -1.701;  -14.390;  509.200
1159.260;    0.684;  -14.090;  701.700
1159.798;    0.993;  -11.920;  658.160
1160.335;   -0.441;  -11.110;  631.820

