
Integration time [ms]:   3.276
Averaging Nr. [scans]: 1000
Smoothing Nr. [pixels]: 0
Data measured with spectrometer [name]: 7414430SP
Wave   ;Sample   ;Dark     ;Reference
[nm]   ;[counts] ;[counts] ;[counts] 

288.544;  150.548;    7.793;  793.890
289.143;  154.448;    7.462;  681.602
289.742;  155.032;    8.602;  828.814
290.341;  140.066;    1.321;  789.841
290.940;  128.896;   -0.709;  730.702
291.538;  129.503;    0.881;  881.108
292.137;  130.415;    0.122;  792.581
292.736;  135.508;   -1.929;  975.101
293.335;  130.890;   -8.229;  735.086
293.934;  130.697;   -5.279;  781.677
294.532;  130.065;   -1.369; 1031.958
295.131;  115.867;   -7.641;  834.394
295.730;  115.729;   -8.420;  809.588
296.328;  115.258;   -5.611;  783.442
296.927;  116.470;   -5.781;  779.652
297.525;  116.595;   -6.361;  781.236
298.124;  106.666;  -11.382;  654.009
298.722;  110.437;   -7.641;  761.933
299.321;  108.997;   -6.811;  708.597
299.919;  107.524;   -6.991;  751.918
300.518;  103.503;  -10.362;  689.338
301.116;  105.862;   -9.581;  691.381
301.715;  105.496;   -4.891;  730.222
302.313;  104.442;   -8.801;  704.943
302.911;   99.574;   -8.522;  733.830
303.509;  104.638;   -6.171;  925.627
304.108;  103.138;   -7.311;  760.383
304.706;  101.961;   -8.321;  801.664
305.304;   95.062;  -10.222;  796.707
305.902;  100.712;   -6.021;  784.484
306.500;   97.149;   -4.971;  728.200
307.098;   96.429;   -7.061;  746.560
307.696;   94.001;   -8.801;  780.432
308.294;   94.157;   -6.411;  731.359
308.892;   97.152;   -2.901;  759.769
309.490;   93.270;   -5.041;  712.161
310.088;   90.558;   -5.002;  788.444
310.686;   94.014;   -2.041;  821.749
311.284;   90.785;   -2.351;  766.040
311.882;   88.424;   -4.422;  731.225
312.480;   84.968;   -4.192;  697.167
313.078;   86.489;   -1.172;  808.331
313.675;   88.421;   -2.601;  691.600
314.273;   83.127;   -1.312;  797.837
314.871;   82.129;   -3.942;  589.829
315.468;   80.143;   -2.802;  652.090
316.066;   82.973;   -0.701;  694.427
316.664;   75.612;   -4.362;  656.351
317.261;   79.529;   -2.872;  910.128
317.859;   74.921;   -2.022;  768.735
318.456;   75.852;   -0.531;  830.096
319.054;   71.462;   -3.912;  787.828
319.651;   70.542;   -4.752;  759.928
320.249;   69.662;   -2.602;  810.188
320.846;   67.694;   -0.821;  714.286
321.443;   64.715;   -4.642;  832.135
322.041;   62.167;   -5.002;  812.315
322.638;   58.618;   -3.982;  701.456
323.235;   61.568;   -3.411;  665.683
323.833;   57.885;   -7.361;  740.354
324.430;   53.533;   -8.611;  615.900
325.027;   54.147;   -4.061;  876.855
325.624;   54.225;   -4.031;  644.532
326.221;   51.402;   -7.481;  689.717
326.818;   50.991;   -5.281;  818.332
327.415;   54.170;   -7.460;  748.828
328.012;   53.173;   -5.510;  690.585
328.609;   52.648;   -7.880;  731.389
329.206;   49.399;   -8.331;  778.621
329.803;   50.136;   -5.121;  737.841
330.400;   52.474;   -4.510;  704.260
330.997;   54.960;   -6.441;  817.147
331.594;   52.487;   -8.831;  788.185
332.191;   57.614;   -7.621;  728.722
332.787;   61.579;   -4.591;  844.463
333.384;   59.486;   -7.412;  763.093
333.981;   58.599;   -8.293;  815.687
334.578;   60.679;   -7.052;  708.378
335.174;   64.045;   -3.102;  731.469
335.771;   64.593;   -5.943;  836.456
336.367;   60.509;   -7.393;  710.631
336.964;   63.511;   -4.063;  793.266
337.561;   61.826;   -3.813;  731.112
338.157;   58.440;   -4.654;  911.916
338.754;   54.829;   -7.934;  796.589
339.350;   52.713;   -4.414;  722.493
339.946;   55.663;   -4.664;  773.135
340.543;   47.339;   -6.375;  846.136
341.139;   42.127;   -9.815;  720.836
341.735;   39.052;   -4.526;  772.593
342.332;   38.697;   -4.895;  691.472
342.928;   38.949;   -4.295;  795.394
343.524;   32.463;   -5.476;  761.684
344.120;   28.742;   -5.856;  738.562
344.716;   32.353;   -2.155;  723.717
345.313;   30.363;   -6.275;  795.342
345.909;   24.369;   -8.815;  627.336
346.505;   26.685;   -5.305;  740.247
347.101;   27.446;   -2.674;  827.864
347.697;   27.825;   -4.344;  785.398
348.293;   21.583;   -9.975;  627.244
348.889;   22.809;   -5.774;  745.914
349.485;   21.953;   -5.004;  688.205
350.081;   22.815;   -4.704;  772.592
350.676;   17.855;   -6.635;  691.606
351.272;   22.230;   -4.504;  809.530
351.868;   22.359;   -3.914;  780.497
352.464;   19.601;   -9.044;  723.932
353.059;   14.835;   -8.314;  646.017
353.655;   19.002;   -7.024;  777.063
354.251;   20.092;   -5.343;  759.845
354.846;   15.263;   -8.604;  740.646
355.442;   11.715;   -6.945;  753.071
356.038;   13.934;   -7.564;  751.708
356.633;   13.608;   -5.814;  728.594
357.229;   12.270;   -7.364;  724.757
357.824;   10.157;   -8.024;  703.600
358.420;   10.146;   -9.384;  679.726
359.015;    9.787;   -5.104;  695.357
359.610;   11.703;   -6.854;  763.920
360.206;    4.647;  -10.185;  603.240
360.801;    7.842;   -7.054;  646.503
361.396;    9.994;   -5.034;  725.975
361.992;    5.980;   -8.284;  668.220
362.587;    2.449;   -8.625;  670.160
363.182;    4.369;   -7.674;  689.631
363.777;    5.338;   -5.164;  738.242
364.372;    5.298;   -8.604;  737.314
364.967;    0.888;   -9.055;  680.744
365.563;    5.545;   -6.114;  815.567
366.158;    3.610;   -5.814;  685.161
366.753;    3.551;   -7.854;  649.263
367.348;    1.753;   -7.804;  746.056
367.942;    1.570;   -7.954;  697.298
368.537;    1.425;   -4.984;  754.245
369.132;    1.280;   -8.564;  703.428
369.727;   -3.391;   -8.855;  638.079
370.322;   -2.105;   -6.245;  580.186
370.917;   -1.756;   -6.425;  710.646
371.511;    0.382;   -6.294;  861.834
372.106;   -3.065;   -7.685;  776.964
372.701;   -5.827;   -7.335;  585.988
373.296;   -0.247;   -4.564;  863.135
373.890;   -4.643;  -10.235;  647.840
374.485;   -7.699;   -7.885;  691.199
375.079;   -4.118;   -7.324;  738.685
375.674;   -1.849;   -3.494;  812.970
376.268;   -5.685;   -8.525;  691.759
376.863;  -12.030;  -10.086;  580.327
377.457;   -6.684;   -7.025;  662.490
378.052;   -7.459;   -3.585;  764.884
378.646;   -8.591;   -7.595;  741.167
379.240;   -9.395;   -8.335;  721.176
379.835;   -8.041;   -5.785;  636.978
380.429;  -10.205;   -4.335;  562.557
381.023;  -10.072;   -6.805;  779.205
381.617;  -12.233;   -9.195;  680.106
382.212;   -8.601;   -6.905;  685.303
382.806;   -7.809;   -3.745;  760.690
383.400;  -11.776;   -7.745;  672.281
383.994;  -13.759;   -9.765;  664.870
384.588;   -9.381;   -6.564;  697.701
385.182;   -7.718;   -5.344;  726.624
385.776;   -9.447;   -8.514;  706.875
386.370;  -13.075;   -9.555;  681.968
386.964;  -11.954;   -8.715;  684.155
387.558;   -9.680;   -6.174;  598.360
388.152;  -12.769;   -8.725;  681.959
388.745;  -11.482;   -7.965;  814.707
389.339;  -10.063;   -5.924;  747.642
389.933;   -8.709;   -5.524;  695.370
390.527;   -9.868;   -7.114;  859.029
391.120;  -16.323;  -10.725;  595.318
391.714;  -13.841;   -8.035;  711.633
392.308;   -9.945;   -3.574;  780.253
392.901;  -13.733;   -7.245;  642.460
393.495;  -15.969;   -9.285;  595.414
394.089;  -14.256;   -5.895;  760.452
394.682;  -14.357;   -4.295;  697.188
395.275;  -15.070;   -9.875;  719.927
395.869;  -16.425;   -8.485;  667.314
396.462;  -14.645;   -7.455;  616.609
397.056;  -10.010;   -5.424;  776.621
397.649;  -15.221;   -6.605;  731.575
398.242;  -13.141;   -8.224;  712.645
398.836;  -12.197;   -7.474;  766.408
399.429;  -13.642;   -7.094;  631.041
400.022;  -16.384;   -9.475;  665.902
400.615;  -14.762;   -7.145;  805.609
401.208;  -12.287;   -7.174;  691.451
401.802;  -14.173;   -5.515;  699.329
402.395;  -14.868;   -9.875;  683.502
402.988;  -16.994;   -8.845;  696.627
403.581;  -14.068;   -8.874;  646.878
404.174;  -10.917;   -5.324;  686.568
404.767;  -14.410;   -9.575;  638.583
405.360;  -16.645;  -10.965;  621.445
405.953;  -11.826;   -8.764;  759.034
406.545;  -10.695;   -7.514;  725.342
407.138;  -14.515;  -10.025;  618.350
407.731;  -13.926;  -10.034;  613.303
408.324;  -10.266;   -9.374;  660.554
408.917;  -10.205;   -6.534;  681.864
409.509;  -13.273;   -8.004;  740.396
410.102;  -14.643;   -9.875;  643.948
410.695;   -8.914;   -8.604;  665.758
411.287;   -9.205;   -6.794;  599.821
411.880;  -10.490;   -9.334;  585.421
412.472;  -13.973;  -10.254;  613.092
413.065;  -10.590;   -6.714;  629.408
413.657;   -8.338;   -7.234;  576.678
414.250;   -8.609;  -10.544;  646.681
414.842;  -10.613;   -9.744;  676.353
415.434;   -8.308;   -6.994;  570.463
416.027;   -3.882;   -5.893;  652.196
416.619;   -5.256;   -7.264;  713.400
417.211;   -7.292;  -10.374;  599.352
417.804;   -2.967;   -7.993;  628.499
418.396;   -6.418;   -7.234;  607.643
418.988;   -4.450;   -9.443;  659.238
419.580;   -8.489;  -10.724;  568.276
420.172;   -6.117;  -10.323;  536.196
420.764;   -1.983;   -8.793;  672.482
421.356;   -3.756;  -11.143;  636.898
421.948;   -4.180;   -8.293;  677.661
422.540;    0.949;   -7.893;  680.027
423.132;    0.542;   -7.082;  600.641
423.724;   -3.005;   -8.653;  561.267
424.316;   -1.027;  -10.213;  621.345
424.908;    2.204;   -9.762;  591.517
425.500;    3.935;   -5.572;  647.978
426.092;    4.523;   -8.422;  648.268
426.683;    1.933;   -9.283;  684.836
427.275;    5.254;   -7.852;  641.471
427.867;    6.885;   -5.272;  668.948
428.458;    7.307;   -7.682;  732.344
429.050;    5.409;  -10.612;  680.749
429.642;    8.024;   -9.882;  743.124
430.233;    9.483;   -6.962;  569.356
430.825;    9.653;   -6.842;  724.809
431.416;    6.352;   -9.672;  698.241
432.008;   10.788;   -6.552;  651.723
432.599;   11.542;   -6.891;  656.073
433.190;    8.942;  -10.912;  637.670
433.782;    7.374;  -11.172;  590.395
434.373;   15.015;   -6.061;  884.765
434.964;   14.253;   -8.251;  602.920
435.556;   11.363;   -9.722;  634.537
436.147;   13.901;   -9.082;  758.490
436.738;   15.133;   -8.041;  701.099
437.329;   20.143;   -7.341;  721.723
437.920;   12.858;   -8.162;  666.688
438.511;   12.239;  -11.802;  564.526
439.103;   18.629;  -10.191;  623.998
439.694;   20.425;   -7.601;  681.583
440.285;   21.844;   -8.541;  764.432
440.876;   19.594;   -9.751;  845.738
441.466;   19.268;   -9.401;  575.162
442.057;   24.749;   -7.760;  665.814
442.648;   23.286;   -9.971;  746.255
443.239;   21.625;  -11.001;  620.477
443.830;   25.860;   -7.990;  704.958
444.421;   28.648;   -7.910;  655.474
445.011;   24.602;   -8.131;  693.619
445.602;   24.849;   -7.111;  743.126
446.193;   26.595;  -10.920;  488.117
446.783;   31.003;   -6.500;  640.397
447.374;   26.164;   -8.671;  692.759
447.964;   26.697;  -10.781;  713.770
448.555;   35.173;   -9.650;  822.742
449.145;   32.085;   -8.660;  662.853
449.736;   32.862;   -8.990;  803.179
450.326;   32.773;   -9.500;  713.626
450.917;   37.344;   -8.680;  675.324
451.507;   37.146;   -7.520;  600.661
452.097;   37.985;   -8.590;  746.267
452.688;   38.088;  -11.340;  742.160
453.278;   37.255;  -10.100;  566.840
453.868;   42.627;   -6.019;  793.550
454.458;   40.781;   -9.440;  651.141
455.048;   40.152;  -10.560;  711.783
455.639;   42.117;  -11.799;  567.096
456.229;   46.201;   -6.899;  710.694
456.819;   47.838;   -7.389;  751.158
457.409;   47.861;  -11.119;  773.993
457.999;   50.201;   -9.289;  737.505
458.589;   50.704;   -6.139;  686.606
459.179;   50.187;   -8.729;  717.658
459.769;   47.294;   -9.789;  627.099
460.358;   53.178;  -10.259;  797.262
460.948;   53.464;   -7.299;  689.503
461.538;   55.175;  -10.289;  660.677
462.128;   53.032;  -11.269;  664.934
462.717;   58.730;   -9.368;  710.326
463.307;   62.570;   -7.908;  705.846
463.897;   58.659;   -9.599;  656.942
464.486;   57.694;   -9.769;  837.128
465.076;   61.611;   -8.048;  733.776
465.666;   65.620;   -9.358;  652.900
466.255;   63.855;   -7.919;  785.651
466.845;   61.951;  -11.689;  666.749
467.434;   65.159;   -7.818;  725.873
468.023;   66.786;   -7.678;  658.357
468.613;   63.660;  -10.939;  713.946
469.202;   68.232;  -10.118;  646.507
469.791;   72.242;   -9.108;  737.811
470.381;   74.870;   -6.058;  742.813
470.970;   74.208;  -10.428;  711.099
471.559;   73.378;  -10.268;  733.291
472.148;   76.998;   -8.448;  675.737
472.738;   79.230;   -6.917;  765.466
473.327;   78.736;  -11.978;  637.529
473.916;   78.008;  -11.888;  737.446
474.505;   82.882;   -9.437;  751.703
475.094;   86.769;   -6.747;  806.570
475.683;   85.295;   -9.367;  797.699
476.272;   85.871;  -12.637;  730.632
476.861;   88.803;  -10.027;  706.754
477.449;   96.502;   -8.716;  728.487
478.038;   90.064;   -9.577;  692.513
478.627;   90.359;   -9.718;  714.852
479.216;   96.857;   -8.947;  769.441
479.805;  100.844;   -6.256;  783.375
480.393;  100.844;   -7.937; 1008.945
480.982;   99.242;   -7.717;  874.501
481.571;  105.309;   -9.266;  858.333
482.159;  106.181;   -7.636;  705.386
482.748;  105.777;   -9.667;  821.385
483.336;  110.508;  -10.376;  858.209
483.925;  111.467;   -7.147;  774.373
484.513;  118.447;   -7.996;  758.962
485.102;  114.631;  -10.027;  810.965
485.690;  122.451;  -10.446; 1011.050
486.278;  125.036;   -8.446;  979.329
486.867;  125.338;   -6.356;  809.662
487.455;  127.224;   -9.136;  898.229
488.043;  128.772;  -10.646;  748.361
488.631;  137.320;   -7.456; 1005.079
489.220;  142.005;   -6.636;  908.626
489.808;  141.913;  -11.036;  741.415
490.396;  149.927;  -10.246;  914.645
490.984;  155.185;   -8.556;  830.161
491.572;  165.516;   -5.886;  940.315
492.160;  171.660;   -9.486;  919.081
492.748;  183.367;  -10.976;  884.341
493.336;  206.262;   -8.776; 1019.693
493.924;  232.054;   -5.465;  958.077
494.512;  260.522;   -9.986; 1066.638
495.100;  297.113;  -10.636; 1103.280
495.687;  350.473;  -10.885; 1206.373
496.275;  410.705;   -8.126; 1150.796
496.863;  475.187;  -10.586; 1281.171
497.451;  569.280;  -11.926; 1386.805
498.038;  706.855;  -10.885; 1556.729
498.626;  814.955;   -6.315; 1741.407
499.214;  958.365;   -7.326; 2016.609
499.801; 1141.344;  -11.906; 2220.633
500.389; 1379.617;  -10.466; 2312.494
500.976; 1685.434;   -5.236; 2744.849
501.564; 2106.596;   -8.936; 3148.565
502.151; 2459.742;  -13.176; 3515.999
502.738; 2880.298;  -10.646; 3971.274
503.326; 3261.264;   -9.525; 4403.796
503.913; 3631.078;  -10.856; 5161.749
504.500; 3940.891;  -11.586; 5986.420
505.088; 4357.510;  -10.336; 6381.201
505.675; 4890.997;   -6.355; 6925.547
506.262; 5504.552;   -9.046; 7619.060
506.849; 6206.263;  -10.416; 8733.969
507.436; 6690.808;  -10.305; 9790.121
508.023; 7222.102;   -5.496; 9985.472
508.610; 7467.072;   -7.856;10434.618
509.197; 8116.040;  -10.097;11198.435
509.784; 9451.813;  -10.886;12391.194
510.371;10501.129;   -9.315;13603.713
510.958;11189.447;   -9.936;14426.586
511.545;11859.830;   -9.326;15243.775
512.132;12697.579;  -10.075;15945.876
512.719;13197.068;   -7.796;16340.369
513.305;14187.311;  -10.606;18011.766
513.892;14880.482;  -11.486;19754.971
514.479;16134.562;   -9.126;20967.805
515.066;17671.432;   -6.026;22299.793
515.652;18904.469;   -8.466;22908.660
516.239;20057.063;  -10.886;23798.875
516.825;21033.025;  -11.496;25567.275
517.412;21945.834;   -5.796;28154.959
517.998;22705.365;  -10.506;28344.111
518.585;22822.514;  -10.076;27134.219
519.171;23172.400;   -8.315;27268.576
519.758;24377.557;   -8.596;28964.129
520.344;26227.457;   -8.466;30664.494
520.930;26518.404;  -11.006;32550.605
521.516;27885.467;  -10.495;35422.895
522.103;30162.848;   -5.526;38280.004
522.689;30845.467;   -8.746;37835.117
523.275;30494.160;  -11.376;37288.613
523.861;31527.193;  -11.156;37281.395
524.447;32580.330;   -8.135;37846.949
525.033;31813.287;   -7.896;38321.949
525.619;31710.146;  -12.476;38579.285
526.205;32777.031;   -9.516;40622.875
526.791;34506.234;   -6.926;42258.836
527.377;32273.396;   -8.346;42966.902
527.963;31976.109;   -8.717;42018.949
528.549;32766.049;  -11.016;42476.828
529.135;34513.203;   -8.536;41854.852
529.721;35913.414;   -9.666;41237.711
530.306;36142.766;  -10.066;41259.445
530.892;36181.563;  -11.356;41506.047
531.478;37429.207;   -6.596;43559.613
532.063;39927.727;   -8.836;47695.563
532.649;40420.895;  -10.047;50808.324
533.235;41290.465;   -9.746;51787.500
533.820;42105.914;   -6.566;52145.035
534.406;42949.477;  -10.817;51133.488
534.991;42448.227;   -9.416;49996.805
535.576;40805.234;   -9.036;48882.852
536.162;41002.660;   -6.156;46942.285
536.747;41490.773;  -11.607;45711.746
537.333;43672.363;  -11.787;48510.180
537.918;45237.664;  -12.437;50439.891
538.503;41780.035;   -7.196;50863.711
539.088;36622.879;  -10.556;50906.922
539.673;36359.344;   -8.767;52621.965
540.259;38834.559;  -10.026;52368.094
540.844;40054.477;   -7.416;50879.109
541.429;43695.848;   -9.467;52077.777
542.014;48141.996;   -9.527;52716.695
542.599;48572.488;   -9.946;52363.281
543.184;45546.445;   -7.927;53187.137
543.769;46307.207;   -9.297;54697.605
544.354;46106.875;  -10.127;53913.914
544.938;45023.984;   -9.267;49680.164
545.523;47186.512;   -6.506;47386.277
546.108;49547.930;   -9.787;49151.949
546.693;51756.434;  -11.587;51384.637
547.278;51614.457;  -10.986;51853.254
547.862;48546.688;   -8.206;51173.750
548.447;44042.492;  -10.067;51691.395
549.031;42933.395;   -9.637;52456.703
549.616;47524.289;   -9.926;52714.516
550.201;47095.406;   -6.347;52414.598
550.785;47945.141;   -7.917;52355.059
551.370;47222.141;  -10.867;54589.453
551.954;46934.473;   -9.047;58267.348
552.538;48366.090;   -7.827;59062.176
553.123;46736.938;  -10.287;58115.285
553.707;44147.906;  -12.178;56556.285
554.291;44675.461;   -8.717;56201.668
554.876;46699.035;   -7.457;55335.762
555.460;47385.914;  -10.387;54155.703
556.044;49191.109;   -9.618;53721.484
556.628;47427.535;  -11.567;53731.016
557.212;46125.305;   -8.097;54312.531
557.796;44201.934;  -11.077;53797.773
558.380;44486.629;  -11.108;56145.984
558.964;45414.367;   -9.057;57277.930
559.548;46401.906;   -6.977;56459.641
560.132;44027.816;  -11.457;54434.543
560.716;42694.484;  -11.378;54800.617
561.300;43591.102;   -9.577;57606.945
561.884;44651.063;   -7.127;58972.445
562.467;43340.383;   -7.118;57327.570
563.051;42971.914;  -13.358;54962.434
563.635;43891.852;  -10.178;52594.473
564.219;44141.852;   -7.837;50610.410
564.802;44687.477;  -11.398;49551.180
565.386;44781.227;  -12.788;48370.953
565.969;44606.379;   -9.077;48178.871
566.553;43252.238;   -6.207;49957.305
567.136;43564.352;   -8.568;50369.594
567.720;40072.789;  -11.868;49492.004
568.303;38144.152;   -8.268;50616.352
568.887;37935.195;   -8.698;50727.148
569.470;38214.262;   -6.808;51698.379
570.053;37521.141;  -13.188;52122.078
570.637;35832.844;  -12.037;52536.438
571.220;35324.660;   -8.577;51186.098
571.803;35745.059;   -8.498;51032.762
572.386;37741.977;  -10.498;49609.887
572.969;40457.938;   -9.388;48285.926
573.552;38952.340;   -8.338;47624.285
574.135;37666.223;   -8.518;45498.641
574.718;35217.801;  -13.628;41970.434
575.301;34238.641;  -10.893;41447.137
575.884;33259.477;   -8.158;40923.836
576.467;34290.973;  -10.328;45267.723
577.050;35960.566;  -13.058;48175.543
577.633;37656.254;   -9.458;47729.328
578.216;36743.688;   -8.928;47579.793
578.799;35699.875;   -9.358;47820.996
579.381;34547.027;  -11.388;48115.551
579.964;32719.674;  -11.718;47333.766
580.547;34139.844;   -8.588;46668.969
581.129;34875.852;   -8.859;44466.141
581.712;35428.359;  -10.729;44164.922
582.294;36024.992;  -11.118;46477.855
582.877;36363.934;   -5.218;48244.254
583.459;34455.867;   -8.679;47437.895
584.042;32623.109;  -10.709;46943.219
584.624;32796.148;  -11.669;46792.227
585.206;32286.219;   -8.218;46557.250
585.789;32344.070;  -10.569;45793.773
586.371;35176.414;  -11.859;43836.391
586.953;36180.410;  -10.719;42972.492
587.536;36895.238;   -7.198;42487.211
588.118;37326.086;   -8.720;42086.414
588.700;33585.563;  -10.439;43389.930
589.282;32492.969;   -9.198;43646.039
589.864;33103.422;   -9.199;43438.109
590.446;34397.250;  -11.319;43151.926
591.028;34507.754;  -11.159;42781.867
591.610;33489.129;  -11.779;42839.098
592.192;30506.148;   -7.668;42820.402
592.774;28892.152;  -11.949;40724.277
593.356;27842.514;  -12.129;39874.789
593.937;27259.721;  -10.669;39980.648
594.519;29259.719;   -6.509;42069.633
595.101;31569.273;  -10.849;42976.031
595.683;31817.117;  -11.679;44084.441
596.264;32722.244;   -9.049;43478.797
596.846;32098.174;   -8.849;43803.672
597.427;31575.879;   -9.570;42986.934
598.009;33145.262;  -12.620;42832.219
598.591;33621.750;  -10.039;42580.086
599.172;32969.332;  -10.369;43061.805
599.753;33021.352;   -9.140;41691.469
600.335;34457.871;  -11.430;40692.520
600.916;32959.930;   -9.939;39982.422
601.498;30622.383;   -8.479;40318.617
602.079;29154.537;  -10.920;40670.609
602.660;28826.049;  -11.480;41450.898
603.241;30165.160;  -11.699;41137.738
603.823;29117.416;   -9.579;38868.797
604.404;28693.543;  -10.620;38182.785
604.985;30164.438;  -10.450;38078.047
605.566;29799.834;   -9.129;38056.633
606.147;29679.191;   -7.510;37020.418
606.728;31789.607;  -10.660;37883.359
607.309;30904.420;  -11.740;38748.273
607.890;30240.781;   -9.759;38850.230
608.471;29802.400;   -8.250;37457.918
609.051;29143.238;   -9.240;36066.457
609.632;28000.902;  -12.120;35991.074
610.213;28569.059;   -9.110;37402.641
610.794;29367.879;   -8.030;38383.363
611.374;28754.877;   -8.110;40562.387
611.955;29145.986;  -13.560;38533.727
612.536;30725.725;  -11.400;36951.789
613.116;30380.846;   -8.070;37197.891
613.697;30758.947;  -10.830;38411.125
614.277;29127.426;  -11.641;38673.938
614.858;30065.643;  -13.310;37075.863
615.438;29640.307;   -7.460;35092.906
616.019;27075.771;   -7.601;33666.301
616.599;27570.535;  -12.020;34189.023
617.179;29515.627;  -11.780;36952.047
617.760;30223.723;   -8.570;39582.574
618.340;31312.809;  -11.471;38943.977
618.920;32833.738;  -11.170;37594.156
619.500;32512.848;  -11.071;37866.938
620.080;31577.756;   -7.750;37869.043
620.660;32397.350;  -12.711;36868.617
621.241;33545.328;  -10.211;36352.309
621.821;33711.547;  -10.961;35459.520
622.401;33148.488;   -7.720;35207.414
622.980;32218.498;   -8.981;35980.422
623.560;30717.176;   -9.331;37351.328
624.140;29712.689;   -9.850;34388.582
624.720;25094.334;   -7.451;32368.764
625.300;21436.191;   -9.070;32638.629
625.880;24624.268;  -12.601;34599.035
626.459;28459.008;  -11.751;36831.738
627.039;31471.908;   -9.281;38299.098
627.619;31621.930;   -8.801;38289.574
628.198;29854.775;  -12.071;37220.695
628.778;28968.691;   -9.461;37632.563
629.357;29753.443;   -8.491;38003.012
629.937;29793.549;   -9.721;38402.039
630.516;29068.652;   -9.951;37868.801
631.096;28899.225;  -11.731;35760.410
631.675;31464.197;   -8.572;35225.219
632.254;36845.965;  -11.282;35130.289
632.834;36366.727;  -13.322;35794.570
633.413;34701.289;  -10.301;35788.922
633.992;31983.400;   -8.582;34532.863
634.571;32758.764;   -8.352;33590.113
635.151;35509.438;  -11.912;34943.863
635.730;34061.277;  -10.511;35352.523
636.309;30667.602;   -7.731;35366.605
636.888;27912.180;   -9.952;36165.637
637.467;28347.145;  -11.672;37515.902
638.046;30184.896;   -8.901;39288.695
638.625;33234.176;   -7.912;38279.699
639.204;33249.836;  -10.022;37741.598
639.782;31642.035;  -12.252;38364.551
640.361;27963.363;  -10.041;36740.621
640.940;25172.979;  -11.161;34950.082
641.519;25540.592;   -9.701;34137.398
642.097;28101.646;  -11.271;35654.258
642.676;31288.426;   -8.651;35637.957
643.255;32534.641;   -8.711;36567.074
643.833;31606.533;   -9.581;37809.434
644.412;31795.275;  -13.711;37337.293
644.990;31062.836;  -11.811;37018.531
645.569;30706.924;   -9.411;36518.469
646.147;29811.986;  -10.291;36186.430
646.726;29324.240;  -12.401;36267.688
647.304;30569.307;  -10.411;36647.625
647.882;32449.086;   -9.651;39286.742
648.461;34197.008;   -9.631;39157.703
649.039;32762.695;  -11.881;35412.883
649.617;32040.418;   -9.661;34744.918
650.195;31565.434;   -9.301;35403.098
650.773;30456.193;  -10.511;35053.797
651.352;27824.939;  -11.521;33756.816
651.930;25256.658;  -12.211;31868.773
652.508;23555.320;   -9.171;33121.551
653.086;27456.906;   -9.371;33564.793
653.663;30730.590;  -13.161;34054.668
654.241;29306.945;  -13.031;35693.309
654.819;30692.264;   -9.371;36422.906
655.397;30576.359;  -10.511;38213.484
655.975;30303.494;  -10.371;39507.625
656.553;30425.969;  -10.051;39498.223
657.130;28835.994;  -10.061;40395.480
657.708;28002.018;   -9.561;39242.020
658.286;28044.867;  -11.511;38920.020
658.863;29205.803;  -10.261;40202.898
659.441;32023.863;   -7.531;39677.938
660.018;31586.256;   -9.501;40413.355
660.596;30506.674;  -13.301;39931.414
661.173;32506.355;  -11.211;39604.531
661.750;32852.543;   -9.951;39700.070
662.328;31636.359;   -9.390;39292.809
662.905;30657.301;  -11.330;38235.648
663.482;26432.910;   -9.050;36212.305
664.060;24284.951;   -8.240;35944.945
664.637;26939.777;  -10.050;35170.785
665.214;28759.223;  -11.760;34197.523
665.791;30665.191;  -10.530;34549.520
666.368;29576.230;   -9.690;35118.578
666.945;29911.475;   -9.320;36019.418
667.522;31513.887;  -11.860;36048.438
668.099;31633.900;  -10.770;36243.914
668.676;30837.422;   -6.260;35958.875
669.253;29267.738;   -7.000;37384.730
669.830;29527.041;  -10.190;36779.629
670.407;29300.387;   -9.550;35231.289
670.984;29478.350;   -9.260;35544.270
671.560;30142.180;   -9.280;35466.867
672.137;28937.641;  -11.810;34280.863
672.714;29600.779;  -11.490;34632.863
673.290;30360.109;   -7.740;35135.422
673.867;30256.330;  -10.660;36114.480
674.443;30657.051;  -12.230;36152.859
675.020;29073.494;  -10.450;35327.238
675.596;29849.561;   -9.260;35795.176
676.173;30340.145;  -10.780;35430.355
676.749;29892.775;  -13.690;33549.516
677.326;29903.148;  -11.980;32210.012
677.902;30056.125;   -8.630;32068.871
678.478;29264.320;  -10.730;32583.891
679.054;28655.734;  -10.520;32088.928
679.631;29523.947;  -11.920;30978.848
680.207;30658.742;   -7.490;33160.887
680.783;32061.904;   -9.860;35570.363
681.359;31304.625;  -13.380;36125.184
681.935;30500.199;  -12.480;35240.922
682.511;29617.918;   -7.900;34429.961
683.087;29502.369;   -7.710;34463.680
683.663;29083.631;  -11.480;34648.898
684.239;28336.789;  -14.090;34546.457
684.815;28075.320;   -7.560;35586.375
685.390;28323.025;   -9.910;35821.895
685.966;28920.869;  -11.159;35085.871
686.542;31710.904;  -11.169;34198.230
687.118;33789.715;   -5.959;32847.707
687.693;33914.957;  -10.329;32794.027
688.269;33265.684;  -12.059;33072.367
688.844;31340.588;  -10.909;33141.664
689.420;29530.260;   -8.019;33965.742
689.995;27437.771;   -8.399;34655.523
690.571;26114.254;  -10.949;33576.742
691.146;26461.990;   -9.619;32657.219
691.722;25870.633;   -8.999;32526.979
692.297;25346.766;  -11.589;33014.617
692.872;27110.459;  -11.739;34012.254
693.448;26831.893;  -11.059;34237.434
694.023;25939.059;  -10.139;34142.672
694.598;28118.428;   -9.029;34132.031
695.173;28769.205;  -13.319;34205.250
695.748;28256.967;  -10.169;32882.488
696.323;28249.656;   -8.339;32864.906
696.898;28169.408;   -8.169;33170.004
697.473;27883.082;  -12.309;32432.984
698.048;27359.242;  -10.989;31649.303
698.623;27447.109;   -9.329;30778.141
699.198;29114.369;   -9.849;31140.119
699.773;30297.404;  -12.329;31764.299
700.348;28906.416;  -10.389;31780.816
700.922;28925.658;   -9.269;32046.375
701.497;29550.545;   -9.329;32603.574
702.072;29733.193;  -10.789;34799.871
702.646;28813.098;  -10.839;35793.172
703.221;26628.742;   -9.099;35201.590
703.795;28673.346;  -10.939;34764.527
704.370;29271.215;  -12.859;34307.367
704.944;29362.082;  -11.559;33509.887
705.519;30336.150;   -7.939;31388.584
706.093;31596.723;  -10.499;31340.104
706.668;32008.260;  -11.289;32630.281
707.242;30534.912;  -11.509;32728.779
707.816;28917.701;   -9.639;32947.238
708.390;27498.693;  -11.429;33277.855
708.965;28293.816;  -11.869;33834.336
709.539;28629.619;  -11.689;33709.273
710.113;29020.240;  -10.478;33044.313
710.687;28605.232;  -10.228;31953.992
711.261;26638.166;  -13.698;30505.949
711.835;26334.789;  -13.378;30262.369
712.409;26976.367;   -9.698;31254.447
712.983;28541.299;  -11.898;32754.986
713.557;29663.648;  -15.138;34018.824
714.131;29478.346;  -14.098;34579.625
714.704;28498.525;   -9.958;33890.262
715.278;25993.020;  -10.028;33531.102
715.852;25246.336;  -11.148;33601.660
716.425;26239.764;   -9.068;33515.117
716.999;26944.111;  -10.038;33185.555
717.573;27875.287;   -9.798;33905.996
718.146;29199.027;  -12.378;35199.293
718.720;28933.041;  -11.918;35060.551
719.293;28296.055;   -8.088;34973.230
719.867;31231.797;  -10.888;36394.449
720.440;31395.982;  -11.938;36663.008
721.013;29849.545;  -12.818;35102.426
721.587;28407.711;  -10.298;33985.266
722.160;26773.799;  -10.048;33524.965
722.733;25747.350;  -12.108;32987.043
723.306;26327.154;  -10.818;33066.301
723.880;28218.285;   -8.908;33399.500
724.453;29992.322;   -9.878;33468.297
725.026;29084.572;  -11.188;33816.637
725.599;26516.801;  -11.678;32797.996
726.172;26812.246;   -9.618;33187.434
726.745;28135.852;   -8.258;35136.613
727.318;29687.852;  -12.978;35751.730
727.891;30541.256;  -12.148;35890.430
728.463;30415.984;   -8.968;34822.090
729.036;29171.654;  -10.188;32895.086
729.609;29343.471;  -11.788;31823.225
730.182;26171.500;  -11.788;31445.283
730.754;23677.930;  -10.268;32373.223
731.327;23774.287;   -9.998;33676.820
731.900;23866.010;  -12.228;33417.000
732.472;25073.701;  -13.848;31978.498
733.045;27264.039;   -8.698;30368.777
733.617;27278.814;  -10.607;30574.215
734.190;26958.846;  -11.507;31280.975
734.762;24291.217;  -13.647;31674.412
735.334;22463.031;   -9.767;31247.291
735.907;22716.557;   -9.897;29876.211
736.479;22669.969;  -11.637;29808.488
737.051;22386.113;   -9.567;30233.547
737.623;23602.504;   -8.187;31469.086
738.195;24499.232;  -11.187;31784.225
738.768;26402.340;  -12.337;32120.523
739.340;26643.398;  -12.227;32094.342
739.912;25483.738;  -11.057;31312.680
740.484;24287.520;  -10.207;31946.238
741.056;23035.916;  -10.047;32984.059
741.628;24548.059;  -13.627;33897.715
742.199;26893.096;   -7.177;33213.016
742.771;25366.676;  -10.797;31369.113
743.343;23079.033;  -11.997;31865.473
743.915;21890.307;  -12.867;32388.631
744.487;21968.326;   -7.617;31079.568
745.058;22178.057;   -9.557;30570.107
745.630;22980.541;   -9.877;29970.127
746.201;24165.688;  -14.177;29186.766
746.773;24614.688;   -9.237;28805.723
747.344;24422.717;   -9.847;29591.223
747.916;22708.441;  -11.657;31412.201
748.487;22394.270;  -10.587;32194.898
749.059;23643.639;   -8.707;32533.719
749.630;24779.795;  -10.537;32158.518
750.201;23863.260;  -11.687;30855.395
750.773;22036.705;  -11.647;28622.555
751.344;21945.646;   -7.147;28405.732
751.915;22913.102;   -9.757;28461.551
752.486;22455.283;  -12.427;27842.850
753.057;20235.406;  -12.227;27845.008
753.628;19073.975;  -10.417;27728.107
754.199;20209.902;  -11.767;27381.086
754.770;21411.799;  -11.187;25882.203
755.341;21497.088;  -10.507;25886.184
755.912;21736.965;   -9.387;26050.861
756.483;21071.926;  -10.647;26798.779
757.054;19200.527;  -11.837;27048.238
757.625;17882.234;  -12.716;26294.838
758.195;17691.369;   -9.666;26142.076
758.766;17342.691;   -8.656;26392.234
759.337;18109.898;  -12.856;26334.594
759.907;19939.236;  -13.366;27579.652
760.478;20837.285;   -8.576;28352.770
761.048;20331.635;  -10.526;27325.088
761.619;19478.936;  -11.116;26460.428
762.189;19368.402;  -12.136;26029.826
762.760;20265.270;   -9.456;26430.145
763.330;21505.225;   -7.136;26670.902
763.900;21027.939;  -11.786;26603.021
764.471;18305.814;  -11.546;25542.740
765.041;17006.545;   -8.096;24358.459
765.611;17171.234;   -8.876;23991.297
766.181;17613.471;  -12.196;24470.236
766.751;18467.520;  -11.636;24845.975
767.321;18423.924;  -10.156;24533.633
767.891;16466.125;  -11.766;24916.492
768.461;15778.380;  -14.936;24776.771
769.031;16264.498;  -12.356;24757.988
769.601;18031.375;   -7.526;24181.088
770.171;18056.340;  -10.766;23670.387
770.741;16949.346;  -13.176;22960.045
771.311;17009.580;  -10.616;22917.523
771.880;17507.596;   -9.576;23562.941
772.450;17090.752;  -10.336;24216.500
773.020;16974.676;  -13.516;24140.398
773.589;16600.215;  -13.466;24414.857
774.159;16167.624;   -8.686;23858.717
774.729;15682.992;   -9.476;22942.135
775.298;15188.154;  -13.666;22324.033
775.867;14782.947;  -11.716;21140.313
776.437;14931.267;   -9.906;20838.092
777.006;14637.093;  -12.166;20599.510
777.576;14521.213;  -12.356;20508.809
778.145;14649.697;  -11.646;20732.947
778.714;14577.079;   -8.226;21062.465
779.283;13790.253;   -9.556;20949.664
779.853;13254.938;  -14.116;20508.623
780.422;13608.406;  -11.506;20649.082
780.991;13209.315;   -9.556;21527.520
781.560;12157.803;   -9.095;22632.658
782.129;11958.563;  -12.135;23048.277
782.698;11951.837;  -10.865;23438.555
783.267;11606.658;   -9.335;23267.734
783.836;11563.522;  -11.045;22415.133
784.404;12598.550;  -13.865;20443.152
784.973;13093.243;  -13.095;19699.150
785.542;12914.427;  -11.575;19763.828
786.111;12741.441;   -9.705;20341.408
786.679;12366.770;  -12.105;20207.967
787.248;12187.294;  -12.455;19516.465
787.817;12011.058;  -11.535;18900.363
788.385;11596.686;   -9.765;17879.121
788.954;10984.235;  -14.005;17658.301
789.522;10472.896;  -11.955;17788.879
790.090;10993.821;  -10.135;18118.277
790.659;11473.915;  -10.975;18338.736
791.227;10916.666;  -13.375;18508.615
791.795;11281.327;  -12.375;17898.254
792.364;11692.813;  -10.725;17295.133
792.932;12077.544;   -9.715;16822.051
793.500;12349.780;  -12.675;17040.148
794.068;12611.212;  -13.495;17179.787
794.636;12763.823;  -10.885;16664.246
795.204;12170.126;  -11.045;16524.545
795.772;12171.637;  -13.175;17274.564
796.340;11662.230;  -12.445;17891.002
796.908;11452.535;   -9.735;17648.561
797.476;11438.081;   -9.815;17064.080
798.044;11027.281;  -13.985;16672.777
798.612;10216.181;  -13.115;17023.996
799.180; 9840.917;  -10.185;16561.615
799.747; 9688.235;   -9.055;15962.773
800.315; 9387.521;  -12.385;15296.992
800.883; 9130.562;  -15.035;14801.771
801.450; 9183.217;  -10.365;14534.430
802.018; 9238.288;   -9.855;14173.248
802.585; 9274.015;  -11.905;14029.547
803.153; 9319.486;  -11.585;13836.846
803.720; 9215.461;   -9.095;13567.324
804.287; 8852.041;   -9.135;13360.622
804.855; 8393.354;  -11.604;13681.981
805.422; 8225.833;  -11.794;13536.560
805.989; 8203.213;  -10.734;13355.958
806.556; 8346.044;  -10.444;13747.896
807.124; 8638.467;  -12.764;13987.376
807.691; 8607.117;  -12.964;14038.674
808.258; 8424.426;  -11.134;14120.152
808.825; 8095.238;   -9.854;13860.111
809.392; 8183.123;  -10.504;13268.790
809.959; 7706.577;  -13.054;12680.389
810.526; 7260.283;   -8.294;12427.308
811.093; 7297.559;   -8.394;12030.105
811.659; 7932.508;  -12.304;11653.664
812.226; 8437.489;  -13.944;11637.183
812.793; 8133.826;  -10.484;11611.521
813.360; 7487.163;  -10.144;11885.181
813.926; 7086.955;  -11.684;12770.539
814.493; 6801.010;  -13.644;12677.638
815.060; 6412.745;   -9.724;11974.336
815.626; 6416.832;   -9.854;11594.715
816.193; 6823.719;  -13.254;11579.474
816.759; 6893.722;  -13.204;11666.972
817.325; 6993.723;   -9.434;11325.530
817.892; 7310.329;  -10.134;11105.369
818.458; 7709.420;  -13.474;10843.928
819.024; 7393.043;  -11.854;10714.406
819.591; 7056.884;  -10.244;10469.165
820.157; 6823.055;  -10.704;10235.523
820.723; 6302.209;  -12.324;10847.563
821.289; 6001.142;   -9.444;11040.980
821.855; 5951.687;   -8.374;10357.100
822.421; 5986.851;  -10.234; 9978.918
822.987; 5941.502;  -13.294; 9754.177
823.553; 5586.571;  -10.884;10065.755
824.119; 5401.321;   -8.884;10036.294
824.685; 5517.826;   -6.784;10029.192
825.251; 5621.314;  -12.004;10199.230
825.816; 5557.632;  -11.474; 9820.189
826.382; 5296.604;   -9.174; 9297.248
826.948; 5459.424;   -9.214; 9381.347
827.513; 5905.392;  -10.774; 9450.726
828.079; 5780.812;  -11.924; 9472.444
828.645; 5191.973;  -10.543; 9292.643
829.210; 5040.552;  -10.533; 9065.341
829.776; 5019.649;  -10.753; 9132.620
830.341; 4887.643;  -10.173; 9092.878
830.906; 5042.565;  -10.743; 9078.557
831.472; 5419.499;  -11.113; 8534.535
832.037; 5234.822;  -10.603; 8677.874
832.602; 4688.741;  -13.323; 8628.692
833.167; 4362.775;  -10.823; 8879.031
833.733; 4292.036;  -10.113; 9189.790
834.298; 4409.080;  -13.583; 9052.608
834.863; 4460.660;  -12.703; 8895.087
835.428; 4430.449;  -10.523; 8824.266
835.993; 4333.429;   -6.963; 8845.385
836.558; 4198.215;  -10.763; 8888.563
837.123; 4292.461;   -9.903; 8966.582
837.688; 4499.658;   -9.913; 8617.860
838.253; 4703.498;  -10.283; 8590.699
838.817; 4906.312;  -12.963; 8443.797
839.382; 4858.506;  -14.243; 8799.356
839.947; 4541.975;  -10.733; 8810.595
840.511; 4214.896;   -9.383; 8796.394
841.076; 3836.667;  -12.563; 8347.231
841.641; 3879.409;  -12.953; 8224.330
842.205; 3974.379;   -7.043; 8223.349
842.770; 4044.847;   -8.163; 8622.107
843.334; 4249.130;  -12.503; 8410.386
843.898; 4256.867;  -11.693; 8337.465
844.463; 4293.876;  -10.203; 8506.283
845.027; 4077.660;   -9.533; 8280.962
845.591; 3875.258;  -13.443; 8231.141
846.156; 3886.200;  -13.143; 7969.179
846.720; 3757.939;   -9.433; 7768.278
847.284; 3632.311;  -11.033; 7630.957
847.848; 3464.331;  -10.403; 7472.395
848.412; 3366.228;  -11.553; 7437.394
848.976; 3407.731;   -8.393; 7674.592
849.540; 3350.184;   -8.713; 7836.011
850.104; 3417.748;  -12.463; 7913.669
850.668; 3771.611;  -12.973; 7694.508
851.232; 3914.754;  -10.793; 7756.887
851.796; 3739.930;  -10.662; 7926.545
852.359; 3415.107;  -13.082; 7827.844
852.923; 3244.469;  -12.192; 7641.163
853.487; 3071.327;  -11.912; 7342.501
854.050; 3000.809;  -10.892; 7042.820
854.614; 3138.575;  -13.992; 7151.338
855.177; 3257.347;  -11.732; 7105.077
855.741; 3326.750;   -8.962; 6989.675
856.304; 3234.138;   -9.442; 6596.634
856.868; 3169.115;  -14.192; 6356.272
857.431; 3276.398;  -12.702; 6468.571
857.995; 3399.014;   -9.942; 6373.210
858.558; 3417.590;   -9.112; 6324.448
859.121; 3154.995;  -12.932; 6408.327
859.684; 3005.927;  -13.442; 6347.886
860.247; 3122.991;  -10.632; 6321.264
860.810; 3126.012;  -11.272; 6301.903
861.374; 2893.223;   -9.832; 6607.881
861.937; 2626.729;  -11.762; 6408.200
862.500; 2592.113;   -9.722; 6572.639
863.062; 2748.323;  -10.512; 6387.297
863.625; 2922.925;  -11.232; 6190.836
864.188; 3089.202;  -14.112; 5807.254
864.751; 3157.734;  -11.302; 5682.413
865.314; 3060.702;  -10.112; 5547.492
865.876; 2874.479;  -12.182; 5500.150
866.439; 2873.513;  -10.722; 5415.909
867.002; 2848.086;   -9.252; 5501.567
867.564; 2635.749;   -9.572; 5413.946
868.127; 2411.164;  -13.142; 5160.325
868.689; 2311.091;  -12.902; 5133.183
869.252; 2247.169;   -9.732; 5252.382
869.814; 2165.372;   -9.432; 5297.141
870.377; 2184.449;  -11.552; 5390.919
870.939; 2260.504;   -9.052; 5599.898
871.501; 2323.519;  -10.982; 5248.336
872.063; 2329.299;  -12.292; 4854.235
872.626; 2283.731;  -14.912; 4817.074
873.188; 2284.618;  -13.112; 4987.732
873.750; 2252.800;  -13.442; 4868.651
874.312; 2160.886;   -9.402; 4779.330
874.874; 2079.458;  -11.062; 4866.348
875.436; 2012.791;  -13.931; 4718.887
875.998; 2023.601;   -9.561; 4660.005
876.560; 2055.785;  -11.321; 4462.964
877.122; 1996.212;  -12.221; 4145.042
877.683; 1889.236;  -12.191; 4056.481
878.245; 1802.294;  -12.101; 3950.740
878.807; 1848.708;   -8.971; 4058.958
879.369; 1922.316;  -12.071; 3954.677
879.930; 1923.767;  -14.621; 3941.495
880.492; 1967.574;  -10.311; 4067.014
881.053; 1974.411;  -10.901; 3859.633
881.615; 1701.729;  -14.411; 3776.071
882.176; 1317.834;  -13.761; 3734.750
882.738; 1002.465;   -9.181; 3678.489
883.299;  834.138;  -11.791; 3405.407
883.860;  811.135;  -13.121; 3351.106
884.422;  863.795;  -11.211; 3394.044
884.983;  903.037;  -10.091; 3166.443
885.544;  900.940;   -8.461; 3189.802
886.105;  893.624;  -12.361; 3160.360
886.666;  879.983;  -14.141; 3093.059
887.227;  861.055;  -11.361; 2941.957
887.788;  825.771;  -11.401; 2974.836
888.349;  782.142;  -13.791; 2721.214
888.910;  788.703;  -13.191; 2696.493
889.471;  804.697;   -9.881; 2560.172
890.032;  797.698;   -9.881; 2558.190
890.593;  777.099;  -10.371; 2567.669
891.153;  753.969;  -13.301; 2460.307
891.714;  713.890;  -11.431; 2372.046
892.275;  685.315;  -11.291; 2309.505
892.835;  656.057;  -11.471; 2382.543
893.396;  605.151;  -11.541; 2295.502
893.956;  552.251;  -11.181; 2162.420
894.517;  516.124;  -11.741; 2125.439
895.077;  511.315;  -11.671; 2086.978
895.638;  512.964;  -11.311; 2126.316
896.198;  486.213;   -9.831; 1838.275
896.758;  443.777;   -8.421; 1892.813
897.319;  412.897;  -12.351; 1792.232
897.879;  396.856;  -13.511; 1762.751
898.439;  373.512;  -12.001; 1661.149
898.999;  347.540;  -10.180; 1781.468
899.559;  338.091;  -12.030; 1703.347
900.119;  333.675;  -15.710; 1537.525
900.679;  331.670;   -8.900; 1638.384
901.239;  320.034;   -8.340; 1527.902
901.799;  309.610;  -13.910; 1456.441
902.359;  301.755;  -13.460; 1357.140
902.919;  295.976;  -11.490; 1331.118
903.479;  282.611;  -12.110; 1317.257
904.038;  260.576;  -11.720; 1262.595
904.598;  243.678;  -13.610; 1152.034
905.158;  240.927;  -11.040; 1240.893
905.717;  234.510;  -10.900; 1233.691
906.277;  222.991;  -15.080; 1217.330
906.836;  214.731;  -13.380; 1222.408
907.396;  207.261;  -10.780; 1193.047
907.955;  200.594;   -8.500; 1182.526
908.515;  195.269;  -12.760; 1099.364
909.074;  187.825;  -11.900; 1092.863
909.633;  182.515;   -8.950; 1069.121
910.192;  176.628;   -8.770; 1196.460
910.752;  170.445;  -12.390; 1029.960
911.311;  163.999;  -13.680; 1009.780
911.870;  160.396;  -12.370;  971.460
912.429;  159.540;  -10.900; 1094.080
912.988;  158.541;  -11.690; 1081.060
913.547;  156.029;  -13.240;  940.380
914.106;  151.785;  -11.990;  999.420
914.665;  150.457;   -9.990;  984.020
915.224;  147.081;  -12.880; 1035.760
915.782;  148.014;  -12.350;  922.560
916.341;  148.176;   -9.110; 1049.840
916.900;  145.218;   -9.270;  925.260
917.458;  142.970;  -13.240;  884.220
918.017;  143.321;  -13.550;  942.600
918.576;  141.918;  -12.320;  904.440
919.134;  140.463;  -11.490;  837.980
919.693;  138.325;  -13.670;  893.060
920.251;  136.655;  -15.470;  876.500
920.809;  136.230;  -11.290;  839.580
921.368;  136.491;  -10.210;  885.360
921.926;  134.488;  -12.140;  842.940
922.484;  133.510;  -13.080;  903.360
923.042;  132.765;  -11.720;  880.340
923.601;  135.910;   -7.480;  998.680
924.159;  134.079;  -11.570;  935.560
924.717;  131.736;  -13.840;  841.080
925.275;  130.663;  -10.640;  903.240
925.833;  130.992;  -11.540;  779.320
926.391;  131.608;  -12.960;  938.380
926.949;  129.799;  -14.130;  857.680
927.506;  130.387;  -11.750;  903.500
928.064;  130.204;  -10.250;  877.580
928.622;  129.210;  -13.030;  880.100
929.180;  128.786;  -13.400;  814.180
929.737;  130.927;  -10.700;  808.540
930.295;  133.568;  -10.070;  928.480
930.853;  135.509;  -11.960;  849.100
931.410;  136.144;  -13.120;  821.120
931.968;  135.461;  -10.770;  940.660
932.525;  135.792;  -10.680;  909.380
933.082;  135.208;  -13.130;  811.440
933.640;  136.327;  -13.210;  925.900
934.197;  135.548;  -11.060;  886.360
934.754;  135.997;   -9.580;  897.780
935.312;  138.407;  -14.000;  863.340
935.869;  142.325;  -10.710; 1012.980
936.426;  142.778;   -9.860;  872.800
936.983;  144.098;   -9.710;  889.020
937.540;  143.278;  -13.990;  838.280
938.097;  141.700;  -14.040;  940.120
938.654;  142.733;  -10.310;  898.860
939.211;  145.293;  -10.560;  952.480
939.768;  148.560;  -13.900;  915.420
940.324;  151.859;  -14.760;  904.200
940.881;  152.348;  -10.370;  878.500
941.438;  154.214;   -8.260; 1021.200
941.995;  149.756;  -12.540;  992.560
942.551;  146.435;  -14.670;  875.620
943.108;  147.126;  -10.450;  937.920
943.664;  149.196;  -10.750;  869.340
944.221;  151.878;  -11.550; 1088.140
944.777;  149.522;  -14.770;  869.680
945.334;  151.105;  -12.820;  884.840
945.890;  153.563;  -10.130;  946.480
946.446;  153.627;  -13.470;  947.020
947.003;  155.746;  -12.120;  964.940
947.559;  156.969;   -9.980; 1063.040
948.115;  156.948;   -9.080; 1026.540
948.671;  154.354;  -10.830;  967.300
949.227;  151.662;  -12.440;  859.560
949.783;  148.886;  -12.910;  858.900
950.339;  150.591;  -10.270;  991.000
950.895;  150.810;  -13.630; 1023.840
951.451;  150.308;  -15.100;  925.280
952.007;  151.549;  -11.330;  998.540
952.563;  152.321;  -10.580;  937.780
953.118;  150.858;  -13.440;  904.940
953.674;  150.357;  -12.710;  935.780
954.230;  149.944;  -10.350;  949.640
954.785;  148.284;   -9.190;  936.640
955.341;  145.723;  -11.200;  998.160
955.897;  143.315;  -16.560;  834.660
956.452;  146.178;  -12.570;  953.840
957.008;  145.005;   -7.970; 1083.640
957.563;  142.100;  -11.940; 1009.540
958.118;  137.428;  -13.450;  877.700
958.674;  137.920;  -12.030;  946.780
959.229;  139.050;   -9.410; 1013.980
959.784;  137.537;  -12.000;  832.400
960.339;  136.178;  -14.780; 1001.280
960.894;  132.881;   -9.860;  963.760
961.449;  128.730;   -9.970;  859.960
962.004;  129.643;  -10.900; 1212.840
962.559;  123.370;  -13.150;  860.140
963.114;  121.205;  -13.740;  742.480
963.669;  121.885;   -9.820;  915.500
964.224;  119.949;  -13.890;  874.340
964.779;  118.946;  -12.600;  828.420
965.334;  120.387;  -10.950; 1017.860
965.888;  119.195;  -11.170;  875.360
966.443;  121.772;  -12.540;  972.380
966.998;  120.735;  -15.780;  819.460
967.552;  120.161;   -9.760;  908.380
968.107;  116.246;   -9.060;  868.300
968.661;  116.987;  -11.950;  922.440
969.216;  118.029;  -12.800;  856.280
969.770;  118.800;  -11.210;  917.200
970.324;  117.195;  -11.610;  923.140
970.879;  114.402;  -11.370;  947.180
971.433;  110.691;  -12.540;  952.720
971.987;  105.690;  -11.320;  895.340
972.541;  103.083;  -10.720;  917.100
973.095;  102.874;   -9.680; 1009.460
973.649;  100.936;  -11.440;  809.480
974.203;   99.926;  -11.210;  829.040
974.757;  100.706;  -10.240;  855.220
975.311;  100.688;  -13.720;  872.600
975.865;   99.949;  -13.770;  881.820
976.419;   97.876;  -11.690;  857.400
976.973;   98.406;   -9.510;  849.620
977.526;   99.867;  -12.620;  949.920
978.080;   99.161;  -12.010;  796.780
978.634;  100.785;  -10.170;  921.320
979.187;   97.767;   -9.020;  905.400
979.741;   95.807;   -9.820; 1018.380
980.294;   91.117;  -14.870;  789.160
980.848;   89.211;  -12.380;  717.220
981.401;   91.227;  -10.350;  816.540
981.955;   92.515;  -13.720;  844.300
982.508;   92.095;  -11.490;  746.340
983.061;   91.676;  -10.000;  915.260
983.615;   87.904;  -11.480;  798.800
984.168;   84.580;  -13.220;  770.080
984.721;   84.418;  -13.960;  880.760
985.274;   84.296;  -10.870;  867.500
985.827;   82.641;   -9.790;  834.220
986.380;   80.186;  -13.120;  721.340
986.933;   78.699;  -12.450;  864.800
987.486;   78.405;  -10.210;  861.920
988.039;   77.004;   -8.430;  863.100
988.591;   74.245;  -10.520;  893.260
989.144;   72.099;  -14.860;  737.260
989.697;   71.733;  -13.080;  758.740
990.250;   71.916;  -10.150;  858.100
990.802;   70.910;  -13.430;  755.860
991.355;   72.441;  -12.750;  974.880
991.907;   69.863;  -12.040;  864.320
992.460;   67.285;  -11.330;  753.760
993.012;   66.709;  -13.610;  749.540
993.565;   66.145;  -13.460;  711.360
994.117;   67.469;   -9.360;  950.780
994.669;   63.541;  -11.300;  701.320
995.221;   61.664;  -13.540;  791.920
995.774;   59.904;  -13.430;  787.580
996.326;   59.084;  -12.520;  740.220
996.878;   58.579;  -10.950;  838.420
997.430;   55.701;  -14.300;  699.860
997.982;   55.574;  -13.760;  750.140
998.534;   55.055;  -11.530;  739.060
999.086;   53.618;  -10.310;  738.220
999.638;   51.849;  -12.530;  661.380
1000.190;   51.315;  -11.840;  699.320
1000.741;   51.447;  -10.260;  742.700
1001.293;   51.561;   -8.860;  686.020
1001.845;   49.426;  -13.700;  676.640
1002.396;   49.722;  -12.100;  743.400
1002.948;   49.686;  -12.760;  737.400
1003.500;   48.105;  -10.380;  723.780
1004.051;   47.866;  -11.900;  907.580
1004.603;   46.076;  -12.250;  791.820
1005.154;   43.021;  -13.210;  608.980
1005.705;   41.707;  -10.950;  723.960
1006.257;   41.033;  -13.880;  707.220
1006.808;   40.457;  -12.840;  685.460
1007.359;   40.792;  -10.570;  763.240
1007.910;   39.196;   -9.620;  646.640
1008.461;   38.864;  -13.630;  732.940
1009.013;   37.906;  -17.200;  588.340
1009.564;   39.542;  -10.200;  793.520
1010.115;   37.331;  -12.570;  597.040
1010.665;   36.685;  -15.150;  602.160
1011.216;   36.572;  -14.480;  667.920
1011.767;   36.426;  -11.340;  697.920
1012.318;   36.807;   -9.780;  736.980
1012.869;   35.094;  -12.380;  679.000
1013.419;   34.451;  -15.560;  603.120
1013.970;   35.412;  -11.010;  666.640
1014.521;   34.360;  -11.610;  620.620
1015.071;   34.290;  -13.450;  670.380
1015.622;   34.150;  -13.870;  635.460
1016.172;   33.539;  -11.610;  596.820
1016.723;   33.363;  -12.120;  614.380
1017.273;   32.343;  -13.620;  604.160
1017.823;   32.858;  -14.140;  650.340
1018.374;   32.524;  -12.800;  611.760
1018.924;   32.371;  -12.340;  716.880
1019.474;   32.816;  -11.410;  718.880
1020.024;   30.942;  -14.770;  657.580
1020.574;   31.842;   -9.780;  726.160
1021.124;   32.419;   -8.560;  673.580
1021.674;   31.013;  -15.190;  559.120
1022.224;   31.894;  -13.530;  708.940
1022.774;   31.856;  -13.280;  668.820
1023.324;   32.233;  -10.690;  753.520
1023.874;   32.786;  -10.240;  875.760
1024.423;   30.485;  -12.540;  613.700
1024.973;   29.919;  -10.010;  610.760
1025.523;   29.236;  -10.550;  620.960
1026.072;   29.578;  -13.560;  606.420
1026.622;   28.779;  -15.120;  675.740
1027.172;   30.498;  -11.260;  715.660
1027.721;   28.731;  -11.410;  601.220
1028.270;   29.232;  -13.530;  663.400
1028.820;   29.272;  -13.680;  638.080
1029.369;   28.432;  -13.520;  612.700
1029.918;   29.028;  -10.980;  649.840
1030.468;   28.046;  -13.530;  564.780
1031.017;   28.673;  -13.170;  634.800
1031.566;   27.209;  -12.200;  608.900
1032.115;   28.089;   -9.960;  694.500
1032.664;   26.460;  -13.210;  596.480
1033.213;   27.718;  -12.500;  735.420
1033.762;   26.626;  -11.910;  635.620
1034.311;   26.891;   -9.640;  677.220
1034.860;   27.056;  -13.310;  691.000
1035.408;   27.185;  -11.830;  722.720
1035.957;   28.071;  -12.000;  719.540
1036.506;   25.094;  -11.690;  530.800
1037.055;   26.975;  -10.990;  844.320
1037.603;   25.991;  -15.120;  664.000
1038.152;   24.254;  -12.450;  534.760
1038.700;   25.191;  -10.560;  585.740
1039.249;   24.511;  -11.080;  681.220
1039.797;   25.294;  -12.540;  633.360
1040.345;   25.198;  -11.920;  705.420
1040.894;   25.175;  -11.410;  625.300
1041.442;   24.742;  -14.320;  632.200
1041.990;   23.121;  -16.240;  559.160
1042.538;   23.397;  -11.680;  536.180
1043.087;   23.812;  -10.760;  570.860
1043.635;   24.414;  -11.850;  670.500
1044.183;   23.294;  -15.480;  586.400
1044.731;   23.262;  -11.770;  576.000
1045.279;   22.644;  -13.090;  674.920
1045.827;   25.358;  -12.440;  892.400
1046.374;   21.914;  -13.840;  515.420
1046.922;   21.507;  -13.220;  590.580
1047.470;   23.194;  -10.230;  691.300
1048.018;   22.589;  -14.590;  647.960
1048.565;   23.555;  -12.050;  708.600
1049.113;   21.475;  -11.650;  557.000
1049.660;   21.609;  -10.510;  629.660
1050.208;   22.745;  -13.310;  675.640
1050.755;   20.915;  -15.900;  606.580
1051.303;   21.919;  -11.430;  686.820
1051.850;   21.599;   -8.480;  635.120
1052.397;   19.276;  -15.010;  473.960
1052.945;   19.629;  -13.960;  617.760
1053.492;   22.051;  -13.150;  741.840
1054.039;   22.336;   -9.630;  720.180
1054.586;   20.785;  -13.680;  557.240
1055.133;   20.509;  -14.570;  693.140
1055.680;   20.968;  -13.820;  646.620
1056.227;   19.354;  -11.730;  542.780
1056.774;   21.567;  -12.480;  794.980
1057.321;   19.241;  -13.930;  523.260
1057.868;   20.103;  -11.690;  651.320
1058.415;   19.451;   -9.520;  651.980
1058.961;   19.722;  -13.160;  678.940
1059.508;   19.365;  -12.920;  643.820
1060.055;   19.326;  -11.920;  581.780
1060.601;   19.105;  -11.500;  624.300
1061.148;   18.670;  -14.330;  616.820
1061.694;   18.445;  -16.870;  592.580
1062.241;   18.997;  -10.330;  596.320
1062.787;   19.061;  -10.620;  663.140
1063.334;   19.189;  -10.110;  808.560
1063.880;   18.599;  -13.400;  668.360
1064.426;   18.912;  -10.680;  706.820
1064.972;   17.291;   -9.920;  601.340
1065.518;   16.727;  -10.980;  566.640
1066.065;   17.403;  -14.890;  624.460
1066.611;   17.271;  -12.870;  598.800
1067.157;   17.941;  -12.950;  641.860
1067.703;   17.675;  -13.540;  668.480
1068.249;   17.076;  -13.540;  605.220
1068.794;   17.327;  -12.600;  626.880
1069.340;   15.932;  -10.620;  578.960
1069.886;   16.260;  -12.830;  590.700
1070.432;   15.227;  -14.870;  541.720
1070.977;   15.548;  -11.980;  601.080
1071.523;   15.819;   -8.200;  573.060
1072.068;   16.508;  -12.330;  582.000
1072.614;   15.936;  -16.370;  527.760
1073.160;   17.074;  -11.100;  687.040
1073.705;   15.022;  -10.480;  572.520
1074.250;   15.205;  -14.520;  559.900
1074.796;   16.144;  -11.460;  655.160
1075.341;   16.571;  -11.950;  664.100
1075.886;   15.377;  -11.460;  594.240
1076.431;   15.434;  -13.770;  649.880
1076.976;   14.505;  -12.680;  639.220
1077.521;   14.315;  -13.170;  583.080
1078.067;   14.254;  -10.860;  579.400
1078.612;   14.903;  -13.920;  661.620
1079.156;   14.659;  -13.880;  601.540
1079.701;   15.487;  -13.120;  693.260
1080.246;   15.394;   -9.940;  696.300
1080.791;   14.641;  -14.740;  625.020
1081.336;   14.728;  -13.750;  659.320
1081.880;   14.701;  -13.400;  649.680
1082.425;   12.975;  -12.220;  573.480
1082.970;   14.833;  -11.610;  717.040
1083.514;   13.590;  -13.580;  597.000
1084.059;   13.402;  -12.810;  586.720
1084.603;   13.005;  -12.320;  565.840
1085.147;   13.770;  -13.190;  645.220
1085.692;   14.363;  -12.480;  716.800
1086.236;   12.214;  -13.020;  503.140
1086.780;   14.953;   -9.190;  751.440
1087.325;   13.624;  -12.480;  654.620
1087.869;   12.961;  -12.450;  610.700
1088.413;   13.439;  -12.240;  705.040
1088.957;   11.037;   -9.020;  543.400
1089.501;   13.497;  -10.320;  766.640
1090.045;   13.023;  -12.720;  726.480
1090.589;   11.637;  -13.690;  569.920
1091.133;   11.881;  -10.020;  673.340
1091.676;   11.882;  -12.330;  591.940
1092.220;   11.794;  -14.970;  600.920
1092.764;   13.039;  -12.430;  706.960
1093.307;   12.154;   -9.800;  673.780
1093.851;   10.620;  -14.970;  556.540
1094.395;   11.207;  -15.310;  683.140
1094.938;   10.786;  -10.370;  632.520
1095.482;   10.940;  -11.050;  559.800
1096.025;   11.420;  -11.840;  710.880
1096.568;   12.115;  -12.840;  779.280
1097.112;   10.091;  -14.700;  508.180
1097.655;   10.928;   -8.720;  603.000
1098.198;    9.408;  -13.610;  600.180
1098.741;   10.578;  -13.350;  612.860
1099.285;   10.690;  -11.230;  657.300
1099.828;    8.836;  -11.840;  439.400
1100.371;   10.135;  -10.840;  608.160
1100.914;   10.348;  -14.190;  682.660
1101.457;   10.651;  -11.240;  679.900
1101.999;    8.773;  -11.270;  584.680
1102.542;    9.473;  -11.480;  641.440
1103.085;    9.089;  -11.750;  658.500
1103.628;    9.938;  -11.400;  762.060
1104.170;    9.758;  -10.490;  588.280
1104.713;   10.063;  -10.600;  646.700
1105.256;    9.149;  -14.360;  557.440
1105.798;    8.377;  -13.210;  499.980
1106.341;   10.117;  -10.270;  728.900
1106.883;    8.113;  -12.200;  521.340
1107.425;    8.947;  -13.110;  668.180
1107.968;    8.520;  -12.840;  612.380
1108.510;    8.666;   -6.480;  684.960
1109.052;    7.374;  -13.940;  612.620
1109.594;    8.375;  -13.690;  554.440
1110.136;    8.672;  -11.880;  643.220
1110.679;    7.790;   -9.500;  633.080
1111.221;    8.125;  -14.160;  604.460
1111.763;    7.691;  -13.980;  559.220
1112.304;    7.846;  -13.880;  547.140
1112.846;    8.403;  -12.210;  666.240
1113.388;   10.314;  -11.390;  942.180
1113.930;    8.099;  -14.540;  694.200
1114.472;    7.358;  -12.640;  606.540
1115.013;    6.517;  -11.620;  551.280
1115.555;    6.026;  -13.640;  587.100
1116.097;    5.150;  -15.380;  579.480
1116.638;    7.901;  -12.640;  684.600
1117.180;    7.180;   -9.850;  667.740
1117.721;    6.966;  -13.690;  568.580
1118.262;    7.581;  -12.680;  677.960
1118.804;    7.609;  -12.530;  637.340
1119.345;    5.837;  -11.690;  578.400
1119.886;    7.026;  -13.380;  704.040
1120.427;    6.346;  -14.070;  589.020
1120.969;    5.388;  -13.500;  597.920
1121.510;    5.456;  -11.480;  563.060
1122.051;    5.767;  -12.830;  723.580
1122.592;    6.407;  -14.290;  655.420
1123.133;    4.947;  -12.400;  547.940
1123.673;    6.386;  -10.130;  706.480
1124.214;    5.491;  -12.930;  612.460
1124.755;    6.459;  -14.380;  639.460
1125.296;    5.562;  -14.000;  627.320
1125.836;    6.196;  -10.070;  691.500
1126.377;    4.788;  -12.640;  599.660
1126.918;    5.576;  -12.960;  614.980
1127.458;    4.836;  -13.350;  622.220
1127.999;    5.731;  -10.750;  656.980
1128.539;    5.271;  -12.350;  694.240
1129.079;    5.007;  -14.860;  632.720
1129.620;    4.531;  -13.840;  558.100
1130.160;    4.397;  -12.330;  539.480
1130.700;    4.748;  -14.530;  640.840
1131.240;    4.480;  -12.530;  643.700
1131.781;    4.172;  -14.450;  619.680
1132.321;    4.400;   -9.790;  599.120
1132.861;    2.688;  -14.860;  564.200
1133.401;    4.545;  -14.290;  593.940
1133.941;    4.032;  -11.750;  626.280
1134.481;    3.154;   -9.920;  597.580
1135.020;    3.448;  -12.290;  609.160
1135.560;    3.602;  -11.650;  674.940
1136.100;    3.163;  -16.270;  501.160
1136.640;    2.437;  -10.890;  510.480
1137.179;    2.717;  -14.180;  537.960
1137.719;    2.812;  -16.250;  605.400
1138.258;    3.464;  -14.230;  587.360
1138.798;    3.331;   -9.090;  663.780
1139.337;    2.115;  -15.130;  482.840
1139.877;    2.274;  -13.680;  642.360
1140.416;    5.060;  -11.320;  878.060
1140.955;    3.050;  -10.860;  535.380
1141.494;    2.407;  -12.920;  669.280
1142.034;    2.257;  -13.930;  583.520
1142.573;    3.508;  -11.440;  646.280
1143.112;    2.674;  -12.000;  553.480
1143.651;    1.746;  -13.670;  536.480
1144.190;    2.415;  -12.730;  691.640
1144.729;    2.887;  -14.560;  607.420
1145.267;    2.632;  -11.830;  584.900
1145.806;    2.857;  -12.230;  637.040
1146.345;    1.217;  -14.130;  635.020
1146.884;    1.856;  -11.590;  622.500
1147.422;    1.087;  -12.550;  533.060
1147.961;    2.570;  -11.180;  708.460
1148.500;    2.402;  -11.510;  669.720
1149.038;    2.886;  -11.640;  632.500
1149.577;    2.536;  -10.130;  698.640
1150.115;   -0.048;  -13.970;  452.280
1150.653;    1.551;  -14.520;  607.340
1151.192;    1.548;  -12.810;  552.920
1151.730;    1.913;   -9.100;  652.560
1152.268;    0.520;  -12.220;  589.520
1152.806;    0.806;  -14.140;  571.180
1153.344;    0.100;  -12.350;  577.640
1153.882;    1.626;   -8.980;  600.060
1154.421;   -0.347;  -15.190;  470.620
1154.958;    0.248;  -15.210;  595.240
1155.496;    1.410;  -12.850;  645.280
1156.034;    1.538;   -9.940;  721.880
1156.572;    1.458;  -13.570;  667.060
1157.110;   -0.369;  -14.590;  473.940
1157.647;    1.537;  -13.030;  676.960
1158.185;   -0.121;  -12.140;  564.320
1158.723;   -0.847;  -14.390;  509.200
1159.260;    0.581;  -14.090;  701.700
1159.798;    0.652;  -11.920;  658.160
1160.335;    0.189;  -11.110;  631.820

