
Integration time [ms]:   3.276
Averaging Nr. [scans]: 1000
Smoothing Nr. [pixels]: 0
Data measured with spectrometer [name]: 7414430SP
Wave   ;Sample   ;Dark     ;Reference
[nm]   ;[counts] ;[counts] ;[counts] 

288.544;  150.573;    7.793;  793.890
289.143;  154.759;    7.462;  681.602
289.742;  155.089;    8.602;  828.814
290.341;  140.238;    1.321;  789.841
290.940;  129.014;   -0.709;  730.702
291.538;  131.059;    0.881;  881.108
292.137;  130.523;    0.122;  792.581
292.736;  135.751;   -1.929;  975.101
293.335;  131.830;   -8.229;  735.086
293.934;  131.608;   -5.279;  781.677
294.532;  130.613;   -1.369; 1031.958
295.131;  116.484;   -7.641;  834.394
295.730;  116.873;   -8.420;  809.588
296.328;  115.670;   -5.611;  783.442
296.927;  116.383;   -5.781;  779.652
297.525;  117.071;   -6.361;  781.236
298.124;  107.412;  -11.382;  654.009
298.722;  111.340;   -7.641;  761.933
299.321;  109.269;   -6.811;  708.597
299.919;  107.263;   -6.991;  751.918
300.518;  104.468;  -10.362;  689.338
301.116;  106.021;   -9.581;  691.381
301.715;  105.304;   -4.891;  730.222
302.313;  105.119;   -8.801;  704.943
302.911;  100.329;   -8.522;  733.830
303.509;  105.570;   -6.171;  925.627
304.108;  103.167;   -7.311;  760.383
304.706;  102.728;   -8.321;  801.664
305.304;   96.339;  -10.222;  796.707
305.902;  101.868;   -6.021;  784.484
306.500;   98.034;   -4.971;  728.200
307.098;   96.066;   -7.061;  746.560
307.696;   94.368;   -8.801;  780.432
308.294;   94.987;   -6.411;  731.359
308.892;   97.049;   -2.901;  759.769
309.490;   92.996;   -5.041;  712.161
310.088;   91.581;   -5.002;  788.444
310.686;   94.963;   -2.041;  821.749
311.284;   90.818;   -2.351;  766.040
311.882;   88.782;   -4.422;  731.225
312.480;   85.760;   -4.192;  697.167
313.078;   87.572;   -1.172;  808.331
313.675;   87.900;   -2.601;  691.600
314.273;   83.533;   -1.312;  797.837
314.871;   82.464;   -3.942;  589.829
315.468;   81.316;   -2.802;  652.090
316.066;   83.878;   -0.701;  694.427
316.664;   75.598;   -4.362;  656.351
317.261;   79.843;   -2.872;  910.128
317.859;   75.572;   -2.022;  768.735
318.456;   75.652;   -0.531;  830.096
319.054;   72.149;   -3.912;  787.828
319.651;   71.394;   -4.752;  759.928
320.249;   70.281;   -2.602;  810.188
320.846;   67.954;   -0.821;  714.286
321.443;   65.029;   -4.642;  832.135
322.041;   61.892;   -5.002;  812.315
322.638;   60.433;   -3.982;  701.456
323.235;   60.944;   -3.411;  665.683
323.833;   58.344;   -7.361;  740.354
324.430;   53.037;   -8.611;  615.900
325.027;   54.448;   -4.061;  876.855
325.624;   54.018;   -4.031;  644.532
326.221;   51.997;   -7.481;  689.717
326.818;   50.861;   -5.281;  818.332
327.415;   54.353;   -7.460;  748.828
328.012;   53.583;   -5.510;  690.585
328.609;   51.778;   -7.880;  731.389
329.206;   49.448;   -8.331;  778.621
329.803;   50.660;   -5.121;  737.841
330.400;   52.816;   -4.510;  704.260
330.997;   55.016;   -6.441;  817.147
331.594;   52.925;   -8.831;  788.185
332.191;   58.402;   -7.621;  728.722
332.787;   61.018;   -4.591;  844.463
333.384;   59.561;   -7.412;  763.093
333.981;   58.524;   -8.293;  815.687
334.578;   61.564;   -7.052;  708.378
335.174;   64.131;   -3.102;  731.469
335.771;   64.003;   -5.943;  836.456
336.367;   60.356;   -7.393;  710.631
336.964;   64.750;   -4.063;  793.266
337.561;   61.998;   -3.813;  731.112
338.157;   58.058;   -4.654;  911.916
338.754;   55.616;   -7.934;  796.589
339.350;   53.337;   -4.414;  722.493
339.946;   56.420;   -4.664;  773.135
340.543;   47.404;   -6.375;  846.136
341.139;   42.836;   -9.815;  720.836
341.735;   40.178;   -4.526;  772.593
342.332;   38.433;   -4.895;  691.472
342.928;   39.386;   -4.295;  795.394
343.524;   33.143;   -5.476;  761.684
344.120;   29.513;   -5.856;  738.562
344.716;   31.767;   -2.155;  723.717
345.313;   30.416;   -6.275;  795.342
345.909;   24.595;   -8.815;  627.336
346.505;   27.303;   -5.305;  740.247
347.101;   28.161;   -2.674;  827.864
347.697;   27.463;   -4.344;  785.398
348.293;   22.554;   -9.975;  627.244
348.889;   22.918;   -5.774;  745.914
349.485;   22.340;   -5.004;  688.205
350.081;   23.960;   -4.704;  772.592
350.676;   18.178;   -6.635;  691.606
351.272;   22.522;   -4.504;  809.530
351.868;   22.003;   -3.914;  780.497
352.464;   19.473;   -9.044;  723.932
353.059;   15.737;   -8.314;  646.017
353.655;   19.558;   -7.024;  777.063
354.251;   20.145;   -5.343;  759.845
354.846;   15.160;   -8.604;  740.646
355.442;   12.187;   -6.945;  753.071
356.038;   14.752;   -7.564;  751.708
356.633;   14.947;   -5.814;  728.594
357.229;   12.291;   -7.364;  724.757
357.824;   10.571;   -8.024;  703.600
358.420;   10.153;   -9.384;  679.726
359.015;   10.430;   -5.104;  695.357
359.610;   11.231;   -6.854;  763.920
360.206;    5.021;  -10.185;  603.240
360.801;    8.353;   -7.054;  646.503
361.396;   10.402;   -5.034;  725.975
361.992;    5.825;   -8.284;  668.220
362.587;    2.763;   -8.625;  670.160
363.182;    4.216;   -7.674;  689.631
363.777;    6.141;   -5.164;  738.242
364.372;    5.282;   -8.604;  737.314
364.967;    1.786;   -9.055;  680.744
365.563;    5.855;   -6.114;  815.567
366.158;    2.745;   -5.814;  685.161
366.753;    3.030;   -7.854;  649.263
367.348;    1.922;   -7.804;  746.056
367.942;    1.947;   -7.954;  697.298
368.537;    0.809;   -4.984;  754.245
369.132;    1.081;   -8.564;  703.428
369.727;   -3.143;   -8.855;  638.079
370.322;   -2.060;   -6.245;  580.186
370.917;   -2.571;   -6.425;  710.646
371.511;    1.426;   -6.294;  861.834
372.106;   -3.421;   -7.685;  776.964
372.701;   -5.941;   -7.335;  585.988
373.296;   -0.422;   -4.564;  863.135
373.890;   -4.957;  -10.235;  647.840
374.485;   -7.131;   -7.885;  691.199
375.079;   -3.334;   -7.324;  738.685
375.674;   -1.347;   -3.494;  812.970
376.268;   -6.569;   -8.525;  691.759
376.863;  -12.349;  -10.086;  580.327
377.457;   -5.684;   -7.025;  662.490
378.052;   -7.750;   -3.585;  764.884
378.646;   -9.101;   -7.595;  741.167
379.240;   -9.155;   -8.335;  721.176
379.835;   -7.181;   -5.785;  636.978
380.429;  -10.538;   -4.335;  562.557
381.023;   -9.611;   -6.805;  779.205
381.617;  -12.959;   -9.195;  680.106
382.212;   -8.824;   -6.905;  685.303
382.806;   -8.578;   -3.745;  760.690
383.400;  -11.921;   -7.745;  672.281
383.994;  -13.283;   -9.765;  664.870
384.588;   -8.724;   -6.564;  697.701
385.182;   -8.269;   -5.344;  726.624
385.776;   -9.540;   -8.514;  706.875
386.370;  -12.935;   -9.555;  681.968
386.964;  -11.986;   -8.715;  684.155
387.558;  -10.082;   -6.174;  598.360
388.152;  -13.500;   -8.725;  681.959
388.745;  -11.902;   -7.965;  814.707
389.339;  -10.209;   -5.924;  747.642
389.933;   -9.045;   -5.524;  695.370
390.527;   -9.458;   -7.114;  859.029
391.120;  -16.382;  -10.725;  595.318
391.714;  -14.311;   -8.035;  711.633
392.308;  -10.344;   -3.574;  780.253
392.901;  -13.985;   -7.245;  642.460
393.495;  -16.534;   -9.285;  595.414
394.089;  -13.843;   -5.895;  760.452
394.682;  -14.031;   -4.295;  697.188
395.275;  -14.689;   -9.875;  719.927
395.869;  -16.775;   -8.485;  667.314
396.462;  -14.500;   -7.455;  616.609
397.056;  -10.545;   -5.424;  776.621
397.649;  -15.876;   -6.605;  731.575
398.242;  -12.868;   -8.224;  712.645
398.836;  -11.735;   -7.474;  766.408
399.429;  -12.383;   -7.094;  631.041
400.022;  -16.575;   -9.475;  665.902
400.615;  -14.177;   -7.145;  805.609
401.208;  -12.142;   -7.174;  691.451
401.802;  -14.851;   -5.515;  699.329
402.395;  -15.232;   -9.875;  683.502
402.988;  -17.164;   -8.845;  696.627
403.581;  -12.543;   -8.874;  646.878
404.174;  -10.991;   -5.324;  686.568
404.767;  -13.768;   -9.575;  638.583
405.360;  -16.635;  -10.965;  621.445
405.953;  -11.897;   -8.764;  759.034
406.545;  -11.119;   -7.514;  725.342
407.138;  -15.185;  -10.025;  618.350
407.731;  -13.756;  -10.034;  613.303
408.324;  -10.019;   -9.374;  660.554
408.917;  -10.291;   -6.534;  681.864
409.509;  -12.701;   -8.004;  740.396
410.102;  -14.630;   -9.875;  643.948
410.695;   -8.169;   -8.604;  665.758
411.287;  -10.133;   -6.794;  599.821
411.880;  -10.702;   -9.334;  585.421
412.472;  -13.772;  -10.254;  613.092
413.065;  -11.290;   -6.714;  629.408
413.657;   -8.878;   -7.234;  576.678
414.250;   -8.464;  -10.544;  646.681
414.842;  -10.777;   -9.744;  676.353
415.434;   -8.381;   -6.994;  570.463
416.027;   -4.449;   -5.893;  652.196
416.619;   -6.140;   -7.264;  713.400
417.211;   -7.044;  -10.374;  599.352
417.804;   -3.335;   -7.993;  628.499
418.396;   -7.369;   -7.234;  607.643
418.988;   -5.209;   -9.443;  659.238
419.580;   -8.756;  -10.724;  568.276
420.172;   -5.917;  -10.323;  536.196
420.764;   -1.854;   -8.793;  672.482
421.356;   -2.931;  -11.143;  636.898
421.948;   -4.282;   -8.293;  677.661
422.540;    1.473;   -7.893;  680.027
423.132;    0.367;   -7.082;  600.641
423.724;   -3.080;   -8.653;  561.267
424.316;   -1.730;  -10.213;  621.345
424.908;    2.264;   -9.762;  591.517
425.500;    3.573;   -5.572;  647.978
426.092;    3.660;   -8.422;  648.268
426.683;    2.684;   -9.283;  684.836
427.275;    5.170;   -7.852;  641.471
427.867;    6.854;   -5.272;  668.948
428.458;    7.383;   -7.682;  732.344
429.050;    5.871;  -10.612;  680.749
429.642;    7.850;   -9.882;  743.124
430.233;    8.480;   -6.962;  569.356
430.825;   10.214;   -6.842;  724.809
431.416;    7.045;   -9.672;  698.241
432.008;   11.033;   -6.552;  651.723
432.599;   11.130;   -6.891;  656.073
433.190;    8.411;  -10.912;  637.670
433.782;    7.684;  -11.172;  590.395
434.373;   15.129;   -6.061;  884.765
434.964;   14.060;   -8.251;  602.920
435.556;   11.574;   -9.722;  634.537
436.147;   14.896;   -9.082;  758.490
436.738;   14.889;   -8.041;  701.099
437.329;   19.083;   -7.341;  721.723
437.920;   12.566;   -8.162;  666.688
438.511;   12.308;  -11.802;  564.526
439.103;   18.922;  -10.191;  623.998
439.694;   21.218;   -7.601;  681.583
440.285;   21.372;   -8.541;  764.432
440.876;   19.615;   -9.751;  845.738
441.466;   19.456;   -9.401;  575.162
442.057;   24.766;   -7.760;  665.814
442.648;   22.631;   -9.971;  746.255
443.239;   21.464;  -11.001;  620.477
443.830;   26.093;   -7.990;  704.958
444.421;   28.311;   -7.910;  655.474
445.011;   24.965;   -8.131;  693.619
445.602;   24.755;   -7.111;  743.126
446.193;   26.791;  -10.920;  488.117
446.783;   31.027;   -6.500;  640.397
447.374;   26.437;   -8.671;  692.759
447.964;   27.115;  -10.781;  713.770
448.555;   35.718;   -9.650;  822.742
449.145;   31.516;   -8.660;  662.853
449.736;   32.743;   -8.990;  803.179
450.326;   32.609;   -9.500;  713.626
450.917;   37.909;   -8.680;  675.324
451.507;   36.733;   -7.520;  600.661
452.097;   37.219;   -8.590;  746.267
452.688;   37.751;  -11.340;  742.160
453.278;   37.666;  -10.100;  566.840
453.868;   41.980;   -6.019;  793.550
454.458;   40.460;   -9.440;  651.141
455.048;   40.644;  -10.560;  711.783
455.639;   42.632;  -11.799;  567.096
456.229;   45.896;   -6.899;  710.694
456.819;   47.169;   -7.389;  751.158
457.409;   47.680;  -11.119;  773.993
457.999;   50.457;   -9.289;  737.505
458.589;   50.037;   -6.139;  686.606
459.179;   49.727;   -8.729;  717.658
459.769;   48.774;   -9.789;  627.099
460.358;   53.667;  -10.259;  797.262
460.948;   52.727;   -7.299;  689.503
461.538;   55.238;  -10.289;  660.677
462.128;   53.050;  -11.269;  664.934
462.717;   59.510;   -9.368;  710.326
463.307;   62.399;   -7.908;  705.846
463.897;   58.910;   -9.599;  656.942
464.486;   56.943;   -9.769;  837.128
465.076;   61.814;   -8.048;  733.776
465.666;   65.799;   -9.358;  652.900
466.255;   63.119;   -7.919;  785.651
466.845;   62.599;  -11.689;  666.749
467.434;   65.539;   -7.818;  725.873
468.023;   65.901;   -7.678;  658.357
468.613;   63.888;  -10.939;  713.946
469.202;   68.084;  -10.118;  646.507
469.791;   72.113;   -9.108;  737.811
470.381;   74.187;   -6.058;  742.813
470.970;   74.161;  -10.428;  711.099
471.559;   73.928;  -10.268;  733.291
472.148;   77.068;   -8.448;  675.737
472.738;   79.789;   -6.917;  765.466
473.327;   78.860;  -11.978;  637.529
473.916;   77.993;  -11.888;  737.446
474.505;   82.499;   -9.437;  751.703
475.094;   84.944;   -6.747;  806.570
475.683;   84.969;   -9.367;  797.699
476.272;   85.932;  -12.637;  730.632
476.861;   88.511;  -10.027;  706.754
477.449;   95.465;   -8.716;  728.487
478.038;   89.726;   -9.577;  692.513
478.627;   90.542;   -9.718;  714.852
479.216;   97.204;   -8.947;  769.441
479.805;   99.729;   -6.256;  783.375
480.393;   99.936;   -7.937; 1008.945
480.982;   98.588;   -7.717;  874.501
481.571;  105.025;   -9.266;  858.333
482.159;  105.176;   -7.636;  705.386
482.748;  105.401;   -9.667;  821.385
483.336;  110.600;  -10.376;  858.209
483.925;  110.824;   -7.147;  774.373
484.513;  117.026;   -7.996;  758.962
485.102;  113.584;  -10.027;  810.965
485.690;  122.139;  -10.446; 1011.050
486.278;  124.984;   -8.446;  979.329
486.867;  125.010;   -6.356;  809.662
487.455;  127.121;   -9.136;  898.229
488.043;  127.609;  -10.646;  748.361
488.631;  136.839;   -7.456; 1005.079
489.220;  140.478;   -6.636;  908.626
489.808;  140.709;  -11.036;  741.415
490.396;  148.201;  -10.246;  914.645
490.984;  154.618;   -8.556;  830.161
491.572;  163.202;   -5.886;  940.315
492.160;  170.305;   -9.486;  919.081
492.748;  181.930;  -10.976;  884.341
493.336;  203.764;   -8.776; 1019.693
493.924;  229.629;   -5.465;  958.077
494.512;  258.031;   -9.986; 1066.638
495.100;  294.370;  -10.636; 1103.280
495.687;  346.518;  -10.885; 1206.373
496.275;  405.563;   -8.126; 1150.796
496.863;  468.117;  -10.586; 1281.171
497.451;  562.771;  -11.926; 1386.805
498.038;  696.311;  -10.885; 1556.729
498.626;  801.314;   -6.315; 1741.407
499.214;  938.482;   -7.326; 2016.609
499.801; 1120.357;  -11.906; 2220.633
500.389; 1349.957;  -10.466; 2312.494
500.976; 1652.571;   -5.236; 2744.849
501.564; 2062.259;   -8.936; 3148.565
502.151; 2417.284;  -13.176; 3515.999
502.738; 2829.225;  -10.646; 3971.274
503.326; 3193.852;   -9.525; 4403.796
503.913; 3556.334;  -10.856; 5161.749
504.500; 3863.983;  -11.586; 5986.420
505.088; 4276.635;  -10.336; 6381.201
505.675; 4799.530;   -6.355; 6925.547
506.262; 5389.461;   -9.046; 7619.060
506.849; 6066.216;  -10.416; 8733.969
507.436; 6543.500;  -10.305; 9790.121
508.023; 7091.028;   -5.496; 9985.472
508.610; 7331.077;   -7.856;10434.618
509.197; 7926.356;  -10.097;11198.435
509.784; 9234.113;  -10.886;12391.194
510.371;10276.441;   -9.315;13603.713
510.958;10984.534;   -9.936;14426.586
511.545;11668.491;   -9.326;15243.775
512.132;12543.403;  -10.075;15945.876
512.719;13083.192;   -7.796;16340.369
513.305;14053.095;  -10.606;18011.766
513.892;14793.093;  -11.486;19754.971
514.479;16023.684;   -9.126;20967.805
515.066;17443.152;   -6.026;22299.793
515.652;18620.492;   -8.466;22908.660
516.239;19803.918;  -10.886;23798.875
516.825;20837.625;  -11.496;25567.275
517.412;21874.385;   -5.796;28154.959
517.998;22693.893;  -10.506;28344.111
518.585;22745.719;  -10.076;27134.219
519.171;23044.678;   -8.315;27268.576
519.758;24358.188;   -8.596;28964.129
520.344;26214.428;   -8.466;30664.494
520.930;26449.986;  -11.006;32550.605
521.516;27838.648;  -10.495;35422.895
522.103;30187.340;   -5.526;38280.004
522.689;31038.717;   -8.746;37835.117
523.275;30729.879;  -11.376;37288.613
523.861;31751.840;  -11.156;37281.395
524.447;33067.813;   -8.135;37846.949
525.033;32554.270;   -7.896;38321.949
525.619;32720.900;  -12.476;38579.285
526.205;34179.770;   -9.516;40622.875
526.791;37121.750;   -6.926;42258.836
527.377;37183.848;   -8.346;42966.902
527.963;38682.879;   -8.717;42018.949
528.549;37824.621;  -11.016;42476.828
529.135;36475.727;   -8.536;41854.852
529.721;35814.762;   -9.666;41237.711
530.306;35449.594;  -10.066;41259.445
530.892;35419.387;  -11.356;41506.047
531.478;36589.699;   -6.596;43559.613
532.063;39149.117;   -8.836;47695.563
532.649;39648.523;  -10.047;50808.324
533.235;40646.637;   -9.746;51787.500
533.820;41808.617;   -6.566;52145.035
534.406;42850.176;  -10.817;51133.488
534.991;42487.809;   -9.416;49996.805
535.576;41052.277;   -9.036;48882.852
536.162;41693.207;   -6.156;46942.285
536.747;42963.992;  -11.607;45711.746
537.333;46172.551;  -11.787;48510.180
537.918;49230.617;  -12.437;50439.891
538.503;48036.465;   -7.196;50863.711
539.088;44935.434;  -10.556;50906.922
539.673;45229.031;   -8.767;52621.965
540.259;44941.457;  -10.026;52368.094
540.844;42228.965;   -7.416;50879.109
541.429;43240.430;   -9.467;52077.777
542.014;46430.867;   -9.527;52716.695
542.599;46315.719;   -9.946;52363.281
543.184;43368.672;   -7.927;53187.137
543.769;44443.152;   -9.297;54697.605
544.354;44376.141;  -10.127;53913.914
544.938;43353.711;   -9.267;49680.164
545.523;45350.395;   -6.506;47386.277
546.108;47396.293;   -9.787;49151.949
546.693;49581.145;  -11.587;51384.637
547.278;49791.445;  -10.986;51853.254
547.862;46855.590;   -8.206;51173.750
548.447;42492.504;  -10.067;51691.395
549.031;41597.473;   -9.637;52456.703
549.616;46135.367;   -9.926;52714.516
550.201;45477.938;   -6.347;52414.598
550.785;46349.137;   -7.917;52355.059
551.370;45783.574;  -10.867;54589.453
551.954;45858.668;   -9.047;58267.348
552.538;47172.035;   -7.827;59062.176
553.123;45388.188;  -10.287;58115.285
553.707;42921.289;  -12.178;56556.285
554.291;43577.000;   -8.717;56201.668
554.876;45593.660;   -7.457;55335.762
555.460;46367.902;  -10.387;54155.703
556.044;48038.926;   -9.618;53721.484
556.628;46196.242;  -11.567;53731.016
557.212;44815.090;   -8.097;54312.531
557.796;42858.363;  -11.077;53797.773
558.380;43068.512;  -11.108;56145.984
558.964;44100.578;   -9.057;57277.930
559.548;44987.215;   -6.977;56459.641
560.132;42677.043;  -11.457;54434.543
560.716;41572.207;  -11.378;54800.617
561.300;42572.785;   -9.577;57606.945
561.884;43516.508;   -7.127;58972.445
562.467;42183.461;   -7.118;57327.570
563.051;41754.188;  -13.358;54962.434
563.635;42669.711;  -10.178;52594.473
564.219;43085.703;   -7.837;50610.410
564.802;43631.004;  -11.398;49551.180
565.386;43756.559;  -12.788;48370.953
565.969;43619.496;   -9.077;48178.871
566.553;42375.277;   -6.207;49957.305
567.136;42596.352;   -8.568;50369.594
567.720;39072.715;  -11.868;49492.004
568.303;37220.871;   -8.268;50616.352
568.887;37058.543;   -8.698;50727.148
569.470;37283.578;   -6.808;51698.379
570.053;36616.344;  -13.188;52122.078
570.637;34880.727;  -12.037;52536.438
571.220;34247.438;   -8.577;51186.098
571.803;34572.938;   -8.498;51032.762
572.386;36624.281;  -10.498;49609.887
572.969;39231.164;   -9.388;48285.926
573.552;37580.391;   -8.338;47624.285
574.135;36236.285;   -8.518;45498.641
574.718;33773.348;  -13.628;41970.434
575.301;32285.646;  -10.893;41447.137
575.884;30797.945;   -8.158;40923.836
576.467;31043.824;  -10.328;45267.723
577.050;32511.479;  -13.058;48175.543
577.633;34720.273;   -9.458;47729.328
578.216;34938.367;   -8.928;47579.793
578.799;34659.379;   -9.358;47820.996
579.381;33689.926;  -11.388;48115.551
579.964;32109.043;  -11.718;47333.766
580.547;33440.645;   -8.588;46668.969
581.129;34113.102;   -8.859;44466.141
581.712;34618.016;  -10.729;44164.922
582.294;35242.484;  -11.118;46477.855
582.877;35576.266;   -5.218;48244.254
583.459;33607.680;   -8.679;47437.895
584.042;31713.566;  -10.709;46943.219
584.624;31929.002;  -11.669;46792.227
585.206;31449.068;   -8.218;46557.250
585.789;31584.219;  -10.569;45793.773
586.371;34230.828;  -11.859;43836.391
586.953;34889.035;  -10.719;42972.492
587.536;35523.664;   -7.198;42487.211
588.118;35614.465;   -8.720;42086.414
588.700;31819.910;  -10.439;43389.930
589.282;30323.326;   -9.198;43646.039
589.864;29732.988;   -9.199;43438.109
590.446;29066.928;  -11.319;43151.926
591.028;27878.111;  -11.159;42781.867
591.610;27979.422;  -11.779;42839.098
592.192;27841.191;   -7.668;42820.402
592.774;27956.182;  -11.949;40724.277
593.356;27597.104;  -12.129;39874.789
593.937;27292.625;  -10.669;39980.648
594.519;29438.553;   -6.509;42069.633
595.101;31694.248;  -10.849;42976.031
595.683;31847.252;  -11.679;44084.441
596.264;32704.170;   -9.049;43478.797
596.846;31946.055;   -8.849;43803.672
597.427;31376.016;   -9.570;42986.934
598.009;32993.664;  -12.620;42832.219
598.591;33432.121;  -10.039;42580.086
599.172;32669.867;  -10.369;43061.805
599.753;32639.250;   -9.140;41691.469
600.335;34053.965;  -11.430;40692.520
600.916;32643.990;   -9.939;39982.422
601.498;30442.709;   -8.479;40318.617
602.079;29032.867;  -10.920;40670.609
602.660;28786.359;  -11.480;41450.898
603.241;30156.871;  -11.699;41137.738
603.823;29029.842;   -9.579;38868.797
604.404;28743.064;  -10.620;38182.785
604.985;30152.068;  -10.450;38078.047
605.566;29688.545;   -9.129;38056.633
606.147;29522.615;   -7.510;37020.418
606.728;31611.850;  -10.660;37883.359
607.309;30720.824;  -11.740;38748.273
607.890;30018.965;   -9.759;38850.230
608.471;29590.652;   -8.250;37457.918
609.051;28955.102;   -9.240;36066.457
609.632;27850.361;  -12.120;35991.074
610.213;28532.420;   -9.110;37402.641
610.794;29351.174;   -8.030;38383.363
611.374;28775.395;   -8.110;40562.387
611.955;29136.463;  -13.560;38533.727
612.536;30588.461;  -11.400;36951.789
613.116;30330.988;   -8.070;37197.891
613.697;30635.010;  -10.830;38411.125
614.277;28987.947;  -11.641;38673.938
614.858;29908.561;  -13.310;37075.863
615.438;29532.398;   -7.460;35092.906
616.019;26880.236;   -7.601;33666.301
616.599;27353.643;  -12.020;34189.023
617.179;29265.734;  -11.780;36952.047
617.760;29953.016;   -8.570;39582.574
618.340;30999.543;  -11.471;38943.977
618.920;32515.553;  -11.170;37594.156
619.500;32387.137;  -11.071;37866.938
620.080;31513.639;   -7.750;37869.043
620.660;32424.229;  -12.711;36868.617
621.241;33639.973;  -10.211;36352.309
621.821;33715.949;  -10.961;35459.520
622.401;33036.527;   -7.720;35207.414
622.980;31988.631;   -8.981;35980.422
623.560;30518.270;   -9.331;37351.328
624.140;29745.723;   -9.850;34388.582
624.720;25055.008;   -7.451;32368.764
625.300;21358.262;   -9.070;32638.629
625.880;24570.018;  -12.601;34599.035
626.459;28471.598;  -11.751;36831.738
627.039;31452.582;   -9.281;38299.098
627.619;31536.547;   -8.801;38289.574
628.198;29698.316;  -12.071;37220.695
628.778;28704.049;   -9.461;37632.563
629.357;29495.066;   -8.491;38003.012
629.937;29606.279;   -9.721;38402.039
630.516;29022.771;   -9.951;37868.801
631.096;28829.453;  -11.731;35760.410
631.675;31626.887;   -8.572;35225.219
632.254;36958.422;  -11.282;35130.289
632.834;36340.484;  -13.322;35794.570
633.413;34625.941;  -10.301;35788.922
633.992;31832.201;   -8.582;34532.863
634.571;32648.076;   -8.352;33590.113
635.151;35290.008;  -11.912;34943.863
635.730;33888.418;  -10.511;35352.523
636.309;30603.986;   -7.731;35366.605
636.888;27892.805;   -9.952;36165.637
637.467;28444.322;  -11.672;37515.902
638.046;30211.527;   -8.901;39288.695
638.625;33329.156;   -7.912;38279.699
639.204;33336.891;  -10.022;37741.598
639.782;31717.465;  -12.252;38364.551
640.361;27851.125;  -10.041;36740.621
640.940;25031.217;  -11.161;34950.082
641.519;25356.412;   -9.701;34137.398
642.097;27963.432;  -11.271;35654.258
642.676;31055.150;   -8.651;35637.957
643.255;32226.207;   -8.711;36567.074
643.833;31445.717;   -9.581;37809.434
644.412;31814.631;  -13.711;37337.293
644.990;31013.344;  -11.811;37018.531
645.569;30803.262;   -9.411;36518.469
646.147;30029.957;  -10.291;36186.430
646.726;29357.438;  -12.401;36267.688
647.304;30361.180;  -10.411;36647.625
647.882;32343.811;   -9.651;39286.742
648.461;34140.352;   -9.631;39157.703
649.039;32582.518;  -11.881;35412.883
649.617;31769.092;   -9.661;34744.918
650.195;31373.420;   -9.301;35403.098
650.773;30300.984;  -10.511;35053.797
651.352;27728.322;  -11.521;33756.816
651.930;25289.699;  -12.211;31868.773
652.508;23541.246;   -9.171;33121.551
653.086;27544.807;   -9.371;33564.793
653.663;30676.705;  -13.161;34054.668
654.241;29319.482;  -13.031;35693.309
654.819;30771.285;   -9.371;36422.906
655.397;30605.336;  -10.511;38213.484
655.975;30380.365;  -10.371;39507.625
656.553;30373.219;  -10.051;39498.223
657.130;28780.518;  -10.061;40395.480
657.708;28119.994;   -9.561;39242.020
658.286;28178.172;  -11.511;38920.020
658.863;29190.258;  -10.261;40202.898
659.441;31997.898;   -7.531;39677.938
660.018;31472.070;   -9.501;40413.355
660.596;30346.318;  -13.301;39931.414
661.173;32330.291;  -11.211;39604.531
661.750;32726.135;   -9.951;39700.070
662.328;31821.068;   -9.390;39292.809
662.905;30861.855;  -11.330;38235.648
663.482;26340.732;   -9.050;36212.305
664.060;24216.049;   -8.240;35944.945
664.637;26923.547;  -10.050;35170.785
665.214;28822.451;  -11.760;34197.523
665.791;30748.133;  -10.530;34549.520
666.368;29507.875;   -9.690;35118.578
666.945;29998.775;   -9.320;36019.418
667.522;31621.947;  -11.860;36048.438
668.099;31709.758;  -10.770;36243.914
668.676;30896.650;   -6.260;35958.875
669.253;29244.859;   -7.000;37384.730
669.830;29548.391;  -10.190;36779.629
670.407;29322.938;   -9.550;35231.289
670.984;29569.857;   -9.260;35544.270
671.560;30178.182;   -9.280;35466.867
672.137;28853.488;  -11.810;34280.863
672.714;29549.307;  -11.490;34632.863
673.290;30259.389;   -7.740;35135.422
673.867;30197.303;  -10.660;36114.480
674.443;30557.428;  -12.230;36152.859
675.020;29017.371;  -10.450;35327.238
675.596;29986.377;   -9.260;35795.176
676.173;30589.949;  -10.780;35430.355
676.749;30196.342;  -13.690;33549.516
677.326;30135.361;  -11.980;32210.012
677.902;30181.318;   -8.630;32068.871
678.478;29324.525;  -10.730;32583.891
679.054;28772.525;  -10.520;32088.928
679.631;29722.830;  -11.920;30978.848
680.207;30824.764;   -7.490;33160.887
680.783;32074.643;   -9.860;35570.363
681.359;31207.668;  -13.380;36125.184
681.935;30403.492;  -12.480;35240.922
682.511;29537.223;   -7.900;34429.961
683.087;29514.264;   -7.710;34463.680
683.663;29171.211;  -11.480;34648.898
684.239;28384.564;  -14.090;34546.457
684.815;28067.498;   -7.560;35586.375
685.390;28371.773;   -9.910;35821.895
685.966;28956.270;  -11.159;35085.871
686.542;31824.416;  -11.169;34198.230
687.118;33904.910;   -5.959;32847.707
687.693;33883.902;  -10.329;32794.027
688.269;33173.668;  -12.059;33072.367
688.844;31119.443;  -10.909;33141.664
689.420;29206.395;   -8.019;33965.742
689.995;27062.465;   -8.399;34655.523
690.571;25888.373;  -10.949;33576.742
691.146;26372.045;   -9.619;32657.219
691.722;25775.932;   -8.999;32526.979
692.297;25407.859;  -11.589;33014.617
692.872;27242.332;  -11.739;34012.254
693.448;26879.215;  -11.059;34237.434
694.023;26010.432;  -10.139;34142.672
694.598;28246.533;   -9.029;34132.031
695.173;28788.082;  -13.319;34205.250
695.748;28305.646;  -10.169;32882.488
696.323;28159.727;   -8.339;32864.906
696.898;28058.914;   -8.169;33170.004
697.473;27833.453;  -12.309;32432.984
698.048;27366.938;  -10.989;31649.303
698.623;27528.869;   -9.329;30778.141
699.198;29262.059;   -9.849;31140.119
699.773;30316.189;  -12.329;31764.299
700.348;29028.121;  -10.389;31780.816
700.922;29041.809;   -9.269;32046.375
701.497;29467.949;   -9.329;32603.574
702.072;29475.480;  -10.789;34799.871
702.646;28526.361;  -10.839;35793.172
703.221;26474.412;   -9.099;35201.590
703.795;28518.334;  -10.939;34764.527
704.370;29060.895;  -12.859;34307.367
704.944;29212.129;  -11.559;33509.887
705.519;30306.459;   -7.939;31388.584
706.093;31622.523;  -10.499;31340.104
706.668;31957.588;  -11.289;32630.281
707.242;30491.574;  -11.509;32728.779
707.816;28868.244;   -9.639;32947.238
708.390;27472.451;  -11.429;33277.855
708.965;28434.076;  -11.869;33834.336
709.539;28951.926;  -11.689;33709.273
710.113;29296.920;  -10.478;33044.313
710.687;28716.781;  -10.228;31953.992
711.261;26690.695;  -13.698;30505.949
711.835;26416.752;  -13.378;30262.369
712.409;27113.807;   -9.698;31254.447
712.983;28678.371;  -11.898;32754.986
713.557;29707.141;  -15.138;34018.824
714.131;29472.227;  -14.098;34579.625
714.704;28573.893;   -9.958;33890.262
715.278;26158.785;  -10.028;33531.102
715.852;25470.000;  -11.148;33601.660
716.425;26439.674;   -9.068;33515.117
716.999;27147.447;  -10.038;33185.555
717.573;28162.943;   -9.798;33905.996
718.146;29459.117;  -12.378;35199.293
718.720;29101.832;  -11.918;35060.551
719.293;28493.152;   -8.088;34973.230
719.867;31386.549;  -10.888;36394.449
720.440;31336.424;  -11.938;36663.008
721.013;29715.660;  -12.818;35102.426
721.587;28309.197;  -10.298;33985.266
722.160;26803.428;  -10.048;33524.965
722.733;25872.912;  -12.108;32987.043
723.306;26670.771;  -10.818;33066.301
723.880;28700.926;   -8.908;33399.500
724.453;30385.803;   -9.878;33468.297
725.026;29290.264;  -11.188;33816.637
725.599;26638.482;  -11.678;32797.996
726.172;26961.008;   -9.618;33187.434
726.745;28316.096;   -8.258;35136.613
727.318;29960.104;  -12.978;35751.730
727.891;30636.455;  -12.148;35890.430
728.463;30387.457;   -8.968;34822.090
729.036;29246.559;  -10.188;32895.086
729.609;29442.018;  -11.788;31823.225
730.182;26289.066;  -11.788;31445.283
730.754;23806.043;  -10.268;32373.223
731.327;23899.313;   -9.998;33676.820
731.900;24064.389;  -12.228;33417.000
732.472;25289.432;  -13.848;31978.498
733.045;27416.568;   -8.698;30368.777
733.617;27333.498;  -10.607;30574.215
734.190;26876.342;  -11.507;31280.975
734.762;24131.826;  -13.647;31674.412
735.334;22461.965;   -9.767;31247.291
735.907;22822.521;   -9.897;29876.211
736.479;22723.793;  -11.637;29808.488
737.051;22444.264;   -9.567;30233.547
737.623;23705.902;   -8.187;31469.086
738.195;24695.732;  -11.187;31784.225
738.768;26668.768;  -12.337;32120.523
739.340;26725.469;  -12.227;32094.342
739.912;25425.164;  -11.057;31312.680
740.484;24255.754;  -10.207;31946.238
741.056;23067.801;  -10.047;32984.059
741.628;24603.924;  -13.627;33897.715
742.199;27010.496;   -7.177;33213.016
742.771;25487.744;  -10.797;31369.113
743.343;23170.432;  -11.997;31865.473
743.915;21986.090;  -12.867;32388.631
744.487;22066.395;   -7.617;31079.568
745.058;22183.744;   -9.557;30570.107
745.630;22951.664;   -9.877;29970.127
746.201;24115.301;  -14.177;29186.766
746.773;24536.162;   -9.237;28805.723
747.344;24393.051;   -9.847;29591.223
747.916;22720.428;  -11.657;31412.201
748.487;22504.561;  -10.587;32194.898
749.059;23803.578;   -8.707;32533.719
749.630;24979.209;  -10.537;32158.518
750.201;24172.572;  -11.687;30855.395
750.773;22403.857;  -11.647;28622.555
751.344;22355.037;   -7.147;28405.732
751.915;23252.680;   -9.757;28461.551
752.486;22590.789;  -12.427;27842.850
753.057;20386.375;  -12.227;27845.008
753.628;19302.469;  -10.417;27728.107
754.199;20403.824;  -11.767;27381.086
754.770;21555.879;  -11.187;25882.203
755.341;21632.465;  -10.507;25886.184
755.912;21849.754;   -9.387;26050.861
756.483;21178.947;  -10.647;26798.779
757.054;19182.168;  -11.837;27048.238
757.625;17860.545;  -12.716;26294.838
758.195;17798.896;   -9.666;26142.076
758.766;17531.072;   -8.656;26392.234
759.337;18266.467;  -12.856;26334.594
759.907;20052.977;  -13.366;27579.652
760.478;20916.732;   -8.576;28352.770
761.048;20315.318;  -10.526;27325.088
761.619;19445.945;  -11.116;26460.428
762.189;19407.879;  -12.136;26029.826
762.760;20461.801;   -9.456;26430.145
763.330;21676.582;   -7.136;26670.902
763.900;21102.006;  -11.786;26603.021
764.471;18332.594;  -11.546;25542.740
765.041;16998.119;   -8.096;24358.459
765.611;17143.455;   -8.876;23991.297
766.181;17641.650;  -12.196;24470.236
766.751;18511.693;  -11.636;24845.975
767.321;18406.152;  -10.156;24533.633
767.891;16368.079;  -11.766;24916.492
768.461;15723.095;  -14.936;24776.771
769.031;16294.290;  -12.356;24757.988
769.601;18033.354;   -7.526;24181.088
770.171;17999.486;  -10.766;23670.387
770.741;16969.793;  -13.176;22960.045
771.311;17161.281;  -10.616;22917.523
771.880;17643.727;   -9.576;23562.941
772.450;17229.672;  -10.336;24216.500
773.020;17173.170;  -13.516;24140.398
773.589;16800.055;  -13.466;24414.857
774.159;16328.299;   -8.686;23858.717
774.729;15804.833;   -9.476;22942.135
775.298;15305.502;  -13.666;22324.033
775.867;14904.865;  -11.716;21140.313
776.437;15004.376;   -9.906;20838.092
777.006;14676.853;  -12.166;20599.510
777.576;14577.021;  -12.356;20508.809
778.145;14759.019;  -11.646;20732.947
778.714;14719.470;   -8.226;21062.465
779.283;13944.266;   -9.556;20949.664
779.853;13408.538;  -14.116;20508.623
780.422;13771.707;  -11.506;20649.082
780.991;13345.735;   -9.556;21527.520
781.560;12280.873;   -9.095;22632.658
782.129;12075.141;  -12.135;23048.277
782.698;12078.511;  -10.865;23438.555
783.267;11717.116;   -9.335;23267.734
783.836;11695.998;  -11.045;22415.133
784.404;12758.478;  -13.865;20443.152
784.973;13219.713;  -13.095;19699.150
785.542;13063.484;  -11.575;19763.828
786.111;12945.661;   -9.705;20341.408
786.679;12537.562;  -12.105;20207.967
787.248;12326.984;  -12.455;19516.465
787.817;12122.101;  -11.535;18900.363
788.385;11664.259;   -9.765;17879.121
788.954;11051.608;  -14.005;17658.301
789.522;10594.577;  -11.955;17788.879
790.090;11134.404;  -10.135;18118.277
790.659;11610.408;  -10.975;18338.736
791.227;11034.832;  -13.375;18508.615
791.795;11399.543;  -12.375;17898.254
792.364;11762.481;  -10.725;17295.133
792.932;12128.947;   -9.715;16822.051
793.500;12429.891;  -12.675;17040.148
794.068;12735.294;  -13.495;17179.787
794.636;12870.320;  -10.885;16664.246
795.204;12294.442;  -11.045;16524.545
795.772;12317.876;  -13.175;17274.564
796.340;11781.176;  -12.445;17891.002
796.908;11564.359;   -9.735;17648.561
797.476;11534.757;   -9.815;17064.080
798.044;11110.307;  -13.985;16672.777
798.612;10309.991;  -13.115;17023.996
799.180; 9961.646;  -10.185;16561.615
799.747; 9810.938;   -9.055;15962.773
800.315; 9502.532;  -12.385;15296.992
800.883; 9225.646;  -15.035;14801.771
801.450; 9267.985;  -10.365;14534.430
802.018; 9317.695;   -9.855;14173.248
802.585; 9350.732;  -11.905;14029.547
803.153; 9420.480;  -11.585;13836.846
803.720; 9336.422;   -9.095;13567.324
804.287; 8953.521;   -9.135;13360.622
804.855; 8487.035;  -11.604;13681.981
805.422; 8329.606;  -11.794;13536.560
805.989; 8282.069;  -10.734;13355.958
806.556; 8435.841;  -10.444;13747.896
807.124; 8754.837;  -12.764;13987.376
807.691; 8726.031;  -12.964;14038.674
808.258; 8516.332;  -11.134;14120.152
808.825; 8147.313;   -9.854;13860.111
809.392; 8241.313;  -10.504;13268.790
809.959; 7786.722;  -13.054;12680.389
810.526; 7347.914;   -8.294;12427.308
811.093; 7394.650;   -8.394;12030.105
811.659; 7992.162;  -12.304;11653.664
812.226; 8419.717;  -13.944;11637.183
812.793; 8038.091;  -10.484;11611.521
813.360; 7372.203;  -10.144;11885.181
813.926; 6997.385;  -11.684;12770.539
814.493; 6756.117;  -13.644;12677.638
815.060; 6415.103;   -9.724;11974.336
815.626; 6460.316;   -9.854;11594.715
816.193; 6877.200;  -13.254;11579.474
816.759; 6957.604;  -13.204;11666.972
817.325; 7076.358;   -9.434;11325.530
817.892; 7403.270;  -10.134;11105.369
818.458; 7794.434;  -13.474;10843.928
819.024; 7469.026;  -11.854;10714.406
819.591; 7133.039;  -10.244;10469.165
820.157; 6903.814;  -10.704;10235.523
820.723; 6386.392;  -12.324;10847.563
821.289; 6092.702;   -9.444;11040.980
821.855; 6020.857;   -8.374;10357.100
822.421; 6012.563;  -10.234; 9978.918
822.987; 5930.424;  -13.294; 9754.177
823.553; 5591.349;  -10.884;10065.755
824.119; 5435.464;   -8.884;10036.294
824.685; 5571.745;   -6.784;10029.192
825.251; 5676.315;  -12.004;10199.230
825.816; 5611.160;  -11.474; 9820.189
826.382; 5344.413;   -9.174; 9297.248
826.948; 5527.751;   -9.214; 9381.347
827.513; 5974.563;  -10.774; 9450.726
828.079; 5827.046;  -11.924; 9472.444
828.645; 5246.109;  -10.543; 9292.643
829.210; 5102.663;  -10.533; 9065.341
829.776; 5061.399;  -10.753; 9132.620
830.341; 4919.117;  -10.173; 9092.878
830.906; 5082.283;  -10.743; 9078.557
831.472; 5464.860;  -11.113; 8534.535
832.037; 5257.815;  -10.603; 8677.874
832.602; 4697.612;  -13.323; 8628.692
833.167; 4387.071;  -10.823; 8879.031
833.733; 4324.191;  -10.113; 9189.790
834.298; 4442.402;  -13.583; 9052.608
834.863; 4491.864;  -12.703; 8895.087
835.428; 4470.677;  -10.523; 8824.266
835.993; 4380.956;   -6.963; 8845.385
836.558; 4243.477;  -10.763; 8888.563
837.123; 4342.041;   -9.903; 8966.582
837.688; 4546.641;   -9.913; 8617.860
838.253; 4736.135;  -10.283; 8590.699
838.817; 4930.255;  -12.963; 8443.797
839.382; 4892.997;  -14.243; 8799.356
839.947; 4574.857;  -10.733; 8810.595
840.511; 4237.981;   -9.383; 8796.394
841.076; 3859.029;  -12.563; 8347.231
841.641; 3914.249;  -12.953; 8224.330
842.205; 4010.006;   -7.043; 8223.349
842.770; 4086.027;   -8.163; 8622.107
843.334; 4285.641;  -12.503; 8410.386
843.898; 4293.803;  -11.693; 8337.465
844.463; 4336.618;  -10.203; 8506.283
845.027; 4108.626;   -9.533; 8280.962
845.591; 3891.760;  -13.443; 8231.141
846.156; 3874.272;  -13.143; 7969.179
846.720; 3744.170;   -9.433; 7768.278
847.284; 3623.691;  -11.033; 7630.957
847.848; 3466.755;  -10.403; 7472.395
848.412; 3374.749;  -11.553; 7437.394
848.976; 3412.850;   -8.393; 7674.592
849.540; 3357.433;   -8.713; 7836.011
850.104; 3428.433;  -12.463; 7913.669
850.668; 3774.049;  -12.973; 7694.508
851.232; 3907.255;  -10.793; 7756.887
851.796; 3733.015;  -10.662; 7926.545
852.359; 3410.760;  -13.082; 7827.844
852.923; 3252.294;  -12.192; 7641.163
853.487; 3081.033;  -11.912; 7342.501
854.050; 3008.141;  -10.892; 7042.820
854.614; 3136.101;  -13.992; 7151.338
855.177; 3239.998;  -11.732; 7105.077
855.741; 3293.684;   -8.962; 6989.675
856.304; 3209.670;   -9.442; 6596.634
856.868; 3153.046;  -14.192; 6356.272
857.431; 3268.967;  -12.702; 6468.571
857.995; 3393.430;   -9.942; 6373.210
858.558; 3413.917;   -9.112; 6324.448
859.121; 3155.448;  -12.932; 6408.327
859.684; 3014.329;  -13.442; 6347.886
860.247; 3123.365;  -10.632; 6321.264
860.810; 3116.871;  -11.272; 6301.903
861.374; 2881.952;   -9.832; 6607.881
861.937; 2616.413;  -11.762; 6408.200
862.500; 2584.290;   -9.722; 6572.639
863.062; 2742.147;  -10.512; 6387.297
863.625; 2914.876;  -11.232; 6190.836
864.188; 3084.257;  -14.112; 5807.254
864.751; 3144.192;  -11.302; 5682.413
865.314; 3043.441;  -10.112; 5547.492
865.876; 2866.051;  -12.182; 5500.150
866.439; 2866.444;  -10.722; 5415.909
867.002; 2837.144;   -9.252; 5501.567
867.564; 2620.451;   -9.572; 5413.946
868.127; 2392.649;  -13.142; 5160.325
868.689; 2288.999;  -12.902; 5133.183
869.252; 2215.785;   -9.732; 5252.382
869.814; 2130.888;   -9.432; 5297.141
870.377; 2156.316;  -11.552; 5390.919
870.939; 2240.067;   -9.052; 5599.898
871.501; 2303.033;  -10.982; 5248.336
872.063; 2308.304;  -12.292; 4854.235
872.626; 2257.611;  -14.912; 4817.074
873.188; 2255.857;  -13.112; 4987.732
873.750; 2223.868;  -13.442; 4868.651
874.312; 2134.755;   -9.402; 4779.330
874.874; 2048.840;  -11.062; 4866.348
875.436; 1971.583;  -13.931; 4718.887
875.998; 1976.069;   -9.561; 4660.005
876.560; 1998.645;  -11.321; 4462.964
877.122; 1940.164;  -12.221; 4145.042
877.683; 1839.247;  -12.191; 4056.481
878.245; 1762.454;  -12.101; 3950.740
878.807; 1796.238;   -8.971; 4058.958
879.369; 1814.194;  -12.071; 3954.677
879.930; 1726.381;  -14.621; 3941.495
880.492; 1667.864;  -10.311; 4067.014
881.053; 1638.422;  -10.901; 3859.633
881.615; 1518.903;  -14.411; 3776.071
882.176; 1423.608;  -13.761; 3734.750
882.738; 1391.692;   -9.181; 3678.489
883.299; 1370.256;  -11.791; 3405.407
883.860; 1370.381;  -13.121; 3351.106
884.422; 1374.872;  -11.211; 3394.044
884.983; 1331.526;  -10.091; 3166.443
885.544; 1238.984;   -8.461; 3189.802
886.105; 1159.378;  -12.361; 3160.360
886.666; 1091.936;  -14.141; 3093.059
887.227; 1028.912;  -11.361; 2941.957
887.788;  960.474;  -11.401; 2974.836
888.349;  894.173;  -13.791; 2721.214
888.910;  890.399;  -13.191; 2696.493
889.471;  900.014;   -9.881; 2560.172
890.032;  884.739;   -9.881; 2558.190
890.593;  855.562;  -10.371; 2567.669
891.153;  825.444;  -13.301; 2460.307
891.714;  777.767;  -11.431; 2372.046
892.275;  742.013;  -11.291; 2309.505
892.835;  704.279;  -11.471; 2382.543
893.396;  643.667;  -11.541; 2295.502
893.956;  582.902;  -11.181; 2162.420
894.517;  544.754;  -11.741; 2125.439
895.077;  538.768;  -11.671; 2086.978
895.638;  539.208;  -11.311; 2126.316
896.198;  510.384;   -9.831; 1838.275
896.758;  465.912;   -8.421; 1892.813
897.319;  431.618;  -12.351; 1792.232
897.879;  414.458;  -13.511; 1762.751
898.439;  388.233;  -12.001; 1661.149
898.999;  361.997;  -10.180; 1781.468
899.559;  350.482;  -12.030; 1703.347
900.119;  345.812;  -15.710; 1537.525
900.679;  343.308;   -8.900; 1638.384
901.239;  329.957;   -8.340; 1527.902
901.799;  318.938;  -13.910; 1456.441
902.359;  312.048;  -13.460; 1357.140
902.919;  304.312;  -11.490; 1331.118
903.479;  290.687;  -12.110; 1317.257
904.038;  267.205;  -11.720; 1262.595
904.598;  250.469;  -13.610; 1152.034
905.158;  246.464;  -11.040; 1240.893
905.717;  240.233;  -10.900; 1233.691
906.277;  228.988;  -15.080; 1217.330
906.836;  219.249;  -13.380; 1222.408
907.396;  212.371;  -10.780; 1193.047
907.955;  204.490;   -8.500; 1182.526
908.515;  197.801;  -12.760; 1099.364
909.074;  190.936;  -11.900; 1092.863
909.633;  185.220;   -8.950; 1069.121
910.192;  180.542;   -8.770; 1196.460
910.752;  175.262;  -12.390; 1029.960
911.311;  170.190;  -13.680; 1009.780
911.870;  168.641;  -12.370;  971.460
912.429;  168.574;  -10.900; 1094.080
912.988;  168.105;  -11.690; 1081.060
913.547;  162.899;  -13.240;  940.380
914.106;  157.862;  -11.990;  999.420
914.665;  153.929;   -9.990;  984.020
915.224;  153.048;  -12.880; 1035.760
915.782;  153.052;  -12.350;  922.560
916.341;  152.936;   -9.110; 1049.840
916.900;  148.825;   -9.270;  925.260
917.458;  146.895;  -13.240;  884.220
918.017;  146.488;  -13.550;  942.600
918.576;  145.522;  -12.320;  904.440
919.134;  144.652;  -11.490;  837.980
919.693;  141.861;  -13.670;  893.060
920.251;  139.863;  -15.470;  876.500
920.809;  138.188;  -11.290;  839.580
921.368;  138.635;  -10.210;  885.360
921.926;  137.424;  -12.140;  842.940
922.484;  135.484;  -13.080;  903.360
923.042;  135.795;  -11.720;  880.340
923.601;  138.121;   -7.480;  998.680
924.159;  136.988;  -11.570;  935.560
924.717;  133.789;  -13.840;  841.080
925.275;  133.886;  -10.640;  903.240
925.833;  133.965;  -11.540;  779.320
926.391;  134.135;  -12.960;  938.380
926.949;  132.663;  -14.130;  857.680
927.506;  133.418;  -11.750;  903.500
928.064;  133.399;  -10.250;  877.580
928.622;  132.450;  -13.030;  880.100
929.180;  132.500;  -13.400;  814.180
929.737;  132.986;  -10.700;  808.540
930.295;  137.415;  -10.070;  928.480
930.853;  138.408;  -11.960;  849.100
931.410;  138.800;  -13.120;  821.120
931.968;  138.968;  -10.770;  940.660
932.525;  138.630;  -10.680;  909.380
933.082;  138.459;  -13.130;  811.440
933.640;  139.895;  -13.210;  925.900
934.197;  137.550;  -11.060;  886.360
934.754;  138.781;   -9.580;  897.780
935.312;  142.733;  -14.000;  863.340
935.869;  146.298;  -10.710; 1012.980
936.426;  145.753;   -9.860;  872.800
936.983;  148.121;   -9.710;  889.020
937.540;  147.946;  -13.990;  838.280
938.097;  146.020;  -14.040;  940.120
938.654;  147.871;  -10.310;  898.860
939.211;  149.216;  -10.560;  952.480
939.768;  153.486;  -13.900;  915.420
940.324;  155.491;  -14.760;  904.200
940.881;  156.432;  -10.370;  878.500
941.438;  157.951;   -8.260; 1021.200
941.995;  153.942;  -12.540;  992.560
942.551;  151.222;  -14.670;  875.620
943.108;  151.277;  -10.450;  937.920
943.664;  153.409;  -10.750;  869.340
944.221;  157.168;  -11.550; 1088.140
944.777;  154.889;  -14.770;  869.680
945.334;  156.464;  -12.820;  884.840
945.890;  159.940;  -10.130;  946.480
946.446;  159.995;  -13.470;  947.020
947.003;  161.055;  -12.120;  964.940
947.559;  162.941;   -9.980; 1063.040
948.115;  163.105;   -9.080; 1026.540
948.671;  159.897;  -10.830;  967.300
949.227;  157.559;  -12.440;  859.560
949.783;  155.337;  -12.910;  858.900
950.339;  157.034;  -10.270;  991.000
950.895;  156.945;  -13.630; 1023.840
951.451;  155.893;  -15.100;  925.280
952.007;  157.483;  -11.330;  998.540
952.563;  158.793;  -10.580;  937.780
953.118;  157.635;  -13.440;  904.940
953.674;  156.960;  -12.710;  935.780
954.230;  157.302;  -10.350;  949.640
954.785;  154.903;   -9.190;  936.640
955.341;  152.127;  -11.200;  998.160
955.897;  150.510;  -16.560;  834.660
956.452;  152.717;  -12.570;  953.840
957.008;  151.579;   -7.970; 1083.640
957.563;  149.194;  -11.940; 1009.540
958.118;  143.429;  -13.450;  877.700
958.674;  144.643;  -12.030;  946.780
959.229;  147.412;   -9.410; 1013.980
959.784;  145.096;  -12.000;  832.400
960.339;  142.977;  -14.780; 1001.280
960.894;  139.785;   -9.860;  963.760
961.449;  135.991;   -9.970;  859.960
962.004;  136.697;  -10.900; 1212.840
962.559;  131.678;  -13.150;  860.140
963.114;  129.231;  -13.740;  742.480
963.669;  128.967;   -9.820;  915.500
964.224;  127.750;  -13.890;  874.340
964.779;  126.191;  -12.600;  828.420
965.334;  127.287;  -10.950; 1017.860
965.888;  126.554;  -11.170;  875.360
966.443;  129.954;  -12.540;  972.380
966.998;  129.321;  -15.780;  819.460
967.552;  129.968;   -9.760;  908.380
968.107;  128.077;   -9.060;  868.300
968.661;  131.035;  -11.950;  922.440
969.216;  131.217;  -12.800;  856.280
969.770;  126.455;  -11.210;  917.200
970.324;  115.421;  -11.610;  923.140
970.879;  102.889;  -11.370;  947.180
971.433;   93.457;  -12.540;  952.720
971.987;   87.648;  -11.320;  895.340
972.541;   85.715;  -10.720;  917.100
973.095;   86.942;   -9.680; 1009.460
973.649;   88.250;  -11.440;  809.480
974.203;   89.663;  -11.210;  829.040
974.757;   91.354;  -10.240;  855.220
975.311;   92.735;  -13.720;  872.600
975.865;   93.225;  -13.770;  881.820
976.419;   92.131;  -11.690;  857.400
976.973;   93.203;   -9.510;  849.620
977.526;   95.399;  -12.620;  949.920
978.080;   95.375;  -12.010;  796.780
978.634;   96.988;  -10.170;  921.320
979.187;   94.483;   -9.020;  905.400
979.741;   92.991;   -9.820; 1018.380
980.294;   88.648;  -14.870;  789.160
980.848;   87.001;  -12.380;  717.220
981.401;   88.950;  -10.350;  816.540
981.955;   91.833;  -13.720;  844.300
982.508;   90.055;  -11.490;  746.340
983.061;   90.585;  -10.000;  915.260
983.615;   87.913;  -11.480;  798.800
984.168;   84.540;  -13.220;  770.080
984.721;   83.931;  -13.960;  880.760
985.274;   83.218;  -10.870;  867.500
985.827;   83.177;   -9.790;  834.220
986.380;   80.401;  -13.120;  721.340
986.933;   79.771;  -12.450;  864.800
987.486;   78.316;  -10.210;  861.920
988.039;   77.249;   -8.430;  863.100
988.591;   74.730;  -10.520;  893.260
989.144;   72.601;  -14.860;  737.260
989.697;   71.619;  -13.080;  758.740
990.250;   73.199;  -10.150;  858.100
990.802;   71.776;  -13.430;  755.860
991.355;   73.007;  -12.750;  974.880
991.907;   70.962;  -12.040;  864.320
992.460;   68.917;  -11.330;  753.760
993.012;   68.095;  -13.610;  749.540
993.565;   67.316;  -13.460;  711.360
994.117;   68.372;   -9.360;  950.780
994.669;   65.659;  -11.300;  701.320
995.221;   63.086;  -13.540;  791.920
995.774;   61.043;  -13.430;  787.580
996.326;   59.448;  -12.520;  740.220
996.878;   59.577;  -10.950;  838.420
997.430;   57.852;  -14.300;  699.860
997.982;   56.694;  -13.760;  750.140
998.534;   56.339;  -11.530;  739.060
999.086;   55.192;  -10.310;  738.220
999.638;   53.440;  -12.530;  661.380
1000.190;   52.523;  -11.840;  699.320
1000.741;   51.690;  -10.260;  742.700
1001.293;   50.062;   -8.860;  686.020
1001.845;   47.749;  -13.700;  676.640
1002.396;   47.140;  -12.100;  743.400
1002.948;   47.592;  -12.760;  737.400
1003.500;   47.169;  -10.380;  723.780
1004.051;   47.911;  -11.900;  907.580
1004.603;   46.398;  -12.250;  791.820
1005.154;   42.915;  -13.210;  608.980
1005.705;   42.742;  -10.950;  723.960
1006.257;   41.562;  -13.880;  707.220
1006.808;   41.083;  -12.840;  685.460
1007.359;   41.245;  -10.570;  763.240
1007.910;   40.130;   -9.620;  646.640
1008.461;   39.822;  -13.630;  732.940
1009.013;   38.406;  -17.200;  588.340
1009.564;   39.966;  -10.200;  793.520
1010.115;   37.985;  -12.570;  597.040
1010.665;   37.413;  -15.150;  602.160
1011.216;   38.119;  -14.480;  667.920
1011.767;   36.897;  -11.340;  697.920
1012.318;   37.147;   -9.780;  736.980
1012.869;   35.675;  -12.380;  679.000
1013.419;   35.303;  -15.560;  603.120
1013.970;   35.395;  -11.010;  666.640
1014.521;   35.219;  -11.610;  620.620
1015.071;   34.895;  -13.450;  670.380
1015.622;   35.207;  -13.870;  635.460
1016.172;   34.544;  -11.610;  596.820
1016.723;   34.549;  -12.120;  614.380
1017.273;   33.579;  -13.620;  604.160
1017.823;   33.740;  -14.140;  650.340
1018.374;   32.701;  -12.800;  611.760
1018.924;   32.959;  -12.340;  716.880
1019.474;   33.930;  -11.410;  718.880
1020.024;   32.211;  -14.770;  657.580
1020.574;   32.962;   -9.780;  726.160
1021.124;   33.054;   -8.560;  673.580
1021.674;   31.089;  -15.190;  559.120
1022.224;   32.554;  -13.530;  708.940
1022.774;   32.888;  -13.280;  668.820
1023.324;   32.694;  -10.690;  753.520
1023.874;   34.115;  -10.240;  875.760
1024.423;   31.103;  -12.540;  613.700
1024.973;   30.367;  -10.010;  610.760
1025.523;   30.027;  -10.550;  620.960
1026.072;   29.485;  -13.560;  606.420
1026.622;   29.921;  -15.120;  675.740
1027.172;   30.811;  -11.260;  715.660
1027.721;   29.787;  -11.410;  601.220
1028.270;   29.594;  -13.530;  663.400
1028.820;   29.275;  -13.680;  638.080
1029.369;   29.391;  -13.520;  612.700
1029.918;   29.991;  -10.980;  649.840
1030.468;   28.961;  -13.530;  564.780
1031.017;   28.865;  -13.170;  634.800
1031.566;   27.755;  -12.200;  608.900
1032.115;   28.083;   -9.960;  694.500
1032.664;   28.044;  -13.210;  596.480
1033.213;   27.969;  -12.500;  735.420
1033.762;   27.739;  -11.910;  635.620
1034.311;   27.737;   -9.640;  677.220
1034.860;   28.441;  -13.310;  691.000
1035.408;   28.168;  -11.830;  722.720
1035.957;   27.072;  -12.000;  719.540
1036.506;   26.724;  -11.690;  530.800
1037.055;   27.950;  -10.990;  844.320
1037.603;   26.775;  -15.120;  664.000
1038.152;   25.221;  -12.450;  534.760
1038.700;   25.807;  -10.560;  585.740
1039.249;   25.337;  -11.080;  681.220
1039.797;   25.377;  -12.540;  633.360
1040.345;   25.124;  -11.920;  705.420
1040.894;   25.047;  -11.410;  625.300
1041.442;   24.679;  -14.320;  632.200
1041.990;   23.494;  -16.240;  559.160
1042.538;   24.259;  -11.680;  536.180
1043.087;   24.697;  -10.760;  570.860
1043.635;   25.689;  -11.850;  670.500
1044.183;   23.557;  -15.480;  586.400
1044.731;   23.744;  -11.770;  576.000
1045.279;   23.831;  -13.090;  674.920
1045.827;   25.685;  -12.440;  892.400
1046.374;   22.870;  -13.840;  515.420
1046.922;   21.767;  -13.220;  590.580
1047.470;   23.668;  -10.230;  691.300
1048.018;   23.478;  -14.590;  647.960
1048.565;   23.566;  -12.050;  708.600
1049.113;   22.333;  -11.650;  557.000
1049.660;   22.216;  -10.510;  629.660
1050.208;   22.606;  -13.310;  675.640
1050.755;   22.004;  -15.900;  606.580
1051.303;   22.807;  -11.430;  686.820
1051.850;   21.921;   -8.480;  635.120
1052.397;   20.270;  -15.010;  473.960
1052.945;   20.829;  -13.960;  617.760
1053.492;   22.173;  -13.150;  741.840
1054.039;   22.539;   -9.630;  720.180
1054.586;   20.361;  -13.680;  557.240
1055.133;   21.905;  -14.570;  693.140
1055.680;   21.382;  -13.820;  646.620
1056.227;   20.039;  -11.730;  542.780
1056.774;   22.058;  -12.480;  794.980
1057.321;   19.665;  -13.930;  523.260
1057.868;   19.877;  -11.690;  651.320
1058.415;   20.825;   -9.520;  651.980
1058.961;   20.293;  -13.160;  678.940
1059.508;   19.630;  -12.920;  643.820
1060.055;   19.667;  -11.920;  581.780
1060.601;   20.386;  -11.500;  624.300
1061.148;   19.514;  -14.330;  616.820
1061.694;   19.005;  -16.870;  592.580
1062.241;   19.203;  -10.330;  596.320
1062.787;   19.256;  -10.620;  663.140
1063.334;   20.742;  -10.110;  808.560
1063.880;   19.040;  -13.400;  668.360
1064.426;   19.223;  -10.680;  706.820
1064.972;   18.519;   -9.920;  601.340
1065.518;   16.543;  -10.980;  566.640
1066.065;   18.884;  -14.890;  624.460
1066.611;   17.709;  -12.870;  598.800
1067.157;   18.801;  -12.950;  641.860
1067.703;   17.854;  -13.540;  668.480
1068.249;   17.635;  -13.540;  605.220
1068.794;   17.936;  -12.600;  626.880
1069.340;   17.272;  -10.620;  578.960
1069.886;   17.693;  -12.830;  590.700
1070.432;   16.466;  -14.870;  541.720
1070.977;   16.137;  -11.980;  601.080
1071.523;   16.550;   -8.200;  573.060
1072.068;   17.073;  -12.330;  582.000
1072.614;   16.508;  -16.370;  527.760
1073.160;   16.941;  -11.100;  687.040
1073.705;   16.289;  -10.480;  572.520
1074.250;   16.390;  -14.520;  559.900
1074.796;   16.919;  -11.460;  655.160
1075.341;   17.044;  -11.950;  664.100
1075.886;   15.998;  -11.460;  594.240
1076.431;   15.600;  -13.770;  649.880
1076.976;   15.558;  -12.680;  639.220
1077.521;   15.424;  -13.170;  583.080
1078.067;   14.228;  -10.860;  579.400
1078.612;   15.621;  -13.920;  661.620
1079.156;   15.239;  -13.880;  601.540
1079.701;   15.335;  -13.120;  693.260
1080.246;   15.615;   -9.940;  696.300
1080.791;   15.620;  -14.740;  625.020
1081.336;   16.103;  -13.750;  659.320
1081.880;   15.155;  -13.400;  649.680
1082.425;   14.421;  -12.220;  573.480
1082.970;   16.112;  -11.610;  717.040
1083.514;   13.948;  -13.580;  597.000
1084.059;   13.640;  -12.810;  586.720
1084.603;   13.654;  -12.320;  565.840
1085.147;   13.726;  -13.190;  645.220
1085.692;   14.703;  -12.480;  716.800
1086.236;   13.263;  -13.020;  503.140
1086.780;   14.943;   -9.190;  751.440
1087.325;   14.130;  -12.480;  654.620
1087.869;   13.907;  -12.450;  610.700
1088.413;   14.532;  -12.240;  705.040
1088.957;   12.437;   -9.020;  543.400
1089.501;   13.397;  -10.320;  766.640
1090.045;   13.359;  -12.720;  726.480
1090.589;   11.474;  -13.690;  569.920
1091.133;   13.908;  -10.020;  673.340
1091.676;   12.770;  -12.330;  591.940
1092.220;   12.063;  -14.970;  600.920
1092.764;   12.866;  -12.430;  706.960
1093.307;   13.073;   -9.800;  673.780
1093.851;   10.907;  -14.970;  556.540
1094.395;   12.558;  -15.310;  683.140
1094.938;   11.544;  -10.370;  632.520
1095.482;   11.470;  -11.050;  559.800
1096.025;   11.942;  -11.840;  710.880
1096.568;   12.671;  -12.840;  779.280
1097.112;    9.939;  -14.700;  508.180
1097.655;   12.096;   -8.720;  603.000
1098.198;   10.634;  -13.610;  600.180
1098.741;   10.690;  -13.350;  612.860
1099.285;   10.674;  -11.230;  657.300
1099.828;    9.771;  -11.840;  439.400
1100.371;   10.704;  -10.840;  608.160
1100.914;   11.164;  -14.190;  682.660
1101.457;   10.261;  -11.240;  679.900
1101.999;    8.966;  -11.270;  584.680
1102.542;    9.966;  -11.480;  641.440
1103.085;    9.856;  -11.750;  658.500
1103.628;   10.402;  -11.400;  762.060
1104.170;   10.502;  -10.490;  588.280
1104.713;    9.967;  -10.600;  646.700
1105.256;    9.162;  -14.360;  557.440
1105.798;    8.419;  -13.210;  499.980
1106.341;   11.025;  -10.270;  728.900
1106.883;    9.800;  -12.200;  521.340
1107.425;    9.060;  -13.110;  668.180
1107.968;    8.519;  -12.840;  612.380
1108.510;    9.392;   -6.480;  684.960
1109.052;    8.098;  -13.940;  612.620
1109.594;    8.279;  -13.690;  554.440
1110.136;    9.034;  -11.880;  643.220
1110.679;    8.340;   -9.500;  633.080
1111.221;    9.293;  -14.160;  604.460
1111.763;    7.956;  -13.980;  559.220
1112.304;    7.583;  -13.880;  547.140
1112.846;    9.573;  -12.210;  666.240
1113.388;   11.325;  -11.390;  942.180
1113.930;    8.049;  -14.540;  694.200
1114.472;    7.019;  -12.640;  606.540
1115.013;    6.804;  -11.620;  551.280
1115.555;    7.287;  -13.640;  587.100
1116.097;    6.493;  -15.380;  579.480
1116.638;    7.686;  -12.640;  684.600
1117.180;    7.559;   -9.850;  667.740
1117.721;    7.252;  -13.690;  568.580
1118.262;    7.615;  -12.680;  677.960
1118.804;    8.281;  -12.530;  637.340
1119.345;    6.392;  -11.690;  578.400
1119.886;    8.263;  -13.380;  704.040
1120.427;    5.853;  -14.070;  589.020
1120.969;    6.113;  -13.500;  597.920
1121.510;    5.599;  -11.480;  563.060
1122.051;    6.929;  -12.830;  723.580
1122.592;    5.605;  -14.290;  655.420
1123.133;    5.349;  -12.400;  547.940
1123.673;    7.439;  -10.130;  706.480
1124.214;    6.302;  -12.930;  612.460
1124.755;    6.851;  -14.380;  639.460
1125.296;    6.216;  -14.000;  627.320
1125.836;    6.685;  -10.070;  691.500
1126.377;    5.725;  -12.640;  599.660
1126.918;    5.990;  -12.960;  614.980
1127.458;    4.665;  -13.350;  622.220
1127.999;    5.761;  -10.750;  656.980
1128.539;    5.745;  -12.350;  694.240
1129.079;    5.669;  -14.860;  632.720
1129.620;    5.136;  -13.840;  558.100
1130.160;    4.754;  -12.330;  539.480
1130.700;    5.571;  -14.530;  640.840
1131.240;    5.879;  -12.530;  643.700
1131.781;    4.573;  -14.450;  619.680
1132.321;    4.925;   -9.790;  599.120
1132.861;    3.460;  -14.860;  564.200
1133.401;    3.985;  -14.290;  593.940
1133.941;    4.209;  -11.750;  626.280
1134.481;    4.651;   -9.920;  597.580
1135.020;    3.319;  -12.290;  609.160
1135.560;    3.861;  -11.650;  674.940
1136.100;    2.898;  -16.270;  501.160
1136.640;    3.695;  -10.890;  510.480
1137.179;    3.564;  -14.180;  537.960
1137.719;    3.850;  -16.250;  605.400
1138.258;    3.847;  -14.230;  587.360
1138.798;    4.261;   -9.090;  663.780
1139.337;    2.261;  -15.130;  482.840
1139.877;    3.613;  -13.680;  642.360
1140.416;    5.590;  -11.320;  878.060
1140.955;    2.805;  -10.860;  535.380
1141.494;    3.158;  -12.920;  669.280
1142.034;    2.436;  -13.930;  583.520
1142.573;    3.449;  -11.440;  646.280
1143.112;    2.666;  -12.000;  553.480
1143.651;    2.666;  -13.670;  536.480
1144.190;    3.393;  -12.730;  691.640
1144.729;    3.362;  -14.560;  607.420
1145.267;    2.481;  -11.830;  584.900
1145.806;    3.581;  -12.230;  637.040
1146.345;    2.296;  -14.130;  635.020
1146.884;    2.033;  -11.590;  622.500
1147.422;    1.863;  -12.550;  533.060
1147.961;    3.210;  -11.180;  708.460
1148.500;    2.983;  -11.510;  669.720
1149.038;    3.038;  -11.640;  632.500
1149.577;    3.139;  -10.130;  698.640
1150.115;    0.511;  -13.970;  452.280
1150.653;    1.534;  -14.520;  607.340
1151.192;    1.448;  -12.810;  552.920
1151.730;    2.249;   -9.100;  652.560
1152.268;    0.962;  -12.220;  589.520
1152.806;    1.817;  -14.140;  571.180
1153.344;   -0.302;  -12.350;  577.640
1153.882;    1.793;   -8.980;  600.060
1154.421;    0.059;  -15.190;  470.620
1154.958;    0.497;  -15.210;  595.240
1155.496;    2.197;  -12.850;  645.280
1156.034;    1.891;   -9.940;  721.880
1156.572;    2.639;  -13.570;  667.060
1157.110;    0.588;  -14.590;  473.940
1157.647;    1.605;  -13.030;  676.960
1158.185;    1.071;  -12.140;  564.320
1158.723;   -0.227;  -14.390;  509.200
1159.260;    0.519;  -14.090;  701.700
1159.798;    0.857;  -11.920;  658.160
1160.335;    0.933;  -11.110;  631.820

