
Integration time [ms]:   3.276
Averaging Nr. [scans]: 1000
Smoothing Nr. [pixels]: 0
Data measured with spectrometer [name]: 7414430SP
Wave   ;Sample   ;Dark     ;Reference
[nm]   ;[counts] ;[counts] ;[counts] 

288.544;  152.901;    7.793;  793.890
289.143;  155.454;    7.462;  681.602
289.742;  156.094;    8.602;  828.814
290.341;  141.698;    1.321;  789.841
290.940;  131.061;   -0.709;  730.702
291.538;  132.129;    0.881;  881.108
292.137;  132.139;    0.122;  792.581
292.736;  136.861;   -1.929;  975.101
293.335;  132.649;   -8.229;  735.086
293.934;  132.823;   -5.279;  781.677
294.532;  130.906;   -1.369; 1031.958
295.131;  117.330;   -7.641;  834.394
295.730;  118.042;   -8.420;  809.588
296.328;  116.330;   -5.611;  783.442
296.927;  117.155;   -5.781;  779.652
297.525;  117.837;   -6.361;  781.236
298.124;  108.460;  -11.382;  654.009
298.722;  111.891;   -7.641;  761.933
299.321;  110.088;   -6.811;  708.597
299.919;  108.066;   -6.991;  751.918
300.518;  104.987;  -10.362;  689.338
301.116;  107.072;   -9.581;  691.381
301.715;  106.926;   -4.891;  730.222
302.313;  106.557;   -8.801;  704.943
302.911;  101.748;   -8.522;  733.830
303.509;  106.072;   -6.171;  925.627
304.108;  103.895;   -7.311;  760.383
304.706;  103.942;   -8.321;  801.664
305.304;   97.682;  -10.222;  796.707
305.902;  102.697;   -6.021;  784.484
306.500;   98.362;   -4.971;  728.200
307.098;   97.375;   -7.061;  746.560
307.696;   95.584;   -8.801;  780.432
308.294;   95.282;   -6.411;  731.359
308.892;   98.150;   -2.901;  759.769
309.490;   94.675;   -5.041;  712.161
310.088;   93.210;   -5.002;  788.444
310.686;   97.090;   -2.041;  821.749
311.284;   91.886;   -2.351;  766.040
311.882;   89.730;   -4.422;  731.225
312.480;   87.092;   -4.192;  697.167
313.078;   87.853;   -1.172;  808.331
313.675;   89.268;   -2.601;  691.600
314.273;   84.411;   -1.312;  797.837
314.871;   83.968;   -3.942;  589.829
315.468;   82.262;   -2.802;  652.090
316.066;   84.440;   -0.701;  694.427
316.664;   76.847;   -4.362;  656.351
317.261;   81.306;   -2.872;  910.128
317.859;   76.075;   -2.022;  768.735
318.456;   76.908;   -0.531;  830.096
319.054;   73.093;   -3.912;  787.828
319.651;   72.173;   -4.752;  759.928
320.249;   71.450;   -2.602;  810.188
320.846;   69.196;   -0.821;  714.286
321.443;   66.121;   -4.642;  832.135
322.041;   63.499;   -5.002;  812.315
322.638;   60.629;   -3.982;  701.456
323.235;   61.626;   -3.411;  665.683
323.833;   59.480;   -7.361;  740.354
324.430;   55.359;   -8.611;  615.900
325.027;   55.888;   -4.061;  876.855
325.624;   55.322;   -4.031;  644.532
326.221;   53.385;   -7.481;  689.717
326.818;   52.607;   -5.281;  818.332
327.415;   55.763;   -7.460;  748.828
328.012;   55.506;   -5.510;  690.585
328.609;   53.759;   -7.880;  731.389
329.206;   52.617;   -8.331;  778.621
329.803;   51.693;   -5.121;  737.841
330.400;   54.865;   -4.510;  704.260
330.997;   56.942;   -6.441;  817.147
331.594;   55.331;   -8.831;  788.185
332.191;   59.994;   -7.621;  728.722
332.787;   63.337;   -4.591;  844.463
333.384;   61.227;   -7.412;  763.093
333.981;   60.806;   -8.293;  815.687
334.578;   62.608;   -7.052;  708.378
335.174;   65.974;   -3.102;  731.469
335.771;   64.575;   -5.943;  836.456
336.367;   62.629;   -7.393;  710.631
336.964;   66.126;   -4.063;  793.266
337.561;   64.101;   -3.813;  731.112
338.157;   59.316;   -4.654;  911.916
338.754;   56.651;   -7.934;  796.589
339.350;   53.948;   -4.414;  722.493
339.946;   57.610;   -4.664;  773.135
340.543;   49.051;   -6.375;  846.136
341.139;   43.810;   -9.815;  720.836
341.735;   41.457;   -4.526;  772.593
342.332;   40.120;   -4.895;  691.472
342.928;   40.458;   -4.295;  795.394
343.524;   34.539;   -5.476;  761.684
344.120;   31.245;   -5.856;  738.562
344.716;   34.286;   -2.155;  723.717
345.313;   31.785;   -6.275;  795.342
345.909;   27.082;   -8.815;  627.336
346.505;   28.888;   -5.305;  740.247
347.101;   28.989;   -2.674;  827.864
347.697;   29.364;   -4.344;  785.398
348.293;   24.014;   -9.975;  627.244
348.889;   24.956;   -5.774;  745.914
349.485;   24.774;   -5.004;  688.205
350.081;   24.703;   -4.704;  772.592
350.676;   19.639;   -6.635;  691.606
351.272;   24.149;   -4.504;  809.530
351.868;   23.816;   -3.914;  780.497
352.464;   21.090;   -9.044;  723.932
353.059;   17.146;   -8.314;  646.017
353.655;   20.513;   -7.024;  777.063
354.251;   22.623;   -5.343;  759.845
354.846;   15.777;   -8.604;  740.646
355.442;   14.549;   -6.945;  753.071
356.038;   16.541;   -7.564;  751.708
356.633;   16.797;   -5.814;  728.594
357.229;   14.758;   -7.364;  724.757
357.824;   13.169;   -8.024;  703.600
358.420;   11.434;   -9.384;  679.726
359.015;   12.700;   -5.104;  695.357
359.610;   12.996;   -6.854;  763.920
360.206;    7.484;  -10.185;  603.240
360.801;    9.820;   -7.054;  646.503
361.396;   12.949;   -5.034;  725.975
361.992;    7.815;   -8.284;  668.220
362.587;    4.806;   -8.625;  670.160
363.182;    6.921;   -7.674;  689.631
363.777;    8.039;   -5.164;  738.242
364.372;    8.131;   -8.604;  737.314
364.967;    4.112;   -9.055;  680.744
365.563;    7.835;   -6.114;  815.567
366.158;    4.502;   -5.814;  685.161
366.753;    5.522;   -7.854;  649.263
367.348;    3.807;   -7.804;  746.056
367.942;    3.845;   -7.954;  697.298
368.537;    2.945;   -4.984;  754.245
369.132;    3.702;   -8.564;  703.428
369.727;   -1.021;   -8.855;  638.079
370.322;    0.864;   -6.245;  580.186
370.917;    0.351;   -6.425;  710.646
371.511;    3.460;   -6.294;  861.834
372.106;    0.215;   -7.685;  776.964
372.701;   -3.407;   -7.335;  585.988
373.296;    2.011;   -4.564;  863.135
373.890;   -2.496;  -10.235;  647.840
374.485;   -4.455;   -7.885;  691.199
375.079;   -1.353;   -7.324;  738.685
375.674;    0.402;   -3.494;  812.970
376.268;   -3.910;   -8.525;  691.759
376.863;   -9.156;  -10.086;  580.327
377.457;   -3.878;   -7.025;  662.490
378.052;   -5.409;   -3.585;  764.884
378.646;   -5.661;   -7.595;  741.167
379.240;   -6.069;   -8.335;  721.176
379.835;   -5.022;   -5.785;  636.978
380.429;   -7.395;   -4.335;  562.557
381.023;   -8.168;   -6.805;  779.205
381.617;   -9.921;   -9.195;  680.106
382.212;   -6.841;   -6.905;  685.303
382.806;   -5.516;   -3.745;  760.690
383.400;   -9.837;   -7.745;  672.281
383.994;  -10.203;   -9.765;  664.870
384.588;   -7.199;   -6.564;  697.701
385.182;   -5.502;   -5.344;  726.624
385.776;   -6.707;   -8.514;  706.875
386.370;  -10.487;   -9.555;  681.968
386.964;   -9.199;   -8.715;  684.155
387.558;   -6.360;   -6.174;  598.360
388.152;  -10.303;   -8.725;  681.959
388.745;   -8.394;   -7.965;  814.707
389.339;   -6.826;   -5.924;  747.642
389.933;   -5.779;   -5.524;  695.370
390.527;   -7.408;   -7.114;  859.029
391.120;  -13.022;  -10.725;  595.318
391.714;  -10.482;   -8.035;  711.633
392.308;   -7.244;   -3.574;  780.253
392.901;  -10.992;   -7.245;  642.460
393.495;  -13.927;   -9.285;  595.414
394.089;  -10.877;   -5.895;  760.452
394.682;  -10.894;   -4.295;  697.188
395.275;  -12.162;   -9.875;  719.927
395.869;  -13.137;   -8.485;  667.314
396.462;  -11.624;   -7.455;  616.609
397.056;   -7.615;   -5.424;  776.621
397.649;  -11.988;   -6.605;  731.575
398.242;   -9.684;   -8.224;  712.645
398.836;   -9.019;   -7.474;  766.408
399.429;   -9.239;   -7.094;  631.041
400.022;  -13.185;   -9.475;  665.902
400.615;  -11.181;   -7.145;  805.609
401.208;   -9.098;   -7.174;  691.451
401.802;  -11.627;   -5.515;  699.329
402.395;  -12.409;   -9.875;  683.502
402.988;  -13.336;   -8.845;  696.627
403.581;  -10.021;   -8.874;  646.878
404.174;   -7.716;   -5.324;  686.568
404.767;  -10.618;   -9.575;  638.583
405.360;  -13.194;  -10.965;  621.445
405.953;   -7.587;   -8.764;  759.034
406.545;   -7.792;   -7.514;  725.342
407.138;  -11.349;  -10.025;  618.350
407.731;  -10.293;  -10.034;  613.303
408.324;   -5.975;   -9.374;  660.554
408.917;   -6.799;   -6.534;  681.864
409.509;   -8.791;   -8.004;  740.396
410.102;  -10.412;   -9.875;  643.948
410.695;   -5.007;   -8.604;  665.758
411.287;   -5.939;   -6.794;  599.821
411.880;   -6.631;   -9.334;  585.421
412.472;   -9.969;  -10.254;  613.092
413.065;   -7.132;   -6.714;  629.408
413.657;   -4.820;   -7.234;  576.678
414.250;   -5.215;  -10.544;  646.681
414.842;   -7.065;   -9.744;  676.353
415.434;   -4.423;   -6.994;  570.463
416.027;   -0.323;   -5.893;  652.196
416.619;   -2.565;   -7.264;  713.400
417.211;   -2.964;  -10.374;  599.352
417.804;    0.624;   -7.993;  628.499
418.396;   -3.293;   -7.234;  607.643
418.988;   -1.723;   -9.443;  659.238
419.580;   -4.309;  -10.724;  568.276
420.172;   -1.914;  -10.323;  536.196
420.764;    1.937;   -8.793;  672.482
421.356;    1.765;  -11.143;  636.898
421.948;    0.231;   -8.293;  677.661
422.540;    5.265;   -7.893;  680.027
423.132;    4.666;   -7.082;  600.641
423.724;    1.199;   -8.653;  561.267
424.316;    2.832;  -10.213;  621.345
424.908;    6.218;   -9.762;  591.517
425.500;    8.008;   -5.572;  647.978
426.092;    8.083;   -8.422;  648.268
426.683;    7.553;   -9.283;  684.836
427.275;    9.243;   -7.852;  641.471
427.867;   11.654;   -5.272;  668.948
428.458;   11.621;   -7.682;  732.344
429.050;   10.380;  -10.612;  680.749
429.642;   12.406;   -9.882;  743.124
430.233;   13.043;   -6.962;  569.356
430.825;   14.400;   -6.842;  724.809
431.416;   11.501;   -9.672;  698.241
432.008;   15.617;   -6.552;  651.723
432.599;   16.311;   -6.891;  656.073
433.190;   12.921;  -10.912;  637.670
433.782;   12.916;  -11.172;  590.395
434.373;   19.080;   -6.061;  884.765
434.964;   18.650;   -8.251;  602.920
435.556;   16.295;   -9.722;  634.537
436.147;   19.551;   -9.082;  758.490
436.738;   19.518;   -8.041;  701.099
437.329;   24.778;   -7.341;  721.723
437.920;   17.289;   -8.162;  666.688
438.511;   17.992;  -11.802;  564.526
439.103;   24.129;  -10.191;  623.998
439.694;   25.898;   -7.601;  681.583
440.285;   26.889;   -8.541;  764.432
440.876;   25.273;   -9.751;  845.738
441.466;   24.400;   -9.401;  575.162
442.057;   29.987;   -7.760;  665.814
442.648;   28.628;   -9.971;  746.255
443.239;   26.546;  -11.001;  620.477
443.830;   31.645;   -7.990;  704.958
444.421;   33.436;   -7.910;  655.474
445.011;   30.208;   -8.131;  693.619
445.602;   30.228;   -7.111;  743.126
446.193;   31.666;  -10.920;  488.117
446.783;   35.854;   -6.500;  640.397
447.374;   32.218;   -8.671;  692.759
447.964;   32.855;  -10.781;  713.770
448.555;   40.717;   -9.650;  822.742
449.145;   37.425;   -8.660;  662.853
449.736;   38.582;   -8.990;  803.179
450.326;   37.980;   -9.500;  713.626
450.917;   43.350;   -8.680;  675.324
451.507;   41.860;   -7.520;  600.661
452.097;   43.224;   -8.590;  746.267
452.688;   43.957;  -11.340;  742.160
453.278;   43.467;  -10.100;  566.840
453.868;   49.166;   -6.019;  793.550
454.458;   45.952;   -9.440;  651.141
455.048;   46.581;  -10.560;  711.783
455.639;   48.391;  -11.799;  567.096
456.229;   51.921;   -6.899;  710.694
456.819;   53.446;   -7.389;  751.158
457.409;   54.691;  -11.119;  773.993
457.999;   57.046;   -9.289;  737.505
458.589;   57.333;   -6.139;  686.606
459.179;   57.184;   -8.729;  717.658
459.769;   54.903;   -9.789;  627.099
460.358;   60.312;  -10.259;  797.262
460.948;   59.600;   -7.299;  689.503
461.538;   61.293;  -10.289;  660.677
462.128;   59.540;  -11.269;  664.934
462.717;   66.217;   -9.368;  710.326
463.307;   69.567;   -7.908;  705.846
463.897;   64.848;   -9.599;  656.942
464.486;   64.829;   -9.769;  837.128
465.076;   69.667;   -8.048;  733.776
465.666;   72.364;   -9.358;  652.900
466.255;   70.602;   -7.919;  785.651
466.845;   69.190;  -11.689;  666.749
467.434;   73.181;   -7.818;  725.873
468.023;   74.090;   -7.678;  658.357
468.613;   71.124;  -10.939;  713.946
469.202;   76.201;  -10.118;  646.507
469.791;   80.009;   -9.108;  737.811
470.381;   81.767;   -6.058;  742.813
470.970;   81.418;  -10.428;  711.099
471.559;   80.877;  -10.268;  733.291
472.148;   84.973;   -8.448;  675.737
472.738;   87.664;   -6.917;  765.466
473.327;   86.909;  -11.978;  637.529
473.916;   86.439;  -11.888;  737.446
474.505;   91.100;   -9.437;  751.703
475.094;   93.819;   -6.747;  806.570
475.683;   93.623;   -9.367;  797.699
476.272;   94.529;  -12.637;  730.632
476.861;   97.232;  -10.027;  706.754
477.449;  103.276;   -8.716;  728.487
478.038;   98.907;   -9.577;  692.513
478.627;   98.806;   -9.718;  714.852
479.216;  106.503;   -8.947;  769.441
479.805;  109.743;   -6.256;  783.375
480.393;  108.756;   -7.937; 1008.945
480.982;  108.646;   -7.717;  874.501
481.571;  113.982;   -9.266;  858.333
482.159;  115.068;   -7.636;  705.386
482.748;  114.700;   -9.667;  821.385
483.336;  119.014;  -10.376;  858.209
483.925;  120.803;   -7.147;  774.373
484.513;  127.960;   -7.996;  758.962
485.102;  124.358;  -10.027;  810.965
485.690;  132.988;  -10.446; 1011.050
486.278;  134.518;   -8.446;  979.329
486.867;  135.576;   -6.356;  809.662
487.455;  137.245;   -9.136;  898.229
488.043;  139.419;  -10.646;  748.361
488.631;  148.704;   -7.456; 1005.079
489.220;  153.172;   -6.636;  908.626
489.808;  153.384;  -11.036;  741.415
490.396;  161.207;  -10.246;  914.645
490.984;  168.122;   -8.556;  830.161
491.572;  179.422;   -5.886;  940.315
492.160;  185.521;   -9.486;  919.081
492.748;  198.374;  -10.976;  884.341
493.336;  222.785;   -8.776; 1019.693
493.924;  252.323;   -5.465;  958.077
494.512;  283.604;   -9.986; 1066.638
495.100;  325.741;  -10.636; 1103.280
495.687;  381.273;  -10.885; 1206.373
496.275;  446.982;   -8.126; 1150.796
496.863;  517.397;  -10.586; 1281.171
497.451;  623.767;  -11.926; 1386.805
498.038;  770.284;  -10.885; 1556.729
498.626;  885.531;   -6.315; 1741.407
499.214; 1039.661;   -7.326; 2016.609
499.801; 1239.699;  -11.906; 2220.633
500.389; 1494.730;  -10.466; 2312.494
500.976; 1826.749;   -5.236; 2744.849
501.564; 2274.232;   -8.936; 3148.565
502.151; 2656.492;  -13.176; 3515.999
502.738; 3132.014;  -10.646; 3971.274
503.326; 3536.854;   -9.525; 4403.796
503.913; 3945.279;  -10.856; 5161.749
504.500; 4295.330;  -11.586; 5986.420
505.088; 4754.974;  -10.336; 6381.201
505.675; 5320.241;   -6.355; 6925.547
506.262; 5981.734;   -9.046; 7619.060
506.849; 6735.753;  -10.416; 8733.969
507.436; 7259.840;  -10.305; 9790.121
508.023; 7858.173;   -5.496; 9985.472
508.610; 8119.319;   -7.856;10434.618
509.197; 8776.979;  -10.097;11198.435
509.784;10196.789;  -10.886;12391.194
510.371;11287.534;   -9.315;13603.713
510.958;12066.293;   -9.936;14426.586
511.545;12855.602;   -9.326;15243.775
512.132;13805.542;  -10.075;15945.876
512.719;14404.146;   -7.796;16340.369
513.305;15440.570;  -10.606;18011.766
513.892;16301.941;  -11.486;19754.971
514.479;17707.805;   -9.126;20967.805
515.066;19263.176;   -6.026;22299.793
515.652;20546.410;   -8.466;22908.660
516.239;21797.025;  -10.886;23798.875
516.825;22937.592;  -11.496;25567.275
517.412;24062.621;   -5.796;28154.959
517.998;24916.484;  -10.506;28344.111
518.585;24915.074;  -10.076;27134.219
519.171;25245.141;   -8.315;27268.576
519.758;26727.266;   -8.596;28964.129
520.344;28807.893;   -8.466;30664.494
520.930;29026.443;  -11.006;32550.605
521.516;30574.805;  -10.495;35422.895
522.103;33168.449;   -5.526;38280.004
522.689;34045.629;   -8.746;37835.117
523.275;33763.336;  -11.376;37288.613
523.861;34801.383;  -11.156;37281.395
524.447;36037.543;   -8.135;37846.949
525.033;35457.199;   -7.896;38321.949
525.619;35811.422;  -12.476;38579.285
526.205;37478.551;   -9.516;40622.875
526.791;40523.039;   -6.926;42258.836
527.377;40395.020;   -8.346;42966.902
527.963;42191.953;   -8.717;42018.949
528.549;41279.973;  -11.016;42476.828
529.135;39749.531;   -8.536;41854.852
529.721;38994.805;   -9.666;41237.711
530.306;38407.449;  -10.066;41259.445
530.892;38402.699;  -11.356;41506.047
531.478;39790.875;   -6.596;43559.613
532.063;42655.145;   -8.836;47695.563
532.649;43177.027;  -10.047;50808.324
533.235;44228.539;   -9.746;51787.500
533.820;45601.664;   -6.566;52145.035
534.406;46725.078;  -10.817;51133.488
534.991;46204.207;   -9.416;49996.805
535.576;44779.426;   -9.036;48882.852
536.162;45418.934;   -6.156;46942.285
536.747;46673.684;  -11.607;45711.746
537.333;50021.594;  -11.787;48510.180
537.918;53476.496;  -12.437;50439.891
538.503;52325.957;   -7.196;50863.711
539.088;48881.027;  -10.556;50906.922
539.673;49064.480;   -8.767;52621.965
540.259;48954.258;  -10.026;52368.094
540.844;45948.977;   -7.416;50879.109
541.429;46838.012;   -9.467;52077.777
542.014;50271.570;   -9.527;52716.695
542.599;50324.945;   -9.946;52363.281
543.184;47024.406;   -7.927;53187.137
543.769;47799.609;   -9.297;54697.605
544.354;47702.430;  -10.127;53913.914
544.938;46663.984;   -9.267;49680.164
545.523;48862.766;   -6.506;47386.277
546.108;51283.480;   -9.787;49151.949
546.693;53642.727;  -11.587;51384.637
547.278;53715.637;  -10.986;51853.254
547.862;50353.984;   -8.206;51173.750
548.447;45464.801;  -10.067;51691.395
549.031;44698.086;   -9.637;52456.703
549.616;49647.934;   -9.926;52714.516
550.201;48876.953;   -6.347;52414.598
550.785;49658.027;   -7.917;52355.059
551.370;49198.461;  -10.867;54589.453
551.954;49307.762;   -9.047;58267.348
552.538;50811.660;   -7.827;59062.176
553.123;48955.781;  -10.287;58115.285
553.707;46394.953;  -12.178;56556.285
554.291;47109.535;   -8.717;56201.668
554.876;49220.883;   -7.457;55335.762
555.460;49784.676;  -10.387;54155.703
556.044;51405.688;   -9.618;53721.484
556.628;49487.270;  -11.567;53731.016
557.212;47982.793;   -8.097;54312.531
557.796;45896.211;  -11.077;53797.773
558.380;46012.055;  -11.108;56145.984
558.964;47156.137;   -9.057;57277.930
559.548;48228.887;   -6.977;56459.641
560.132;45855.316;  -11.457;54434.543
560.716;44542.398;  -11.378;54800.617
561.300;45559.895;   -9.577;57606.945
561.884;46657.965;   -7.127;58972.445
562.467;45240.031;   -7.118;57327.570
563.051;44628.820;  -13.358;54962.434
563.635;45423.473;  -10.178;52594.473
564.219;45962.492;   -7.837;50610.410
564.802;46637.477;  -11.398;49551.180
565.386;46652.090;  -12.788;48370.953
565.969;46313.590;   -9.077;48178.871
566.553;45117.582;   -6.207;49957.305
567.136;45460.984;   -8.568;50369.594
567.720;41655.910;  -11.868;49492.004
568.303;39905.730;   -8.268;50616.352
568.887;39783.398;   -8.698;50727.148
569.470;39971.785;   -6.808;51698.379
570.053;39118.211;  -13.188;52122.078
570.637;37276.746;  -12.037;52536.438
571.220;36645.020;   -8.577;51186.098
571.803;36936.902;   -8.498;51032.762
572.386;38962.246;  -10.498;49609.887
572.969;41729.707;   -9.388;48285.926
573.552;40314.633;   -8.338;47624.285
574.135;39155.844;   -8.518;45498.641
574.718;36548.609;  -13.628;41970.434
575.301;35356.023;  -10.893;41447.137
575.884;34163.441;   -8.158;40923.836
576.467;35325.648;  -10.328;45267.723
577.050;37266.977;  -13.058;48175.543
577.633;38956.637;   -9.458;47729.328
578.216;37941.207;   -8.928;47579.793
578.799;36816.621;   -9.358;47820.996
579.381;35392.277;  -11.388;48115.551
579.964;33502.012;  -11.718;47333.766
580.547;34989.961;   -8.588;46668.969
581.129;35984.371;   -8.859;44466.141
581.712;36675.023;  -10.729;44164.922
582.294;37403.348;  -11.118;46477.855
582.877;37636.199;   -5.218;48244.254
583.459;35542.734;   -8.679;47437.895
584.042;33544.602;  -10.709;46943.219
584.624;33828.270;  -11.669;46792.227
585.206;33468.609;   -8.218;46557.250
585.789;33669.469;  -10.569;45793.773
586.371;36483.656;  -11.859;43836.391
586.953;37438.379;  -10.719;42972.492
587.536;38269.531;   -7.198;42487.211
588.118;38431.563;   -8.720;42086.414
588.700;34489.371;  -10.439;43389.930
589.282;33412.031;   -9.198;43646.039
589.864;34295.387;   -9.199;43438.109
590.446;35687.844;  -11.319;43151.926
591.028;35559.074;  -11.159;42781.867
591.610;34455.563;  -11.779;42839.098
592.192;31504.020;   -7.668;42820.402
592.774;29802.410;  -11.949;40724.277
593.356;28748.762;  -12.129;39874.789
593.937;28305.379;  -10.669;39980.648
594.519;30501.688;   -6.509;42069.633
595.101;32728.527;  -10.849;42976.031
595.683;32903.309;  -11.679;44084.441
596.264;33885.828;   -9.049;43478.797
596.846;33023.391;   -8.849;43803.672
597.427;32394.072;   -9.570;42986.934
598.009;34007.766;  -12.620;42832.219
598.591;34363.137;  -10.039;42580.086
599.172;33599.938;  -10.369;43061.805
599.753;33577.922;   -9.140;41691.469
600.335;35276.254;  -11.430;40692.520
600.916;33928.645;   -9.939;39982.422
601.498;31506.969;   -8.479;40318.617
602.079;30050.088;  -10.920;40670.609
602.660;29891.127;  -11.480;41450.898
603.241;31182.426;  -11.699;41137.738
603.823;29961.715;   -9.579;38868.797
604.404;29585.186;  -10.620;38182.785
604.985;31073.242;  -10.450;38078.047
605.566;30585.367;   -9.129;38056.633
606.147;30482.025;   -7.510;37020.418
606.728;32626.453;  -10.660;37883.359
607.309;31637.322;  -11.740;38748.273
607.890;30902.221;   -9.759;38850.230
608.471;30564.557;   -8.250;37457.918
609.051;29959.189;   -9.240;36066.457
609.632;28867.563;  -12.120;35991.074
610.213;29522.852;   -9.110;37402.641
610.794;30236.855;   -8.030;38383.363
611.374;29721.131;   -8.110;40562.387
611.955;30162.607;  -13.560;38533.727
612.536;31706.709;  -11.400;36951.789
613.116;31274.033;   -8.070;37197.891
613.697;31508.125;  -10.830;38411.125
614.277;29874.131;  -11.641;38673.938
614.858;30817.602;  -13.310;37075.863
615.438;30369.578;   -7.460;35092.906
616.019;27634.172;   -7.601;33666.301
616.599;28041.912;  -12.020;34189.023
617.179;30021.100;  -11.780;36952.047
617.760;30736.816;   -8.570;39582.574
618.340;31734.355;  -11.471;38943.977
618.920;33279.594;  -11.170;37594.156
619.500;33135.469;  -11.071;37866.938
620.080;32193.244;   -7.750;37869.043
620.660;33129.828;  -12.711;36868.617
621.241;34368.984;  -10.211;36352.309
621.821;34493.023;  -10.961;35459.520
622.401;33860.469;   -7.720;35207.414
622.980;32800.102;   -8.981;35980.422
623.560;31220.508;   -9.331;37351.328
624.140;30334.109;   -9.850;34388.582
624.720;25568.307;   -7.451;32368.764
625.300;21863.225;   -9.070;32638.629
625.880;25163.914;  -12.601;34599.035
626.459;29173.525;  -11.751;36831.738
627.039;32261.555;   -9.281;38299.098
627.619;32258.869;   -8.801;38289.574
628.198;30375.283;  -12.071;37220.695
628.778;29372.941;   -9.461;37632.563
629.357;30162.502;   -8.491;38003.012
629.937;30337.826;   -9.721;38402.039
630.516;29794.178;   -9.951;37868.801
631.096;29590.279;  -11.731;35760.410
631.675;32344.783;   -8.572;35225.219
632.254;37764.313;  -11.282;35130.289
632.834;37084.145;  -13.322;35794.570
633.413;35217.973;  -10.301;35788.922
633.992;32317.938;   -8.582;34532.863
634.571;33363.168;   -8.352;33590.113
635.151;36021.242;  -11.912;34943.863
635.730;34404.211;  -10.511;35352.523
636.309;30975.418;   -7.731;35366.605
636.888;28314.631;   -9.952;36165.637
637.467;28896.225;  -11.672;37515.902
638.046;30857.816;   -8.901;39288.695
638.625;34056.824;   -7.912;38279.699
639.204;33998.879;  -10.022;37741.598
639.782;32190.385;  -12.252;38364.551
640.361;28295.199;  -10.041;36740.621
640.940;25404.211;  -11.161;34950.082
641.519;25861.115;   -9.701;34137.398
642.097;28504.008;  -11.271;35654.258
642.676;31445.133;   -8.651;35637.957
643.255;32640.242;   -8.711;36567.074
643.833;31831.576;   -9.581;37809.434
644.412;32285.740;  -13.711;37337.293
644.990;31558.961;  -11.811;37018.531
645.569;31329.832;   -9.411;36518.469
646.147;30421.248;  -10.291;36186.430
646.726;29728.963;  -12.401;36267.688
647.304;30812.998;  -10.411;36647.625
647.882;32712.252;   -9.651;39286.742
648.461;34353.754;   -9.631;39157.703
649.039;32817.754;  -11.881;35412.883
649.617;32016.721;   -9.661;34744.918
650.195;31644.945;   -9.301;35403.098
650.773;30566.357;  -10.511;35053.797
651.352;28072.182;  -11.521;33756.816
651.930;25693.926;  -12.211;31868.773
652.508;23997.453;   -9.171;33121.551
653.086;28019.602;   -9.371;33564.793
653.663;31204.666;  -13.161;34054.668
654.241;29795.426;  -13.031;35693.309
654.819;31235.727;   -9.371;36422.906
655.397;31009.982;  -10.511;38213.484
655.975;30780.539;  -10.371;39507.625
656.553;30882.438;  -10.051;39498.223
657.130;29147.047;  -10.061;40395.480
657.708;28396.281;   -9.561;39242.020
658.286;28405.066;  -11.511;38920.020
658.863;29522.469;  -10.261;40202.898
659.441;32433.299;   -7.531;39677.938
660.018;31926.018;   -9.501;40413.355
660.596;30779.508;  -13.301;39931.414
661.173;32677.383;  -11.211;39604.531
661.750;32954.789;   -9.951;39700.070
662.328;32085.355;   -9.390;39292.809
662.905;31249.262;  -11.330;38235.648
663.482;26707.910;   -9.050;36212.305
664.060;24593.371;   -8.240;35944.945
664.637;27402.201;  -10.050;35170.785
665.214;29344.459;  -11.760;34197.523
665.791;31265.621;  -10.530;34549.520
666.368;29902.123;   -9.690;35118.578
666.945;30269.576;   -9.320;36019.418
667.522;31898.846;  -11.860;36048.438
668.099;32111.170;  -10.770;36243.914
668.676;31269.971;   -6.260;35958.875
669.253;29508.152;   -7.000;37384.730
669.830;29724.518;  -10.190;36779.629
670.407;29564.146;   -9.550;35231.289
670.984;29822.781;   -9.260;35544.270
671.560;30333.098;   -9.280;35466.867
672.137;29040.869;  -11.810;34280.863
672.714;29803.871;  -11.490;34632.863
673.290;30384.023;   -7.740;35135.422
673.867;30450.916;  -10.660;36114.480
674.443;30751.375;  -12.230;36152.859
675.020;29017.041;  -10.450;35327.238
675.596;29961.078;   -9.260;35795.176
676.173;30531.494;  -10.780;35430.355
676.749;30142.021;  -13.690;33549.516
677.326;30236.455;  -11.980;32210.012
677.902;30445.930;   -8.630;32068.871
678.478;29677.705;  -10.730;32583.891
679.054;29160.387;  -10.520;32088.928
679.631;29939.584;  -11.920;30978.848
680.207;30990.725;   -7.490;33160.887
680.783;32225.910;   -9.860;35570.363
681.359;31370.977;  -13.380;36125.184
681.935;30601.648;  -12.480;35240.922
682.511;29784.326;   -7.900;34429.961
683.087;29739.467;   -7.710;34463.680
683.663;29411.352;  -11.480;34648.898
684.239;28566.961;  -14.090;34546.457
684.815;28141.061;   -7.560;35586.375
685.390;28387.807;   -9.910;35821.895
685.966;28839.090;  -11.159;35085.871
686.542;31626.889;  -11.169;34198.230
687.118;33814.676;   -5.959;32847.707
687.693;33960.676;  -10.329;32794.027
688.269;33230.613;  -12.059;33072.367
688.844;31099.063;  -10.909;33141.664
689.420;29093.740;   -8.019;33965.742
689.995;26980.898;   -8.399;34655.523
690.571;25757.564;  -10.949;33576.742
691.146;26183.662;   -9.619;32657.219
691.722;25632.908;   -8.999;32526.979
692.297;25388.572;  -11.589;33014.617
692.872;27232.008;  -11.739;34012.254
693.448;26842.920;  -11.059;34237.434
694.023;25995.578;  -10.139;34142.672
694.598;28207.883;   -9.029;34132.031
695.173;28692.777;  -13.319;34205.250
695.748;28048.633;  -10.169;32882.488
696.323;27781.205;   -8.339;32864.906
696.898;27680.943;   -8.169;33170.004
697.473;27620.959;  -12.309;32432.984
698.048;27283.232;  -10.989;31649.303
698.623;27465.377;   -9.329;30778.141
699.198;29280.072;   -9.849;31140.119
699.773;30360.633;  -12.329;31764.299
700.348;28896.328;  -10.389;31780.816
700.922;28855.217;   -9.269;32046.375
701.497;29390.049;   -9.329;32603.574
702.072;29556.709;  -10.789;34799.871
702.646;28647.158;  -10.839;35793.172
703.221;26508.355;   -9.099;35201.590
703.795;28429.561;  -10.939;34764.527
704.370;28977.100;  -12.859;34307.367
704.944;29262.455;  -11.559;33509.887
705.519;30362.877;   -7.939;31388.584
706.093;31519.107;  -10.499;31340.104
706.668;31698.258;  -11.289;32630.281
707.242;30290.582;  -11.509;32728.779
707.816;28738.500;   -9.639;32947.238
708.390;27277.686;  -11.429;33277.855
708.965;28229.729;  -11.869;33834.336
709.539;28816.967;  -11.689;33709.273
710.113;29136.844;  -10.478;33044.313
710.687;28494.461;  -10.228;31953.992
711.261;26355.313;  -13.698;30505.949
711.835;26066.018;  -13.378;30262.369
712.409;26842.258;   -9.698;31254.447
712.983;28457.680;  -11.898;32754.986
713.557;29463.566;  -15.138;34018.824
714.131;29330.619;  -14.098;34579.625
714.704;28600.398;   -9.958;33890.262
715.278;26159.627;  -10.028;33531.102
715.852;25425.139;  -11.148;33601.660
716.425;26314.174;   -9.068;33515.117
716.999;26947.055;  -10.038;33185.555
717.573;27980.592;   -9.798;33905.996
718.146;29259.646;  -12.378;35199.293
718.720;28873.641;  -11.918;35060.551
719.293;28258.498;   -8.088;34973.230
719.867;31147.439;  -10.888;36394.449
720.440;31071.498;  -11.938;36663.008
721.013;29470.920;  -12.818;35102.426
721.587;28134.910;  -10.298;33985.266
722.160;26563.775;  -10.048;33524.965
722.733;25619.447;  -12.108;32987.043
723.306;26392.461;  -10.818;33066.301
723.880;28438.094;   -8.908;33399.500
724.453;30148.936;   -9.878;33468.297
725.026;29078.840;  -11.188;33816.637
725.599;26397.738;  -11.678;32797.996
726.172;26603.279;   -9.618;33187.434
726.745;27930.572;   -8.258;35136.613
727.318;29613.947;  -12.978;35751.730
727.891;30386.014;  -12.148;35890.430
728.463;30102.768;   -8.968;34822.090
729.036;28888.260;  -10.188;32895.086
729.609;29168.943;  -11.788;31823.225
730.182;25988.527;  -11.788;31445.283
730.754;23565.330;  -10.268;32373.223
731.327;23707.881;   -9.998;33676.820
731.900;23848.479;  -12.228;33417.000
732.472;25020.473;  -13.848;31978.498
733.045;27096.121;   -8.698;30368.777
733.617;27065.559;  -10.607;30574.215
734.190;26707.504;  -11.507;31280.975
734.762;23894.973;  -13.647;31674.412
735.334;22166.734;   -9.767;31247.291
735.907;22619.512;   -9.897;29876.211
736.479;22506.035;  -11.637;29808.488
737.051;22148.318;   -9.567;30233.547
737.623;23388.586;   -8.187;31469.086
738.195;24342.072;  -11.187;31784.225
738.768;26145.244;  -12.337;32120.523
739.340;26214.955;  -12.227;32094.342
739.912;25000.215;  -11.057;31312.680
740.484;23869.240;  -10.207;31946.238
741.056;22773.152;  -10.047;32984.059
741.628;24374.637;  -13.627;33897.715
742.199;26741.410;   -7.177;33213.016
742.771;25150.121;  -10.797;31369.113
743.343;22750.807;  -11.997;31865.473
743.915;21571.250;  -12.867;32388.631
744.487;21706.988;   -7.617;31079.568
745.058;21842.605;   -9.557;30570.107
745.630;22532.414;   -9.877;29970.127
746.201;23638.928;  -14.177;29186.766
746.773;24053.127;   -9.237;28805.723
747.344;23937.102;   -9.847;29591.223
747.916;22400.633;  -11.657;31412.201
748.487;22243.758;  -10.587;32194.898
749.059;23530.754;   -8.707;32533.719
749.630;24662.967;  -10.537;32158.518
750.201;23840.732;  -11.687;30855.395
750.773;22073.586;  -11.647;28622.555
751.344;21925.398;   -7.147;28405.732
751.915;22849.682;   -9.757;28461.551
752.486;22282.287;  -12.427;27842.850
753.057;20084.209;  -12.227;27845.008
753.628;18974.080;  -10.417;27728.107
754.199;20088.693;  -11.767;27381.086
754.770;21228.549;  -11.187;25882.203
755.341;21227.322;  -10.507;25886.184
755.912;21464.762;   -9.387;26050.861
756.483;20860.801;  -10.647;26798.779
757.054;18967.070;  -11.837;27048.238
757.625;17618.596;  -12.716;26294.838
758.195;17444.039;   -9.666;26142.076
758.766;17176.154;   -8.656;26392.234
759.337;17969.604;  -12.856;26334.594
759.907;19758.080;  -13.366;27579.652
760.478;20613.029;   -8.576;28352.770
761.048;20000.244;  -10.526;27325.088
761.619;19142.326;  -11.116;26460.428
762.189;19131.002;  -12.136;26029.826
762.760;20169.563;   -9.456;26430.145
763.330;21363.512;   -7.136;26670.902
763.900;20812.523;  -11.786;26603.021
764.471;18055.029;  -11.546;25542.740
765.041;16693.738;   -8.096;24358.459
765.611;16828.496;   -8.876;23991.297
766.181;17320.334;  -12.196;24470.236
766.751;18200.482;  -11.636;24845.975
767.321;18060.635;  -10.156;24533.633
767.891;16029.739;  -11.766;24916.492
768.461;15365.831;  -14.936;24776.771
769.031;15808.738;  -12.356;24757.988
769.601;17495.104;   -7.526;24181.088
770.171;17615.078;  -10.766;23670.387
770.741;16710.857;  -13.176;22960.045
771.311;16905.145;  -10.616;22917.523
771.880;17369.508;   -9.576;23562.941
772.450;16919.992;  -10.336;24216.500
773.020;16784.648;  -13.516;24140.398
773.589;16334.854;  -13.466;24414.857
774.159;15856.759;   -8.686;23858.717
774.729;15407.213;   -9.476;22942.135
775.298;14959.193;  -13.666;22324.033
775.867;14544.604;  -11.716;21140.313
776.437;14594.335;   -9.906;20838.092
777.006;14257.157;  -12.166;20599.510
777.576;14168.175;  -12.356;20508.809
778.145;14372.406;  -11.646;20732.947
778.714;14343.064;   -8.226;21062.465
779.283;13596.154;   -9.556;20949.664
779.853;13101.029;  -14.116;20508.623
780.422;13471.553;  -11.506;20649.082
780.991;13040.912;   -9.556;21527.520
781.560;11980.676;   -9.095;22632.658
782.129;11772.438;  -12.135;23048.277
782.698;11755.162;  -10.865;23438.555
783.267;11422.973;   -9.335;23267.734
783.836;11399.526;  -11.045;22415.133
784.404;12379.268;  -13.865;20443.152
784.973;12830.943;  -13.095;19699.150
785.542;12704.225;  -11.575;19763.828
786.111;12595.293;   -9.705;20341.408
786.679;12229.776;  -12.105;20207.967
787.248;11992.086;  -12.455;19516.465
787.817;11764.309;  -11.535;18900.363
788.385;11326.285;   -9.765;17879.121
788.954;10730.380;  -14.005;17658.301
789.522;10251.952;  -11.955;17788.879
790.090;10756.251;  -10.135;18118.277
790.659;11193.018;  -10.975;18338.736
791.227;10632.095;  -13.375;18508.615
791.795;11056.368;  -12.375;17898.254
792.364;11439.335;  -10.725;17295.133
792.932;11745.838;   -9.715;16822.051
793.500;11993.727;  -12.675;17040.148
794.068;12265.753;  -13.495;17179.787
794.636;12408.780;  -10.885;16664.246
795.204;11853.210;  -11.045;16524.545
795.772;11847.697;  -13.175;17274.564
796.340;11350.873;  -12.445;17891.002
796.908;11163.127;   -9.735;17648.561
797.476;11168.435;   -9.815;17064.080
798.044;10775.327;  -13.985;16672.777
798.612; 9963.421;  -13.115;17023.996
799.180; 9581.607;  -10.185;16561.615
799.747; 9447.970;   -9.055;15962.773
800.315; 9139.551;  -12.385;15296.992
800.883; 8867.044;  -15.035;14801.771
801.450; 8899.597;  -10.365;14534.430
802.018; 8937.704;   -9.855;14173.248
802.585; 8942.701;  -11.905;14029.547
803.153; 8993.183;  -11.585;13836.846
803.720; 8964.523;   -9.095;13567.324
804.287; 8653.530;   -9.135;13360.622
804.855; 8197.399;  -11.604;13681.981
805.422; 8035.120;  -11.794;13536.560
805.989; 8005.213;  -10.734;13355.958
806.556; 8169.957;  -10.444;13747.896
807.124; 8488.409;  -12.764;13987.376
807.691; 8438.144;  -12.964;14038.674
808.258; 8219.740;  -11.134;14120.152
808.825; 7865.788;   -9.854;13860.111
809.392; 7943.287;  -10.504;13268.790
809.959; 7518.699;  -13.054;12680.389
810.526; 7111.523;   -8.294;12427.308
811.093; 7151.631;   -8.394;12030.105
811.659; 7737.326;  -12.304;11653.664
812.226; 8174.845;  -13.944;11637.183
812.793; 7846.959;  -10.484;11611.521
813.360; 7212.254;  -10.144;11885.181
813.926; 6817.952;  -11.684;12770.539
814.493; 6559.505;  -13.644;12677.638
815.060; 6209.420;   -9.724;11974.336
815.626; 6231.577;   -9.854;11594.715
816.193; 6633.887;  -13.254;11579.474
816.759; 6696.734;  -13.204;11666.972
817.325; 6813.476;   -9.434;11325.530
817.892; 7151.603;  -10.134;11105.369
818.458; 7543.455;  -13.474;10843.928
819.024; 7218.434;  -11.854;10714.406
819.591; 6895.028;  -10.244;10469.165
820.157; 6660.935;  -10.704;10235.523
820.723; 6144.436;  -12.324;10847.563
821.289; 5855.329;   -9.444;11040.980
821.855; 5780.551;   -8.374;10357.100
822.421; 5781.587;  -10.234; 9978.918
822.987; 5725.964;  -13.294; 9754.177
823.553; 5389.260;  -10.884;10065.755
824.119; 5219.250;   -8.884;10036.294
824.685; 5333.819;   -6.784;10029.192
825.251; 5443.938;  -12.004;10199.230
825.816; 5398.405;  -11.474; 9820.189
826.382; 5165.858;   -9.174; 9297.248
826.948; 5349.412;   -9.214; 9381.347
827.513; 5762.542;  -10.774; 9450.726
828.079; 5598.217;  -11.924; 9472.444
828.645; 5028.310;  -10.543; 9292.643
829.210; 4898.169;  -10.533; 9065.341
829.776; 4874.522;  -10.753; 9132.620
830.341; 4738.427;  -10.173; 9092.878
830.906; 4896.581;  -10.743; 9078.557
831.472; 5262.411;  -11.113; 8534.535
832.037; 5065.950;  -10.603; 8677.874
832.602; 4519.952;  -13.323; 8628.692
833.167; 4200.860;  -10.823; 8879.031
833.733; 4145.731;  -10.113; 9189.790
834.298; 4263.488;  -13.583; 9052.608
834.863; 4300.947;  -12.703; 8895.087
835.428; 4274.458;  -10.523; 8824.266
835.993; 4183.617;   -6.963; 8845.385
836.558; 4058.687;  -10.763; 8888.563
837.123; 4156.336;   -9.903; 8966.582
837.688; 4360.450;   -9.913; 8617.860
838.253; 4559.547;  -10.283; 8590.699
838.817; 4768.294;  -12.963; 8443.797
839.382; 4721.764;  -14.243; 8799.356
839.947; 4410.919;  -10.733; 8810.595
840.511; 4098.338;   -9.383; 8796.394
841.076; 3731.890;  -12.563; 8347.231
841.641; 3768.309;  -12.953; 8224.330
842.205; 3848.933;   -7.043; 8223.349
842.770; 3922.048;   -8.163; 8622.107
843.334; 4135.285;  -12.503; 8410.386
843.898; 4150.877;  -11.693; 8337.465
844.463; 4178.564;  -10.203; 8506.283
845.027; 3948.574;   -9.533; 8280.962
845.591; 3737.601;  -13.443; 8231.141
846.156; 3748.264;  -13.143; 7969.179
846.720; 3635.278;   -9.433; 7768.278
847.284; 3510.613;  -11.033; 7630.957
847.848; 3346.549;  -10.403; 7472.395
848.412; 3256.533;  -11.553; 7437.394
848.976; 3294.871;   -8.393; 7674.592
849.540; 3239.212;   -8.713; 7836.011
850.104; 3305.367;  -12.463; 7913.669
850.668; 3634.654;  -12.973; 7694.508
851.232; 3766.689;  -10.793; 7756.887
851.796; 3603.610;  -10.662; 7926.545
852.359; 3287.276;  -13.082; 7827.844
852.923; 3132.750;  -12.192; 7641.163
853.487; 2985.118;  -11.912; 7342.501
854.050; 2918.387;  -10.892; 7042.820
854.614; 3037.199;  -13.992; 7151.338
855.177; 3136.636;  -11.732; 7105.077
855.741; 3189.337;   -8.962; 6989.675
856.304; 3100.580;   -9.442; 6596.634
856.868; 3040.188;  -14.192; 6356.272
857.431; 3143.520;  -12.702; 6468.571
857.995; 3253.986;   -9.942; 6373.210
858.558; 3268.287;   -9.112; 6324.448
859.121; 3020.455;  -12.932; 6408.327
859.684; 2888.008;  -13.442; 6347.886
860.247; 3001.154;  -10.632; 6321.264
860.810; 2998.311;  -11.272; 6301.903
861.374; 2767.643;   -9.832; 6607.881
861.937; 2514.454;  -11.762; 6408.200
862.500; 2483.492;   -9.722; 6572.639
863.062; 2634.062;  -10.512; 6387.297
863.625; 2800.052;  -11.232; 6190.836
864.188; 2961.911;  -14.112; 5807.254
864.751; 3025.497;  -11.302; 5682.413
865.314; 2926.625;  -10.112; 5547.492
865.876; 2745.556;  -12.182; 5500.150
866.439; 2744.348;  -10.722; 5415.909
867.002; 2715.223;   -9.252; 5501.567
867.564; 2510.041;   -9.572; 5413.946
868.127; 2295.583;  -13.142; 5160.325
868.689; 2200.451;  -12.902; 5133.183
869.252; 2131.220;   -9.732; 5252.382
869.814; 2051.418;   -9.432; 5297.141
870.377; 2069.424;  -11.552; 5390.919
870.939; 2144.013;   -9.052; 5599.898
871.501; 2204.214;  -10.982; 5248.336
872.063; 2209.658;  -12.292; 4854.235
872.626; 2161.167;  -14.912; 4817.074
873.188; 2161.258;  -13.112; 4987.732
873.750; 2127.687;  -13.442; 4868.651
874.312; 2038.623;   -9.402; 4779.330
874.874; 1956.283;  -11.062; 4866.348
875.436; 1880.545;  -13.931; 4718.887
875.998; 1880.109;   -9.561; 4660.005
876.560; 1900.579;  -11.321; 4462.964
877.122; 1850.144;  -12.221; 4145.042
877.683; 1755.288;  -12.191; 4056.481
878.245; 1679.987;  -12.101; 3950.740
878.807; 1707.306;   -8.971; 4058.958
879.369; 1724.137;  -12.071; 3954.677
879.930; 1640.656;  -14.621; 3941.495
880.492; 1588.940;  -10.311; 4067.014
881.053; 1561.944;  -10.901; 3859.633
881.615; 1448.842;  -14.411; 3776.071
882.176; 1360.156;  -13.761; 3734.750
882.738; 1327.965;   -9.181; 3678.489
883.299; 1305.335;  -11.791; 3405.407
883.860; 1299.807;  -13.121; 3351.106
884.422; 1303.682;  -11.211; 3394.044
884.983; 1265.454;  -10.091; 3166.443
885.544; 1176.407;   -8.461; 3189.802
886.105; 1099.513;  -12.361; 3160.360
886.666; 1038.978;  -14.141; 3093.059
887.227;  982.446;  -11.361; 2941.957
887.788;  918.730;  -11.401; 2974.836
888.349;  854.787;  -13.791; 2721.214
888.910;  851.726;  -13.191; 2696.493
889.471;  860.987;   -9.881; 2560.172
890.032;  845.380;   -9.881; 2558.190
890.593;  818.996;  -10.371; 2567.669
891.153;  789.260;  -13.301; 2460.307
891.714;  744.652;  -11.431; 2372.046
892.275;  709.793;  -11.291; 2309.505
892.835;  673.613;  -11.471; 2382.543
893.396;  616.702;  -11.541; 2295.502
893.956;  559.234;  -11.181; 2162.420
894.517;  521.555;  -11.741; 2125.439
895.077;  516.535;  -11.671; 2086.978
895.638;  515.633;  -11.311; 2126.316
896.198;  487.592;   -9.831; 1838.275
896.758;  445.611;   -8.421; 1892.813
897.319;  413.041;  -12.351; 1792.232
897.879;  396.069;  -13.511; 1762.751
898.439;  371.903;  -12.001; 1661.149
898.999;  345.699;  -10.180; 1781.468
899.559;  336.682;  -12.030; 1703.347
900.119;  332.999;  -15.710; 1537.525
900.679;  329.668;   -8.900; 1638.384
901.239;  316.629;   -8.340; 1527.902
901.799;  305.723;  -13.910; 1456.441
902.359;  299.064;  -13.460; 1357.140
902.919;  292.242;  -11.490; 1331.118
903.479;  279.117;  -12.110; 1317.257
904.038;  258.017;  -11.720; 1262.595
904.598;  241.971;  -13.610; 1152.034
905.158;  237.617;  -11.040; 1240.893
905.717;  231.079;  -10.900; 1233.691
906.277;  220.035;  -15.080; 1217.330
906.836;  211.407;  -13.380; 1222.408
907.396;  203.487;  -10.780; 1193.047
907.955;  195.941;   -8.500; 1182.526
908.515;  190.622;  -12.760; 1099.364
909.074;  184.572;  -11.900; 1092.863
909.633;  178.432;   -8.950; 1069.121
910.192;  174.474;   -8.770; 1196.460
910.752;  169.232;  -12.390; 1029.960
911.311;  164.750;  -13.680; 1009.780
911.870;  162.505;  -12.370;  971.460
912.429;  163.518;  -10.900; 1094.080
912.988;  161.870;  -11.690; 1081.060
913.547;  157.229;  -13.240;  940.380
914.106;  152.219;  -11.990;  999.420
914.665;  149.500;   -9.990;  984.020
915.224;  148.557;  -12.880; 1035.760
915.782;  147.918;  -12.350;  922.560
916.341;  148.319;   -9.110; 1049.840
916.900;  143.930;   -9.270;  925.260
917.458;  140.564;  -13.240;  884.220
918.017;  141.793;  -13.550;  942.600
918.576;  141.268;  -12.320;  904.440
919.134;  139.026;  -11.490;  837.980
919.693;  137.268;  -13.670;  893.060
920.251;  134.772;  -15.470;  876.500
920.809;  134.158;  -11.290;  839.580
921.368;  134.093;  -10.210;  885.360
921.926;  133.616;  -12.140;  842.940
922.484;  131.456;  -13.080;  903.360
923.042;  131.806;  -11.720;  880.340
923.601;  134.727;   -7.480;  998.680
924.159;  133.010;  -11.570;  935.560
924.717;  129.753;  -13.840;  841.080
925.275;  129.591;  -10.640;  903.240
925.833;  129.481;  -11.540;  779.320
926.391;  130.320;  -12.960;  938.380
926.949;  127.883;  -14.130;  857.680
927.506;  128.019;  -11.750;  903.500
928.064;  128.732;  -10.250;  877.580
928.622;  127.710;  -13.030;  880.100
929.180;  126.964;  -13.400;  814.180
929.737;  128.177;  -10.700;  808.540
930.295;  131.825;  -10.070;  928.480
930.853;  133.289;  -11.960;  849.100
931.410;  133.953;  -13.120;  821.120
931.968;  133.404;  -10.770;  940.660
932.525;  133.415;  -10.680;  909.380
933.082;  134.027;  -13.130;  811.440
933.640;  134.318;  -13.210;  925.900
934.197;  131.767;  -11.060;  886.360
934.754;  133.977;   -9.580;  897.780
935.312;  136.144;  -14.000;  863.340
935.869;  140.578;  -10.710; 1012.980
936.426;  141.301;   -9.860;  872.800
936.983;  142.394;   -9.710;  889.020
937.540;  141.283;  -13.990;  838.280
938.097;  140.350;  -14.040;  940.120
938.654;  140.822;  -10.310;  898.860
939.211;  142.545;  -10.560;  952.480
939.768;  146.569;  -13.900;  915.420
940.324;  149.313;  -14.760;  904.200
940.881;  149.770;  -10.370;  878.500
941.438;  151.038;   -8.260; 1021.200
941.995;  146.420;  -12.540;  992.560
942.551;  143.952;  -14.670;  875.620
943.108;  143.620;  -10.450;  937.920
943.664;  146.595;  -10.750;  869.340
944.221;  149.784;  -11.550; 1088.140
944.777;  147.923;  -14.770;  869.680
945.334;  149.099;  -12.820;  884.840
945.890;  152.353;  -10.130;  946.480
946.446;  152.185;  -13.470;  947.020
947.003;  152.337;  -12.120;  964.940
947.559;  155.285;   -9.980; 1063.040
948.115;  154.674;   -9.080; 1026.540
948.671;  152.867;  -10.830;  967.300
949.227;  148.597;  -12.440;  859.560
949.783;  146.822;  -12.910;  858.900
950.339;  149.196;  -10.270;  991.000
950.895;  148.163;  -13.630; 1023.840
951.451;  147.689;  -15.100;  925.280
952.007;  149.214;  -11.330;  998.540
952.563;  150.138;  -10.580;  937.780
953.118;  148.976;  -13.440;  904.940
953.674;  148.630;  -12.710;  935.780
954.230;  148.016;  -10.350;  949.640
954.785;  146.367;   -9.190;  936.640
955.341;  144.357;  -11.200;  998.160
955.897;  141.462;  -16.560;  834.660
956.452;  144.031;  -12.570;  953.840
957.008;  142.530;   -7.970; 1083.640
957.563;  140.149;  -11.940; 1009.540
958.118;  134.812;  -13.450;  877.700
958.674;  136.017;  -12.030;  946.780
959.229;  137.013;   -9.410; 1013.980
959.784;  135.085;  -12.000;  832.400
960.339;  134.070;  -14.780; 1001.280
960.894;  129.611;   -9.860;  963.760
961.449;  126.161;   -9.970;  859.960
962.004;  126.683;  -10.900; 1212.840
962.559;  121.626;  -13.150;  860.140
963.114;  120.067;  -13.740;  742.480
963.669;  119.936;   -9.820;  915.500
964.224;  118.455;  -13.890;  874.340
964.779;  116.684;  -12.600;  828.420
965.334;  118.254;  -10.950; 1017.860
965.888;  116.725;  -11.170;  875.360
966.443;  119.775;  -12.540;  972.380
966.998;  119.058;  -15.780;  819.460
967.552;  117.628;   -9.760;  908.380
968.107;  115.061;   -9.060;  868.300
968.661;  115.065;  -11.950;  922.440
969.216;  114.644;  -12.800;  856.280
969.770;  115.894;  -11.210;  917.200
970.324;  114.756;  -11.610;  923.140
970.879;  112.236;  -11.370;  947.180
971.433;  109.037;  -12.540;  952.720
971.987;  104.292;  -11.320;  895.340
972.541;  101.532;  -10.720;  917.100
973.095;  100.163;   -9.680; 1009.460
973.649;   99.519;  -11.440;  809.480
974.203;   98.454;  -11.210;  829.040
974.757;   98.688;  -10.240;  855.220
975.311;   98.581;  -13.720;  872.600
975.865;   98.194;  -13.770;  881.820
976.419;   96.428;  -11.690;  857.400
976.973;   97.188;   -9.510;  849.620
977.526;   98.463;  -12.620;  949.920
978.080;   98.033;  -12.010;  796.780
978.634;   99.006;  -10.170;  921.320
979.187;   96.499;   -9.020;  905.400
979.741;   93.878;   -9.820; 1018.380
980.294;   89.205;  -14.870;  789.160
980.848;   87.676;  -12.380;  717.220
981.401;   90.169;  -10.350;  816.540
981.955;   91.302;  -13.720;  844.300
982.508;   89.898;  -11.490;  746.340
983.061;   90.833;  -10.000;  915.260
983.615;   87.474;  -11.480;  798.800
984.168;   84.609;  -13.220;  770.080
984.721;   83.129;  -13.960;  880.760
985.274;   83.223;  -10.870;  867.500
985.827;   81.332;   -9.790;  834.220
986.380;   79.239;  -13.120;  721.340
986.933;   77.952;  -12.450;  864.800
987.486;   76.677;  -10.210;  861.920
988.039;   75.433;   -8.430;  863.100
988.591;   73.535;  -10.520;  893.260
989.144;   71.242;  -14.860;  737.260
989.697;   69.854;  -13.080;  758.740
990.250;   71.360;  -10.150;  858.100
990.802;   70.103;  -13.430;  755.860
991.355;   70.961;  -12.750;  974.880
991.907;   68.512;  -12.040;  864.320
992.460;   66.064;  -11.330;  753.760
993.012;   65.436;  -13.610;  749.540
993.565;   65.062;  -13.460;  711.360
994.117;   65.598;   -9.360;  950.780
994.669;   63.043;  -11.300;  701.320
995.221;   61.247;  -13.540;  791.920
995.774;   59.343;  -13.430;  787.580
996.326;   57.624;  -12.520;  740.220
996.878;   57.523;  -10.950;  838.420
997.430;   55.764;  -14.300;  699.860
997.982;   53.778;  -13.760;  750.140
998.534;   53.787;  -11.530;  739.060
999.086;   52.674;  -10.310;  738.220
999.638;   51.566;  -12.530;  661.380
1000.190;   50.535;  -11.840;  699.320
1000.741;   50.924;  -10.260;  742.700
1001.293;   50.838;   -8.860;  686.020
1001.845;   48.850;  -13.700;  676.640
1002.396;   48.644;  -12.100;  743.400
1002.948;   48.450;  -12.760;  737.400
1003.500;   47.692;  -10.380;  723.780
1004.051;   47.225;  -11.900;  907.580
1004.603;   45.440;  -12.250;  791.820
1005.154;   42.528;  -13.210;  608.980
1005.705;   41.483;  -10.950;  723.960
1006.257;   40.587;  -13.880;  707.220
1006.808;   40.104;  -12.840;  685.460
1007.359;   40.440;  -10.570;  763.240
1007.910;   39.018;   -9.620;  646.640
1008.461;   38.812;  -13.630;  732.940
1009.013;   37.309;  -17.200;  588.340
1009.564;   38.924;  -10.200;  793.520
1010.115;   36.769;  -12.570;  597.040
1010.665;   35.905;  -15.150;  602.160
1011.216;   36.301;  -14.480;  667.920
1011.767;   35.395;  -11.340;  697.920
1012.318;   36.907;   -9.780;  736.980
1012.869;   34.557;  -12.380;  679.000
1013.419;   34.461;  -15.560;  603.120
1013.970;   34.426;  -11.010;  666.640
1014.521;   34.099;  -11.610;  620.620
1015.071;   34.753;  -13.450;  670.380
1015.622;   33.555;  -13.870;  635.460
1016.172;   33.096;  -11.610;  596.820
1016.723;   33.321;  -12.120;  614.380
1017.273;   32.235;  -13.620;  604.160
1017.823;   32.815;  -14.140;  650.340
1018.374;   32.072;  -12.800;  611.760
1018.924;   32.955;  -12.340;  716.880
1019.474;   32.294;  -11.410;  718.880
1020.024;   31.110;  -14.770;  657.580
1020.574;   31.855;   -9.780;  726.160
1021.124;   32.216;   -8.560;  673.580
1021.674;   30.601;  -15.190;  559.120
1022.224;   31.392;  -13.530;  708.940
1022.774;   31.441;  -13.280;  668.820
1023.324;   31.118;  -10.690;  753.520
1023.874;   32.785;  -10.240;  875.760
1024.423;   29.771;  -12.540;  613.700
1024.973;   30.071;  -10.010;  610.760
1025.523;   29.507;  -10.550;  620.960
1026.072;   29.026;  -13.560;  606.420
1026.622;   29.025;  -15.120;  675.740
1027.172;   30.399;  -11.260;  715.660
1027.721;   29.096;  -11.410;  601.220
1028.270;   29.120;  -13.530;  663.400
1028.820;   28.927;  -13.680;  638.080
1029.369;   28.347;  -13.520;  612.700
1029.918;   28.380;  -10.980;  649.840
1030.468;   28.116;  -13.530;  564.780
1031.017;   27.735;  -13.170;  634.800
1031.566;   26.920;  -12.200;  608.900
1032.115;   28.371;   -9.960;  694.500
1032.664;   26.231;  -13.210;  596.480
1033.213;   27.757;  -12.500;  735.420
1033.762;   27.244;  -11.910;  635.620
1034.311;   27.272;   -9.640;  677.220
1034.860;   27.142;  -13.310;  691.000
1035.408;   26.690;  -11.830;  722.720
1035.957;   27.676;  -12.000;  719.540
1036.506;   24.919;  -11.690;  530.800
1037.055;   27.424;  -10.990;  844.320
1037.603;   25.721;  -15.120;  664.000
1038.152;   24.114;  -12.450;  534.760
1038.700;   25.187;  -10.560;  585.740
1039.249;   24.219;  -11.080;  681.220
1039.797;   24.963;  -12.540;  633.360
1040.345;   24.658;  -11.920;  705.420
1040.894;   24.207;  -11.410;  625.300
1041.442;   24.258;  -14.320;  632.200
1041.990;   22.575;  -16.240;  559.160
1042.538;   22.962;  -11.680;  536.180
1043.087;   23.349;  -10.760;  570.860
1043.635;   25.003;  -11.850;  670.500
1044.183;   22.840;  -15.480;  586.400
1044.731;   23.171;  -11.770;  576.000
1045.279;   22.784;  -13.090;  674.920
1045.827;   25.154;  -12.440;  892.400
1046.374;   21.324;  -13.840;  515.420
1046.922;   20.798;  -13.220;  590.580
1047.470;   23.523;  -10.230;  691.300
1048.018;   22.903;  -14.590;  647.960
1048.565;   23.460;  -12.050;  708.600
1049.113;   21.441;  -11.650;  557.000
1049.660;   21.968;  -10.510;  629.660
1050.208;   22.074;  -13.310;  675.640
1050.755;   20.676;  -15.900;  606.580
1051.303;   22.015;  -11.430;  686.820
1051.850;   21.240;   -8.480;  635.120
1052.397;   20.160;  -15.010;  473.960
1052.945;   20.423;  -13.960;  617.760
1053.492;   22.094;  -13.150;  741.840
1054.039;   21.852;   -9.630;  720.180
1054.586;   20.452;  -13.680;  557.240
1055.133;   21.100;  -14.570;  693.140
1055.680;   20.321;  -13.820;  646.620
1056.227;   19.751;  -11.730;  542.780
1056.774;   20.989;  -12.480;  794.980
1057.321;   19.064;  -13.930;  523.260
1057.868;   19.447;  -11.690;  651.320
1058.415;   19.486;   -9.520;  651.980
1058.961;   20.453;  -13.160;  678.940
1059.508;   19.828;  -12.920;  643.820
1060.055;   19.036;  -11.920;  581.780
1060.601;   19.759;  -11.500;  624.300
1061.148;   19.001;  -14.330;  616.820
1061.694;   17.976;  -16.870;  592.580
1062.241;   18.239;  -10.330;  596.320
1062.787;   18.686;  -10.620;  663.140
1063.334;   19.556;  -10.110;  808.560
1063.880;   18.663;  -13.400;  668.360
1064.426;   18.087;  -10.680;  706.820
1064.972;   17.291;   -9.920;  601.340
1065.518;   16.813;  -10.980;  566.640
1066.065;   18.299;  -14.890;  624.460
1066.611;   17.212;  -12.870;  598.800
1067.157;   17.717;  -12.950;  641.860
1067.703;   17.426;  -13.540;  668.480
1068.249;   17.600;  -13.540;  605.220
1068.794;   17.108;  -12.600;  626.880
1069.340;   16.226;  -10.620;  578.960
1069.886;   16.927;  -12.830;  590.700
1070.432;   15.454;  -14.870;  541.720
1070.977;   16.098;  -11.980;  601.080
1071.523;   16.382;   -8.200;  573.060
1072.068;   16.103;  -12.330;  582.000
1072.614;   15.775;  -16.370;  527.760
1073.160;   16.478;  -11.100;  687.040
1073.705;   14.729;  -10.480;  572.520
1074.250;   15.113;  -14.520;  559.900
1074.796;   15.712;  -11.460;  655.160
1075.341;   16.747;  -11.950;  664.100
1075.886;   15.141;  -11.460;  594.240
1076.431;   14.756;  -13.770;  649.880
1076.976;   15.068;  -12.680;  639.220
1077.521;   14.447;  -13.170;  583.080
1078.067;   14.139;  -10.860;  579.400
1078.612;   14.754;  -13.920;  661.620
1079.156;   14.949;  -13.880;  601.540
1079.701;   15.034;  -13.120;  693.260
1080.246;   15.017;   -9.940;  696.300
1080.791;   14.658;  -14.740;  625.020
1081.336;   14.813;  -13.750;  659.320
1081.880;   14.400;  -13.400;  649.680
1082.425;   13.465;  -12.220;  573.480
1082.970;   15.349;  -11.610;  717.040
1083.514;   13.960;  -13.580;  597.000
1084.059;   13.120;  -12.810;  586.720
1084.603;   13.050;  -12.320;  565.840
1085.147;   13.579;  -13.190;  645.220
1085.692;   13.763;  -12.480;  716.800
1086.236;   12.419;  -13.020;  503.140
1086.780;   14.539;   -9.190;  751.440
1087.325;   13.779;  -12.480;  654.620
1087.869;   12.799;  -12.450;  610.700
1088.413;   13.383;  -12.240;  705.040
1088.957;   11.310;   -9.020;  543.400
1089.501;   12.737;  -10.320;  766.640
1090.045;   12.700;  -12.720;  726.480
1090.589;   10.633;  -13.690;  569.920
1091.133;   12.461;  -10.020;  673.340
1091.676;   12.618;  -12.330;  591.940
1092.220;   11.216;  -14.970;  600.920
1092.764;   12.812;  -12.430;  706.960
1093.307;   12.820;   -9.800;  673.780
1093.851;   10.832;  -14.970;  556.540
1094.395;   11.988;  -15.310;  683.140
1094.938;   10.841;  -10.370;  632.520
1095.482;   11.243;  -11.050;  559.800
1096.025;   11.290;  -11.840;  710.880
1096.568;   12.306;  -12.840;  779.280
1097.112;    9.598;  -14.700;  508.180
1097.655;   10.598;   -8.720;  603.000
1098.198;   10.298;  -13.610;  600.180
1098.741;    9.695;  -13.350;  612.860
1099.285;   10.719;  -11.230;  657.300
1099.828;    7.989;  -11.840;  439.400
1100.371;    9.847;  -10.840;  608.160
1100.914;    9.428;  -14.190;  682.660
1101.457;   10.001;  -11.240;  679.900
1101.999;    8.934;  -11.270;  584.680
1102.542;    9.764;  -11.480;  641.440
1103.085;    9.327;  -11.750;  658.500
1103.628;   10.783;  -11.400;  762.060
1104.170;    9.024;  -10.490;  588.280
1104.713;    9.490;  -10.600;  646.700
1105.256;    8.395;  -14.360;  557.440
1105.798;    8.195;  -13.210;  499.980
1106.341;   11.039;  -10.270;  728.900
1106.883;    7.600;  -12.200;  521.340
1107.425;    8.494;  -13.110;  668.180
1107.968;    8.041;  -12.840;  612.380
1108.510;    8.900;   -6.480;  684.960
1109.052;    6.992;  -13.940;  612.620
1109.594;    7.625;  -13.690;  554.440
1110.136;    8.975;  -11.880;  643.220
1110.679;    8.118;   -9.500;  633.080
1111.221;    8.492;  -14.160;  604.460
1111.763;    7.138;  -13.980;  559.220
1112.304;    7.123;  -13.880;  547.140
1112.846;    8.722;  -12.210;  666.240
1113.388;   10.603;  -11.390;  942.180
1113.930;    7.550;  -14.540;  694.200
1114.472;    7.287;  -12.640;  606.540
1115.013;    6.055;  -11.620;  551.280
1115.555;    6.904;  -13.640;  587.100
1116.097;    6.063;  -15.380;  579.480
1116.638;    7.504;  -12.640;  684.600
1117.180;    8.573;   -9.850;  667.740
1117.721;    7.542;  -13.690;  568.580
1118.262;    7.090;  -12.680;  677.960
1118.804;    7.310;  -12.530;  637.340
1119.345;    6.182;  -11.690;  578.400
1119.886;    7.271;  -13.380;  704.040
1120.427;    5.733;  -14.070;  589.020
1120.969;    5.689;  -13.500;  597.920
1121.510;    5.333;  -11.480;  563.060
1122.051;    6.092;  -12.830;  723.580
1122.592;    5.207;  -14.290;  655.420
1123.133;    4.612;  -12.400;  547.940
1123.673;    5.974;  -10.130;  706.480
1124.214;    5.470;  -12.930;  612.460
1124.755;    5.769;  -14.380;  639.460
1125.296;    5.414;  -14.000;  627.320
1125.836;    5.984;  -10.070;  691.500
1126.377;    4.938;  -12.640;  599.660
1126.918;    5.717;  -12.960;  614.980
1127.458;    5.033;  -13.350;  622.220
1127.999;    5.579;  -10.750;  656.980
1128.539;    5.732;  -12.350;  694.240
1129.079;    4.922;  -14.860;  632.720
1129.620;    4.248;  -13.840;  558.100
1130.160;    3.963;  -12.330;  539.480
1130.700;    4.592;  -14.530;  640.840
1131.240;    4.867;  -12.530;  643.700
1131.781;    4.504;  -14.450;  619.680
1132.321;    4.290;   -9.790;  599.120
1132.861;    3.560;  -14.860;  564.200
1133.401;    3.325;  -14.290;  593.940
1133.941;    4.336;  -11.750;  626.280
1134.481;    3.667;   -9.920;  597.580
1135.020;    3.338;  -12.290;  609.160
1135.560;    3.761;  -11.650;  674.940
1136.100;    3.158;  -16.270;  501.160
1136.640;    2.604;  -10.890;  510.480
1137.179;    3.583;  -14.180;  537.960
1137.719;    3.277;  -16.250;  605.400
1138.258;    3.590;  -14.230;  587.360
1138.798;    3.622;   -9.090;  663.780
1139.337;    2.376;  -15.130;  482.840
1139.877;    3.476;  -13.680;  642.360
1140.416;    5.590;  -11.320;  878.060
1140.955;    2.148;  -10.860;  535.380
1141.494;    3.068;  -12.920;  669.280
1142.034;    2.430;  -13.930;  583.520
1142.573;    3.561;  -11.440;  646.280
1143.112;    2.656;  -12.000;  553.480
1143.651;    2.182;  -13.670;  536.480
1144.190;    2.373;  -12.730;  691.640
1144.729;    3.012;  -14.560;  607.420
1145.267;    2.764;  -11.830;  584.900
1145.806;    3.397;  -12.230;  637.040
1146.345;    1.122;  -14.130;  635.020
1146.884;    1.788;  -11.590;  622.500
1147.422;    1.534;  -12.550;  533.060
1147.961;    2.970;  -11.180;  708.460
1148.500;    2.537;  -11.510;  669.720
1149.038;    2.663;  -11.640;  632.500
1149.577;    2.858;  -10.130;  698.640
1150.115;    0.541;  -13.970;  452.280
1150.653;    1.166;  -14.520;  607.340
1151.192;    2.002;  -12.810;  552.920
1151.730;    1.975;   -9.100;  652.560
1152.268;    1.307;  -12.220;  589.520
1152.806;    0.347;  -14.140;  571.180
1153.344;   -0.243;  -12.350;  577.640
1153.882;    1.371;   -8.980;  600.060
1154.421;    0.132;  -15.190;  470.620
1154.958;    0.595;  -15.210;  595.240
1155.496;    2.475;  -12.850;  645.280
1156.034;    1.261;   -9.940;  721.880
1156.572;    2.283;  -13.570;  667.060
1157.110;   -0.569;  -14.590;  473.940
1157.647;    1.607;  -13.030;  676.960
1158.185;    0.067;  -12.140;  564.320
1158.723;   -1.127;  -14.390;  509.200
1159.260;    0.770;  -14.090;  701.700
1159.798;    1.509;  -11.920;  658.160
1160.335;    0.130;  -11.110;  631.820

