
Integration time [ms]:   3.276
Averaging Nr. [scans]: 1000
Smoothing Nr. [pixels]: 0
Data measured with spectrometer [name]: 7414430SP
Wave   ;Sample   ;Dark     ;Reference
[nm]   ;[counts] ;[counts] ;[counts] 

288.544;  158.431;    7.793;  793.890
289.143;  161.395;    7.462;  681.602
289.742;  162.018;    8.602;  828.814
290.341;  148.886;    1.321;  789.841
290.940;  139.382;   -0.709;  730.702
291.538;  140.396;    0.881;  881.108
292.137;  139.008;    0.122;  792.581
292.736;  141.923;   -1.929;  975.101
293.335;  139.082;   -8.229;  735.086
293.934;  139.184;   -5.279;  781.677
294.532;  138.790;   -1.369; 1031.958
295.131;  123.802;   -7.641;  834.394
295.730;  124.329;   -8.420;  809.588
296.328;  123.480;   -5.611;  783.442
296.927;  123.322;   -5.781;  779.652
297.525;  122.947;   -6.361;  781.236
298.124;  113.784;  -11.382;  654.009
298.722;  118.672;   -7.641;  761.933
299.321;  116.607;   -6.811;  708.597
299.919;  113.351;   -6.991;  751.918
300.518;  110.352;  -10.362;  689.338
301.116;  111.917;   -9.581;  691.381
301.715;  111.294;   -4.891;  730.222
302.313;  110.552;   -8.801;  704.943
302.911;  106.587;   -8.522;  733.830
303.509;  111.188;   -6.171;  925.627
304.108;  109.118;   -7.311;  760.383
304.706;  107.780;   -8.321;  801.664
305.304;  102.342;  -10.222;  796.707
305.902;  107.563;   -6.021;  784.484
306.500;  103.791;   -4.971;  728.200
307.098;  101.838;   -7.061;  746.560
307.696;   98.999;   -8.801;  780.432
308.294;  101.392;   -6.411;  731.359
308.892;  102.235;   -2.901;  759.769
309.490;   98.249;   -5.041;  712.161
310.088;   96.399;   -5.002;  788.444
310.686;  100.373;   -2.041;  821.749
311.284;   96.364;   -2.351;  766.040
311.882;   94.012;   -4.422;  731.225
312.480;   90.494;   -4.192;  697.167
313.078;   91.926;   -1.172;  808.331
313.675;   92.968;   -2.601;  691.600
314.273;   87.618;   -1.312;  797.837
314.871;   87.587;   -3.942;  589.829
315.468;   85.691;   -2.802;  652.090
316.066;   88.537;   -0.701;  694.427
316.664;   80.879;   -4.362;  656.351
317.261;   84.632;   -2.872;  910.128
317.859;   80.644;   -2.022;  768.735
318.456;   81.494;   -0.531;  830.096
319.054;   76.192;   -3.912;  787.828
319.651;   75.777;   -4.752;  759.928
320.249;   74.253;   -2.602;  810.188
320.846;   72.307;   -0.821;  714.286
321.443;   69.827;   -4.642;  832.135
322.041;   66.187;   -5.002;  812.315
322.638;   64.524;   -3.982;  701.456
323.235;   65.292;   -3.411;  665.683
323.833;   61.795;   -7.361;  740.354
324.430;   56.533;   -8.611;  615.900
325.027;   58.360;   -4.061;  876.855
325.624;   58.280;   -4.031;  644.532
326.221;   55.239;   -7.481;  689.717
326.818;   55.056;   -5.281;  818.332
327.415;   56.853;   -7.460;  748.828
328.012;   56.140;   -5.510;  690.585
328.609;   55.322;   -7.880;  731.389
329.206;   52.604;   -8.331;  778.621
329.803;   52.993;   -5.121;  737.841
330.400;   56.127;   -4.510;  704.260
330.997;   58.507;   -6.441;  817.147
331.594;   56.549;   -8.831;  788.185
332.191;   60.909;   -7.621;  728.722
332.787;   64.594;   -4.591;  844.463
333.384;   64.440;   -7.412;  763.093
333.981;   62.793;   -8.293;  815.687
334.578;   65.762;   -7.052;  708.378
335.174;   67.898;   -3.102;  731.469
335.771;   68.215;   -5.943;  836.456
336.367;   65.594;   -7.393;  710.631
336.964;   67.817;   -4.063;  793.266
337.561;   66.593;   -3.813;  731.112
338.157;   61.604;   -4.654;  911.916
338.754;   60.631;   -7.934;  796.589
339.350;   59.016;   -4.414;  722.493
339.946;   60.165;   -4.664;  773.135
340.543;   52.402;   -6.375;  846.136
341.139;   47.077;   -9.815;  720.836
341.735;   43.659;   -4.526;  772.593
342.332;   42.826;   -4.895;  691.472
342.928;   44.029;   -4.295;  795.394
343.524;   36.202;   -5.476;  761.684
344.120;   32.872;   -5.856;  738.562
344.716;   35.779;   -2.155;  723.717
345.313;   33.578;   -6.275;  795.342
345.909;   27.576;   -8.815;  627.336
346.505;   29.601;   -5.305;  740.247
347.101;   29.928;   -2.674;  827.864
347.697;   30.688;   -4.344;  785.398
348.293;   25.407;   -9.975;  627.244
348.889;   26.890;   -5.774;  745.914
349.485;   25.329;   -5.004;  688.205
350.081;   26.696;   -4.704;  772.592
350.676;   21.430;   -6.635;  691.606
351.272;   25.370;   -4.504;  809.530
351.868;   25.479;   -3.914;  780.497
352.464;   22.510;   -9.044;  723.932
353.059;   18.066;   -8.314;  646.017
353.655;   22.303;   -7.024;  777.063
354.251;   22.915;   -5.343;  759.845
354.846;   17.476;   -8.604;  740.646
355.442;   15.736;   -6.945;  753.071
356.038;   17.050;   -7.564;  751.708
356.633;   17.481;   -5.814;  728.594
357.229;   15.524;   -7.364;  724.757
357.824;   13.378;   -8.024;  703.600
358.420;   13.163;   -9.384;  679.726
359.015;   14.129;   -5.104;  695.357
359.610;   14.255;   -6.854;  763.920
360.206;    8.144;  -10.185;  603.240
360.801;   10.998;   -7.054;  646.503
361.396;   12.749;   -5.034;  725.975
361.992;    8.195;   -8.284;  668.220
362.587;    6.046;   -8.625;  670.160
363.182;    7.921;   -7.674;  689.631
363.777;    8.698;   -5.164;  738.242
364.372;    8.313;   -8.604;  737.314
364.967;    4.940;   -9.055;  680.744
365.563;    8.662;   -6.114;  815.567
366.158;    6.149;   -5.814;  685.161
366.753;    6.474;   -7.854;  649.263
367.348;    4.802;   -7.804;  746.056
367.942;    4.077;   -7.954;  697.298
368.537;    4.310;   -4.984;  754.245
369.132;    3.891;   -8.564;  703.428
369.727;   -0.706;   -8.855;  638.079
370.322;    0.930;   -6.245;  580.186
370.917;    0.464;   -6.425;  710.646
371.511;    3.672;   -6.294;  861.834
372.106;   -0.261;   -7.685;  776.964
372.701;   -3.006;   -7.335;  585.988
373.296;    2.596;   -4.564;  863.135
373.890;   -1.463;  -10.235;  647.840
374.485;   -3.997;   -7.885;  691.199
375.079;   -0.903;   -7.324;  738.685
375.674;    0.788;   -3.494;  812.970
376.268;   -3.044;   -8.525;  691.759
376.863;   -9.323;  -10.086;  580.327
377.457;   -2.868;   -7.025;  662.490
378.052;   -4.905;   -3.585;  764.884
378.646;   -6.051;   -7.595;  741.167
379.240;   -6.052;   -8.335;  721.176
379.835;   -5.248;   -5.785;  636.978
380.429;   -7.567;   -4.335;  562.557
381.023;   -7.615;   -6.805;  779.205
381.617;   -9.873;   -9.195;  680.106
382.212;   -6.316;   -6.905;  685.303
382.806;   -5.327;   -3.745;  760.690
383.400;  -10.371;   -7.745;  672.281
383.994;  -11.674;   -9.765;  664.870
384.588;   -6.483;   -6.564;  697.701
385.182;   -5.501;   -5.344;  726.624
385.776;   -7.185;   -8.514;  706.875
386.370;  -10.693;   -9.555;  681.968
386.964;   -8.845;   -8.715;  684.155
387.558;   -7.053;   -6.174;  598.360
388.152;  -10.550;   -8.725;  681.959
388.745;   -8.986;   -7.965;  814.707
389.339;   -7.621;   -5.924;  747.642
389.933;   -6.790;   -5.524;  695.370
390.527;   -7.997;   -7.114;  859.029
391.120;  -13.946;  -10.725;  595.318
391.714;  -10.313;   -8.035;  711.633
392.308;   -7.739;   -3.574;  780.253
392.901;  -10.943;   -7.245;  642.460
393.495;  -13.380;   -9.285;  595.414
394.089;  -10.666;   -5.895;  760.452
394.682;  -10.345;   -4.295;  697.188
395.275;  -12.810;   -9.875;  719.927
395.869;  -13.842;   -8.485;  667.314
396.462;  -11.186;   -7.455;  616.609
397.056;   -7.750;   -5.424;  776.621
397.649;  -12.015;   -6.605;  731.575
398.242;  -10.114;   -8.224;  712.645
398.836;   -8.824;   -7.474;  766.408
399.429;  -10.045;   -7.094;  631.041
400.022;  -13.781;   -9.475;  665.902
400.615;  -11.479;   -7.145;  805.609
401.208;   -9.453;   -7.174;  691.451
401.802;  -11.352;   -5.515;  699.329
402.395;  -13.059;   -9.875;  683.502
402.988;  -13.831;   -8.845;  696.627
403.581;  -10.321;   -8.874;  646.878
404.174;   -7.770;   -5.324;  686.568
404.767;  -11.297;   -9.575;  638.583
405.360;  -14.111;  -10.965;  621.445
405.953;   -8.686;   -8.764;  759.034
406.545;   -7.356;   -7.514;  725.342
407.138;  -12.204;  -10.025;  618.350
407.731;  -10.562;  -10.034;  613.303
408.324;   -6.732;   -9.374;  660.554
408.917;   -7.096;   -6.534;  681.864
409.509;  -10.231;   -8.004;  740.396
410.102;  -11.944;   -9.875;  643.948
410.695;   -5.981;   -8.604;  665.758
411.287;   -6.523;   -6.794;  599.821
411.880;   -7.616;   -9.334;  585.421
412.472;  -10.928;  -10.254;  613.092
413.065;   -8.039;   -6.714;  629.408
413.657;   -5.955;   -7.234;  576.678
414.250;   -5.488;  -10.544;  646.681
414.842;   -7.906;   -9.744;  676.353
415.434;   -5.619;   -6.994;  570.463
416.027;   -1.680;   -5.893;  652.196
416.619;   -3.229;   -7.264;  713.400
417.211;   -3.856;  -10.374;  599.352
417.804;   -0.040;   -7.993;  628.499
418.396;   -3.825;   -7.234;  607.643
418.988;   -2.094;   -9.443;  659.238
419.580;   -5.408;  -10.724;  568.276
420.172;   -2.779;  -10.323;  536.196
420.764;    0.742;   -8.793;  672.482
421.356;    0.057;  -11.143;  636.898
421.948;   -1.229;   -8.293;  677.661
422.540;    4.347;   -7.893;  680.027
423.132;    3.858;   -7.082;  600.641
423.724;   -0.241;   -8.653;  561.267
424.316;    1.507;  -10.213;  621.345
424.908;    5.397;   -9.762;  591.517
425.500;    6.868;   -5.572;  647.978
426.092;    6.179;   -8.422;  648.268
426.683;    5.247;   -9.283;  684.836
427.275;    8.884;   -7.852;  641.471
427.867;    9.708;   -5.272;  668.948
428.458;   10.488;   -7.682;  732.344
429.050;    8.699;  -10.612;  680.749
429.642;   11.299;   -9.882;  743.124
430.233;   11.938;   -6.962;  569.356
430.825;   12.993;   -6.842;  724.809
431.416;    9.900;   -9.672;  698.241
432.008;   14.108;   -6.552;  651.723
432.599;   14.372;   -6.891;  656.073
433.190;   12.558;  -10.912;  637.670
433.782;   10.993;  -11.172;  590.395
434.373;   18.725;   -6.061;  884.765
434.964;   17.447;   -8.251;  602.920
435.556;   15.508;   -9.722;  634.537
436.147;   17.780;   -9.082;  758.490
436.738;   17.601;   -8.041;  701.099
437.329;   23.032;   -7.341;  721.723
437.920;   15.329;   -8.162;  666.688
438.511;   15.100;  -11.802;  564.526
439.103;   22.965;  -10.191;  623.998
439.694;   25.179;   -7.601;  681.583
440.285;   25.021;   -8.541;  764.432
440.876;   22.879;   -9.751;  845.738
441.466;   22.393;   -9.401;  575.162
442.057;   28.441;   -7.760;  665.814
442.648;   26.437;   -9.971;  746.255
443.239;   25.093;  -11.001;  620.477
443.830;   29.758;   -7.990;  704.958
444.421;   32.340;   -7.910;  655.474
445.011;   28.319;   -8.131;  693.619
445.602;   27.950;   -7.111;  743.126
446.193;   29.502;  -10.920;  488.117
446.783;   35.547;   -6.500;  640.397
447.374;   29.577;   -8.671;  692.759
447.964;   31.075;  -10.781;  713.770
448.555;   39.352;   -9.650;  822.742
449.145;   35.948;   -8.660;  662.853
449.736;   35.729;   -8.990;  803.179
450.326;   35.887;   -9.500;  713.626
450.917;   41.205;   -8.680;  675.324
451.507;   40.977;   -7.520;  600.661
452.097;   41.539;   -8.590;  746.267
452.688;   42.250;  -11.340;  742.160
453.278;   42.357;  -10.100;  566.840
453.868;   46.417;   -6.019;  793.550
454.458;   43.743;   -9.440;  651.141
455.048;   44.418;  -10.560;  711.783
455.639;   46.120;  -11.799;  567.096
456.229;   49.815;   -6.899;  710.694
456.819;   51.583;   -7.389;  751.158
457.409;   52.429;  -11.119;  773.993
457.999;   54.728;   -9.289;  737.505
458.589;   54.495;   -6.139;  686.606
459.179;   54.595;   -8.729;  717.658
459.769;   52.453;   -9.789;  627.099
460.358;   57.775;  -10.259;  797.262
460.948;   58.110;   -7.299;  689.503
461.538;   58.609;  -10.289;  660.677
462.128;   57.181;  -11.269;  664.934
462.717;   64.511;   -9.368;  710.326
463.307;   67.288;   -7.908;  705.846
463.897;   62.257;   -9.599;  656.942
464.486;   62.358;   -9.769;  837.128
465.076;   66.533;   -8.048;  733.776
465.666;   70.518;   -9.358;  652.900
466.255;   67.866;   -7.919;  785.651
466.845;   67.244;  -11.689;  666.749
467.434;   70.194;   -7.818;  725.873
468.023;   71.785;   -7.678;  658.357
468.613;   68.650;  -10.939;  713.946
469.202;   73.587;  -10.118;  646.507
469.791;   78.203;   -9.108;  737.811
470.381;   79.671;   -6.058;  742.813
470.970;   79.125;  -10.428;  711.099
471.559;   78.500;  -10.268;  733.291
472.148;   82.266;   -8.448;  675.737
472.738;   85.145;   -6.917;  765.466
473.327;   84.745;  -11.978;  637.529
473.916;   84.491;  -11.888;  737.446
474.505;   87.965;   -9.437;  751.703
475.094;   91.899;   -6.747;  806.570
475.683;   90.877;   -9.367;  797.699
476.272;   92.084;  -12.637;  730.632
476.861;   94.409;  -10.027;  706.754
477.449;  101.060;   -8.716;  728.487
478.038;   95.855;   -9.577;  692.513
478.627;   97.074;   -9.718;  714.852
479.216;  104.417;   -8.947;  769.441
479.805;  106.684;   -6.256;  783.375
480.393;  106.006;   -7.937; 1008.945
480.982;  106.412;   -7.717;  874.501
481.571;  112.760;   -9.266;  858.333
482.159;  113.142;   -7.636;  705.386
482.748;  113.274;   -9.667;  821.385
483.336;  118.282;  -10.376;  858.209
483.925;  119.351;   -7.147;  774.373
484.513;  125.465;   -7.996;  758.962
485.102;  122.555;  -10.027;  810.965
485.690;  130.783;  -10.446; 1011.050
486.278;  133.096;   -8.446;  979.329
486.867;  134.350;   -6.356;  809.662
487.455;  136.924;   -9.136;  898.229
488.043;  138.400;  -10.646;  748.361
488.631;  147.790;   -7.456; 1005.079
489.220;  150.977;   -6.636;  908.626
489.808;  152.278;  -11.036;  741.415
490.396;  160.286;  -10.246;  914.645
490.984;  168.317;   -8.556;  830.161
491.572;  180.785;   -5.886;  940.315
492.160;  187.947;   -9.486;  919.081
492.748;  199.201;  -10.976;  884.341
493.336;  223.984;   -8.776; 1019.693
493.924;  257.931;   -5.465;  958.077
494.512;  299.022;   -9.986; 1066.638
495.100;  349.021;  -10.636; 1103.280
495.687;  419.739;  -10.885; 1206.373
496.275;  510.881;   -8.126; 1150.796
496.863;  601.344;  -10.586; 1281.171
497.451;  722.259;  -11.926; 1386.805
498.038;  840.096;  -10.885; 1556.729
498.626;  980.871;   -6.315; 1741.407
499.214; 1214.033;   -7.326; 2016.609
499.801; 1478.677;  -11.906; 2220.633
500.389; 1818.773;  -10.466; 2312.494
500.976; 2137.744;   -5.236; 2744.849
501.564; 2649.964;   -8.936; 3148.565
502.151; 3357.555;  -13.176; 3515.999
502.738; 3766.235;  -10.646; 3971.274
503.326; 4234.493;   -9.525; 4403.796
503.913; 4741.509;  -10.856; 5161.749
504.500; 5195.938;  -11.586; 5986.420
505.088; 5803.424;  -10.336; 6381.201
505.675; 6771.398;   -6.355; 6925.547
506.262; 7444.936;   -9.046; 7619.060
506.849; 7867.500;  -10.416; 8733.969
507.436; 8378.920;  -10.305; 9790.121
508.023; 8803.695;   -5.496; 9985.472
508.610; 8891.957;   -7.856;10434.618
509.197; 9939.057;  -10.097;11198.435
509.784;11378.282;  -10.886;12391.194
510.371;12910.755;   -9.315;13603.713
510.958;14072.270;   -9.936;14426.586
511.545;14522.377;   -9.326;15243.775
512.132;14709.966;  -10.075;15945.876
512.719;15324.784;   -7.796;16340.369
513.305;16663.453;  -10.606;18011.766
513.892;18353.186;  -11.486;19754.971
514.479;19791.252;   -9.126;20967.805
515.066;21291.561;   -6.026;22299.793
515.652;21462.287;   -8.466;22908.660
516.239;22027.018;  -10.886;23798.875
516.825;23466.396;  -11.496;25567.275
517.412;25098.445;   -5.796;28154.959
517.998;26485.793;  -10.506;28344.111
518.585;27464.680;  -10.076;27134.219
519.171;27068.826;   -8.315;27268.576
519.758;27773.098;   -8.596;28964.129
520.344;30421.832;   -8.466;30664.494
520.930;29343.600;  -11.006;32550.605
521.516;27667.084;  -10.495;35422.895
522.103;29500.641;   -5.526;38280.004
522.689;31903.498;   -8.746;37835.117
523.275;33203.207;  -11.376;37288.613
523.861;35283.941;  -11.156;37281.395
524.447;34996.789;   -8.135;37846.949
525.033;35301.992;   -7.896;38321.949
525.619;36042.305;  -12.476;38579.285
526.205;36277.418;   -9.516;40622.875
526.791;35874.203;   -6.926;42258.836
527.377;35704.426;   -8.346;42966.902
527.963;37386.133;   -8.717;42018.949
528.549;39123.141;  -11.016;42476.828
529.135;37806.691;   -8.536;41854.852
529.721;37777.758;   -9.666;41237.711
530.306;36803.133;  -10.066;41259.445
530.892;37767.000;  -11.356;41506.047
531.478;40033.129;   -6.596;43559.613
532.063;42201.016;   -8.836;47695.563
532.649;40265.969;  -10.047;50808.324
533.235;40023.988;   -9.746;51787.500
533.820;42598.586;   -6.566;52145.035
534.406;44269.680;  -10.817;51133.488
534.991;46195.281;   -9.416;49996.805
535.576;44966.680;   -9.036;48882.852
536.162;42382.902;   -6.156;46942.285
536.747;42627.773;  -11.607;45711.746
537.333;45446.219;  -11.787;48510.180
537.918;46483.848;  -12.437;50439.891
538.503;46075.633;   -7.196;50863.711
539.088;46642.090;  -10.556;50906.922
539.673;47620.117;   -8.767;52621.965
540.259;44353.383;  -10.026;52368.094
540.844;43519.348;   -7.416;50879.109
541.429;43243.824;   -9.467;52077.777
542.014;42834.734;   -9.527;52716.695
542.599;46157.902;   -9.946;52363.281
543.184;47720.754;   -7.927;53187.137
543.769;47679.883;   -9.297;54697.605
544.354;47842.496;  -10.127;53913.914
544.938;45621.523;   -9.267;49680.164
545.523;43659.871;   -6.506;47386.277
546.108;45306.594;   -9.787;49151.949
546.693;46226.375;  -11.587;51384.637
547.278;46750.301;  -10.986;51853.254
547.862;46963.848;   -8.206;51173.750
548.447;44949.133;  -10.067;51691.395
549.031;44950.547;   -9.637;52456.703
549.616;45556.723;   -9.926;52714.516
550.201;44746.449;   -6.347;52414.598
550.785;45862.461;   -7.917;52355.059
551.370;46917.441;  -10.867;54589.453
551.954;49142.359;   -9.047;58267.348
552.538;48389.813;   -7.827;59062.176
553.123;46409.066;  -10.287;58115.285
553.707;45686.695;  -12.178;56556.285
554.291;43089.672;   -8.717;56201.668
554.876;44102.566;   -7.457;55335.762
555.460;46181.715;  -10.387;54155.703
556.044;47718.547;   -9.618;53721.484
556.628;48560.422;  -11.567;53731.016
557.212;49068.293;   -8.097;54312.531
557.796;50344.457;  -11.077;53797.773
558.380;48168.598;  -11.108;56145.984
558.964;46615.180;   -9.057;57277.930
559.548;44267.457;   -6.977;56459.641
560.132;40990.395;  -11.457;54434.543
560.716;42445.926;  -11.378;54800.617
561.300;44887.195;   -9.577;57606.945
561.884;43569.156;   -7.127;58972.445
562.467;41700.504;   -7.118;57327.570
563.051;40380.395;  -13.358;54962.434
563.635;38510.867;  -10.178;52594.473
564.219;40410.289;   -7.837;50610.410
564.802;44117.387;  -11.398;49551.180
565.386;44414.133;  -12.788;48370.953
565.969;45677.082;   -9.077;48178.871
566.553;44390.547;   -6.207;49957.305
567.136;42551.680;   -8.568;50369.594
567.720;43560.578;  -11.868;49492.004
568.303;44763.406;   -8.268;50616.352
568.887;44209.871;   -8.698;50727.148
569.470;42061.098;   -6.808;51698.379
570.053;39888.563;  -13.188;52122.078
570.637;37578.758;  -12.037;52536.438
571.220;37456.289;   -8.577;51186.098
571.803;37534.207;   -8.498;51032.762
572.386;39541.945;  -10.498;49609.887
572.969;40364.590;   -9.388;48285.926
573.552;40605.871;   -8.338;47624.285
574.135;39943.371;   -8.518;45498.641
574.718;37163.273;  -13.628;41970.434
575.301;37517.102;  -10.893;41447.137
575.884;37870.934;   -8.158;40923.836
576.467;41711.379;  -10.328;45267.723
577.050;41372.543;  -13.058;48175.543
577.633;40105.520;   -9.458;47729.328
578.216;36655.742;   -8.928;47579.793
578.799;34068.070;   -9.358;47820.996
579.381;35474.418;  -11.388;48115.551
579.964;36089.941;  -11.718;47333.766
580.547;34919.012;   -8.588;46668.969
581.129;35277.359;   -8.859;44466.141
581.712;36921.078;  -10.729;44164.922
582.294;36762.875;  -11.118;46477.855
582.877;37539.836;   -5.218;48244.254
583.459;37590.465;   -8.679;47437.895
584.042;38881.855;  -10.709;46943.219
584.624;36720.742;  -11.669;46792.227
585.206;35498.023;   -8.218;46557.250
585.789;36823.715;  -10.569;45793.773
586.371;37230.902;  -11.859;43836.391
586.953;37889.910;  -10.719;42972.492
587.536;39295.238;   -7.198;42487.211
588.118;38595.531;   -8.720;42086.414
588.700;37662.414;  -10.439;43389.930
589.282;34923.816;   -9.198;43646.039
589.864;32715.092;   -9.199;43438.109
590.446;32599.223;  -11.319;43151.926
591.028;32211.223;  -11.159;42781.867
591.610;32544.889;  -11.779;42839.098
592.192;33680.395;   -7.668;42820.402
592.774;32785.879;  -11.949;40724.277
593.356;30779.523;  -12.129;39874.789
593.937;30496.230;  -10.669;39980.648
594.519;33124.633;   -6.509;42069.633
595.101;33353.816;  -10.849;42976.031
595.683;32155.086;  -11.679;44084.441
596.264;31302.021;   -9.049;43478.797
596.846;30929.518;   -8.849;43803.672
597.427;30915.801;   -9.570;42986.934
598.009;32609.758;  -12.620;42832.219
598.591;32741.352;  -10.039;42580.086
599.172;34809.359;  -10.369;43061.805
599.753;37020.574;   -9.140;41691.469
600.335;36286.555;  -11.430;40692.520
600.916;33688.207;   -9.939;39982.422
601.498;30515.049;   -8.479;40318.617
602.079;30095.658;  -10.920;40670.609
602.660;29862.311;  -11.480;41450.898
603.241;30679.268;  -11.699;41137.738
603.823;30913.561;   -9.579;38868.797
604.404;30474.525;  -10.620;38182.785
604.985;33460.738;  -10.450;38078.047
605.566;34484.922;   -9.129;38056.633
606.147;35332.059;   -7.510;37020.418
606.728;34103.285;  -10.660;37883.359
607.309;32311.969;  -11.740;38748.273
607.890;32323.734;   -9.759;38850.230
608.471;30981.607;   -8.250;37457.918
609.051;30994.158;   -9.240;36066.457
609.632;31095.799;  -12.120;35991.074
610.213;30633.961;   -9.110;37402.641
610.794;31734.340;   -8.030;38383.363
611.374;30429.447;   -8.110;40562.387
611.955;30137.602;  -13.560;38533.727
612.536;31225.643;  -11.400;36951.789
613.116;30740.955;   -8.070;37197.891
613.697;31610.084;  -10.830;38411.125
614.277;31365.545;  -11.641;38673.938
614.858;30707.316;  -13.310;37075.863
615.438;30802.680;   -7.460;35092.906
616.019;28864.309;   -7.601;33666.301
616.599;29506.371;  -12.020;34189.023
617.179;29199.953;  -11.780;36952.047
617.760;28145.035;   -8.570;39582.574
618.340;28765.777;  -11.471;38943.977
618.920;29476.332;  -11.170;37594.156
619.500;30413.807;  -11.071;37866.938
620.080;30807.332;   -7.750;37869.043
620.660;30918.742;  -12.711;36868.617
621.241;31680.574;  -10.211;36352.309
621.821;31297.578;  -10.961;35459.520
622.401;31467.713;   -7.720;35207.414
622.980;33462.164;   -8.981;35980.422
623.560;32345.727;   -9.331;37351.328
624.140;27984.879;   -9.850;34388.582
624.720;23913.680;   -7.451;32368.764
625.300;23436.998;   -9.070;32638.629
625.880;27750.488;  -12.601;34599.035
626.459;30901.145;  -11.751;36831.738
627.039;30837.186;   -9.281;38299.098
627.619;29969.719;   -8.801;38289.574
628.198;30167.953;  -12.071;37220.695
628.778;31068.023;   -9.461;37632.563
629.357;31850.777;   -8.491;38003.012
629.937;31420.588;   -9.721;38402.039
630.516;32049.617;   -9.951;37868.801
631.096;33168.910;  -11.731;35760.410
631.675;35546.977;   -8.572;35225.219
632.254;35519.566;  -11.282;35130.289
632.834;34205.887;  -13.322;35794.570
633.413;35016.301;  -10.301;35788.922
633.992;35024.133;   -8.582;34532.863
634.571;36030.918;   -8.352;33590.113
635.151;35246.684;  -11.912;34943.863
635.730;32918.625;  -10.511;35352.523
636.309;32702.033;   -7.731;35366.605
636.888;32158.119;   -9.952;36165.637
637.467;31539.621;  -11.672;37515.902
638.046;30074.053;   -8.901;39288.695
638.625;29290.500;   -7.912;38279.699
639.204;28639.967;  -10.022;37741.598
639.782;29864.221;  -12.252;38364.551
640.361;32073.570;  -10.041;36740.621
640.940;32031.797;  -11.161;34950.082
641.519;31381.229;   -9.701;34137.398
642.097;32494.775;  -11.271;35654.258
642.676;32582.643;   -8.651;35637.957
643.255;31646.219;   -8.711;36567.074
643.833;31109.598;   -9.581;37809.434
644.412;31738.346;  -13.711;37337.293
644.990;33065.113;  -11.811;37018.531
645.569;35886.715;   -9.411;36518.469
646.147;36542.469;  -10.291;36186.430
646.726;34702.094;  -12.401;36267.688
647.304;33015.887;  -10.411;36647.625
647.882;33577.051;   -9.651;39286.742
648.461;33471.422;   -9.631;39157.703
649.039;31116.172;  -11.881;35412.883
649.617;30894.314;   -9.661;34744.918
650.195;31573.186;   -9.301;35403.098
650.773;30849.537;  -10.511;35053.797
651.352;30586.824;  -11.521;33756.816
651.930;29277.705;  -12.211;31868.773
652.508;28270.412;   -9.171;33121.551
653.086;29510.869;   -9.371;33564.793
653.663;31811.600;  -13.161;34054.668
654.241;30888.184;  -13.031;35693.309
654.819;29082.172;   -9.371;36422.906
655.397;29743.301;  -10.511;38213.484
655.975;29918.764;  -10.371;39507.625
656.553;30571.234;  -10.051;39498.223
657.130;31352.549;  -10.061;40395.480
657.708;28273.672;   -9.561;39242.020
658.286;25483.072;  -11.511;38920.020
658.863;25719.746;  -10.261;40202.898
659.441;28480.846;   -7.531;39677.938
660.018;31344.109;   -9.501;40413.355
660.596;32114.512;  -13.301;39931.414
661.173;34781.258;  -11.211;39604.531
661.750;34020.090;   -9.951;39700.070
662.328;31276.119;   -9.390;39292.809
662.905;29937.947;  -11.330;38235.648
663.482;27234.266;   -9.050;36212.305
664.060;24834.346;   -8.240;35944.945
664.637;28696.480;  -10.050;35170.785
665.214;33444.645;  -11.760;34197.523
665.791;32472.006;  -10.530;34549.520
666.368;32184.176;   -9.690;35118.578
666.945;32384.330;   -9.320;36019.418
667.522;33197.656;  -11.860;36048.438
668.099;32161.197;  -10.770;36243.914
668.676;31933.170;   -6.260;35958.875
669.253;34073.758;   -7.000;37384.730
669.830;34504.406;  -10.190;36779.629
670.407;33440.660;   -9.550;35231.289
670.984;32934.867;   -9.260;35544.270
671.560;31405.465;   -9.280;35466.867
672.137;29694.854;  -11.810;34280.863
672.714;29764.033;  -11.490;34632.863
673.290;30519.115;   -7.740;35135.422
673.867;30994.213;  -10.660;36114.480
674.443;30354.996;  -12.230;36152.859
675.020;28815.002;  -10.450;35327.238
675.596;27292.607;   -9.260;35795.176
676.173;28035.520;  -10.780;35430.355
676.749;28756.447;  -13.690;33549.516
677.326;30003.314;  -11.980;32210.012
677.902;28268.449;   -8.630;32068.871
678.478;26409.699;  -10.730;32583.891
679.054;27977.771;  -10.520;32088.928
679.631;29360.000;  -11.920;30978.848
680.207;30415.170;   -7.490;33160.887
680.783;31638.395;   -9.860;35570.363
681.359;32184.451;  -13.380;36125.184
681.935;30694.549;  -12.480;35240.922
682.511;31199.977;   -7.900;34429.961
683.087;31904.146;   -7.710;34463.680
683.663;32734.012;  -11.480;34648.898
684.239;32286.316;  -14.090;34546.457
684.815;33195.090;   -7.560;35586.375
685.390;33384.164;   -9.910;35821.895
685.966;33139.457;  -11.159;35085.871
686.542;33683.023;  -11.169;34198.230
687.118;32143.516;   -5.959;32847.707
687.693;32169.896;  -10.329;32794.027
688.269;31747.451;  -12.059;33072.367
688.844;32356.910;  -10.909;33141.664
689.420;33527.418;   -8.019;33965.742
689.995;30414.094;   -8.399;34655.523
690.571;29695.029;  -10.949;33576.742
691.146;28992.154;   -9.619;32657.219
691.722;26913.855;   -8.999;32526.979
692.297;25838.748;  -11.589;33014.617
692.872;26465.570;  -11.739;34012.254
693.448;26683.545;  -11.059;34237.434
694.023;28555.887;  -10.139;34142.672
694.598;30832.488;   -9.029;34132.031
695.173;30655.789;  -13.319;34205.250
695.748;28095.670;  -10.169;32882.488
696.323;25594.037;   -8.339;32864.906
696.898;25041.469;   -8.169;33170.004
697.473;28244.713;  -12.309;32432.984
698.048;28234.777;  -10.989;31649.303
698.623;27183.184;   -9.329;30778.141
699.198;28758.080;   -9.849;31140.119
699.773;30146.342;  -12.329;31764.299
700.348;29985.242;  -10.389;31780.816
700.922;28114.936;   -9.269;32046.375
701.497;26257.975;   -9.329;32603.574
702.072;27825.695;  -10.789;34799.871
702.646;27707.475;  -10.839;35793.172
703.221;28300.348;   -9.099;35201.590
703.795;28965.506;  -10.939;34764.527
704.370;27656.863;  -12.859;34307.367
704.944;29009.039;  -11.559;33509.887
705.519;30048.857;   -7.939;31388.584
706.093;31928.066;  -10.499;31340.104
706.668;32876.406;  -11.289;32630.281
707.242;32091.879;  -11.509;32728.779
707.816;30719.523;   -9.639;32947.238
708.390;30032.365;  -11.429;33277.855
708.965;31017.236;  -11.869;33834.336
709.539;31092.482;  -11.689;33709.273
710.113;30700.518;  -10.478;33044.313
710.687;28140.391;  -10.228;31953.992
711.261;27329.270;  -13.698;30505.949
711.835;27108.340;  -13.378;30262.369
712.409;26700.000;   -9.698;31254.447
712.983;26278.746;  -11.898;32754.986
713.557;25120.656;  -15.138;34018.824
714.131;26390.189;  -14.098;34579.625
714.704;26525.135;   -9.958;33890.262
715.278;25721.570;  -10.028;33531.102
715.852;24771.934;  -11.148;33601.660
716.425;24288.551;   -9.068;33515.117
716.999;25966.379;  -10.038;33185.555
717.573;26579.895;   -9.798;33905.996
718.146;27450.602;  -12.378;35199.293
718.720;28005.465;  -11.918;35060.551
719.293;27147.682;   -8.088;34973.230
719.867;26270.357;  -10.888;36394.449
720.440;26969.225;  -11.938;36663.008
721.013;28869.270;  -12.818;35102.426
721.587;30249.299;  -10.298;33985.266
722.160;29969.184;  -10.048;33524.965
722.733;28118.188;  -12.108;32987.043
723.306;26039.203;  -10.818;33066.301
723.880;26487.027;   -8.908;33399.500
724.453;25520.623;   -9.878;33468.297
725.026;25056.010;  -11.188;33816.637
725.599;25357.313;  -11.678;32797.996
726.172;25154.287;   -9.618;33187.434
726.745;26165.256;   -8.258;35136.613
727.318;28711.867;  -12.978;35751.730
727.891;30612.201;  -12.148;35890.430
728.463;31891.053;   -8.968;34822.090
729.036;32113.240;  -10.188;32895.086
729.609;29819.295;  -11.788;31823.225
730.182;27911.018;  -11.788;31445.283
730.754;27139.615;  -10.268;32373.223
731.327;26894.412;   -9.998;33676.820
731.900;25961.807;  -12.228;33417.000
732.472;25045.789;  -13.848;31978.498
733.045;24899.982;   -8.698;30368.777
733.617;24332.418;  -10.607;30574.215
734.190;22996.906;  -11.507;31280.975
734.762;23437.115;  -13.647;31674.412
735.334;24878.502;   -9.767;31247.291
735.907;25307.135;   -9.897;29876.211
736.479;23295.311;  -11.637;29808.488
737.051;22408.471;   -9.567;30233.547
737.623;23154.953;   -8.187;31469.086
738.195;25025.396;  -11.187;31784.225
738.768;25497.076;  -12.337;32120.523
739.340;24984.055;  -12.227;32094.342
739.912;24546.986;  -11.057;31312.680
740.484;25295.713;  -10.207;31946.238
741.056;26468.916;  -10.047;32984.059
741.628;26104.652;  -13.627;33897.715
742.199;26520.805;   -7.177;33213.016
742.771;24846.084;  -10.797;31369.113
743.343;23352.500;  -11.997;31865.473
743.915;23507.012;  -12.867;32388.631
744.487;24017.246;   -7.617;31079.568
745.058;25322.691;   -9.557;30570.107
745.630;25286.381;   -9.877;29970.127
746.201;24195.625;  -14.177;29186.766
746.773;23780.859;   -9.237;28805.723
747.344;23802.932;   -9.847;29591.223
747.916;23887.180;  -11.657;31412.201
748.487;23595.945;  -10.587;32194.898
749.059;23472.207;   -8.707;32533.719
749.630;22614.988;  -10.537;32158.518
750.201;22896.316;  -11.687;30855.395
750.773;23064.656;  -11.647;28622.555
751.344;24242.256;   -7.147;28405.732
751.915;24057.957;   -9.757;28461.551
752.486;23632.598;  -12.427;27842.850
753.057;22165.111;  -12.227;27845.008
753.628;21828.795;  -10.417;27728.107
754.199;22011.105;  -11.767;27381.086
754.770;21433.559;  -11.187;25882.203
755.341;20838.227;  -10.507;25886.184
755.912;21038.053;   -9.387;26050.861
756.483;21462.939;  -10.647;26798.779
757.054;21231.938;  -11.837;27048.238
757.625;19561.715;  -12.716;26294.838
758.195;18879.459;   -9.666;26142.076
758.766;19756.527;   -8.656;26392.234
759.337;19611.465;  -12.856;26334.594
759.907;18942.869;  -13.366;27579.652
760.478;18083.768;   -8.576;28352.770
761.048;18745.027;  -10.526;27325.088
761.619;19406.654;  -11.116;26460.428
762.189;19024.299;  -12.136;26029.826
762.760;19057.051;   -9.456;26430.145
763.330;19278.904;   -7.136;26670.902
763.900;19280.846;  -11.786;26603.021
764.471;18532.035;  -11.546;25542.740
765.041;18154.947;   -8.096;24358.459
765.611;18204.557;   -8.876;23991.297
766.181;18253.639;  -12.196;24470.236
766.751;18954.340;  -11.636;24845.975
767.321;19056.402;  -10.156;24533.633
767.891;18835.938;  -11.766;24916.492
768.461;18559.697;  -14.936;24776.771
769.031;17808.490;  -12.356;24757.988
769.601;17577.955;   -7.526;24181.088
770.171;17925.801;  -10.766;23670.387
770.741;18461.842;  -13.176;22960.045
771.311;18032.438;  -10.616;22917.523
771.880;16768.373;   -9.576;23562.941
772.450;16262.805;  -10.336;24216.500
773.020;16447.512;  -13.516;24140.398
773.589;16312.657;  -13.466;24414.857
774.159;15822.237;   -8.686;23858.717
774.729;15259.160;   -9.476;22942.135
775.298;15226.746;  -13.666;22324.033
775.867;15202.186;  -11.716;21140.313
776.437;14626.759;   -9.906;20838.092
777.006;14512.948;  -12.166;20599.510
777.576;15845.256;  -12.356;20508.809
778.145;15233.942;  -11.646;20732.947
778.714;13815.130;   -8.226;21062.465
779.283;13297.313;   -9.556;20949.664
779.853;13058.063;  -14.116;20508.623
780.422;13307.095;  -11.506;20649.082
780.991;13738.363;   -9.556;21527.520
781.560;14418.753;   -9.095;22632.658
782.129;13363.331;  -12.135;23048.277
782.698;12062.440;  -10.865;23438.555
783.267;11442.816;   -9.335;23267.734
783.836;11780.155;  -11.045;22415.133
784.404;12496.480;  -13.865;20443.152
784.973;12704.240;  -13.095;19699.150
785.542;12604.846;  -11.575;19763.828
786.111;12420.305;   -9.705;20341.408
786.679;12266.231;  -12.105;20207.967
787.248;12008.890;  -12.455;19516.465
787.817;11888.087;  -11.535;18900.363
788.385;11713.110;   -9.765;17879.121
788.954;11507.618;  -14.005;17658.301
789.522;11315.763;  -11.955;17788.879
790.090;10480.303;  -10.135;18118.277
790.659; 9614.898;  -10.975;18338.736
791.227; 9612.348;  -13.375;18508.615
791.795; 9931.992;  -12.375;17898.254
792.364;10094.721;  -10.725;17295.133
792.932;10420.147;   -9.715;16822.051
793.500;10196.140;  -12.675;17040.148
794.068;10395.353;  -13.495;17179.787
794.636;10451.749;  -10.885;16664.246
795.204;10120.920;  -11.045;16524.545
795.772;10120.498;  -13.175;17274.564
796.340; 9897.688;  -12.445;17891.002
796.908;10101.468;   -9.735;17648.561
797.476;10511.771;   -9.815;17064.080
798.044;10245.661;  -13.985;16672.777
798.612; 9810.062;  -13.115;17023.996
799.180; 9052.740;  -10.185;16561.615
799.747; 8710.567;   -9.055;15962.773
800.315; 8916.981;  -12.385;15296.992
800.883; 8359.454;  -15.035;14801.771
801.450; 7672.400;  -10.365;14534.430
802.018; 7394.953;   -9.855;14173.248
802.585; 7328.638;  -11.905;14029.547
803.153; 7476.560;  -11.585;13836.846
803.720; 7284.915;   -9.095;13567.324
804.287; 7202.022;   -9.135;13360.622
804.855; 7389.422;  -11.604;13681.981
805.422; 7720.497;  -11.794;13536.560
805.989; 7938.928;  -10.734;13355.958
806.556; 7896.066;  -10.444;13747.896
807.124; 8162.716;  -12.764;13987.376
807.691; 8640.343;  -12.964;14038.674
808.258; 8705.736;  -11.134;14120.152
808.825; 8714.375;   -9.854;13860.111
809.392; 8370.088;  -10.504;13268.790
809.959; 7709.814;  -13.054;12680.389
810.526; 7018.089;   -8.294;12427.308
811.093; 6375.599;   -8.394;12030.105
811.659; 6146.514;  -12.304;11653.664
812.226; 6295.976;  -13.944;11637.183
812.793; 6678.938;  -10.484;11611.521
813.360; 6829.719;  -10.144;11885.181
813.926; 6860.412;  -11.684;12770.539
814.493; 6783.807;  -13.644;12677.638
815.060; 6656.042;   -9.724;11974.336
815.626; 6820.486;   -9.854;11594.715
816.193; 6912.454;  -13.254;11579.474
816.759; 6345.688;  -13.204;11666.972
817.325; 5928.142;   -9.434;11325.530
817.892; 5805.503;  -10.134;11105.369
818.458; 5940.247;  -13.474;10843.928
819.024; 6384.242;  -11.854;10714.406
819.591; 6531.213;  -10.244;10469.165
820.157; 6327.527;  -10.704;10235.523
820.723; 6311.087;  -12.324;10847.563
821.289; 6220.932;   -9.444;11040.980
821.855; 6271.626;   -8.374;10357.100
822.421; 6595.217;  -10.234; 9978.918
822.987; 6575.153;  -13.294; 9754.177
823.553; 6243.880;  -10.884;10065.755
824.119; 6003.387;   -8.884;10036.294
824.685; 5538.251;   -6.784;10029.192
825.251; 5451.791;  -12.004;10199.230
825.816; 5234.208;  -11.474; 9820.189
826.382; 5038.352;   -9.174; 9297.248
826.948; 5312.636;   -9.214; 9381.347
827.513; 5722.823;  -10.774; 9450.726
828.079; 5839.888;  -11.924; 9472.444
828.645; 5672.215;  -10.543; 9292.643
829.210; 5554.460;  -10.533; 9065.341
829.776; 5443.472;  -10.753; 9132.620
830.341; 5575.343;  -10.173; 9092.878
830.906; 5609.827;  -10.743; 9078.557
831.472; 5374.024;  -11.113; 8534.535
832.037; 5016.008;  -10.603; 8677.874
832.602; 4899.996;  -13.323; 8628.692
833.167; 4690.265;  -10.823; 8879.031
833.733; 4563.878;  -10.113; 9189.790
834.298; 4437.022;  -13.583; 9052.608
834.863; 4628.166;  -12.703; 8895.087
835.428; 4867.000;  -10.523; 8824.266
835.993; 4817.227;   -6.963; 8845.385
836.558; 4777.863;  -10.763; 8888.563
837.123; 4897.155;   -9.903; 8966.582
837.688; 5233.398;   -9.913; 8617.860
838.253; 5285.623;  -10.283; 8590.699
838.817; 4941.755;  -12.963; 8443.797
839.382; 4823.376;  -14.243; 8799.356
839.947; 4971.542;  -10.733; 8810.595
840.511; 4997.763;   -9.383; 8796.394
841.076; 4840.438;  -12.563; 8347.231
841.641; 4662.654;  -12.953; 8224.330
842.205; 4524.452;   -7.043; 8223.349
842.770; 4320.242;   -8.163; 8622.107
843.334; 4447.819;  -12.503; 8410.386
843.898; 4601.666;  -11.693; 8337.465
844.463; 4195.501;  -10.203; 8506.283
845.027; 3875.629;   -9.533; 8280.962
845.591; 3889.325;  -13.443; 8231.141
846.156; 3970.142;  -13.143; 7969.179
846.720; 3820.942;   -9.433; 7768.278
847.284; 3718.586;  -11.033; 7630.957
847.848; 3702.749;  -10.403; 7472.395
848.412; 3547.598;  -11.553; 7437.394
848.976; 3463.991;   -8.393; 7674.592
849.540; 3419.464;   -8.713; 7836.011
850.104; 3398.330;  -12.463; 7913.669
850.668; 3467.319;  -12.973; 7694.508
851.232; 3433.419;  -10.793; 7756.887
851.796; 3427.173;  -10.662; 7926.545
852.359; 3500.854;  -13.082; 7827.844
852.923; 3474.359;  -12.192; 7641.163
853.487; 3475.324;  -11.912; 7342.501
854.050; 3324.469;  -10.892; 7042.820
854.614; 3353.979;  -13.992; 7151.338
855.177; 3418.695;  -11.732; 7105.077
855.741; 3301.643;   -8.962; 6989.675
856.304; 3167.001;   -9.442; 6596.634
856.868; 3045.541;  -14.192; 6356.272
857.431; 2987.972;  -12.702; 6468.571
857.995; 2977.927;   -9.942; 6373.210
858.558; 3058.553;   -9.112; 6324.448
859.121; 2966.835;  -12.932; 6408.327
859.684; 2843.635;  -13.442; 6347.886
860.247; 2806.969;  -10.632; 6321.264
860.810; 2765.644;  -11.272; 6301.903
861.374; 2688.863;   -9.832; 6607.881
861.937; 2602.238;  -11.762; 6408.200
862.500; 2591.805;   -9.722; 6572.639
863.062; 2577.572;  -10.512; 6387.297
863.625; 2575.083;  -11.232; 6190.836
864.188; 2612.434;  -14.112; 5807.254
864.751; 2619.298;  -11.302; 5682.413
865.314; 2506.629;  -10.112; 5547.492
865.876; 2335.962;  -12.182; 5500.150
866.439; 2190.552;  -10.722; 5415.909
867.002; 2093.193;   -9.252; 5501.567
867.564; 2137.890;   -9.572; 5413.946
868.127; 2177.353;  -13.142; 5160.325
868.689; 2254.601;  -12.902; 5133.183
869.252; 2364.926;   -9.732; 5252.382
869.814; 2303.661;   -9.432; 5297.141
870.377; 2198.604;  -11.552; 5390.919
870.939; 2183.896;   -9.052; 5599.898
871.501; 2142.000;  -10.982; 5248.336
872.063; 2044.820;  -12.292; 4854.235
872.626; 1988.784;  -14.912; 4817.074
873.188; 1904.551;  -13.112; 4987.732
873.750; 1876.048;  -13.442; 4868.651
874.312; 1857.863;   -9.402; 4779.330
874.874; 1816.603;  -11.062; 4866.348
875.436; 1708.358;  -13.931; 4718.887
875.998; 1593.983;   -9.561; 4660.005
876.560; 1577.218;  -11.321; 4462.964
877.122; 1632.388;  -12.221; 4145.042
877.683; 1745.769;  -12.191; 4056.481
878.245; 1792.299;  -12.101; 3950.740
878.807; 1820.827;   -8.971; 4058.958
879.369; 1770.465;  -12.071; 3954.677
879.930; 1643.713;  -14.621; 3941.495
880.492; 1554.430;  -10.311; 4067.014
881.053; 1558.947;  -10.901; 3859.633
881.615; 1557.551;  -14.411; 3776.071
882.176; 1496.753;  -13.761; 3734.750
882.738; 1415.812;   -9.181; 3678.489
883.299; 1394.008;  -11.791; 3405.407
883.860; 1405.640;  -13.121; 3351.106
884.422; 1356.832;  -11.211; 3394.044
884.983; 1280.631;  -10.091; 3166.443
885.544; 1238.676;   -8.461; 3189.802
886.105; 1176.560;  -12.361; 3160.360
886.666; 1113.753;  -14.141; 3093.059
887.227; 1084.130;  -11.361; 2941.957
887.788; 1037.638;  -11.401; 2974.836
888.349;  951.400;  -13.791; 2721.214
888.910;  910.445;  -13.191; 2696.493
889.471;  876.390;   -9.881; 2560.172
890.032;  880.590;   -9.881; 2558.190
890.593;  876.302;  -10.371; 2567.669
891.153;  793.178;  -13.301; 2460.307
891.714;  685.991;  -11.431; 2372.046
892.275;  638.815;  -11.291; 2309.505
892.835;  647.462;  -11.471; 2382.543
893.396;  645.183;  -11.541; 2295.502
893.956;  620.723;  -11.181; 2162.420
894.517;  583.016;  -11.741; 2125.439
895.077;  531.384;  -11.671; 2086.978
895.638;  492.578;  -11.311; 2126.316
896.198;  480.048;   -9.831; 1838.275
896.758;  465.461;   -8.421; 1892.813
897.319;  442.636;  -12.351; 1792.232
897.879;  424.832;  -13.511; 1762.751
898.439;  394.998;  -12.001; 1661.149
898.999;  374.776;  -10.180; 1781.468
899.559;  369.224;  -12.030; 1703.347
900.119;  360.972;  -15.710; 1537.525
900.679;  346.469;   -8.900; 1638.384
901.239;  324.999;   -8.340; 1527.902
901.799;  297.948;  -13.910; 1456.441
902.359;  276.530;  -13.460; 1357.140
902.919;  268.179;  -11.490; 1331.118
903.479;  268.538;  -12.110; 1317.257
904.038;  263.963;  -11.720; 1262.595
904.598;  256.164;  -13.610; 1152.034
905.158;  245.351;  -11.040; 1240.893
905.717;  230.047;  -10.900; 1233.691
906.277;  220.708;  -15.080; 1217.330
906.836;  217.601;  -13.380; 1222.408
907.396;  214.688;  -10.780; 1193.047
907.955;  207.310;   -8.500; 1182.526
908.515;  203.293;  -12.760; 1099.364
909.074;  202.402;  -11.900; 1092.863
909.633;  201.535;   -8.950; 1069.121
910.192;  199.327;   -8.770; 1196.460
910.752;  188.522;  -12.390; 1029.960
911.311;  179.039;  -13.680; 1009.780
911.870;  170.566;  -12.370;  971.460
912.429;  165.066;  -10.900; 1094.080
912.988;  163.569;  -11.690; 1081.060
913.547;  160.456;  -13.240;  940.380
914.106;  158.869;  -11.990;  999.420
914.665;  156.862;   -9.990;  984.020
915.224;  154.743;  -12.880; 1035.760
915.782;  152.197;  -12.350;  922.560
916.341;  151.556;   -9.110; 1049.840
916.900;  149.126;   -9.270;  925.260
917.458;  148.192;  -13.240;  884.220
918.017;  146.197;  -13.550;  942.600
918.576;  144.619;  -12.320;  904.440
919.134;  142.816;  -11.490;  837.980
919.693;  141.453;  -13.670;  893.060
920.251;  140.292;  -15.470;  876.500
920.809;  139.401;  -11.290;  839.580
921.368;  139.685;  -10.210;  885.360
921.926;  137.938;  -12.140;  842.940
922.484;  134.647;  -13.080;  903.360
923.042;  133.611;  -11.720;  880.340
923.601;  134.081;   -7.480;  998.680
924.159;  131.756;  -11.570;  935.560
924.717;  130.895;  -13.840;  841.080
925.275;  131.301;  -10.640;  903.240
925.833;  129.067;  -11.540;  779.320
926.391;  130.076;  -12.960;  938.380
926.949;  130.746;  -14.130;  857.680
927.506;  129.878;  -11.750;  903.500
928.064;  129.633;  -10.250;  877.580
928.622;  130.777;  -13.030;  880.100
929.180;  132.200;  -13.400;  814.180
929.737;  134.402;  -10.700;  808.540
930.295;  137.572;  -10.070;  928.480
930.853;  136.878;  -11.960;  849.100
931.410;  137.615;  -13.120;  821.120
931.968;  139.069;  -10.770;  940.660
932.525;  139.492;  -10.680;  909.380
933.082;  138.928;  -13.130;  811.440
933.640;  140.589;  -13.210;  925.900
934.197;  139.395;  -11.060;  886.360
934.754;  140.365;   -9.580;  897.780
935.312;  140.365;  -14.000;  863.340
935.869;  142.472;  -10.710; 1012.980
936.426;  140.084;   -9.860;  872.800
936.983;  140.103;   -9.710;  889.020
937.540;  141.575;  -13.990;  838.280
938.097;  146.908;  -14.040;  940.120
938.654;  149.562;  -10.310;  898.860
939.211;  150.374;  -10.560;  952.480
939.768;  149.460;  -13.900;  915.420
940.324;  152.908;  -14.760;  904.200
940.881;  155.974;  -10.370;  878.500
941.438;  159.845;   -8.260; 1021.200
941.995;  158.538;  -12.540;  992.560
942.551;  158.470;  -14.670;  875.620
943.108;  159.499;  -10.450;  937.920
943.664;  160.620;  -10.750;  869.340
944.221;  164.270;  -11.550; 1088.140
944.777;  163.955;  -14.770;  869.680
945.334;  160.856;  -12.820;  884.840
945.890;  156.213;  -10.130;  946.480
946.446;  152.414;  -13.470;  947.020
947.003;  155.926;  -12.120;  964.940
947.559;  155.691;   -9.980; 1063.040
948.115;  151.476;   -9.080; 1026.540
948.671;  148.672;  -10.830;  967.300
949.227;  148.687;  -12.440;  859.560
949.783;  148.118;  -12.910;  858.900
950.339;  151.595;  -10.270;  991.000
950.895;  152.614;  -13.630; 1023.840
951.451;  152.744;  -15.100;  925.280
952.007;  151.903;  -11.330;  998.540
952.563;  147.711;  -10.580;  937.780
953.118;  144.775;  -13.440;  904.940
953.674;  143.778;  -12.710;  935.780
954.230;  146.575;  -10.350;  949.640
954.785;  150.121;   -9.190;  936.640
955.341;  151.249;  -11.200;  998.160
955.897;  146.893;  -16.560;  834.660
956.452;  143.887;  -12.570;  953.840
957.008;  142.359;   -7.970; 1083.640
957.563;  138.561;  -11.940; 1009.540
958.118;  134.930;  -13.450;  877.700
958.674;  133.190;  -12.030;  946.780
959.229;  133.501;   -9.410; 1013.980
959.784;  134.005;  -12.000;  832.400
960.339;  134.861;  -14.780; 1001.280
960.894;  131.127;   -9.860;  963.760
961.449;  128.045;   -9.970;  859.960
962.004;  128.453;  -10.900; 1212.840
962.559;  125.412;  -13.150;  860.140
963.114;  125.406;  -13.740;  742.480
963.669;  123.261;   -9.820;  915.500
964.224;  122.017;  -13.890;  874.340
964.779;  122.276;  -12.600;  828.420
965.334;  124.568;  -10.950; 1017.860
965.888;  121.248;  -11.170;  875.360
966.443;  122.031;  -12.540;  972.380
966.998;  119.173;  -15.780;  819.460
967.552;  117.652;   -9.760;  908.380
968.107;  114.919;   -9.060;  868.300
968.661;  116.075;  -11.950;  922.440
969.216;  113.743;  -12.800;  856.280
969.770;  110.795;  -11.210;  917.200
970.324;  110.978;  -11.610;  923.140
970.879;  111.420;  -11.370;  947.180
971.433;  113.971;  -12.540;  952.720
971.987;  113.232;  -11.320;  895.340
972.541;  110.144;  -10.720;  917.100
973.095;  109.877;   -9.680; 1009.460
973.649;  106.553;  -11.440;  809.480
974.203;  104.897;  -11.210;  829.040
974.757;  104.824;  -10.240;  855.220
975.311;  103.618;  -13.720;  872.600
975.865;  104.071;  -13.770;  881.820
976.419;  100.958;  -11.690;  857.400
976.973;   98.365;   -9.510;  849.620
977.526;   97.262;  -12.620;  949.920
978.080;   96.404;  -12.010;  796.780
978.634;   95.242;  -10.170;  921.320
979.187;   93.372;   -9.020;  905.400
979.741;   95.729;   -9.820; 1018.380
980.294;   93.461;  -14.870;  789.160
980.848;   92.613;  -12.380;  717.220
981.401;   91.848;  -10.350;  816.540
981.955;   91.317;  -13.720;  844.300
982.508;   87.258;  -11.490;  746.340
983.061;   87.256;  -10.000;  915.260
983.615;   85.303;  -11.480;  798.800
984.168;   83.681;  -13.220;  770.080
984.721;   82.659;  -13.960;  880.760
985.274;   81.633;  -10.870;  867.500
985.827;   79.492;   -9.790;  834.220
986.380;   76.710;  -13.120;  721.340
986.933;   76.642;  -12.450;  864.800
987.486;   76.078;  -10.210;  861.920
988.039;   76.581;   -8.430;  863.100
988.591;   74.809;  -10.520;  893.260
989.144;   73.288;  -14.860;  737.260
989.697;   71.930;  -13.080;  758.740
990.250;   71.357;  -10.150;  858.100
990.802;   69.120;  -13.430;  755.860
991.355;   69.191;  -12.750;  974.880
991.907;   66.977;  -12.040;  864.320
992.460;   64.762;  -11.330;  753.760
993.012;   64.334;  -13.610;  749.540
993.565;   63.452;  -13.460;  711.360
994.117;   64.043;   -9.360;  950.780
994.669;   60.376;  -11.300;  701.320
995.221;   60.269;  -13.540;  791.920
995.774;   58.681;  -13.430;  787.580
996.326;   57.954;  -12.520;  740.220
996.878;   56.750;  -10.950;  838.420
997.430;   54.301;  -14.300;  699.860
997.982;   53.008;  -13.760;  750.140
998.534;   52.830;  -11.530;  739.060
999.086;   53.032;  -10.310;  738.220
999.638;   51.205;  -12.530;  661.380
1000.190;   50.146;  -11.840;  699.320
1000.741;   50.100;  -10.260;  742.700
1001.293;   49.737;   -8.860;  686.020
1001.845;   48.814;  -13.700;  676.640
1002.396;   48.129;  -12.100;  743.400
1002.948;   47.881;  -12.760;  737.400
1003.500;   46.128;  -10.380;  723.780
1004.051;   46.800;  -11.900;  907.580
1004.603;   45.271;  -12.250;  791.820
1005.154;   42.306;  -13.210;  608.980
1005.705;   41.835;  -10.950;  723.960
1006.257;   41.602;  -13.880;  707.220
1006.808;   40.799;  -12.840;  685.460
1007.359;   40.054;  -10.570;  763.240
1007.910;   39.383;   -9.620;  646.640
1008.461;   38.699;  -13.630;  732.940
1009.013;   37.446;  -17.200;  588.340
1009.564;   38.767;  -10.200;  793.520
1010.115;   36.507;  -12.570;  597.040
1010.665;   36.609;  -15.150;  602.160
1011.216;   36.766;  -14.480;  667.920
1011.767;   36.036;  -11.340;  697.920
1012.318;   36.003;   -9.780;  736.980
1012.869;   35.203;  -12.380;  679.000
1013.419;   34.939;  -15.560;  603.120
1013.970;   35.625;  -11.010;  666.640
1014.521;   35.802;  -11.610;  620.620
1015.071;   34.075;  -13.450;  670.380
1015.622;   34.673;  -13.870;  635.460
1016.172;   33.918;  -11.610;  596.820
1016.723;   32.741;  -12.120;  614.380
1017.273;   32.877;  -13.620;  604.160
1017.823;   32.562;  -14.140;  650.340
1018.374;   32.850;  -12.800;  611.760
1018.924;   32.852;  -12.340;  716.880
1019.474;   32.592;  -11.410;  718.880
1020.024;   31.566;  -14.770;  657.580
1020.574;   31.997;   -9.780;  726.160
1021.124;   32.337;   -8.560;  673.580
1021.674;   30.587;  -15.190;  559.120
1022.224;   32.411;  -13.530;  708.940
1022.774;   31.662;  -13.280;  668.820
1023.324;   31.000;  -10.690;  753.520
1023.874;   32.938;  -10.240;  875.760
1024.423;   30.455;  -12.540;  613.700
1024.973;   30.438;  -10.010;  610.760
1025.523;   29.590;  -10.550;  620.960
1026.072;   29.069;  -13.560;  606.420
1026.622;   29.528;  -15.120;  675.740
1027.172;   30.257;  -11.260;  715.660
1027.721;   29.523;  -11.410;  601.220
1028.270;   29.625;  -13.530;  663.400
1028.820;   28.761;  -13.680;  638.080
1029.369;   28.673;  -13.520;  612.700
1029.918;   28.241;  -10.980;  649.840
1030.468;   28.148;  -13.530;  564.780
1031.017;   29.212;  -13.170;  634.800
1031.566;   26.685;  -12.200;  608.900
1032.115;   27.917;   -9.960;  694.500
1032.664;   26.650;  -13.210;  596.480
1033.213;   27.914;  -12.500;  735.420
1033.762;   26.802;  -11.910;  635.620
1034.311;   27.329;   -9.640;  677.220
1034.860;   27.126;  -13.310;  691.000
1035.408;   27.756;  -11.830;  722.720
1035.957;   26.904;  -12.000;  719.540
1036.506;   25.434;  -11.690;  530.800
1037.055;   27.319;  -10.990;  844.320
1037.603;   25.501;  -15.120;  664.000
1038.152;   24.629;  -12.450;  534.760
1038.700;   25.155;  -10.560;  585.740
1039.249;   24.612;  -11.080;  681.220
1039.797;   25.341;  -12.540;  633.360
1040.345;   24.848;  -11.920;  705.420
1040.894;   24.353;  -11.410;  625.300
1041.442;   24.265;  -14.320;  632.200
1041.990;   23.517;  -16.240;  559.160
1042.538;   23.406;  -11.680;  536.180
1043.087;   22.724;  -10.760;  570.860
1043.635;   24.261;  -11.850;  670.500
1044.183;   23.348;  -15.480;  586.400
1044.731;   22.929;  -11.770;  576.000
1045.279;   23.030;  -13.090;  674.920
1045.827;   24.660;  -12.440;  892.400
1046.374;   22.420;  -13.840;  515.420
1046.922;   21.621;  -13.220;  590.580
1047.470;   23.857;  -10.230;  691.300
1048.018;   22.416;  -14.590;  647.960
1048.565;   23.045;  -12.050;  708.600
1049.113;   20.850;  -11.650;  557.000
1049.660;   21.538;  -10.510;  629.660
1050.208;   22.082;  -13.310;  675.640
1050.755;   20.981;  -15.900;  606.580
1051.303;   22.432;  -11.430;  686.820
1051.850;   21.661;   -8.480;  635.120
1052.397;   19.496;  -15.010;  473.960
1052.945;   20.198;  -13.960;  617.760
1053.492;   21.663;  -13.150;  741.840
1054.039;   21.896;   -9.630;  720.180
1054.586;   20.504;  -13.680;  557.240
1055.133;   22.140;  -14.570;  693.140
1055.680;   20.329;  -13.820;  646.620
1056.227;   19.637;  -11.730;  542.780
1056.774;   21.264;  -12.480;  794.980
1057.321;   18.984;  -13.930;  523.260
1057.868;   20.079;  -11.690;  651.320
1058.415;   19.246;   -9.520;  651.980
1058.961;   19.916;  -13.160;  678.940
1059.508;   19.620;  -12.920;  643.820
1060.055;   18.941;  -11.920;  581.780
1060.601;   19.163;  -11.500;  624.300
1061.148;   18.552;  -14.330;  616.820
1061.694;   18.085;  -16.870;  592.580
1062.241;   18.254;  -10.330;  596.320
1062.787;   18.324;  -10.620;  663.140
1063.334;   19.651;  -10.110;  808.560
1063.880;   18.600;  -13.400;  668.360
1064.426;   18.280;  -10.680;  706.820
1064.972;   17.577;   -9.920;  601.340
1065.518;   16.543;  -10.980;  566.640
1066.065;   18.437;  -14.890;  624.460
1066.611;   16.925;  -12.870;  598.800
1067.157;   18.126;  -12.950;  641.860
1067.703;   17.764;  -13.540;  668.480
1068.249;   17.490;  -13.540;  605.220
1068.794;   16.943;  -12.600;  626.880
1069.340;   16.138;  -10.620;  578.960
1069.886;   16.297;  -12.830;  590.700
1070.432;   16.043;  -14.870;  541.720
1070.977;   15.883;  -11.980;  601.080
1071.523;   16.460;   -8.200;  573.060
1072.068;   15.494;  -12.330;  582.000
1072.614;   16.088;  -16.370;  527.760
1073.160;   16.617;  -11.100;  687.040
1073.705;   14.935;  -10.480;  572.520
1074.250;   14.434;  -14.520;  559.900
1074.796;   15.589;  -11.460;  655.160
1075.341;   15.677;  -11.950;  664.100
1075.886;   15.165;  -11.460;  594.240
1076.431;   14.225;  -13.770;  649.880
1076.976;   15.253;  -12.680;  639.220
1077.521;   14.746;  -13.170;  583.080
1078.067;   14.100;  -10.860;  579.400
1078.612;   15.005;  -13.920;  661.620
1079.156;   14.390;  -13.880;  601.540
1079.701;   14.500;  -13.120;  693.260
1080.246;   14.588;   -9.940;  696.300
1080.791;   14.796;  -14.740;  625.020
1081.336;   14.735;  -13.750;  659.320
1081.880;   13.796;  -13.400;  649.680
1082.425;   13.809;  -12.220;  573.480
1082.970;   14.818;  -11.610;  717.040
1083.514;   13.764;  -13.580;  597.000
1084.059;   12.188;  -12.810;  586.720
1084.603;   12.184;  -12.320;  565.840
1085.147;   13.534;  -13.190;  645.220
1085.692;   13.804;  -12.480;  716.800
1086.236;   11.719;  -13.020;  503.140
1086.780;   13.869;   -9.190;  751.440
1087.325;   13.709;  -12.480;  654.620
1087.869;   12.672;  -12.450;  610.700
1088.413;   13.175;  -12.240;  705.040
1088.957;   11.323;   -9.020;  543.400
1089.501;   13.698;  -10.320;  766.640
1090.045;   12.248;  -12.720;  726.480
1090.589;   10.787;  -13.690;  569.920
1091.133;   12.819;  -10.020;  673.340
1091.676;   12.009;  -12.330;  591.940
1092.220;   11.728;  -14.970;  600.920
1092.764;   12.565;  -12.430;  706.960
1093.307;   12.292;   -9.800;  673.780
1093.851;   10.617;  -14.970;  556.540
1094.395;   11.558;  -15.310;  683.140
1094.938;   10.482;  -10.370;  632.520
1095.482;   10.211;  -11.050;  559.800
1096.025;   11.158;  -11.840;  710.880
1096.568;   11.385;  -12.840;  779.280
1097.112;    9.445;  -14.700;  508.180
1097.655;   11.263;   -8.720;  603.000
1098.198;    9.476;  -13.610;  600.180
1098.741;    9.572;  -13.350;  612.860
1099.285;   10.340;  -11.230;  657.300
1099.828;    8.532;  -11.840;  439.400
1100.371;    9.413;  -10.840;  608.160
1100.914;   10.337;  -14.190;  682.660
1101.457;    9.759;  -11.240;  679.900
1101.999;    8.948;  -11.270;  584.680
1102.542;    9.373;  -11.480;  641.440
1103.085;    9.444;  -11.750;  658.500
1103.628;    9.840;  -11.400;  762.060
1104.170;    9.338;  -10.490;  588.280
1104.713;    9.305;  -10.600;  646.700
1105.256;    8.688;  -14.360;  557.440
1105.798;    7.602;  -13.210;  499.980
1106.341;    9.284;  -10.270;  728.900
1106.883;    7.863;  -12.200;  521.340
1107.425;    8.295;  -13.110;  668.180
1107.968;    8.367;  -12.840;  612.380
1108.510;    8.654;   -6.480;  684.960
1109.052;    7.751;  -13.940;  612.620
1109.594;    7.452;  -13.690;  554.440
1110.136;    8.168;  -11.880;  643.220
1110.679;    7.898;   -9.500;  633.080
1111.221;    8.288;  -14.160;  604.460
1111.763;    7.859;  -13.980;  559.220
1112.304;    6.728;  -13.880;  547.140
1112.846;    7.680;  -12.210;  666.240
1113.388;    9.798;  -11.390;  942.180
1113.930;    7.120;  -14.540;  694.200
1114.472;    6.753;  -12.640;  606.540
1115.013;    5.720;  -11.620;  551.280
1115.555;    6.381;  -13.640;  587.100
1116.097;    5.558;  -15.380;  579.480
1116.638;    6.694;  -12.640;  684.600
1117.180;    6.711;   -9.850;  667.740
1117.721;    5.875;  -13.690;  568.580
1118.262;    6.898;  -12.680;  677.960
1118.804;    6.814;  -12.530;  637.340
1119.345;    5.532;  -11.690;  578.400
1119.886;    6.596;  -13.380;  704.040
1120.427;    5.616;  -14.070;  589.020
1120.969;    5.091;  -13.500;  597.920
1121.510;    5.014;  -11.480;  563.060
1122.051;    5.597;  -12.830;  723.580
1122.592;    5.352;  -14.290;  655.420
1123.133;    4.023;  -12.400;  547.940
1123.673;    5.924;  -10.130;  706.480
1124.214;    4.811;  -12.930;  612.460
1124.755;    5.429;  -14.380;  639.460
1125.296;    5.352;  -14.000;  627.320
1125.836;    5.099;  -10.070;  691.500
1126.377;    4.290;  -12.640;  599.660
1126.918;    5.385;  -12.960;  614.980
1127.458;    4.454;  -13.350;  622.220
1127.999;    5.106;  -10.750;  656.980
1128.539;    5.047;  -12.350;  694.240
1129.079;    4.515;  -14.860;  632.720
1129.620;    3.890;  -13.840;  558.100
1130.160;    3.853;  -12.330;  539.480
1130.700;    4.058;  -14.530;  640.840
1131.240;    4.108;  -12.530;  643.700
1131.781;    3.587;  -14.450;  619.680
1132.321;    3.919;   -9.790;  599.120
1132.861;    2.448;  -14.860;  564.200
1133.401;    2.641;  -14.290;  593.940
1133.941;    4.006;  -11.750;  626.280
1134.481;    2.680;   -9.920;  597.580
1135.020;    3.022;  -12.290;  609.160
1135.560;    4.052;  -11.650;  674.940
1136.100;    2.778;  -16.270;  501.160
1136.640;    2.727;  -10.890;  510.480
1137.179;    3.071;  -14.180;  537.960
1137.719;    2.893;  -16.250;  605.400
1138.258;    2.320;  -14.230;  587.360
1138.798;    3.658;   -9.090;  663.780
1139.337;    1.592;  -15.130;  482.840
1139.877;    3.039;  -13.680;  642.360
1140.416;    4.541;  -11.320;  878.060
1140.955;    2.090;  -10.860;  535.380
1141.494;    2.451;  -12.920;  669.280
1142.034;    2.229;  -13.930;  583.520
1142.573;    3.166;  -11.440;  646.280
1143.112;    1.905;  -12.000;  553.480
1143.651;    2.551;  -13.670;  536.480
1144.190;    2.384;  -12.730;  691.640
1144.729;    2.025;  -14.560;  607.420
1145.267;    1.341;  -11.830;  584.900
1145.806;    2.564;  -12.230;  637.040
1146.345;    1.111;  -14.130;  635.020
1146.884;    1.676;  -11.590;  622.500
1147.422;    1.033;  -12.550;  533.060
1147.961;    2.339;  -11.180;  708.460
1148.500;    3.002;  -11.510;  669.720
1149.038;    2.040;  -11.640;  632.500
1149.577;    1.916;  -10.130;  698.640
1150.115;   -0.550;  -13.970;  452.280
1150.653;    1.418;  -14.520;  607.340
1151.192;    1.348;  -12.810;  552.920
1151.730;    0.088;   -9.100;  652.560
1152.268;    0.752;  -12.220;  589.520
1152.806;    0.185;  -14.140;  571.180
1153.344;   -0.423;  -12.350;  577.640
1153.882;    0.473;   -8.980;  600.060
1154.421;   -0.081;  -15.190;  470.620
1154.958;    0.323;  -15.210;  595.240
1155.496;    1.495;  -12.850;  645.280
1156.034;    1.023;   -9.940;  721.880
1156.572;    1.401;  -13.570;  667.060
1157.110;   -0.995;  -14.590;  473.940
1157.647;    0.115;  -13.030;  676.960
1158.185;   -0.537;  -12.140;  564.320
1158.723;   -1.310;  -14.390;  509.200
1159.260;    0.634;  -14.090;  701.700
1159.798;    0.453;  -11.920;  658.160
1160.335;    0.105;  -11.110;  631.820

