
Integration time [ms]:   3.276
Averaging Nr. [scans]: 1000
Smoothing Nr. [pixels]: 0
Data measured with spectrometer [name]: 7414430SP
Wave   ;Sample   ;Dark     ;Reference
[nm]   ;[counts] ;[counts] ;[counts] 

288.544;  151.189;    7.793;  793.890
289.143;  154.672;    7.462;  681.602
289.742;  154.855;    8.602;  828.814
290.341;  140.050;    1.321;  789.841
290.940;  129.871;   -0.709;  730.702
291.538;  130.849;    0.881;  881.108
292.137;  130.400;    0.122;  792.581
292.736;  134.668;   -1.929;  975.101
293.335;  131.549;   -8.229;  735.086
293.934;  131.764;   -5.279;  781.677
294.532;  130.350;   -1.369; 1031.958
295.131;  116.138;   -7.641;  834.394
295.730;  117.367;   -8.420;  809.588
296.328;  115.925;   -5.611;  783.442
296.927;  116.425;   -5.781;  779.652
297.525;  116.667;   -6.361;  781.236
298.124;  108.345;  -11.382;  654.009
298.722;  111.222;   -7.641;  761.933
299.321;  109.276;   -6.811;  708.597
299.919;  108.073;   -6.991;  751.918
300.518;  104.410;  -10.362;  689.338
301.116;  105.858;   -9.581;  691.381
301.715;  105.541;   -4.891;  730.222
302.313;  104.597;   -8.801;  704.943
302.911;  100.624;   -8.522;  733.830
303.509;  105.501;   -6.171;  925.627
304.108;  103.333;   -7.311;  760.383
304.706;  102.770;   -8.321;  801.664
305.304;   96.610;  -10.222;  796.707
305.902;  102.297;   -6.021;  784.484
306.500;   97.498;   -4.971;  728.200
307.098;   96.985;   -7.061;  746.560
307.696;   95.015;   -8.801;  780.432
308.294;   95.016;   -6.411;  731.359
308.892;   96.884;   -2.901;  759.769
309.490;   92.543;   -5.041;  712.161
310.088;   92.506;   -5.002;  788.444
310.686;   95.804;   -2.041;  821.749
311.284;   91.452;   -2.351;  766.040
311.882;   88.954;   -4.422;  731.225
312.480;   86.506;   -4.192;  697.167
313.078;   87.983;   -1.172;  808.331
313.675;   88.299;   -2.601;  691.600
314.273;   83.706;   -1.312;  797.837
314.871;   83.021;   -3.942;  589.829
315.468;   79.908;   -2.802;  652.090
316.066;   83.155;   -0.701;  694.427
316.664;   76.517;   -4.362;  656.351
317.261;   81.216;   -2.872;  910.128
317.859;   76.109;   -2.022;  768.735
318.456;   75.662;   -0.531;  830.096
319.054;   72.512;   -3.912;  787.828
319.651;   71.592;   -4.752;  759.928
320.249;   70.615;   -2.602;  810.188
320.846;   68.366;   -0.821;  714.286
321.443;   65.448;   -4.642;  832.135
322.041;   63.515;   -5.002;  812.315
322.638;   60.456;   -3.982;  701.456
323.235;   61.890;   -3.411;  665.683
323.833;   59.197;   -7.361;  740.354
324.430;   54.911;   -8.611;  615.900
325.027;   55.305;   -4.061;  876.855
325.624;   54.438;   -4.031;  644.532
326.221;   52.395;   -7.481;  689.717
326.818;   52.083;   -5.281;  818.332
327.415;   55.080;   -7.460;  748.828
328.012;   54.375;   -5.510;  690.585
328.609;   53.166;   -7.880;  731.389
329.206;   52.333;   -8.331;  778.621
329.803;   51.686;   -5.121;  737.841
330.400;   53.335;   -4.510;  704.260
330.997;   55.375;   -6.441;  817.147
331.594;   55.116;   -8.831;  788.185
332.191;   58.602;   -7.621;  728.722
332.787;   61.660;   -4.591;  844.463
333.384;   60.285;   -7.412;  763.093
333.981;   59.921;   -8.293;  815.687
334.578;   62.217;   -7.052;  708.378
335.174;   64.979;   -3.102;  731.469
335.771;   64.511;   -5.943;  836.456
336.367;   62.039;   -7.393;  710.631
336.964;   64.762;   -4.063;  793.266
337.561;   63.308;   -3.813;  731.112
338.157;   58.735;   -4.654;  911.916
338.754;   56.549;   -7.934;  796.589
339.350;   54.061;   -4.414;  722.493
339.946;   56.381;   -4.664;  773.135
340.543;   48.416;   -6.375;  846.136
341.139;   43.533;   -9.815;  720.836
341.735;   41.488;   -4.526;  772.593
342.332;   38.643;   -4.895;  691.472
342.928;   40.535;   -4.295;  795.394
343.524;   34.615;   -5.476;  761.684
344.120;   31.274;   -5.856;  738.562
344.716;   33.450;   -2.155;  723.717
345.313;   31.776;   -6.275;  795.342
345.909;   27.044;   -8.815;  627.336
346.505;   28.046;   -5.305;  740.247
347.101;   28.943;   -2.674;  827.864
347.697;   28.968;   -4.344;  785.398
348.293;   24.118;   -9.975;  627.244
348.889;   24.630;   -5.774;  745.914
349.485;   23.299;   -5.004;  688.205
350.081;   24.122;   -4.704;  772.592
350.676;   19.761;   -6.635;  691.606
351.272;   24.644;   -4.504;  809.530
351.868;   23.963;   -3.914;  780.497
352.464;   20.140;   -9.044;  723.932
353.059;   17.464;   -8.314;  646.017
353.655;   20.426;   -7.024;  777.063
354.251;   21.076;   -5.343;  759.845
354.846;   15.693;   -8.604;  740.646
355.442;   14.181;   -6.945;  753.071
356.038;   16.350;   -7.564;  751.708
356.633;   16.207;   -5.814;  728.594
357.229;   13.657;   -7.364;  724.757
357.824;   12.417;   -8.024;  703.600
358.420;   11.474;   -9.384;  679.726
359.015;   12.085;   -5.104;  695.357
359.610;   12.771;   -6.854;  763.920
360.206;    8.015;  -10.185;  603.240
360.801;   10.373;   -7.054;  646.503
361.396;   12.068;   -5.034;  725.975
361.992;    7.463;   -8.284;  668.220
362.587;    5.047;   -8.625;  670.160
363.182;    6.747;   -7.674;  689.631
363.777;    7.367;   -5.164;  738.242
364.372;    6.971;   -8.604;  737.314
364.967;    4.318;   -9.055;  680.744
365.563;    7.681;   -6.114;  815.567
366.158;    5.141;   -5.814;  685.161
366.753;    5.659;   -7.854;  649.263
367.348;    4.331;   -7.804;  746.056
367.942;    3.958;   -7.954;  697.298
368.537;    2.070;   -4.984;  754.245
369.132;    3.189;   -8.564;  703.428
369.727;   -0.136;   -8.855;  638.079
370.322;    1.573;   -6.245;  580.186
370.917;   -0.243;   -6.425;  710.646
371.511;    2.799;   -6.294;  861.834
372.106;   -0.791;   -7.685;  776.964
372.701;   -3.027;   -7.335;  585.988
373.296;    1.538;   -4.564;  863.135
373.890;   -3.021;  -10.235;  647.840
374.485;   -3.962;   -7.885;  691.199
375.079;   -0.735;   -7.324;  738.685
375.674;   -0.196;   -3.494;  812.970
376.268;   -4.648;   -8.525;  691.759
376.863;   -9.391;  -10.086;  580.327
377.457;   -3.301;   -7.025;  662.490
378.052;   -5.135;   -3.585;  764.884
378.646;   -6.929;   -7.595;  741.167
379.240;   -6.183;   -8.335;  721.176
379.835;   -5.699;   -5.785;  636.978
380.429;   -7.815;   -4.335;  562.557
381.023;   -7.572;   -6.805;  779.205
381.617;   -9.348;   -9.195;  680.106
382.212;   -6.431;   -6.905;  685.303
382.806;   -5.618;   -3.745;  760.690
383.400;   -9.494;   -7.745;  672.281
383.994;  -10.858;   -9.765;  664.870
384.588;   -6.527;   -6.564;  697.701
385.182;   -5.924;   -5.344;  726.624
385.776;   -7.937;   -8.514;  706.875
386.370;  -10.158;   -9.555;  681.968
386.964;   -8.865;   -8.715;  684.155
387.558;   -7.821;   -6.174;  598.360
388.152;  -11.358;   -8.725;  681.959
388.745;   -9.141;   -7.965;  814.707
389.339;   -7.275;   -5.924;  747.642
389.933;   -6.233;   -5.524;  695.370
390.527;   -7.493;   -7.114;  859.029
391.120;  -13.372;  -10.725;  595.318
391.714;  -10.356;   -8.035;  711.633
392.308;   -7.696;   -3.574;  780.253
392.901;  -12.055;   -7.245;  642.460
393.495;  -12.851;   -9.285;  595.414
394.089;  -11.138;   -5.895;  760.452
394.682;  -11.894;   -4.295;  697.188
395.275;  -11.854;   -9.875;  719.927
395.869;  -12.458;   -8.485;  667.314
396.462;  -11.955;   -7.455;  616.609
397.056;   -7.595;   -5.424;  776.621
397.649;  -13.053;   -6.605;  731.575
398.242;   -9.288;   -8.224;  712.645
398.836;   -8.718;   -7.474;  766.408
399.429;  -10.727;   -7.094;  631.041
400.022;  -13.968;   -9.475;  665.902
400.615;  -11.158;   -7.145;  805.609
401.208;   -9.635;   -7.174;  691.451
401.802;  -12.053;   -5.515;  699.329
402.395;  -13.074;   -9.875;  683.502
402.988;  -12.620;   -8.845;  696.627
403.581;   -9.928;   -8.874;  646.878
404.174;   -8.390;   -5.324;  686.568
404.767;  -10.763;   -9.575;  638.583
405.360;  -13.525;  -10.965;  621.445
405.953;   -7.915;   -8.764;  759.034
406.545;   -7.807;   -7.514;  725.342
407.138;  -12.098;  -10.025;  618.350
407.731;  -10.278;  -10.034;  613.303
408.324;   -6.718;   -9.374;  660.554
408.917;   -6.698;   -6.534;  681.864
409.509;   -9.077;   -8.004;  740.396
410.102;  -10.713;   -9.875;  643.948
410.695;   -4.916;   -8.604;  665.758
411.287;   -6.583;   -6.794;  599.821
411.880;   -7.448;   -9.334;  585.421
412.472;   -9.999;  -10.254;  613.092
413.065;   -7.083;   -6.714;  629.408
413.657;   -5.875;   -7.234;  576.678
414.250;   -5.534;  -10.544;  646.681
414.842;   -6.593;   -9.744;  676.353
415.434;   -4.930;   -6.994;  570.463
416.027;   -1.077;   -5.893;  652.196
416.619;   -3.135;   -7.264;  713.400
417.211;   -3.522;  -10.374;  599.352
417.804;    0.273;   -7.993;  628.499
418.396;   -3.502;   -7.234;  607.643
418.988;   -1.119;   -9.443;  659.238
419.580;   -4.478;  -10.724;  568.276
420.172;   -2.874;  -10.323;  536.196
420.764;    1.923;   -8.793;  672.482
421.356;    0.983;  -11.143;  636.898
421.948;    0.162;   -8.293;  677.661
422.540;    5.102;   -7.893;  680.027
423.132;    4.476;   -7.082;  600.641
423.724;    0.847;   -8.653;  561.267
424.316;    3.623;  -10.213;  621.345
424.908;    6.725;   -9.762;  591.517
425.500;    6.702;   -5.572;  647.978
426.092;    7.123;   -8.422;  648.268
426.683;    6.762;   -9.283;  684.836
427.275;    9.060;   -7.852;  641.471
427.867;   11.525;   -5.272;  668.948
428.458;   11.354;   -7.682;  732.344
429.050;   10.291;  -10.612;  680.749
429.642;   13.224;   -9.882;  743.124
430.233;   12.422;   -6.962;  569.356
430.825;   13.948;   -6.842;  724.809
431.416;   11.331;   -9.672;  698.241
432.008;   15.143;   -6.552;  651.723
432.599;   14.957;   -6.891;  656.073
433.190;   13.028;  -10.912;  637.670
433.782;   13.055;  -11.172;  590.395
434.373;   19.170;   -6.061;  884.765
434.964;   18.144;   -8.251;  602.920
435.556;   15.891;   -9.722;  634.537
436.147;   18.787;   -9.082;  758.490
436.738;   19.140;   -8.041;  701.099
437.329;   24.211;   -7.341;  721.723
437.920;   16.859;   -8.162;  666.688
438.511;   17.004;  -11.802;  564.526
439.103;   24.001;  -10.191;  623.998
439.694;   25.067;   -7.601;  681.583
440.285;   26.436;   -8.541;  764.432
440.876;   24.975;   -9.751;  845.738
441.466;   24.178;   -9.401;  575.162
442.057;   29.418;   -7.760;  665.814
442.648;   27.236;   -9.971;  746.255
443.239;   25.686;  -11.001;  620.477
443.830;   31.529;   -7.990;  704.958
444.421;   33.108;   -7.910;  655.474
445.011;   29.692;   -8.131;  693.619
445.602;   29.679;   -7.111;  743.126
446.193;   31.339;  -10.920;  488.117
446.783;   35.037;   -6.500;  640.397
447.374;   31.425;   -8.671;  692.759
447.964;   31.826;  -10.781;  713.770
448.555;   40.288;   -9.650;  822.742
449.145;   37.316;   -8.660;  662.853
449.736;   38.159;   -8.990;  803.179
450.326;   38.455;   -9.500;  713.626
450.917;   42.727;   -8.680;  675.324
451.507;   41.987;   -7.520;  600.661
452.097;   42.720;   -8.590;  746.267
452.688;   43.899;  -11.340;  742.160
453.278;   43.838;  -10.100;  566.840
453.868;   47.978;   -6.019;  793.550
454.458;   45.198;   -9.440;  651.141
455.048;   46.671;  -10.560;  711.783
455.639;   47.643;  -11.799;  567.096
456.229;   51.478;   -6.899;  710.694
456.819;   53.007;   -7.389;  751.158
457.409;   54.398;  -11.119;  773.993
457.999;   56.528;   -9.289;  737.505
458.589;   56.220;   -6.139;  686.606
459.179;   56.012;   -8.729;  717.658
459.769;   54.528;   -9.789;  627.099
460.358;   59.873;  -10.259;  797.262
460.948;   59.835;   -7.299;  689.503
461.538;   60.214;  -10.289;  660.677
462.128;   59.383;  -11.269;  664.934
462.717;   66.056;   -9.368;  710.326
463.307;   68.186;   -7.908;  705.846
463.897;   64.037;   -9.599;  656.942
464.486;   64.111;   -9.769;  837.128
465.076;   69.076;   -8.048;  733.776
465.666;   72.074;   -9.358;  652.900
466.255;   69.042;   -7.919;  785.651
466.845;   69.213;  -11.689;  666.749
467.434;   72.536;   -7.818;  725.873
468.023;   73.328;   -7.678;  658.357
468.613;   70.660;  -10.939;  713.946
469.202;   75.671;  -10.118;  646.507
469.791;   79.050;   -9.108;  737.811
470.381;   81.193;   -6.058;  742.813
470.970;   81.022;  -10.428;  711.099
471.559;   80.927;  -10.268;  733.291
472.148;   84.938;   -8.448;  675.737
472.738;   86.717;   -6.917;  765.466
473.327;   85.759;  -11.978;  637.529
473.916;   85.542;  -11.888;  737.446
474.505;   90.252;   -9.437;  751.703
475.094;   93.537;   -6.747;  806.570
475.683;   92.604;   -9.367;  797.699
476.272;   93.960;  -12.637;  730.632
476.861;   95.909;  -10.027;  706.754
477.449;  103.732;   -8.716;  728.487
478.038;   97.813;   -9.577;  692.513
478.627;   98.440;   -9.718;  714.852
479.216;  105.829;   -8.947;  769.441
479.805;  108.587;   -6.256;  783.375
480.393;  108.148;   -7.937; 1008.945
480.982;  108.216;   -7.717;  874.501
481.571;  113.921;   -9.266;  858.333
482.159;  114.335;   -7.636;  705.386
482.748;  114.468;   -9.667;  821.385
483.336;  118.728;  -10.376;  858.209
483.925;  120.740;   -7.147;  774.373
484.513;  126.192;   -7.996;  758.962
485.102;  123.522;  -10.027;  810.965
485.690;  132.883;  -10.446; 1011.050
486.278;  134.942;   -8.446;  979.329
486.867;  135.357;   -6.356;  809.662
487.455;  136.914;   -9.136;  898.229
488.043;  138.349;  -10.646;  748.361
488.631;  147.585;   -7.456; 1005.079
489.220;  152.278;   -6.636;  908.626
489.808;  151.970;  -11.036;  741.415
490.396;  161.398;  -10.246;  914.645
490.984;  167.595;   -8.556;  830.161
491.572;  178.494;   -5.886;  940.315
492.160;  185.418;   -9.486;  919.081
492.748;  198.969;  -10.976;  884.341
493.336;  223.245;   -8.776; 1019.693
493.924;  252.058;   -5.465;  958.077
494.512;  283.617;   -9.986; 1066.638
495.100;  324.600;  -10.636; 1103.280
495.687;  381.525;  -10.885; 1206.373
496.275;  449.915;   -8.126; 1150.796
496.863;  519.325;  -10.586; 1281.171
497.451;  624.469;  -11.926; 1386.805
498.038;  770.281;  -10.885; 1556.729
498.626;  884.494;   -6.315; 1741.407
499.214; 1036.920;   -7.326; 2016.609
499.801; 1239.747;  -11.906; 2220.633
500.389; 1493.216;  -10.466; 2312.494
500.976; 1823.829;   -5.236; 2744.849
501.564; 2273.167;   -8.936; 3148.565
502.151; 2664.195;  -13.176; 3515.999
502.738; 3128.438;  -10.646; 3971.274
503.326; 3528.007;   -9.525; 4403.796
503.913; 3917.135;  -10.856; 5161.749
504.500; 4258.182;  -11.586; 5986.420
505.088; 4689.277;  -10.336; 6381.201
505.675; 5249.663;   -6.355; 6925.547
506.262; 5936.389;   -9.046; 7619.060
506.849; 6676.769;  -10.416; 8733.969
507.436; 7198.050;  -10.305; 9790.121
508.023; 7801.456;   -5.496; 9985.472
508.610; 8049.884;   -7.856;10434.618
509.197; 8733.809;  -10.097;11198.435
509.784;10152.375;  -10.886;12391.194
510.371;11247.563;   -9.315;13603.713
510.958;12002.968;   -9.936;14426.586
511.545;12756.131;   -9.326;15243.775
512.132;13754.124;  -10.075;15945.876
512.719;14360.430;   -7.796;16340.369
513.305;15370.565;  -10.606;18011.766
513.892;16118.387;  -11.486;19754.971
514.479;17425.695;   -9.126;20967.805
515.066;19034.396;   -6.026;22299.793
515.652;20256.246;   -8.466;22908.660
516.239;21512.238;  -10.886;23798.875
516.825;22708.299;  -11.496;25567.275
517.412;23771.451;   -5.796;28154.959
517.998;24593.236;  -10.506;28344.111
518.585;24710.484;  -10.076;27134.219
519.171;25183.697;   -8.315;27268.576
519.758;26591.012;   -8.596;28964.129
520.344;28603.896;   -8.466;30664.494
520.930;28935.779;  -11.006;32550.605
521.516;30345.131;  -10.495;35422.895
522.103;33001.617;   -5.526;38280.004
522.689;33908.352;   -8.746;37835.117
523.275;33594.871;  -11.376;37288.613
523.861;34772.641;  -11.156;37281.395
524.447;36044.867;   -8.135;37846.949
525.033;35276.707;   -7.896;38321.949
525.619;35479.996;  -12.476;38579.285
526.205;37233.992;   -9.516;40622.875
526.791;40274.465;   -6.926;42258.836
527.377;40295.117;   -8.346;42966.902
527.963;42095.664;   -8.717;42018.949
528.549;40984.707;  -11.016;42476.828
529.135;39495.738;   -8.536;41854.852
529.721;38848.234;   -9.666;41237.711
530.306;38402.117;  -10.066;41259.445
530.892;38334.012;  -11.356;41506.047
531.478;39698.336;   -6.596;43559.613
532.063;42421.270;   -8.836;47695.563
532.649;42945.156;  -10.047;50808.324
533.235;44030.008;   -9.746;51787.500
533.820;45220.148;   -6.566;52145.035
534.406;46522.699;  -10.817;51133.488
534.991;46316.988;   -9.416;49996.805
535.576;44878.934;   -9.036;48882.852
536.162;45422.699;   -6.156;46942.285
536.747;46555.527;  -11.607;45711.746
537.333;50201.492;  -11.787;48510.180
537.918;53836.797;  -12.437;50439.891
538.503;52353.941;   -7.196;50863.711
539.088;48748.461;  -10.556;50906.922
539.673;48837.984;   -8.767;52621.965
540.259;48452.230;  -10.026;52368.094
540.844;45580.137;   -7.416;50879.109
541.429;46547.293;   -9.467;52077.777
542.014;50100.035;   -9.527;52716.695
542.599;50195.375;   -9.946;52363.281
543.184;47299.094;   -7.927;53187.137
543.769;48304.664;   -9.297;54697.605
544.354;47897.309;  -10.127;53913.914
544.938;46724.844;   -9.267;49680.164
545.523;48819.699;   -6.506;47386.277
546.108;51123.141;   -9.787;49151.949
546.693;53530.609;  -11.587;51384.637
547.278;53521.414;  -10.986;51853.254
547.862;50252.020;   -8.206;51173.750
548.447;45636.414;  -10.067;51691.395
549.031;44823.082;   -9.637;52456.703
549.616;49673.293;   -9.926;52714.516
550.201;48907.672;   -6.347;52414.598
550.785;49712.762;   -7.917;52355.059
551.370;49123.203;  -10.867;54589.453
551.954;49081.020;   -9.047;58267.348
552.538;50453.695;   -7.827;59062.176
553.123;48837.984;  -10.287;58115.285
553.707;46281.855;  -12.178;56556.285
554.291;46859.473;   -8.717;56201.668
554.876;48881.484;   -7.457;55335.762
555.460;49614.559;  -10.387;54155.703
556.044;51546.336;   -9.618;53721.484
556.628;49622.027;  -11.567;53731.016
557.212;48107.754;   -8.097;54312.531
557.796;46015.883;  -11.077;53797.773
558.380;46169.473;  -11.108;56145.984
558.964;46946.832;   -9.057;57277.930
559.548;48068.418;   -6.977;56459.641
560.132;45914.648;  -11.457;54434.543
560.716;44733.133;  -11.378;54800.617
561.300;45708.199;   -9.577;57606.945
561.884;46590.742;   -7.127;58972.445
562.467;45124.473;   -7.118;57327.570
563.051;44736.109;  -13.358;54962.434
563.635;45695.723;  -10.178;52594.473
564.219;45768.855;   -7.837;50610.410
564.802;46226.738;  -11.398;49551.180
565.386;46456.250;  -12.788;48370.953
565.969;46437.324;   -9.077;48178.871
566.553;45172.668;   -6.207;49957.305
567.136;45340.160;   -8.568;50369.594
567.720;41522.047;  -11.868;49492.004
568.303;39605.891;   -8.268;50616.352
568.887;39539.500;   -8.698;50727.148
569.470;39831.285;   -6.808;51698.379
570.053;39104.766;  -13.188;52122.078
570.637;37358.219;  -12.037;52536.438
571.220;36659.160;   -8.577;51186.098
571.803;36913.668;   -8.498;51032.762
572.386;39143.973;  -10.498;49609.887
572.969;41858.480;   -9.388;48285.926
573.552;40208.254;   -8.338;47624.285
574.135;38989.512;   -8.518;45498.641
574.718;36343.461;  -13.628;41970.434
575.301;35190.137;  -10.893;41447.137
575.884;34036.813;   -8.158;40923.836
576.467;35207.121;  -10.328;45267.723
577.050;37204.957;  -13.058;48175.543
577.633;39106.734;   -9.458;47729.328
578.216;37992.238;   -8.928;47579.793
578.799;36745.105;   -9.358;47820.996
579.381;35524.820;  -11.388;48115.551
579.964;33679.688;  -11.718;47333.766
580.547;35189.184;   -8.588;46668.969
581.129;36137.383;   -8.859;44466.141
581.712;36781.801;  -10.729;44164.922
582.294;37598.809;  -11.118;46477.855
582.877;37770.551;   -5.218;48244.254
583.459;35515.215;   -8.679;47437.895
584.042;33519.445;  -10.709;46943.219
584.624;33760.523;  -11.669;46792.227
585.206;33211.840;   -8.218;46557.250
585.789;33371.105;  -10.569;45793.773
586.371;36242.613;  -11.859;43836.391
586.953;37317.367;  -10.719;42972.492
587.536;38173.453;   -7.198;42487.211
588.118;38276.836;   -8.720;42086.414
588.700;34597.180;  -10.439;43389.930
589.282;33522.375;   -9.198;43646.039
589.864;34059.574;   -9.199;43438.109
590.446;35248.973;  -11.319;43151.926
591.028;35250.824;  -11.159;42781.867
591.610;34117.992;  -11.779;42839.098
592.192;31251.129;   -7.668;42820.402
592.774;29767.047;  -11.949;40724.277
593.356;28765.055;  -12.129;39874.789
593.937;28182.598;  -10.669;39980.648
594.519;30211.285;   -6.509;42069.633
595.101;32496.029;  -10.849;42976.031
595.683;32685.236;  -11.679;44084.441
596.264;33707.391;   -9.049;43478.797
596.846;33053.688;   -8.849;43803.672
597.427;32456.895;   -9.570;42986.934
598.009;34061.594;  -12.620;42832.219
598.591;34442.461;  -10.039;42580.086
599.172;33564.844;  -10.369;43061.805
599.753;33581.434;   -9.140;41691.469
600.335;35090.602;  -11.430;40692.520
600.916;33661.125;   -9.939;39982.422
601.498;31327.020;   -8.479;40318.617
602.079;29931.469;  -10.920;40670.609
602.660;29754.150;  -11.480;41450.898
603.241;31214.949;  -11.699;41137.738
603.823;30055.779;   -9.579;38868.797
604.404;29617.518;  -10.620;38182.785
604.985;31024.168;  -10.450;38078.047
605.566;30570.580;   -9.129;38056.633
606.147;30501.004;   -7.510;37020.418
606.728;32632.898;  -10.660;37883.359
607.309;31676.611;  -11.740;38748.273
607.890;30927.113;   -9.759;38850.230
608.471;30399.705;   -8.250;37457.918
609.051;29713.668;   -9.240;36066.457
609.632;28665.533;  -12.120;35991.074
610.213;29383.818;   -9.110;37402.641
610.794;30168.447;   -8.030;38383.363
611.374;29506.668;   -8.110;40562.387
611.955;29816.500;  -13.560;38533.727
612.536;31401.104;  -11.400;36951.789
613.116;31129.191;   -8.070;37197.891
613.697;31490.270;  -10.830;38411.125
614.277;29833.029;  -11.641;38673.938
614.858;30772.377;  -13.310;37075.863
615.438;30196.359;   -7.460;35092.906
616.019;27449.014;   -7.601;33666.301
616.599;27968.133;  -12.020;34189.023
617.179;29908.236;  -11.780;36952.047
617.760;30591.023;   -8.570;39582.574
618.340;31634.107;  -11.471;38943.977
618.920;33316.789;  -11.170;37594.156
619.500;33136.297;  -11.071;37866.938
620.080;32256.063;   -7.750;37869.043
620.660;33220.660;  -12.711;36868.617
621.241;34497.484;  -10.211;36352.309
621.821;34598.590;  -10.961;35459.520
622.401;33815.398;   -7.720;35207.414
622.980;32817.078;   -8.981;35980.422
623.560;31326.545;   -9.331;37351.328
624.140;30370.279;   -9.850;34388.582
624.720;25459.451;   -7.451;32368.764
625.300;21702.676;   -9.070;32638.629
625.880;25092.672;  -12.601;34599.035
626.459;29039.037;  -11.751;36831.738
627.039;32197.512;   -9.281;38299.098
627.619;32455.973;   -8.801;38289.574
628.198;30614.635;  -12.071;37220.695
628.778;29555.061;   -9.461;37632.563
629.357;30324.262;   -8.491;38003.012
629.937;30401.217;   -9.721;38402.039
630.516;29692.248;   -9.951;37868.801
631.096;29473.971;  -11.731;35760.410
631.675;32188.967;   -8.572;35225.219
632.254;37747.965;  -11.282;35130.289
632.834;37255.297;  -13.322;35794.570
633.413;35287.059;  -10.301;35788.922
633.992;32374.389;   -8.582;34532.863
634.571;33267.926;   -8.352;33590.113
635.151;36174.230;  -11.912;34943.863
635.730;34761.668;  -10.511;35352.523
636.309;31173.773;   -7.731;35366.605
636.888;28388.887;   -9.952;36165.637
637.467;29002.275;  -11.672;37515.902
638.046;30907.271;   -8.901;39288.695
638.625;33954.137;   -7.912;38279.699
639.204;33776.082;  -10.022;37741.598
639.782;32168.439;  -12.252;38364.551
640.361;28494.730;  -10.041;36740.621
640.940;25556.193;  -11.161;34950.082
641.519;25894.881;   -9.701;34137.398
642.097;28446.217;  -11.271;35654.258
642.676;31650.268;   -8.651;35637.957
643.255;32693.902;   -8.711;36567.074
643.833;31749.969;   -9.581;37809.434
644.412;32147.002;  -13.711;37337.293
644.990;31446.418;  -11.811;37018.531
645.569;31090.697;   -9.411;36518.469
646.147;30113.992;  -10.291;36186.430
646.726;29533.035;  -12.401;36267.688
647.304;30515.250;  -10.411;36647.625
647.882;32476.148;   -9.651;39286.742
648.461;34428.125;   -9.631;39157.703
649.039;32784.723;  -11.881;35412.883
649.617;31984.801;   -9.661;34744.918
650.195;31572.207;   -9.301;35403.098
650.773;30443.625;  -10.511;35053.797
651.352;27810.020;  -11.521;33756.816
651.930;25363.010;  -12.211;31868.773
652.508;23773.410;   -9.171;33121.551
653.086;27724.027;   -9.371;33564.793
653.663;30744.965;  -13.161;34054.668
654.241;29460.635;  -13.031;35693.309
654.819;30933.850;   -9.371;36422.906
655.397;30890.000;  -10.511;38213.484
655.975;30710.301;  -10.371;39507.625
656.553;30794.469;  -10.051;39498.223
657.130;29090.705;  -10.061;40395.480
657.708;28296.313;   -9.561;39242.020
658.286;28478.965;  -11.511;38920.020
658.863;29621.998;  -10.261;40202.898
659.441;32357.795;   -7.531;39677.938
660.018;31841.490;   -9.501;40413.355
660.596;30708.908;  -13.301;39931.414
661.173;32607.836;  -11.211;39604.531
661.750;32903.996;   -9.951;39700.070
662.328;31913.576;   -9.390;39292.809
662.905;31005.691;  -11.330;38235.648
663.482;26571.250;   -9.050;36212.305
664.060;24424.889;   -8.240;35944.945
664.637;27226.576;  -10.050;35170.785
665.214;29046.016;  -11.760;34197.523
665.791;30887.320;  -10.530;34549.520
666.368;29822.775;   -9.690;35118.578
666.945;30335.971;   -9.320;36019.418
667.522;31847.025;  -11.860;36048.438
668.099;31885.141;  -10.770;36243.914
668.676;31089.887;   -6.260;35958.875
669.253;29402.746;   -7.000;37384.730
669.830;29752.705;  -10.190;36779.629
670.407;29650.990;   -9.550;35231.289
670.984;29722.637;   -9.260;35544.270
671.560;30308.428;   -9.280;35466.867
672.137;28991.320;  -11.810;34280.863
672.714;29579.992;  -11.490;34632.863
673.290;30221.451;   -7.740;35135.422
673.867;30251.271;  -10.660;36114.480
674.443;30617.906;  -12.230;36152.859
675.020;29083.805;  -10.450;35327.238
675.596;29865.309;   -9.260;35795.176
676.173;30312.436;  -10.780;35430.355
676.749;29955.328;  -13.690;33549.516
677.326;30053.227;  -11.980;32210.012
677.902;30181.709;   -8.630;32068.871
678.478;29353.180;  -10.730;32583.891
679.054;28768.238;  -10.520;32088.928
679.631;29476.363;  -11.920;30978.848
680.207;30726.020;   -7.490;33160.887
680.783;32212.619;   -9.860;35570.363
681.359;31449.361;  -13.380;36125.184
681.935;30651.865;  -12.480;35240.922
682.511;29691.160;   -7.900;34429.961
683.087;29657.635;   -7.710;34463.680
683.663;29291.240;  -11.480;34648.898
684.239;28430.148;  -14.090;34546.457
684.815;28022.070;   -7.560;35586.375
685.390;28271.295;   -9.910;35821.895
685.966;28754.666;  -11.159;35085.871
686.542;31550.162;  -11.169;34198.230
687.118;33558.840;   -5.959;32847.707
687.693;33802.492;  -10.329;32794.027
688.269;33239.520;  -12.059;33072.367
688.844;31274.592;  -10.909;33141.664
689.420;29243.340;   -8.019;33965.742
689.995;27000.457;   -8.399;34655.523
690.571;25639.131;  -10.949;33576.742
691.146;26132.428;   -9.619;32657.219
691.722;25652.398;   -8.999;32526.979
692.297;25368.406;  -11.589;33014.617
692.872;27341.473;  -11.739;34012.254
693.448;26937.703;  -11.059;34237.434
694.023;26047.010;  -10.139;34142.672
694.598;28174.254;   -9.029;34132.031
695.173;28774.645;  -13.319;34205.250
695.748;28186.582;  -10.169;32882.488
696.323;28062.688;   -8.339;32864.906
696.898;28121.721;   -8.169;33170.004
697.473;27909.205;  -12.309;32432.984
698.048;27430.480;  -10.989;31649.303
698.623;27575.953;   -9.329;30778.141
699.198;29312.639;   -9.849;31140.119
699.773;30308.449;  -12.329;31764.299
700.348;28908.418;  -10.389;31780.816
700.922;28889.330;   -9.269;32046.375
701.497;29332.648;   -9.329;32603.574
702.072;29491.816;  -10.789;34799.871
702.646;28549.910;  -10.839;35793.172
703.221;26320.529;   -9.099;35201.590
703.795;28467.059;  -10.939;34764.527
704.370;29071.670;  -12.859;34307.367
704.944;29117.223;  -11.559;33509.887
705.519;30142.809;   -7.939;31388.584
706.093;31450.160;  -10.499;31340.104
706.668;31830.279;  -11.289;32630.281
707.242;30383.352;  -11.509;32728.779
707.816;28703.066;   -9.639;32947.238
708.390;27211.561;  -11.429;33277.855
708.965;28097.836;  -11.869;33834.336
709.539;28540.785;  -11.689;33709.273
710.113;28952.736;  -10.478;33044.313
710.687;28534.848;  -10.228;31953.992
711.261;26552.098;  -13.698;30505.949
711.835;26182.002;  -13.378;30262.369
712.409;26890.457;   -9.698;31254.447
712.983;28640.469;  -11.898;32754.986
713.557;29693.051;  -15.138;34018.824
714.131;29334.686;  -14.098;34579.625
714.704;28480.652;   -9.958;33890.262
715.278;26154.145;  -10.028;33531.102
715.852;25363.613;  -11.148;33601.660
716.425;26263.674;   -9.068;33515.117
716.999;26858.352;  -10.038;33185.555
717.573;27875.096;   -9.798;33905.996
718.146;29260.125;  -12.378;35199.293
718.720;29029.652;  -11.918;35060.551
719.293;28243.842;   -8.088;34973.230
719.867;31059.760;  -10.888;36394.449
720.440;31087.359;  -11.938;36663.008
721.013;29352.217;  -12.818;35102.426
721.587;27950.141;  -10.298;33985.266
722.160;26604.715;  -10.048;33524.965
722.733;25637.055;  -12.108;32987.043
723.306;26344.307;  -10.818;33066.301
723.880;28436.520;   -8.908;33399.500
724.453;30159.236;   -9.878;33468.297
725.026;29065.936;  -11.188;33816.637
725.599;26432.791;  -11.678;32797.996
726.172;26698.768;   -9.618;33187.434
726.745;27962.561;   -8.258;35136.613
727.318;29522.955;  -12.978;35751.730
727.891;30297.592;  -12.148;35890.430
728.463;30089.813;   -8.968;34822.090
729.036;28973.660;  -10.188;32895.086
729.609;29209.279;  -11.788;31823.225
730.182;26072.904;  -11.788;31445.283
730.754;23524.219;  -10.268;32373.223
731.327;23512.100;   -9.998;33676.820
731.900;23656.691;  -12.228;33417.000
732.472;24952.676;  -13.848;31978.498
733.045;27049.463;   -8.698;30368.777
733.617;27024.164;  -10.607;30574.215
734.190;26647.666;  -11.507;31280.975
734.762;23950.857;  -13.647;31674.412
735.334;22268.572;   -9.767;31247.291
735.907;22553.396;   -9.897;29876.211
736.479;22475.871;  -11.637;29808.488
737.051;22157.266;   -9.567;30233.547
737.623;23331.959;   -8.187;31469.086
738.195;24301.025;  -11.187;31784.225
738.768;26221.689;  -12.337;32120.523
739.340;26259.385;  -12.227;32094.342
739.912;24971.570;  -11.057;31312.680
740.484;23842.746;  -10.207;31946.238
741.056;22746.828;  -10.047;32984.059
741.628;24386.570;  -13.627;33897.715
742.199;26668.963;   -7.177;33213.016
742.771;25030.352;  -10.797;31369.113
743.343;22660.629;  -11.997;31865.473
743.915;21613.318;  -12.867;32388.631
744.487;21836.904;   -7.617;31079.568
745.058;22002.057;   -9.557;30570.107
745.630;22687.914;   -9.877;29970.127
746.201;23669.469;  -14.177;29186.766
746.773;23863.012;   -9.237;28805.723
747.344;23676.148;   -9.847;29591.223
747.916;22185.186;  -11.657;31412.201
748.487;22099.619;  -10.587;32194.898
749.059;23327.648;   -8.707;32533.719
749.630;24386.488;  -10.537;32158.518
750.201;23612.520;  -11.687;30855.395
750.773;21808.971;  -11.647;28622.555
751.344;21714.477;   -7.147;28405.732
751.915;22703.094;   -9.757;28461.551
752.486;22245.658;  -12.427;27842.850
753.057;19989.686;  -12.227;27845.008
753.628;18801.643;  -10.417;27728.107
754.199;19913.697;  -11.767;27381.086
754.770;21081.523;  -11.187;25882.203
755.341;21159.090;  -10.507;25886.184
755.912;21299.832;   -9.387;26050.861
756.483;20576.131;  -10.647;26798.779
757.054;18755.154;  -11.837;27048.238
757.625;17517.906;  -12.716;26294.838
758.195;17442.459;   -9.666;26142.076
758.766;17155.475;   -8.656;26392.234
759.337;17832.391;  -12.856;26334.594
759.907;19602.926;  -13.366;27579.652
760.478;20432.373;   -8.576;28352.770
761.048;19776.313;  -10.526;27325.088
761.619;18944.512;  -11.116;26460.428
762.189;18971.156;  -12.136;26029.826
762.760;19975.053;   -9.456;26430.145
763.330;21207.885;   -7.136;26670.902
763.900;20695.096;  -11.786;26603.021
764.471;17969.744;  -11.546;25542.740
765.041;16666.959;   -8.096;24358.459
765.611;16800.594;   -8.876;23991.297
766.181;17225.336;  -12.196;24470.236
766.751;18037.637;  -11.636;24845.975
767.321;18001.762;  -10.156;24533.633
767.891;16130.815;  -11.766;24916.492
768.461;15483.394;  -14.936;24776.771
769.031;15906.839;  -12.356;24757.988
769.601;17494.668;   -7.526;24181.088
770.171;17503.518;  -10.766;23670.387
770.741;16561.525;  -13.176;22960.045
771.311;16788.258;  -10.616;22917.523
771.880;17241.742;   -9.576;23562.941
772.450;16753.260;  -10.336;24216.500
773.020;16707.771;  -13.516;24140.398
773.589;16398.004;  -13.466;24414.857
774.159;15897.193;   -8.686;23858.717
774.729;15331.153;   -9.476;22942.135
775.298;14837.912;  -13.666;22324.033
775.867;14439.896;  -11.716;21140.313
776.437;14526.001;   -9.906;20838.092
777.006;14210.554;  -12.166;20599.510
777.576;14175.392;  -12.356;20508.809
778.145;14376.176;  -11.646;20732.947
778.714;14271.865;   -8.226;21062.465
779.283;13470.097;   -9.556;20949.664
779.853;12943.510;  -14.116;20508.623
780.422;13273.628;  -11.506;20649.082
780.991;12872.974;   -9.556;21527.520
781.560;11845.094;   -9.095;22632.658
782.129;11645.572;  -12.135;23048.277
782.698;11659.714;  -10.865;23438.555
783.267;11325.654;   -9.335;23267.734
783.836;11314.621;  -11.045;22415.133
784.404;12349.549;  -13.865;20443.152
784.973;12850.975;  -13.095;19699.150
785.542;12697.250;  -11.575;19763.828
786.111;12537.203;   -9.705;20341.408
786.679;12125.021;  -12.105;20207.967
787.248;11903.849;  -12.455;19516.465
787.817;11755.658;  -11.535;18900.363
788.385;11367.187;   -9.765;17879.121
788.954;10809.873;  -14.005;17658.301
789.522;10289.969;  -11.955;17788.879
790.090;10794.103;  -10.135;18118.277
790.659;11258.728;  -10.975;18338.736
791.227;10669.346;  -13.375;18508.615
791.795;11025.850;  -12.375;17898.254
792.364;11411.104;  -10.725;17295.133
792.932;11748.256;   -9.715;16822.051
793.500;11989.065;  -12.675;17040.148
794.068;12196.116;  -13.495;17179.787
794.636;12312.430;  -10.885;16664.246
795.204;11799.407;  -11.045;16524.545
795.772;11880.455;  -13.175;17274.564
796.340;11445.873;  -12.445;17891.002
796.908;11262.070;   -9.735;17648.561
797.476;11197.594;   -9.815;17064.080
798.044;10757.793;  -13.985;16672.777
798.612; 9954.054;  -13.115;17023.996
799.180; 9599.967;  -10.185;16561.615
799.747; 9478.291;   -9.055;15962.773
800.315; 9171.737;  -12.385;15296.992
800.883; 8884.248;  -15.035;14801.771
801.450; 8912.667;  -10.365;14534.430
802.018; 8972.236;   -9.855;14173.248
802.585; 9024.754;  -11.905;14029.547
803.153; 9076.449;  -11.585;13836.846
803.720; 8995.071;   -9.095;13567.324
804.287; 8686.271;   -9.135;13360.622
804.855; 8274.892;  -11.604;13681.981
805.422; 8093.192;  -11.794;13536.560
805.989; 8055.647;  -10.734;13355.958
806.556; 8238.106;  -10.444;13747.896
807.124; 8535.781;  -12.764;13987.376
807.691; 8472.681;  -12.964;14038.674
808.258; 8270.544;  -11.134;14120.152
808.825; 7943.942;   -9.854;13860.111
809.392; 8002.215;  -10.504;13268.790
809.959; 7526.733;  -13.054;12680.389
810.526; 7131.688;   -8.294;12427.308
811.093; 7201.078;   -8.394;12030.105
811.659; 7791.189;  -12.304;11653.664
812.226; 8224.725;  -13.944;11637.183
812.793; 7891.548;  -10.484;11611.521
813.360; 7252.059;  -10.144;11885.181
813.926; 6899.482;  -11.684;12770.539
814.493; 6659.414;  -13.644;12677.638
815.060; 6315.155;   -9.724;11974.336
815.626; 6329.810;   -9.854;11594.715
816.193; 6718.311;  -13.254;11579.474
816.759; 6778.598;  -13.204;11666.972
817.325; 6874.544;   -9.434;11325.530
817.892; 7175.535;  -10.134;11105.369
818.458; 7569.349;  -13.474;10843.928
819.024; 7260.263;  -11.854;10714.406
819.591; 6906.736;  -10.244;10469.165
820.157; 6687.046;  -10.704;10235.523
820.723; 6190.892;  -12.324;10847.563
821.289; 5880.463;   -9.444;11040.980
821.855; 5793.167;   -8.374;10357.100
822.421; 5760.048;  -10.234; 9978.918
822.987; 5697.273;  -13.294; 9754.177
823.553; 5405.708;  -10.884;10065.755
824.119; 5252.375;   -8.884;10036.294
824.685; 5366.184;   -6.784;10029.192
825.251; 5463.634;  -12.004;10199.230
825.816; 5391.543;  -11.474; 9820.189
826.382; 5123.233;   -9.174; 9297.248
826.948; 5300.738;   -9.214; 9381.347
827.513; 5725.036;  -10.774; 9450.726
828.079; 5573.559;  -11.924; 9472.444
828.645; 5016.328;  -10.543; 9292.643
829.210; 4900.324;  -10.533; 9065.341
829.776; 4892.011;  -10.753; 9132.620
830.341; 4750.484;  -10.173; 9092.878
830.906; 4886.415;  -10.743; 9078.557
831.472; 5239.878;  -11.113; 8534.535
832.037; 5036.556;  -10.603; 8677.874
832.602; 4508.997;  -13.323; 8628.692
833.167; 4224.777;  -10.823; 8879.031
833.733; 4160.326;  -10.113; 9189.790
834.298; 4263.298;  -13.583; 9052.608
834.863; 4299.578;  -12.703; 8895.087
835.428; 4262.343;  -10.523; 8824.266
835.993; 4177.085;   -6.963; 8845.385
836.558; 4061.841;  -10.763; 8888.563
837.123; 4168.513;   -9.903; 8966.582
837.688; 4364.475;   -9.913; 8617.860
838.253; 4540.762;  -10.283; 8590.699
838.817; 4730.001;  -12.963; 8443.797
839.382; 4692.361;  -14.243; 8799.356
839.947; 4381.718;  -10.733; 8810.595
840.511; 4072.287;   -9.383; 8796.394
841.076; 3711.841;  -12.563; 8347.231
841.641; 3751.668;  -12.953; 8224.330
842.205; 3854.376;   -7.043; 8223.349
842.770; 3935.131;   -8.163; 8622.107
843.334; 4138.112;  -12.503; 8410.386
843.898; 4149.327;  -11.693; 8337.465
844.463; 4193.338;  -10.203; 8506.283
845.027; 3982.045;   -9.533; 8280.962
845.591; 3772.195;  -13.443; 8231.141
846.156; 3768.124;  -13.143; 7969.179
846.720; 3631.582;   -9.433; 7768.278
847.284; 3489.991;  -11.033; 7630.957
847.848; 3325.837;  -10.403; 7472.395
848.412; 3239.896;  -11.553; 7437.394
848.976; 3284.852;   -8.393; 7674.592
849.540; 3231.718;   -8.713; 7836.011
850.104; 3300.711;  -12.463; 7913.669
850.668; 3639.782;  -12.973; 7694.508
851.232; 3768.214;  -10.793; 7756.887
851.796; 3600.508;  -10.662; 7926.545
852.359; 3294.623;  -13.082; 7827.844
852.923; 3130.318;  -12.192; 7641.163
853.487; 2956.998;  -11.912; 7342.501
854.050; 2880.938;  -10.892; 7042.820
854.614; 3005.680;  -13.992; 7151.338
855.177; 3110.814;  -11.732; 7105.077
855.741; 3169.413;   -8.962; 6989.675
856.304; 3093.382;   -9.442; 6596.634
856.868; 3030.441;  -14.192; 6356.272
857.431; 3132.315;  -12.702; 6468.571
857.995; 3250.879;   -9.942; 6373.210
858.558; 3262.780;   -9.112; 6324.448
859.121; 3008.519;  -12.932; 6408.327
859.684; 2872.616;  -13.442; 6347.886
860.247; 2980.384;  -10.632; 6321.264
860.810; 2977.440;  -11.272; 6301.903
861.374; 2759.115;   -9.832; 6607.881
861.937; 2513.588;  -11.762; 6408.200
862.500; 2481.905;   -9.722; 6572.639
863.062; 2637.546;  -10.512; 6387.297
863.625; 2814.107;  -11.232; 6190.836
864.188; 2973.084;  -14.112; 5807.254
864.751; 3028.239;  -11.302; 5682.413
865.314; 2917.281;  -10.112; 5547.492
865.876; 2740.415;  -12.182; 5500.150
866.439; 2737.384;  -10.722; 5415.909
867.002; 2715.860;   -9.252; 5501.567
867.564; 2510.317;   -9.572; 5413.946
868.127; 2296.968;  -13.142; 5160.325
868.689; 2199.848;  -12.902; 5133.183
869.252; 2130.386;   -9.732; 5252.382
869.814; 2048.757;   -9.432; 5297.141
870.377; 2071.531;  -11.552; 5390.919
870.939; 2144.868;   -9.052; 5599.898
871.501; 2200.235;  -10.982; 5248.336
872.063; 2204.196;  -12.292; 4854.235
872.626; 2165.008;  -14.912; 4817.074
873.188; 2175.626;  -13.112; 4987.732
873.750; 2143.559;  -13.442; 4868.651
874.312; 2049.826;   -9.402; 4779.330
874.874; 1962.565;  -11.062; 4866.348
875.436; 1885.204;  -13.931; 4718.887
875.998; 1880.831;   -9.561; 4660.005
876.560; 1901.793;  -11.321; 4462.964
877.122; 1847.746;  -12.221; 4145.042
877.683; 1755.861;  -12.191; 4056.481
878.245; 1683.237;  -12.101; 3950.740
878.807; 1719.812;   -8.971; 4058.958
879.369; 1743.968;  -12.071; 3954.677
879.930; 1656.252;  -14.621; 3941.495
880.492; 1598.723;  -10.311; 4067.014
881.053; 1574.145;  -10.901; 3859.633
881.615; 1462.713;  -14.411; 3776.071
882.176; 1370.631;  -13.761; 3734.750
882.738; 1335.976;   -9.181; 3678.489
883.299; 1311.651;  -11.791; 3405.407
883.860; 1309.860;  -13.121; 3351.106
884.422; 1316.241;  -11.211; 3394.044
884.983; 1271.837;  -10.091; 3166.443
885.544; 1182.017;   -8.461; 3189.802
886.105; 1106.175;  -12.361; 3160.360
886.666; 1041.695;  -14.141; 3093.059
887.227;  983.707;  -11.361; 2941.957
887.788;  920.683;  -11.401; 2974.836
888.349;  856.000;  -13.791; 2721.214
888.910;  850.968;  -13.191; 2696.493
889.471;  860.008;   -9.881; 2560.172
890.032;  847.125;   -9.881; 2558.190
890.593;  821.883;  -10.371; 2567.669
891.153;  794.260;  -13.301; 2460.307
891.714;  746.588;  -11.431; 2372.046
892.275;  709.724;  -11.291; 2309.505
892.835;  674.156;  -11.471; 2382.543
893.396;  617.915;  -11.541; 2295.502
893.956;  559.912;  -11.181; 2162.420
894.517;  522.343;  -11.741; 2125.439
895.077;  515.177;  -11.671; 2086.978
895.638;  515.415;  -11.311; 2126.316
896.198;  487.980;   -9.831; 1838.275
896.758;  444.749;   -8.421; 1892.813
897.319;  413.541;  -12.351; 1792.232
897.879;  396.326;  -13.511; 1762.751
898.439;  371.913;  -12.001; 1661.149
898.999;  346.886;  -10.180; 1781.468
899.559;  337.171;  -12.030; 1703.347
900.119;  332.225;  -15.710; 1537.525
900.679;  330.243;   -8.900; 1638.384
901.239;  315.972;   -8.340; 1527.902
901.799;  306.018;  -13.910; 1456.441
902.359;  299.393;  -13.460; 1357.140
902.919;  293.409;  -11.490; 1331.118
903.479;  279.997;  -12.110; 1317.257
904.038;  258.219;  -11.720; 1262.595
904.598;  242.967;  -13.610; 1152.034
905.158;  238.785;  -11.040; 1240.893
905.717;  231.250;  -10.900; 1233.691
906.277;  221.380;  -15.080; 1217.330
906.836;  213.150;  -13.380; 1222.408
907.396;  203.749;  -10.780; 1193.047
907.955;  197.063;   -8.500; 1182.526
908.515;  190.325;  -12.760; 1099.364
909.074;  184.885;  -11.900; 1092.863
909.633;  179.040;   -8.950; 1069.121
910.192;  174.200;   -8.770; 1196.460
910.752;  169.276;  -12.390; 1029.960
911.311;  165.415;  -13.680; 1009.780
911.870;  163.373;  -12.370;  971.460
912.429;  164.009;  -10.900; 1094.080
912.988;  162.343;  -11.690; 1081.060
913.547;  157.690;  -13.240;  940.380
914.106;  152.659;  -11.990;  999.420
914.665;  149.418;   -9.990;  984.020
915.224;  147.387;  -12.880; 1035.760
915.782;  148.733;  -12.350;  922.560
916.341;  148.173;   -9.110; 1049.840
916.900;  143.522;   -9.270;  925.260
917.458;  141.898;  -13.240;  884.220
918.017;  142.233;  -13.550;  942.600
918.576;  141.449;  -12.320;  904.440
919.134;  139.380;  -11.490;  837.980
919.693;  137.443;  -13.670;  893.060
920.251;  135.811;  -15.470;  876.500
920.809;  134.677;  -11.290;  839.580
921.368;  133.560;  -10.210;  885.360
921.926;  132.888;  -12.140;  842.940
922.484;  131.389;  -13.080;  903.360
923.042;  130.690;  -11.720;  880.340
923.601;  133.830;   -7.480;  998.680
924.159;  132.663;  -11.570;  935.560
924.717;  129.957;  -13.840;  841.080
925.275;  129.086;  -10.640;  903.240
925.833;  129.387;  -11.540;  779.320
926.391;  129.232;  -12.960;  938.380
926.949;  129.005;  -14.130;  857.680
927.506;  128.205;  -11.750;  903.500
928.064;  128.514;  -10.250;  877.580
928.622;  127.925;  -13.030;  880.100
929.180;  127.459;  -13.400;  814.180
929.737;  128.343;  -10.700;  808.540
930.295;  131.582;  -10.070;  928.480
930.853;  133.127;  -11.960;  849.100
931.410;  134.338;  -13.120;  821.120
931.968;  133.728;  -10.770;  940.660
932.525;  133.294;  -10.680;  909.380
933.082;  133.113;  -13.130;  811.440
933.640;  135.529;  -13.210;  925.900
934.197;  133.269;  -11.060;  886.360
934.754;  132.592;   -9.580;  897.780
935.312;  136.614;  -14.000;  863.340
935.869;  140.666;  -10.710; 1012.980
936.426;  140.262;   -9.860;  872.800
936.983;  140.647;   -9.710;  889.020
937.540;  140.372;  -13.990;  838.280
938.097;  140.064;  -14.040;  940.120
938.654;  140.375;  -10.310;  898.860
939.211;  142.841;  -10.560;  952.480
939.768;  146.056;  -13.900;  915.420
940.324;  149.726;  -14.760;  904.200
940.881;  149.662;  -10.370;  878.500
941.438;  150.130;   -8.260; 1021.200
941.995;  146.155;  -12.540;  992.560
942.551;  145.151;  -14.670;  875.620
943.108;  144.862;  -10.450;  937.920
943.664;  146.325;  -10.750;  869.340
944.221;  149.484;  -11.550; 1088.140
944.777;  147.447;  -14.770;  869.680
945.334;  148.497;  -12.820;  884.840
945.890;  151.153;  -10.130;  946.480
946.446;  150.671;  -13.470;  947.020
947.003;  152.951;  -12.120;  964.940
947.559;  155.023;   -9.980; 1063.040
948.115;  153.245;   -9.080; 1026.540
948.671;  151.342;  -10.830;  967.300
949.227;  148.967;  -12.440;  859.560
949.783;  146.328;  -12.910;  858.900
950.339;  146.826;  -10.270;  991.000
950.895;  146.818;  -13.630; 1023.840
951.451;  148.009;  -15.100;  925.280
952.007;  148.334;  -11.330;  998.540
952.563;  149.197;  -10.580;  937.780
953.118;  147.943;  -13.440;  904.940
953.674;  148.982;  -12.710;  935.780
954.230;  146.999;  -10.350;  949.640
954.785;  145.217;   -9.190;  936.640
955.341;  144.004;  -11.200;  998.160
955.897;  141.156;  -16.560;  834.660
956.452;  142.723;  -12.570;  953.840
957.008;  141.917;   -7.970; 1083.640
957.563;  140.142;  -11.940; 1009.540
958.118;  135.245;  -13.450;  877.700
958.674;  136.170;  -12.030;  946.780
959.229;  136.236;   -9.410; 1013.980
959.784;  133.990;  -12.000;  832.400
960.339;  134.390;  -14.780; 1001.280
960.894;  130.343;   -9.860;  963.760
961.449;  126.978;   -9.970;  859.960
962.004;  126.767;  -10.900; 1212.840
962.559;  122.150;  -13.150;  860.140
963.114;  120.119;  -13.740;  742.480
963.669;  119.841;   -9.820;  915.500
964.224;  118.110;  -13.890;  874.340
964.779;  118.035;  -12.600;  828.420
965.334;  118.078;  -10.950; 1017.860
965.888;  117.758;  -11.170;  875.360
966.443;  120.458;  -12.540;  972.380
966.998;  119.372;  -15.780;  819.460
967.552;  118.896;   -9.760;  908.380
968.107;  114.705;   -9.060;  868.300
968.661;  115.314;  -11.950;  922.440
969.216;  116.267;  -12.800;  856.280
969.770;  116.668;  -11.210;  917.200
970.324;  115.066;  -11.610;  923.140
970.879;  112.419;  -11.370;  947.180
971.433;  110.066;  -12.540;  952.720
971.987;  104.887;  -11.320;  895.340
972.541;  101.106;  -10.720;  917.100
973.095;  100.245;   -9.680; 1009.460
973.649;   99.358;  -11.440;  809.480
974.203;   98.379;  -11.210;  829.040
974.757;   98.559;  -10.240;  855.220
975.311;   98.775;  -13.720;  872.600
975.865;   98.936;  -13.770;  881.820
976.419;   96.406;  -11.690;  857.400
976.973;   96.236;   -9.510;  849.620
977.526;   98.145;  -12.620;  949.920
978.080;   97.604;  -12.010;  796.780
978.634;   98.715;  -10.170;  921.320
979.187;   95.742;   -9.020;  905.400
979.741;   93.764;   -9.820; 1018.380
980.294;   89.195;  -14.870;  789.160
980.848;   87.204;  -12.380;  717.220
981.401;   89.379;  -10.350;  816.540
981.955;   90.815;  -13.720;  844.300
982.508;   90.562;  -11.490;  746.340
983.061;   90.332;  -10.000;  915.260
983.615;   86.218;  -11.480;  798.800
984.168;   83.113;  -13.220;  770.080
984.721;   83.661;  -13.960;  880.760
985.274;   81.869;  -10.870;  867.500
985.827;   80.509;   -9.790;  834.220
986.380;   78.419;  -13.120;  721.340
986.933;   78.476;  -12.450;  864.800
987.486;   76.063;  -10.210;  861.920
988.039;   75.027;   -8.430;  863.100
988.591;   73.253;  -10.520;  893.260
989.144;   71.817;  -14.860;  737.260
989.697;   70.403;  -13.080;  758.740
990.250;   70.760;  -10.150;  858.100
990.802;   69.529;  -13.430;  755.860
991.355;   71.413;  -12.750;  974.880
991.907;   68.858;  -12.040;  864.320
992.460;   66.304;  -11.330;  753.760
993.012;   66.072;  -13.610;  749.540
993.565;   64.323;  -13.460;  711.360
994.117;   65.900;   -9.360;  950.780
994.669;   62.682;  -11.300;  701.320
995.221;   60.617;  -13.540;  791.920
995.774;   59.743;  -13.430;  787.580
996.326;   57.171;  -12.520;  740.220
996.878;   56.945;  -10.950;  838.420
997.430;   54.897;  -14.300;  699.860
997.982;   55.268;  -13.760;  750.140
998.534;   53.880;  -11.530;  739.060
999.086;   51.513;  -10.310;  738.220
999.638;   50.992;  -12.530;  661.380
1000.190;   50.938;  -11.840;  699.320
1000.741;   50.711;  -10.260;  742.700
1001.293;   49.882;   -8.860;  686.020
1001.845;   48.654;  -13.700;  676.640
1002.396;   49.469;  -12.100;  743.400
1002.948;   47.968;  -12.760;  737.400
1003.500;   46.986;  -10.380;  723.780
1004.051;   47.764;  -11.900;  907.580
1004.603;   45.953;  -12.250;  791.820
1005.154;   41.937;  -13.210;  608.980
1005.705;   41.101;  -10.950;  723.960
1006.257;   40.156;  -13.880;  707.220
1006.808;   40.194;  -12.840;  685.460
1007.359;   39.836;  -10.570;  763.240
1007.910;   38.091;   -9.620;  646.640
1008.461;   38.769;  -13.630;  732.940
1009.013;   37.542;  -17.200;  588.340
1009.564;   38.598;  -10.200;  793.520
1010.115;   35.819;  -12.570;  597.040
1010.665;   35.729;  -15.150;  602.160
1011.216;   36.734;  -14.480;  667.920
1011.767;   36.374;  -11.340;  697.920
1012.318;   35.734;   -9.780;  736.980
1012.869;   33.654;  -12.380;  679.000
1013.419;   34.818;  -15.560;  603.120
1013.970;   34.402;  -11.010;  666.640
1014.521;   33.482;  -11.610;  620.620
1015.071;   34.136;  -13.450;  670.380
1015.622;   33.858;  -13.870;  635.460
1016.172;   33.445;  -11.610;  596.820
1016.723;   32.575;  -12.120;  614.380
1017.273;   32.411;  -13.620;  604.160
1017.823;   32.757;  -14.140;  650.340
1018.374;   32.327;  -12.800;  611.760
1018.924;   31.725;  -12.340;  716.880
1019.474;   32.091;  -11.410;  718.880
1020.024;   31.477;  -14.770;  657.580
1020.574;   32.165;   -9.780;  726.160
1021.124;   31.736;   -8.560;  673.580
1021.674;   30.191;  -15.190;  559.120
1022.224;   32.488;  -13.530;  708.940
1022.774;   31.623;  -13.280;  668.820
1023.324;   31.392;  -10.690;  753.520
1023.874;   32.175;  -10.240;  875.760
1024.423;   29.727;  -12.540;  613.700
1024.973;   29.782;  -10.010;  610.760
1025.523;   28.430;  -10.550;  620.960
1026.072;   28.848;  -13.560;  606.420
1026.622;   28.852;  -15.120;  675.740
1027.172;   30.084;  -11.260;  715.660
1027.721;   27.812;  -11.410;  601.220
1028.270;   28.687;  -13.530;  663.400
1028.820;   28.145;  -13.680;  638.080
1029.369;   28.643;  -13.520;  612.700
1029.918;   27.578;  -10.980;  649.840
1030.468;   27.116;  -13.530;  564.780
1031.017;   28.072;  -13.170;  634.800
1031.566;   27.134;  -12.200;  608.900
1032.115;   27.242;   -9.960;  694.500
1032.664;   26.008;  -13.210;  596.480
1033.213;   27.319;  -12.500;  735.420
1033.762;   26.744;  -11.910;  635.620
1034.311;   26.635;   -9.640;  677.220
1034.860;   26.389;  -13.310;  691.000
1035.408;   27.225;  -11.830;  722.720
1035.957;   27.483;  -12.000;  719.540
1036.506;   24.660;  -11.690;  530.800
1037.055;   26.948;  -10.990;  844.320
1037.603;   25.479;  -15.120;  664.000
1038.152;   23.999;  -12.450;  534.760
1038.700;   24.254;  -10.560;  585.740
1039.249;   24.380;  -11.080;  681.220
1039.797;   24.888;  -12.540;  633.360
1040.345;   24.715;  -11.920;  705.420
1040.894;   24.315;  -11.410;  625.300
1041.442;   24.331;  -14.320;  632.200
1041.990;   23.321;  -16.240;  559.160
1042.538;   22.783;  -11.680;  536.180
1043.087;   22.061;  -10.760;  570.860
1043.635;   23.730;  -11.850;  670.500
1044.183;   22.830;  -15.480;  586.400
1044.731;   22.880;  -11.770;  576.000
1045.279;   22.315;  -13.090;  674.920
1045.827;   24.416;  -12.440;  892.400
1046.374;   21.883;  -13.840;  515.420
1046.922;   21.508;  -13.220;  590.580
1047.470;   22.969;  -10.230;  691.300
1048.018;   22.648;  -14.590;  647.960
1048.565;   23.855;  -12.050;  708.600
1049.113;   21.737;  -11.650;  557.000
1049.660;   20.998;  -10.510;  629.660
1050.208;   21.301;  -13.310;  675.640
1050.755;   21.256;  -15.900;  606.580
1051.303;   21.327;  -11.430;  686.820
1051.850;   19.907;   -8.480;  635.120
1052.397;   18.891;  -15.010;  473.960
1052.945;   20.545;  -13.960;  617.760
1053.492;   21.845;  -13.150;  741.840
1054.039;   21.582;   -9.630;  720.180
1054.586;   19.926;  -13.680;  557.240
1055.133;   20.582;  -14.570;  693.140
1055.680;   20.285;  -13.820;  646.620
1056.227;   19.111;  -11.730;  542.780
1056.774;   21.201;  -12.480;  794.980
1057.321;   19.015;  -13.930;  523.260
1057.868;   18.894;  -11.690;  651.320
1058.415;   18.693;   -9.520;  651.980
1058.961;   18.625;  -13.160;  678.940
1059.508;   19.125;  -12.920;  643.820
1060.055;   19.207;  -11.920;  581.780
1060.601;   19.337;  -11.500;  624.300
1061.148;   18.338;  -14.330;  616.820
1061.694;   18.292;  -16.870;  592.580
1062.241;   18.988;  -10.330;  596.320
1062.787;   18.549;  -10.620;  663.140
1063.334;   20.179;  -10.110;  808.560
1063.880;   17.904;  -13.400;  668.360
1064.426;   18.613;  -10.680;  706.820
1064.972;   17.154;   -9.920;  601.340
1065.518;   16.392;  -10.980;  566.640
1066.065;   18.447;  -14.890;  624.460
1066.611;   16.743;  -12.870;  598.800
1067.157;   17.809;  -12.950;  641.860
1067.703;   17.001;  -13.540;  668.480
1068.249;   17.503;  -13.540;  605.220
1068.794;   17.347;  -12.600;  626.880
1069.340;   15.744;  -10.620;  578.960
1069.886;   16.289;  -12.830;  590.700
1070.432;   15.800;  -14.870;  541.720
1070.977;   15.744;  -11.980;  601.080
1071.523;   16.035;   -8.200;  573.060
1072.068;   15.574;  -12.330;  582.000
1072.614;   15.228;  -16.370;  527.760
1073.160;   16.107;  -11.100;  687.040
1073.705;   14.249;  -10.480;  572.520
1074.250;   15.463;  -14.520;  559.900
1074.796;   15.677;  -11.460;  655.160
1075.341;   16.371;  -11.950;  664.100
1075.886;   14.962;  -11.460;  594.240
1076.431;   14.394;  -13.770;  649.880
1076.976;   15.281;  -12.680;  639.220
1077.521;   14.712;  -13.170;  583.080
1078.067;   13.588;  -10.860;  579.400
1078.612;   14.087;  -13.920;  661.620
1079.156;   15.057;  -13.880;  601.540
1079.701;   15.328;  -13.120;  693.260
1080.246;   14.534;   -9.940;  696.300
1080.791;   14.220;  -14.740;  625.020
1081.336;   14.267;  -13.750;  659.320
1081.880;   14.290;  -13.400;  649.680
1082.425;   12.591;  -12.220;  573.480
1082.970;   14.390;  -11.610;  717.040
1083.514;   13.478;  -13.580;  597.000
1084.059;   13.216;  -12.810;  586.720
1084.603;   12.692;  -12.320;  565.840
1085.147;   12.480;  -13.190;  645.220
1085.692;   13.837;  -12.480;  716.800
1086.236;   12.613;  -13.020;  503.140
1086.780;   13.794;   -9.190;  751.440
1087.325;   12.748;  -12.480;  654.620
1087.869;   13.373;  -12.450;  610.700
1088.413;   13.011;  -12.240;  705.040
1088.957;   11.114;   -9.020;  543.400
1089.501;   13.136;  -10.320;  766.640
1090.045;   12.896;  -12.720;  726.480
1090.589;   10.468;  -13.690;  569.920
1091.133;   11.953;  -10.020;  673.340
1091.676;   11.824;  -12.330;  591.940
1092.220;   11.217;  -14.970;  600.920
1092.764;   12.885;  -12.430;  706.960
1093.307;   11.455;   -9.800;  673.780
1093.851;    9.982;  -14.970;  556.540
1094.395;   12.051;  -15.310;  683.140
1094.938;   10.829;  -10.370;  632.520
1095.482;   10.982;  -11.050;  559.800
1096.025;   10.985;  -11.840;  710.880
1096.568;   12.214;  -12.840;  779.280
1097.112;    9.662;  -14.700;  508.180
1097.655;   10.399;   -8.720;  603.000
1098.198;    9.853;  -13.610;  600.180
1098.741;   10.270;  -13.350;  612.860
1099.285;   11.197;  -11.230;  657.300
1099.828;    7.786;  -11.840;  439.400
1100.371;    9.841;  -10.840;  608.160
1100.914;    9.792;  -14.190;  682.660
1101.457;   10.285;  -11.240;  679.900
1101.999;    8.715;  -11.270;  584.680
1102.542;    9.664;  -11.480;  641.440
1103.085;    9.149;  -11.750;  658.500
1103.628;    9.980;  -11.400;  762.060
1104.170;    8.891;  -10.490;  588.280
1104.713;    9.146;  -10.600;  646.700
1105.256;    8.737;  -14.360;  557.440
1105.798;    7.895;  -13.210;  499.980
1106.341;   10.054;  -10.270;  728.900
1106.883;    8.336;  -12.200;  521.340
1107.425;    9.346;  -13.110;  668.180
1107.968;    8.598;  -12.840;  612.380
1108.510;    8.917;   -6.480;  684.960
1109.052;    6.626;  -13.940;  612.620
1109.594;    7.960;  -13.690;  554.440
1110.136;    8.905;  -11.880;  643.220
1110.679;    7.286;   -9.500;  633.080
1111.221;    8.080;  -14.160;  604.460
1111.763;    7.411;  -13.980;  559.220
1112.304;    6.953;  -13.880;  547.140
1112.846;    7.993;  -12.210;  666.240
1113.388;   10.107;  -11.390;  942.180
1113.930;    7.814;  -14.540;  694.200
1114.472;    6.648;  -12.640;  606.540
1115.013;    5.522;  -11.620;  551.280
1115.555;    6.289;  -13.640;  587.100
1116.097;    5.745;  -15.380;  579.480
1116.638;    7.793;  -12.640;  684.600
1117.180;    6.795;   -9.850;  667.740
1117.721;    6.588;  -13.690;  568.580
1118.262;    7.220;  -12.680;  677.960
1118.804;    7.243;  -12.530;  637.340
1119.345;    5.535;  -11.690;  578.400
1119.886;    6.930;  -13.380;  704.040
1120.427;    5.929;  -14.070;  589.020
1120.969;    5.570;  -13.500;  597.920
1121.510;    5.018;  -11.480;  563.060
1122.051;    5.406;  -12.830;  723.580
1122.592;    5.326;  -14.290;  655.420
1123.133;    4.294;  -12.400;  547.940
1123.673;    6.282;  -10.130;  706.480
1124.214;    5.813;  -12.930;  612.460
1124.755;    6.149;  -14.380;  639.460
1125.296;    5.728;  -14.000;  627.320
1125.836;    5.595;  -10.070;  691.500
1126.377;    4.389;  -12.640;  599.660
1126.918;    5.141;  -12.960;  614.980
1127.458;    4.321;  -13.350;  622.220
1127.999;    5.559;  -10.750;  656.980
1128.539;    4.523;  -12.350;  694.240
1129.079;    4.278;  -14.860;  632.720
1129.620;    4.601;  -13.840;  558.100
1130.160;    3.119;  -12.330;  539.480
1130.700;    4.632;  -14.530;  640.840
1131.240;    4.909;  -12.530;  643.700
1131.781;    4.528;  -14.450;  619.680
1132.321;    4.186;   -9.790;  599.120
1132.861;    1.973;  -14.860;  564.200
1133.401;    2.538;  -14.290;  593.940
1133.941;    4.189;  -11.750;  626.280
1134.481;    2.986;   -9.920;  597.580
1135.020;    2.882;  -12.290;  609.160
1135.560;    3.644;  -11.650;  674.940
1136.100;    3.035;  -16.270;  501.160
1136.640;    2.469;  -10.890;  510.480
1137.179;    2.468;  -14.180;  537.960
1137.719;    3.038;  -16.250;  605.400
1138.258;    2.890;  -14.230;  587.360
1138.798;    3.253;   -9.090;  663.780
1139.337;    2.204;  -15.130;  482.840
1139.877;    3.326;  -13.680;  642.360
1140.416;    5.946;  -11.320;  878.060
1140.955;    1.995;  -10.860;  535.380
1141.494;    2.606;  -12.920;  669.280
1142.034;    2.712;  -13.930;  583.520
1142.573;    4.242;  -11.440;  646.280
1143.112;    1.954;  -12.000;  553.480
1143.651;    1.691;  -13.670;  536.480
1144.190;    3.796;  -12.730;  691.640
1144.729;    2.704;  -14.560;  607.420
1145.267;    1.990;  -11.830;  584.900
1145.806;    2.605;  -12.230;  637.040
1146.345;    1.335;  -14.130;  635.020
1146.884;    2.172;  -11.590;  622.500
1147.422;    1.021;  -12.550;  533.060
1147.961;    2.037;  -11.180;  708.460
1148.500;    2.349;  -11.510;  669.720
1149.038;    2.188;  -11.640;  632.500
1149.577;    1.927;  -10.130;  698.640
1150.115;   -0.203;  -13.970;  452.280
1150.653;    1.833;  -14.520;  607.340
1151.192;    2.074;  -12.810;  552.920
1151.730;    1.192;   -9.100;  652.560
1152.268;    0.423;  -12.220;  589.520
1152.806;    0.649;  -14.140;  571.180
1153.344;   -0.538;  -12.350;  577.640
1153.882;    0.630;   -8.980;  600.060
1154.421;   -1.077;  -15.190;  470.620
1154.958;    1.168;  -15.210;  595.240
1155.496;    2.053;  -12.850;  645.280
1156.034;    0.736;   -9.940;  721.880
1156.572;    1.942;  -13.570;  667.060
1157.110;    0.359;  -14.590;  473.940
1157.647;    1.111;  -13.030;  676.960
1158.185;   -0.417;  -12.140;  564.320
1158.723;   -1.586;  -14.390;  509.200
1159.260;    0.290;  -14.090;  701.700
1159.798;    1.340;  -11.920;  658.160
1160.335;    0.201;  -11.110;  631.820

