
Integration time [ms]:   3.882
Averaging Nr. [scans]: 1000
Smoothing Nr. [pixels]: 0
Data measured with spectrometer [name]: 7414430SP
Wave   ;Sample   ;Dark     ;Reference
[nm]   ;[counts] ;[counts] ;[counts] 

288.544;  122.468;   10.292;  793.890
289.143;  125.735;    4.564;  681.602
289.742;  129.279;    6.144;  828.814
290.341;  116.237;    4.396;  789.841
290.940;  107.469;    0.938;  730.702
291.538;  108.393;   -0.684;  881.108
292.137;  107.397;   -2.845;  792.581
292.736;  110.634;   -0.144;  975.101
293.335;  107.341;   -6.352;  735.086
293.934;  109.876;   -7.642;  781.677
294.532;  111.147;   -4.992; 1031.958
295.131;   95.704;   -5.478;  834.394
295.730;   94.431;   -6.549;  809.588
296.328;   92.874;   -9.558;  783.442
296.927;   93.682;   -8.118;  779.652
297.525;   94.949;   -6.908;  781.236
298.124;   85.294;   -9.195;  654.009
298.722;   90.602;   -8.198;  761.933
299.321;   88.241;   -8.817;  708.597
299.919;   85.162;   -7.716;  751.918
300.518;   82.217;  -10.745;  689.338
301.116;   84.027;   -9.647;  691.381
301.715;   84.639;  -10.828;  730.222
302.313;   83.634;   -6.087;  704.943
302.911;   78.050;   -6.824;  733.830
303.509;   83.637;   -8.807;  925.627
304.108;   82.637;   -8.198;  760.383
304.706;   81.530;   -6.218;  801.664
305.304;   75.509;   -7.185;  796.707
305.902;   82.427;   -8.568;  784.484
306.500;   78.458;   -7.737;  728.200
307.098;   76.228;   -6.026;  746.560
307.696;   74.382;   -7.176;  780.432
308.294;   75.742;   -8.656;  731.359
308.892;   77.515;   -6.838;  759.769
309.490;   72.898;   -2.596;  712.161
310.088;   71.023;   -4.485;  788.444
310.686;   75.944;   -3.907;  821.749
311.284;   72.410;   -2.806;  766.040
311.882;   69.966;   -2.845;  731.225
312.480;   66.884;   -3.274;  697.167
313.078;   68.673;   -3.645;  808.331
313.675;   71.161;   -4.997;  691.600
314.273;   64.985;   -0.894;  797.837
314.871;   63.089;   -2.854;  589.829
315.468;   62.455;   -3.644;  652.090
316.066;   65.795;   -3.947;  694.427
316.664;   58.752;   -1.824;  656.351
317.261;   62.549;    1.565;  910.128
317.859;   58.451;   -3.955;  768.735
318.456;   61.051;   -2.886;  830.096
319.054;   56.345;   -0.995;  787.828
319.651;   55.477;   -1.765;  759.928
320.249;   55.366;   -3.685;  810.188
320.846;   53.675;   -3.736;  714.286
321.443;   51.049;   -2.065;  832.135
322.041;   47.817;   -5.635;  812.315
322.638;   45.713;   -5.985;  701.456
323.235;   49.506;   -6.677;  665.683
323.833;   46.147;   -3.497;  740.354
324.430;   41.472;   -6.756;  615.900
325.027;   43.142;   -7.647;  876.855
325.624;   44.316;   -7.598;  644.532
326.221;   41.223;   -5.848;  689.717
326.818;   40.932;   -5.777;  818.332
327.415;   43.747;   -8.769;  748.828
328.012;   43.467;   -6.299;  690.585
328.609;   41.561;   -6.639;  731.389
329.206;   38.239;   -6.358;  778.621
329.803;   38.032;   -8.698;  737.841
330.400;   40.278;   -8.379;  704.260
330.997;   40.614;   -6.178;  817.147
331.594;   37.621;   -5.646;  788.185
332.191;   41.956;   -6.928;  728.722
332.787;   45.166;   -6.057;  844.463
333.384;   41.721;   -6.445;  763.093
333.981;   38.341;   -8.002;  815.687
334.578;   41.894;   -8.443;  708.378
335.174;   44.336;   -6.053;  731.469
335.771;   44.126;   -5.791;  836.456
336.367;   40.968;   -6.570;  710.631
336.964;   42.905;   -6.741;  793.266
337.561;   45.967;   -5.710;  731.112
338.157;   41.274;   -3.928;  911.916
338.754;   35.681;   -5.577;  796.589
339.350;   36.042;   -9.667;  722.493
339.946;   40.566;   -5.269;  773.135
340.543;   31.368;   -4.485;  846.136
341.139;   26.354;   -7.584;  720.836
341.735;   24.139;   -8.553;  772.593
342.332;   23.241;   -4.984;  691.472
342.928;   24.914;   -3.475;  795.394
343.524;   18.778;   -6.653;  761.684
344.120;   16.162;   -7.173;  738.562
344.716;   18.799;   -4.385;  723.717
345.313;   16.467;   -3.565;  795.342
345.909;   11.798;   -7.495;  627.336
346.505;   14.922;   -8.276;  740.247
347.101;   15.383;   -5.697;  827.864
347.697;   15.318;   -4.767;  785.398
348.293;    9.873;   -7.226;  627.244
348.889;   11.008;   -7.547;  745.914
349.485;   11.499;   -9.147;  688.205
350.081;   11.128;   -6.568;  772.592
350.676;    7.395;   -6.516;  691.606
351.272;   11.015;   -7.378;  809.530
351.868;   11.986;   -6.759;  780.497
352.464;    8.556;   -4.798;  723.932
353.059;    5.082;   -7.977;  646.017
353.655;    8.697;   -8.769;  777.063
354.251;    9.804;   -5.920;  759.845
354.846;    3.864;   -7.647;  740.646
355.442;    2.363;   -6.956;  753.071
356.038;    4.140;   -9.928;  751.708
356.633;    4.371;   -7.698;  728.594
357.229;    2.472;   -6.307;  724.757
357.824;    0.990;   -7.647;  703.600
358.420;    0.142;  -10.047;  679.726
359.015;    0.366;   -7.458;  695.357
359.610;    1.881;   -5.748;  763.920
360.206;   -4.778;   -9.346;  603.240
360.801;   -1.443;  -11.268;  646.503
361.396;    1.351;   -8.789;  725.975
361.992;   -3.847;   -6.347;  668.220
362.587;   -5.986;   -6.476;  670.160
363.182;   -3.671;   -9.457;  689.631
363.777;   -2.306;   -7.147;  738.242
364.372;   -3.135;   -5.507;  737.314
364.967;   -6.963;   -6.386;  680.744
365.563;   -2.341;   -7.858;  815.567
366.158;   -4.805;   -8.517;  685.161
366.753;   -5.189;   -8.728;  649.263
367.348;   -5.977;   -7.677;  746.056
367.942;   -5.685;  -10.387;  697.298
368.537;   -6.865;   -7.187;  754.245
369.132;   -6.815;   -8.587;  703.428
369.727;  -11.340;   -8.606;  638.079
370.322;   -9.896;  -10.426;  580.186
370.917;   -9.046;   -5.776;  710.646
371.511;   -6.317;   -6.007;  861.834
372.106;  -10.499;   -6.686;  776.964
372.701;  -13.176;   -9.335;  585.988
373.296;   -7.128;   -6.777;  863.135
373.890;  -12.362;   -7.546;  647.840
374.485;  -14.244;   -8.755;  691.199
375.079;   -8.856;   -9.797;  738.685
375.674;   -8.567;   -6.327;  812.970
376.268;  -13.130;   -9.046;  691.759
376.863;  -19.334;   -7.993;  580.327
377.457;  -12.823;   -9.206;  662.490
378.052;  -13.583;   -5.345;  764.884
378.646;  -15.611;   -5.605;  741.167
379.240;  -15.597;   -6.825;  721.176
379.835;  -14.966;  -10.476;  636.978
380.429;  -16.169;   -8.676;  562.557
381.023;  -15.838;   -4.945;  779.205
381.617;  -18.779;   -8.094;  680.106
382.212;  -14.767;  -10.646;  685.303
382.806;  -13.725;   -8.136;  760.690
383.400;  -17.693;   -7.855;  672.281
383.994;  -18.901;   -8.125;  664.870
384.588;  -14.594;   -7.637;  697.701
385.182;  -13.158;   -7.458;  726.624
385.776;  -14.674;   -6.277;  706.875
386.370;  -18.621;   -7.485;  681.968
386.964;  -16.573;   -9.416;  684.155
387.558;  -14.755;   -8.518;  598.360
388.152;  -18.685;   -7.096;  681.959
388.745;  -16.529;   -7.656;  814.707
389.339;  -15.188;   -8.927;  747.642
389.933;  -13.443;   -9.538;  695.370
390.527;  -15.047;   -5.857;  859.029
391.120;  -21.903;   -9.455;  595.318
391.714;  -18.189;   -9.746;  711.633
392.308;  -14.739;   -7.857;  780.253
392.901;  -18.659;   -9.106;  642.460
393.495;  -20.928;  -10.365;  595.414
394.089;  -18.100;   -9.696;  760.452
394.682;  -18.164;   -7.016;  697.188
395.275;  -18.764;   -8.466;  719.927
395.869;  -20.444;   -8.985;  667.314
396.462;  -18.667;  -11.496;  616.609
397.056;  -13.994;   -7.838;  776.621
397.649;  -19.644;   -6.895;  731.575
398.242;  -16.557;   -5.017;  712.645
398.836;  -15.228;   -8.787;  766.408
399.429;  -16.147;   -8.967;  631.041
400.022;  -20.071;   -8.815;  665.902
400.615;  -17.590;   -6.276;  805.609
401.208;  -16.052;   -8.407;  691.451
401.802;  -18.076;   -7.296;  699.329
402.395;  -18.637;   -7.585;  683.502
402.988;  -20.090;   -8.015;  696.627
403.581;  -16.945;   -9.577;  646.878
404.174;  -13.398;   -7.588;  686.568
404.767;  -17.034;   -7.906;  638.583
405.360;  -20.517;   -7.875;  621.445
405.953;  -13.819;   -8.127;  759.034
406.545;  -12.290;   -7.198;  725.342
407.138;  -17.709;   -8.916;  618.350
407.731;  -16.997;   -9.767;  613.303
408.324;  -12.467;  -10.659;  660.554
408.917;  -13.059;   -8.068;  681.864
409.509;  -15.404;   -9.837;  740.396
410.102;  -17.372;   -8.146;  643.948
410.695;  -11.597;   -7.969;  665.758
411.287;  -11.224;   -8.579;  599.821
411.880;  -12.541;   -6.968;  585.421
412.472;  -15.748;   -9.487;  613.092
413.065;  -12.655;  -10.338;  629.408
413.657;  -10.581;   -9.169;  576.678
414.250;  -10.487;  -10.119;  646.681
414.842;  -12.514;   -9.938;  676.353
415.434;  -10.023;  -10.409;  570.463
416.027;   -6.469;   -9.591;  652.196
416.619;   -8.157;   -7.379;  713.400
417.211;   -9.458;   -9.159;  599.352
417.804;   -4.717;   -9.191;  628.499
418.396;   -8.715;   -8.159;  607.643
418.988;   -5.743;   -6.960;  659.238
419.580;  -10.330;  -11.389;  568.276
420.172;   -7.595;  -13.460;  536.196
420.764;   -2.732;  -10.701;  672.482
421.356;   -4.648;   -8.961;  636.898
421.948;   -5.115;   -9.770;  677.661
422.540;   -0.201;   -8.832;  680.027
423.132;   -0.843;   -8.153;  600.641
423.724;   -4.732;   -8.481;  561.267
424.316;   -2.024;   -9.261;  621.345
424.908;    1.101;   -9.643;  591.517
425.500;    2.312;   -8.663;  647.978
426.092;    2.902;   -8.503;  648.268
426.683;    1.400;  -10.522;  684.836
427.275;    4.663;  -11.734;  641.471
427.867;    6.645;  -10.264;  668.948
428.458;    7.002;   -7.644;  732.344
429.050;    4.460;   -7.853;  680.749
429.642;    6.745;   -8.904;  743.124
430.233;    7.484;  -10.795;  569.356
430.825;    9.116;   -7.665;  724.809
431.416;    6.499;   -8.843;  698.241
432.008;   10.366;   -9.885;  651.723
432.599;   11.086;   -9.966;  656.073
433.190;    7.778;   -9.164;  637.670
433.782;    6.540;   -8.584;  590.395
434.373;   15.421;   -8.296;  884.765
434.964;   14.043;   -9.896;  602.920
435.556;   10.958;   -8.255;  634.537
436.147;   14.028;   -8.075;  758.490
436.738;   14.398;   -9.716;  701.099
437.329;   19.536;   -7.318;  721.723
437.920;   12.475;   -6.694;  666.688
438.511;   11.608;   -9.644;  564.526
439.103;   18.966;   -9.427;  623.998
439.694;   20.953;  -10.748;  681.583
440.285;   22.137;   -7.997;  764.432
440.876;   19.541;  -10.046;  845.738
441.466;   18.646;  -13.467;  575.162
442.057;   25.404;   -9.329;  665.814
442.648;   23.772;   -7.707;  746.255
443.239;   21.669;   -9.017;  620.477
443.830;   26.416;  -10.279;  704.958
444.421;   28.916;  -12.630;  655.474
445.011;   24.475;   -8.697;  693.619
445.602;   24.084;   -7.787;  743.126
446.193;   26.572;  -13.329;  488.117
446.783;   32.501;   -9.171;  640.397
447.374;   27.195;   -7.457;  692.759
447.964;   27.381;   -9.277;  713.770
448.555;   35.524;   -9.041;  822.742
449.145;   33.135;   -8.969;  662.853
449.736;   33.316;   -6.809;  803.179
450.326;   33.624;   -7.229;  713.626
450.917;   37.370;  -11.391;  675.324
451.507;   37.414;   -9.501;  600.661
452.097;   38.142;   -8.460;  746.267
452.688;   38.897;  -10.080;  742.160
453.278;   38.281;  -12.861;  566.840
453.868;   44.456;   -8.372;  793.550
454.458;   40.743;   -8.131;  651.141
455.048;   41.188;   -8.520;  711.783
455.639;   42.568;  -13.632;  567.096
456.229;   46.606;  -10.143;  710.694
456.819;   48.672;   -9.163;  751.158
457.409;   48.667;   -8.652;  773.993
457.999;   51.669;   -9.933;  737.505
458.589;   51.972;  -10.363;  686.606
459.179;   51.687;  -10.633;  717.658
459.769;   48.455;  -12.442;  627.099
460.358;   54.448;   -9.844;  797.262
460.948;   54.209;   -9.924;  689.503
461.538;   55.966;  -10.484;  660.677
462.128;   54.092;  -10.703;  664.934
462.717;   60.611;  -11.486;  710.326
463.307;   63.470;  -10.767;  705.846
463.897;   59.343;   -8.814;  656.942
464.486;   58.852;   -8.182;  837.128
465.076;   63.419;   -9.985;  733.776
465.666;   67.005;  -10.447;  652.900
466.255;   65.398;   -7.754;  785.651
466.845;   63.812;  -10.884;  666.749
467.434;   66.916;  -12.525;  725.873
468.023;   68.311;  -11.456;  658.357
468.613;   65.380;   -9.173;  713.946
469.202;   69.364;   -9.306;  646.507
469.791;   74.197;   -8.917;  737.811
470.381;   76.052;   -9.657;  742.813
470.970;   75.132;   -9.947;  711.099
471.559;   75.173;   -9.256;  733.291
472.148;   78.317;  -13.397;  675.737
472.738;   81.044;   -9.928;  765.466
473.327;   80.350;  -10.897;  637.529
473.916;   78.618;   -8.526;  737.446
474.505;   84.127;  -11.078;  751.703
475.094;   88.165;   -9.559;  806.570
475.683;   86.733;   -8.838;  797.699
476.272;   87.152;  -10.198;  730.632
476.861;   90.409;  -11.489;  706.754
477.449;   97.942;  -10.721;  728.487
478.038;   91.254;   -9.818;  692.513
478.627;   91.255;   -9.887;  714.852
479.216;   98.620;  -10.030;  769.441
479.805;  102.253;   -9.401;  783.375
480.393;  101.601;   -5.739; 1008.945
480.982;  100.114;   -7.838;  874.501
481.571;  106.868;   -9.111;  858.333
482.159;  107.691;  -10.601;  705.386
482.748;  107.345;   -8.500;  821.385
483.336;  111.443;   -9.241;  858.209
483.925;  112.612;  -10.440;  774.373
484.513;  119.294;  -11.063;  758.962
485.102;  116.143;   -9.540;  810.965
485.690;  124.673;   -6.742; 1011.050
486.278;  127.326;   -8.442;  979.329
486.867;  126.958;  -10.472;  809.662
487.455;  128.963;   -8.811;  898.229
488.043;  130.303;  -10.721;  748.361
488.631;  139.998;  -10.393; 1005.079
489.220;  143.387;  -10.843;  908.626
489.808;  143.127;  -10.572;  741.415
490.396;  150.362;  -10.482;  914.645
490.984;  157.639;  -11.542;  830.161
491.572;  168.686;   -8.463;  940.315
492.160;  172.361;   -8.491;  919.081
492.748;  181.348;   -9.681;  884.341
493.336;  201.537;  -10.493; 1019.693
493.924;  227.486;   -9.354;  958.077
494.512;  259.756;   -9.132; 1066.638
495.100;  294.223;   -9.001; 1103.280
495.687;  341.849;  -11.924; 1206.373
496.275;  406.250;  -11.193; 1150.796
496.863;  503.870;   -9.241; 1281.171
497.451;  606.608;  -11.341; 1386.805
498.038;  696.825;  -11.364; 1556.729
498.626;  804.804;   -8.104; 1741.407
499.214;  975.369;   -8.842; 2016.609
499.801; 1154.397;  -10.112; 2220.633
500.389; 1336.822;  -11.953; 2312.494
500.976; 1554.448;  -10.023; 2744.849
501.564; 1851.903;   -8.662; 3148.565
502.151; 2212.678;  -10.531; 3515.999
502.738; 2600.398;  -13.853; 3971.274
503.326; 3112.043;  -10.794; 4403.796
503.913; 3598.558;   -8.663; 5161.749
504.500; 3932.685;  -10.172; 5986.420
505.088; 4283.170;  -13.472; 6381.201
505.675; 5008.755;  -10.924; 6925.547
506.262; 5809.795;   -8.551; 7619.060
506.849; 6679.602;  -10.523; 8733.969
507.436; 7422.080;  -10.834; 9790.121
508.023; 7700.119;   -9.093; 9985.472
508.610; 8074.952;  -10.073;10434.618
509.197; 8703.606;   -9.500;11198.435
509.784;10213.313;  -13.242;12391.194
510.371;10976.245;  -10.964;13603.713
510.958;10955.046;   -9.772;14426.586
511.545;12086.427;   -7.842;15243.775
512.132;12137.794;  -12.184;15945.876
512.719;12317.207;   -9.733;16340.369
513.305;14206.105;   -9.172;18011.766
513.892;15568.636;   -9.581;19754.971
514.479;17287.162;  -10.253;20967.805
515.066;19300.387;   -8.183;22299.793
515.652;20294.967;   -9.253;22908.660
516.239;21255.457;   -9.412;23798.875
516.825;23466.469;  -11.153;25567.275
517.412;23050.068;  -10.263;28154.959
517.998;23050.361;   -8.802;28344.111
518.585;22844.785;  -10.401;27134.219
519.171;23158.906;  -12.744;27268.576
519.758;25842.779;  -11.793;28964.129
520.344;27680.260;   -8.912;30664.494
520.930;26978.436;  -10.901;32550.605
521.516;28008.158;  -12.034;35422.895
522.103;29301.637;  -10.473;38280.004
522.689;31215.885;   -8.311;37835.117
523.275;34227.648;  -10.691;37288.613
523.861;34792.777;  -11.193;37281.395
524.447;35568.309;  -11.484;37846.949
525.033;35618.422;   -7.702;38321.949
525.619;35246.008;  -11.241;38579.285
526.205;36280.434;  -12.152;40622.875
526.791;35781.578;  -11.423;42258.836
527.377;33619.242;   -7.981;42966.902
527.963;34409.777;   -9.450;42018.949
528.549;37742.535;  -11.351;42476.828
529.135;39249.406;  -10.202;41854.852
529.721;38595.738;   -8.672;41237.711
530.306;37624.871;   -9.111;41259.445
530.892;38657.883;  -11.252;41506.047
531.478;40860.027;  -10.432;43559.613
532.063;43418.168;  -10.721;47695.563
532.649;44465.387;   -7.450;50808.324
533.235;44181.316;  -11.811;51787.500
533.820;44592.438;   -9.383;52145.035
534.406;44554.223;   -9.400;51133.488
534.991;44127.203;   -8.861;49996.805
535.576;42056.457;  -10.612;48882.852
536.162;40511.203;   -7.322;46942.285
536.747;42445.883;   -9.360;45711.746
537.333;45708.133;  -10.450;48510.180
537.918;47809.520;  -12.610;50439.891
538.503;48616.918;  -12.132;50863.711
539.088;45599.574;  -10.831;50906.922
539.673;43440.082;  -11.220;52621.965
540.259;45654.621;  -11.481;52368.094
540.844;48073.988;  -11.462;50879.109
541.429;49543.219;   -7.869;52077.777
542.014;50251.602;  -11.859;52716.695
542.599;49701.734;  -11.061;52363.281
543.184;49041.055;  -12.300;53187.137
543.769;48072.461;   -9.369;54697.605
544.354;48118.035;  -12.020;53913.914
544.938;45671.949;  -10.350;49680.164
545.523;43669.828;  -10.841;47386.277
546.108;45360.617;   -8.579;49151.949
546.693;48014.879;   -8.818;51384.637
547.278;49031.266;  -11.331;51853.254
547.862;45689.977;  -10.292;51173.750
548.447;42298.594;   -8.349;51691.395
549.031;43972.602;  -10.838;52456.703
549.616;49185.602;  -11.681;52714.516
550.201;51635.605;  -11.140;52414.598
550.785;50194.852;   -8.649;52355.059
551.370;50562.078;  -11.889;54589.453
551.954;49804.781;  -11.239;58267.348
552.538;50059.262;   -8.850;59062.176
553.123;50596.238;  -10.829;58115.285
553.707;49910.547;   -8.887;56556.285
554.291;48964.602;  -10.430;56201.668
554.876;47466.094;   -9.799;55335.762
555.460;49091.488;  -10.018;54155.703
556.044;50015.656;   -7.307;53721.484
556.628;47105.758;  -12.229;53731.016
557.212;44910.086;   -9.820;54312.531
557.796;44648.957;   -9.109;53797.773
558.380;46585.375;   -9.707;56145.984
558.964;45410.566;  -10.980;57277.930
559.548;45785.543;  -12.010;56459.641
560.132;49697.902;   -7.928;54434.543
560.716;51306.676;  -10.247;54800.617
561.300;50596.789;  -11.250;57606.945
561.884;51037.922;  -10.568;58972.445
562.467;49099.684;   -9.727;57327.570
563.051;48184.785;  -11.847;54962.434
563.635;47233.121;  -10.747;52594.473
564.219;44169.059;  -13.108;50610.410
564.802;41671.973;  -11.417;49551.180
565.386;42926.277;  -10.457;48370.953
565.969;44282.598;   -8.959;48178.871
566.553;43534.480;  -10.328;49957.305
567.136;42555.082;  -10.257;50369.594
567.720;42588.156;  -10.186;49492.004
568.303;43068.266;  -10.027;50616.352
568.887;44028.305;  -10.397;50727.148
569.470;42467.730;   -8.185;51698.379
570.053;41372.273;  -11.596;52122.078
570.637;40344.188;  -11.378;52536.438
571.220;39520.535;   -9.138;51186.098
571.803;38394.473;   -7.675;51032.762
572.386;37329.438;   -8.976;49609.887
572.969;35443.676;  -12.477;48285.926
573.552;36336.172;   -9.767;47624.285
574.135;36864.375;   -8.175;45498.641
574.718;33599.824;  -11.096;41970.434
575.301;31732.779;  -11.966;41447.137
575.884;29865.730;  -12.836;40923.836
576.467;34103.449;   -9.116;45267.723
577.050;34627.563;  -10.536;48175.543
577.633;35269.789;  -11.027;47729.328
578.216;36133.031;   -9.946;47579.793
578.799;36667.801;   -9.645;47820.996
579.381;37389.422;   -9.446;48115.551
579.964;38090.059;  -12.217;47333.766
580.547;38439.484;  -10.586;46668.969
581.129;38739.234;   -8.374;44466.141
581.712;36821.410;  -10.434;44164.922
582.294;35457.984;  -10.896;46477.855
582.877;35609.113;   -8.906;48244.254
583.459;35403.008;   -9.994;47437.895
584.042;35502.871;  -10.084;46943.219
584.624;35762.316;  -13.534;46792.227
585.206;34200.258;  -12.716;46557.250
585.789;33784.684;  -11.614;45793.773
586.371;30455.117;  -10.203;43836.391
586.953;25906.795;  -10.314;42972.492
587.536;24112.621;   -9.776;42487.211
588.118;26155.809;   -9.821;42086.414
588.700;30632.680;  -10.073;43389.930
589.282;32124.902;  -12.395;43646.039
589.864;33156.777;  -11.514;43438.109
590.446;33298.332;  -10.803;43151.926
591.028;32654.758;  -11.043;42781.867
591.610;32976.563;  -13.244;42839.098
592.192;33016.414;  -11.095;42820.402
592.774;31801.318;  -10.823;40724.277
593.356;30859.121;  -11.052;39874.789
593.937;31627.258;  -11.664;39980.648
594.519;35242.055;  -10.454;42069.633
595.101;38051.738;  -10.322;42976.031
595.683;35979.129;  -10.042;44084.441
596.264;32182.609;  -14.334;43478.797
596.846;33278.984;  -10.863;43803.672
597.427;32403.520;   -9.901;42986.934
598.009;31012.805;  -10.911;42832.219
598.591;31998.824;  -10.483;42580.086
599.172;33536.422;   -9.663;43061.805
599.753;34475.676;  -10.631;41691.469
600.335;34584.922;   -9.371;40692.520
600.916;32364.727;  -13.992;39982.422
601.498;31961.156;   -8.352;40318.617
602.079;32345.680;   -8.411;40670.609
602.660;31851.756;  -10.841;41450.898
603.241;31882.365;  -12.963;41137.738
603.823;32341.432;  -11.523;38868.797
604.404;32381.922;  -11.881;38182.785
604.985;33028.852;  -11.721;38078.047
605.566;31804.938;   -9.293;38056.633
606.147;30537.408;  -10.940;37020.418
606.728;32451.313;  -11.840;37883.359
607.309;33668.762;  -11.781;38748.273
607.890;33953.746;  -11.262;38850.230
608.471;32629.395;  -10.111;37457.918
609.051;32368.615;   -7.709;36066.457
609.632;29427.738;  -12.409;35991.074
610.213;29712.814;  -10.811;37402.641
610.794;31484.627;  -11.630;38383.363
611.374;34992.465;   -8.030;40562.387
611.955;34023.703;  -10.809;38533.727
612.536;32799.816;  -10.531;36951.789
613.116;32213.883;  -12.820;37197.891
613.697;33195.359;  -11.419;38411.125
614.277;33522.723;   -9.768;38673.938
614.858;30779.738;  -10.251;37075.863
615.438;27819.842;  -11.981;35092.906
616.019;26099.912;   -8.978;33666.301
616.599;28002.531;  -12.219;34189.023
617.179;30184.178;  -14.170;36952.047
617.760;30955.748;   -9.211;39582.574
618.340;31129.447;   -9.018;38943.977
618.920;31159.869;   -9.249;37594.156
619.500;31130.234;  -12.728;37866.938
620.080;32243.434;  -12.939;37869.043
620.660;33488.520;  -11.586;36868.617
621.241;32702.473;  -11.538;36352.309
621.821;31201.545;  -11.398;35459.520
622.401;29726.102;  -10.179;35207.414
622.980;30290.158;  -11.587;35980.422
623.560;31440.109;  -12.888;37351.328
624.140;29261.328;  -13.149;34388.582
624.720;25081.563;   -9.928;32368.764
625.300;25174.111;  -10.869;32638.629
625.880;27711.145;   -8.617;34599.035
626.459;29191.363;  -12.138;36831.738
627.039;32018.746;  -12.267;38299.098
627.619;34619.777;   -7.476;38289.574
628.198;35640.469;  -11.347;37220.695
628.778;33134.398;  -11.678;37632.563
629.357;30888.715;  -12.438;38003.012
629.937;30575.461;   -9.576;38402.039
630.516;30616.984;  -11.096;37868.801
631.096;31461.623;  -11.828;35760.410
631.675;32535.598;  -11.565;35225.219
632.254;33578.023;  -11.845;35130.289
632.834;35061.473;  -11.545;35794.570
633.413;34252.730;  -10.887;35788.922
633.992;34477.891;  -10.175;34532.863
634.571;34744.926;   -9.704;33590.113
635.151;32999.734;  -10.815;34943.863
635.730;31839.242;  -11.617;35352.523
636.309;32155.754;  -10.836;35366.605
636.888;32710.248;   -9.755;36165.637
637.467;33259.090;  -11.684;37515.902
638.046;33396.852;  -11.987;39288.695
638.625;32686.045;  -10.455;38279.699
639.204;32490.350;  -11.234;37741.598
639.782;33359.723;  -12.023;38364.551
640.361;31559.285;  -11.506;36740.621
640.940;28261.990;  -12.316;34950.082
641.519;26108.205;  -11.616;34137.398
642.097;29272.033;   -9.266;35654.258
642.676;32898.125;  -12.936;35637.957
643.255;33231.434;   -9.966;36567.074
643.833;32934.754;   -8.916;37809.434
644.412;30374.455;  -10.936;37337.293
644.990;30029.018;  -12.176;37018.531
645.569;31438.703;  -12.246;36518.469
646.147;34953.633;  -12.107;36186.430
646.726;37395.043;  -12.937;36267.688
647.304;34452.434;  -12.547;36647.625
647.882;34002.777;  -12.597;39286.742
648.461;33155.152;   -9.427;39157.703
649.039;33221.945;   -8.937;35412.883
649.617;33505.820;  -11.067;34744.918
650.195;31686.156;  -10.657;35403.098
650.773;29326.369;  -10.097;35053.797
651.352;29632.197;  -11.887;33756.816
651.930;29432.693;  -13.557;31868.773
652.508;29122.867;  -11.767;33121.551
653.086;30856.271;  -10.777;33564.793
653.663;33591.988;  -12.067;34054.668
654.241;36843.496;  -14.918;35693.309
654.819;36471.117;  -11.788;36422.906
655.397;34731.516;  -11.268;38213.484
655.975;33045.688;  -11.738;39507.625
656.553;31227.682;  -11.018;39498.223
657.130;29927.172;  -12.848;40395.480
657.708;29037.205;  -10.098;39242.020
658.286;29856.148;  -11.678;38920.020
658.863;31270.002;  -11.498;40202.898
659.441;33359.914;  -11.008;39677.938
660.018;34975.180;  -11.048;40413.355
660.596;36104.586;  -12.058;39931.414
661.173;36902.574;  -14.158;39604.531
661.750;36629.402;  -12.298;39700.070
662.328;36448.996;  -10.699;39292.809
662.905;35943.398;  -12.119;38235.648
663.482;31922.828;  -11.829;36212.305
664.060;28547.850;  -11.009;35944.945
664.637;31944.289;  -10.369;35170.785
665.214;34012.895;  -10.459;34197.523
665.791;32529.408;  -12.599;34549.520
666.368;29597.490;  -12.919;35118.578
666.945;28312.049;  -10.699;36019.418
667.522;30001.174;  -11.359;36048.438
668.099;30708.457;  -13.529;36243.914
668.676;29760.090;  -10.229;35958.875
669.253;29453.859;   -9.279;37384.730
669.830;29139.418;  -11.370;36779.629
670.407;29302.143;  -10.950;35231.289
670.984;30268.793;  -12.850;35544.270
671.560;29502.885;   -8.440;35466.867
672.137;30521.525;  -13.520;34280.863
672.714;31040.393;  -13.620;34632.863
673.290;30580.541;  -10.450;35135.422
673.867;29978.750;  -10.960;36114.480
674.443;30842.535;  -13.300;36152.859
675.020;28710.148;  -12.370;35327.238
675.596;27993.246;  -11.250;35795.176
676.173;28434.355;  -11.080;35430.355
676.749;28399.924;  -13.220;33549.516
677.326;29727.365;  -13.000;32210.012
677.902;29495.045;  -12.701;32068.871
678.478;27893.676;  -12.801;32583.891
679.054;28701.813;   -8.601;32088.928
679.631;29915.039;  -12.631;30978.848
680.207;30768.438;   -9.451;33160.887
680.783;30295.174;  -11.701;35570.363
681.359;30759.027;  -12.701;36125.184
681.935;32422.406;  -13.271;35240.922
682.511;33585.230;  -10.791;34429.961
683.087;31516.850;  -10.791;34463.680
683.663;28497.146;   -8.121;34648.898
684.239;26910.445;  -13.261;34546.457
684.815;28154.029;  -10.581;35586.375
685.390;29690.314;   -9.961;35821.895
685.966;29099.434;  -11.182;35085.871
686.542;28618.465;  -13.512;34198.230
687.118;26851.836;  -11.472;32847.707
687.693;26005.127;  -10.152;32794.027
688.269;26003.977;  -14.442;33072.367
688.844;24740.910;  -11.852;33141.664
689.420;23734.977;  -13.942;33965.742
689.995;25379.971;   -9.702;34655.523
690.571;27262.744;  -11.312;33576.742
691.146;27254.426;  -14.332;32657.219
691.722;27186.344;  -11.192;32526.979
692.297;27817.818;  -10.962;33014.617
692.872;29183.555;  -11.082;34012.254
693.448;30372.957;  -14.732;34237.434
694.023;29734.207;  -12.363;34142.672
694.598;27657.268;  -12.393;34132.031
695.173;28609.000;  -11.023;34205.250
695.748;29877.314;  -12.743;32882.488
696.323;28836.805;  -11.103;32864.906
696.898;28027.717;   -8.123;33170.004
697.473;27769.326;  -12.603;32432.984
698.048;28118.662;  -12.553;31649.303
698.623;29065.805;  -12.573;30778.141
699.198;28797.836;  -12.743;31140.119
699.773;28571.773;  -12.843;31764.299
700.348;28837.053;  -16.683;31780.816
700.922;29824.695;  -11.403;32046.375
701.497;31035.082;  -11.253;32603.574
702.072;30122.500;  -10.044;34799.871
702.646;29303.902;  -13.054;35793.172
703.221;29866.611;  -11.414;35201.590
703.795;29064.822;  -10.644;34764.527
704.370;27465.320;  -13.484;34307.367
704.944;26477.730;  -12.144;33509.887
705.519;26060.977;  -12.024;31388.584
706.093;28150.791;  -11.234;31340.104
706.668;28765.520;   -9.874;32630.281
707.242;27499.373;  -12.404;32728.779
707.816;26107.063;  -10.644;32947.238
708.390;25750.484;  -11.174;33277.855
708.965;25603.178;  -10.324;33834.336
709.539;26278.707;  -12.014;33709.273
710.113;26396.951;  -12.295;33044.313
710.687;28227.473;  -10.965;31953.992
711.261;29861.828;  -13.685;30505.949
711.835;28034.016;  -15.335;30262.369
712.409;26951.822;  -13.785;31254.447
712.983;27070.398;  -10.525;32754.986
713.557;25312.467;  -13.175;34018.824
714.131;25317.631;  -13.245;34579.625
714.704;28121.520;  -13.175;33890.262
715.278;29714.902;  -11.545;33531.102
715.852;28201.406;  -10.975;33601.660
716.425;27187.951;  -10.075;33515.117
716.999;28288.271;  -12.185;33185.555
717.573;30765.402;   -9.685;33905.996
718.146;31018.793;  -10.516;35199.293
718.720;29659.326;  -12.106;35060.551
719.293;28294.666;  -12.386;34973.230
719.867;28558.723;  -12.456;36394.449
720.440;28254.736;  -10.686;36663.008
721.013;28329.633;  -12.596;35102.426
721.587;30210.775;  -13.956;33985.266
722.160;32386.627;   -9.806;33524.965
722.733;32890.453;  -11.676;32987.043
723.306;32037.828;  -14.276;33066.301
723.880;29925.127;  -12.126;33399.500
724.453;27485.258;  -10.156;33468.297
725.026;27157.750;  -12.956;33816.637
725.599;27273.805;  -11.676;32797.996
726.172;27985.533;  -12.337;33187.434
726.745;28417.934;  -11.277;35136.613
727.318;28735.693;  -11.927;35751.730
727.891;27895.166;  -13.607;35890.430
728.463;25540.500;  -11.327;34822.090
729.036;25459.375;  -11.917;32895.086
729.609;26560.439;  -12.697;31823.225
730.182;26765.889;  -11.787;31445.283
730.754;26616.178;  -12.957;32373.223
731.327;27103.387;  -11.017;33676.820
731.900;27150.338;  -12.797;33417.000
732.472;26290.852;  -10.677;31978.498
733.045;25978.223;  -12.797;30368.777
733.617;26139.133;  -13.908;30574.215
734.190;25059.684;  -12.258;31280.975
734.762;25237.385;  -13.438;31674.412
735.334;26487.328;  -11.758;31247.291
735.907;29187.996;  -11.158;29876.211
736.479;31705.098;  -11.258;29808.488
737.051;31439.236;  -10.918;30233.547
737.623;29946.059;  -11.038;31469.086
738.195;31324.926;  -12.188;31784.225
738.768;29242.980;  -11.378;32120.523
739.340;24125.359;  -12.598;32094.342
739.912;22850.121;  -11.568;31312.680
740.484;24251.008;   -9.348;31946.238
741.056;26355.021;  -12.628;32984.059
741.628;27740.684;  -13.349;33897.715
742.199;26965.561;  -11.309;33213.016
742.771;27773.264;  -12.699;31369.113
743.343;29007.877;  -11.919;31865.473
743.915;29305.934;  -11.679;32388.631
744.487;27816.166;  -12.249;31079.568
745.058;25041.453;  -11.119;30570.107
745.630;23493.018;   -9.439;29970.127
746.201;22892.832;  -11.949;29186.766
746.773;22809.854;  -12.639;28805.723
747.344;23881.902;  -11.039;29591.223
747.916;25620.877;  -12.549;31412.201
748.487;24390.922;  -12.659;32194.898
749.059;23094.725;  -13.059;32533.719
749.630;22380.291;  -12.080;32158.518
750.201;21298.994;  -13.100;30855.395
750.773;20661.100;  -15.310;28622.555
751.344;20020.746;  -12.240;28405.732
751.915;20058.400;  -11.960;28461.551
752.486;19403.113;  -13.200;27842.850
753.057;18576.813;  -15.230;27845.008
753.628;20119.346;  -13.130;27728.107
754.199;22416.770;  -12.720;27381.086
754.770;22287.092;  -10.680;25882.203
755.341;21060.965;  -11.010;25886.184
755.912;20902.232;  -12.990;26050.861
756.483;20131.023;  -11.110;26798.779
757.054;19771.891;  -12.190;27048.238
757.625;19692.578;  -13.981;26294.838
758.195;19912.234;  -11.041;26142.076
758.766;20694.168;  -11.861;26392.234
759.337;20839.275;  -11.461;26334.594
759.907;20257.627;  -15.001;27579.652
760.478;19089.658;   -9.681;28352.770
761.048;18391.416;  -12.421;27325.088
761.619;19269.703;  -11.761;26460.428
762.189;19563.420;  -12.391;26029.826
762.760;19142.451;  -10.201;26430.145
763.330;19973.580;  -10.811;26670.902
763.900;20488.998;  -10.261;26603.021
764.471;19338.695;  -13.061;25542.740
765.041;18000.600;  -11.051;24358.459
765.611;17922.805;  -11.032;23991.297
766.181;17974.717;  -10.532;24470.236
766.751;18519.430;  -13.502;24845.975
767.321;19886.504;  -11.392;24533.633
767.891;21913.287;  -11.522;24916.492
768.461;22968.773;  -13.672;24776.771
769.031;20138.117;  -14.652;24757.988
769.601;17464.801;  -10.182;24181.088
770.171;16329.802;  -11.752;23670.387
770.741;15445.349;  -12.272;22960.045
771.311;15510.115;  -13.112;22917.523
771.880;16669.990;  -14.122;23562.941
772.450;17203.627;  -11.782;24216.500
773.020;16913.533;  -12.642;24140.398
773.589;15721.239;  -13.043;24414.857
774.159;15237.236;  -11.783;23858.717
774.729;16387.586;  -13.473;22942.135
775.298;17208.518;  -14.523;22324.033
775.867;16794.197;  -12.013;21140.313
776.437;16027.257;  -12.113;20838.092
777.006;15611.922;  -13.543;20599.510
777.576;16221.561;  -12.523;20508.809
778.145;16405.029;  -12.173;20732.947
778.714;15691.826;  -12.153;21062.465
779.283;15010.499;  -11.833;20949.664
779.853;15230.121;  -13.483;20508.623
780.422;15289.373;  -12.933;20649.082
780.991;14863.237;  -13.173;21527.520
781.560;14712.736;  -10.224;22632.658
782.129;15119.639;  -12.684;23048.277
782.698;15118.749;  -11.284;23438.555
783.267;15120.549;  -11.684;23267.734
783.836;14832.776;  -10.974;22415.133
784.404;14254.926;  -13.534;20443.152
784.973;13524.030;  -16.734;19699.150
785.542;12491.442;  -12.594;19763.828
786.111;12438.202;  -11.644;20341.408
786.679;13575.772;  -11.384;20207.967
787.248;13896.358;  -12.014;19516.465
787.817;12871.790;  -12.804;18900.363
788.385;11634.253;  -11.994;17879.121
788.954;11658.895;  -12.564;17658.301
789.522;12380.869;  -12.225;17788.879
790.090;12455.932;  -13.775;18118.277
790.659;12458.236;  -12.485;18338.736
791.227;13045.031;  -12.295;18508.615
791.795;13573.235;  -13.415;17898.254
792.364;13950.473;  -12.995;17295.133
792.932;13580.287;   -8.365;16822.051
793.500;12657.215;  -11.925;17040.148
794.068;12974.049;  -13.245;17179.787
794.636;13485.112;  -13.815;16664.246
795.204;13381.614;  -13.375;16524.545
795.772;13159.271;  -12.125;17274.564
796.340;12307.329;  -13.855;17891.002
796.908;10755.363;  -13.456;17648.561
797.476;10232.442;  -13.116;17064.080
798.044;10597.276;  -13.226;16672.777
798.612;10766.419;  -11.236;17023.996
799.180;10558.189;  -10.476;16561.615
799.747;10353.761;  -11.746;15962.773
800.315;10171.942;  -12.366;15296.992
800.883; 9586.970;  -14.616;14801.771
801.450; 9753.071;  -11.996;14534.430
802.018;10690.730;  -11.206;14173.248
802.585;11055.951;  -12.466;14029.547
803.153;10302.156;  -12.846;13836.846
803.720; 9723.835;  -12.136;13567.324
804.287; 9988.019;  -10.966;13360.622
804.855; 9972.569;   -9.797;13681.981
805.422; 9080.195;  -13.037;13536.560
805.989; 8523.513;  -12.697;13355.958
806.556; 8960.838;  -11.737;13747.896
807.124; 9633.376;  -11.997;13987.376
807.691; 9227.526;  -13.997;14038.674
808.258; 8738.158;  -10.927;14120.152
808.825; 9046.771;  -13.727;13860.111
809.392; 8977.822;  -11.847;13268.790
809.959; 8947.874;  -14.217;12680.389
810.526; 8973.880;   -8.277;12427.308
811.093; 9298.592;   -9.647;12030.105
811.659; 9285.010;  -10.987;11653.664
812.226; 8457.890;  -13.447;11637.183
812.793; 7842.234;  -14.418;11611.521
813.360; 7984.878;  -13.908;11885.181
813.926; 8547.922;  -12.918;12770.539
814.493; 8627.878;  -14.888;12677.638
815.060; 8107.635;  -12.758;11974.336
815.626; 7882.781;  -13.478;11594.715
816.193; 7863.963;  -13.898;11579.474
816.759; 8006.237;  -13.588;11666.972
817.325; 7990.406;  -12.018;11325.530
817.892; 7659.403;  -14.068;11105.369
818.458; 7765.103;  -13.458;10843.928
819.024; 7540.288;  -11.968;10714.406
819.591; 7245.609;  -11.028;10469.165
820.157; 7295.576;  -12.088;10235.523
820.723; 7302.139;  -12.599;10847.563
821.289; 7008.443;  -10.419;11040.980
821.855; 6863.508;  -10.939;10357.100
822.421; 6847.702;  -12.539; 9978.918
822.987; 6752.125;  -13.259; 9754.177
823.553; 6539.572;  -15.369;10065.755
824.119; 6504.120;  -10.779;10036.294
824.685; 6482.167;   -9.999;10029.192
825.251; 6237.162;  -11.819;10199.230
825.816; 6176.909;  -13.369; 9820.189
826.382; 5979.105;  -12.679; 9297.248
826.948; 5571.741;  -11.199; 9381.347
827.513; 5450.960;  -11.179; 9450.726
828.079; 5506.421;  -13.489; 9472.444
828.645; 5617.531;  -12.500; 9292.643
829.210; 5664.313;  -15.120; 9065.341
829.776; 5627.396;  -12.590; 9132.620
830.341; 5781.185;  -11.540; 9092.878
830.906; 6193.134;  -12.400; 9078.557
831.472; 6072.245;  -12.720; 8534.535
832.037; 5237.776;  -11.490; 8677.874
832.602; 4633.140;  -14.380; 8628.692
833.167; 4536.899;  -12.780; 8879.031
833.733; 4883.697;  -11.100; 9189.790
834.298; 5126.922;  -12.080; 9052.608
834.863; 4843.078;  -13.910; 8895.087
835.428; 4452.801;  -13.470; 8824.266
835.993; 4313.813;  -11.760; 8845.385
836.558; 4545.633;  -12.731; 8888.563
837.123; 4641.475;  -12.431; 8966.582
837.688; 4430.041;  -11.241; 8617.860
838.253; 4313.740;  -13.681; 8590.699
838.817; 4476.517;  -12.531; 8443.797
839.382; 4612.926;  -12.671; 8799.356
839.947; 4705.028;  -11.541; 8810.595
840.511; 4839.049;  -12.021; 8796.394
841.076; 4933.318;  -13.071; 8347.231
841.641; 5159.233;  -11.411; 8224.330
842.205; 5339.201;  -13.671; 8223.349
842.770; 5132.549;  -11.291; 8622.107
843.334; 4840.437;  -12.951; 8410.386
843.898; 4632.183;  -11.221; 8337.465
844.463; 4679.339;  -11.322; 8506.283
845.027; 4597.750;  -11.412; 8280.962
845.591; 4346.962;  -11.512; 8231.141
846.156; 4221.260;  -14.042; 7969.179
846.720; 4252.118;  -12.152; 7768.278
847.284; 4114.068;  -10.922; 7630.957
847.848; 3982.888;  -10.962; 7472.395
848.412; 3783.239;  -14.612; 7437.394
848.976; 3855.627;  -11.492; 7674.592
849.540; 4208.908;   -9.172; 7836.011
850.104; 4393.063;  -11.232; 7913.669
850.668; 4273.199;  -15.182; 7694.508
851.232; 4120.473;  -15.332; 7756.887
851.796; 4023.253;  -13.703; 7926.545
852.359; 4021.231;  -11.113; 7827.844
852.923; 4064.984;  -11.843; 7641.163
853.487; 4051.597;  -11.173; 7342.501
854.050; 3967.565;  -13.443; 7042.820
854.614; 3952.485;  -13.823; 7151.338
855.177; 3891.263;  -16.393; 7105.077
855.741; 3836.407;  -11.693; 6989.675
856.304; 3797.928;  -10.843; 6596.634
856.868; 3650.727;  -13.783; 6356.272
857.431; 3377.146;  -11.953; 6468.571
857.995; 3123.884;  -13.683; 6373.210
858.558; 3120.915;  -11.433; 6324.448
859.121; 3170.648;  -12.493; 6408.327
859.684; 3004.404;  -12.384; 6347.886
860.247; 2669.825;  -14.774; 6321.264
860.810; 2467.092;  -13.154; 6301.903
861.374; 2505.758;  -11.264; 6607.881
861.937; 2589.115;  -15.424; 6408.200
862.500; 2581.495;  -12.854; 6572.639
863.062; 2578.449;  -12.344; 6387.297
863.625; 2617.338;  -13.314; 6190.836
864.188; 2721.496;  -14.724; 5807.254
864.751; 2942.561;  -13.464; 5682.413
865.314; 3288.983;  -11.684; 5547.492
865.876; 3465.281;  -11.104; 5500.150
866.439; 3400.638;  -12.344; 5415.909
867.002; 3188.116;  -13.494; 5501.567
867.564; 2940.412;  -10.935; 5413.946
868.127; 2824.857;  -12.665; 5160.325
868.689; 2804.963;  -14.515; 5133.183
869.252; 2869.759;  -13.425; 5252.382
869.814; 3060.615;  -11.595; 5297.141
870.377; 3103.245;  -12.175; 5390.919
870.939; 2955.016;  -10.265; 5599.898
871.501; 2820.789;  -12.375; 5248.336
872.063; 2726.281;  -14.355; 4854.235
872.626; 2636.973;  -14.435; 4817.074
873.188; 2558.104;  -12.415; 4987.732
873.750; 2559.825;  -14.555; 4868.651
874.312; 2462.556;  -11.185; 4779.330
874.874; 2295.563;  -12.715; 4866.348
875.436; 2239.288;  -13.196; 4718.887
875.998; 2198.671;  -11.426; 4660.005
876.560; 2117.726;   -9.786; 4462.964
877.122; 2080.152;  -12.796; 4145.042
877.683; 2071.620;  -13.226; 4056.481
878.245; 2027.089;  -12.036; 3950.740
878.807; 1999.954;  -11.536; 4058.958
879.369; 1994.493;  -10.806; 3954.677
879.930; 1895.038;  -13.946; 3941.495
880.492; 1747.553;  -11.876; 4067.014
881.053; 1719.050;  -13.216; 3859.633
881.615; 1779.275;  -12.226; 3776.071
882.176; 1784.043;  -12.946; 3734.750
882.738; 1707.970;  -10.736; 3678.489
883.299; 1635.666;  -12.057; 3405.407
883.860; 1597.700;  -12.677; 3351.106
884.422; 1548.346;  -14.097; 3394.044
884.983; 1437.083;  -13.667; 3166.443
885.544; 1286.806;  -10.717; 3189.802
886.105; 1194.765;  -14.357; 3160.360
886.666; 1190.328;  -14.287; 3093.059
887.227; 1194.788;  -14.297; 2941.957
887.788; 1168.999;  -13.137; 2974.836
888.349; 1074.786;  -14.637; 2721.214
888.910;  999.346;  -12.247; 2696.493
889.471;  989.366;  -10.577; 2560.172
890.032;  974.592;  -12.937; 2558.190
890.593;  905.469;  -12.487; 2567.669
891.153;  839.267;  -11.898; 2460.307
891.714;  841.467;  -14.278; 2372.046
892.275;  837.488;  -13.308; 2309.505
892.835;  766.281;  -12.058; 2382.543
893.396;  689.034;  -15.268; 2295.502
893.956;  640.683;  -13.278; 2162.420
894.517;  613.079;  -11.968; 2125.439
895.077;  602.824;  -12.798; 2086.978
895.638;  572.976;  -11.908; 2126.316
896.198;  537.717;  -13.288; 1838.275
896.758;  513.469;  -12.198; 1892.813
897.319;  485.071;  -13.048; 1792.232
897.879;  439.520;  -13.718; 1762.751
898.439;  399.850;  -14.138; 1661.149
898.999;  390.235;  -13.659; 1781.468
899.559;  377.023;  -14.699; 1703.347
900.119;  356.684;  -14.339; 1537.525
900.679;  337.077;  -11.789; 1638.384
901.239;  313.618;  -13.629; 1527.902
901.799;  294.062;  -13.679; 1456.441
902.359;  281.100;  -13.679; 1357.140
902.919;  271.390;  -14.159; 1331.118
903.479;  259.477;  -13.419; 1317.257
904.038;  246.082;  -14.899; 1262.595
904.598;  232.445;  -14.339; 1152.034
905.158;  226.801;  -13.959; 1240.893
905.717;  222.997;  -12.749; 1233.691
906.277;  213.044;  -11.889; 1217.330
906.836;  205.920;  -12.870; 1222.408
907.396;  203.897;  -11.790; 1193.047
907.955;  200.301;  -13.750; 1182.526
908.515;  192.963;  -14.760; 1099.364
909.074;  186.771;  -12.540; 1092.863
909.633;  181.626;  -12.120; 1069.121
910.192;  179.748;  -12.550; 1196.460
910.752;  177.950;  -12.760; 1029.960
911.311;  173.787;  -14.750; 1009.780
911.870;  170.275;  -13.860;  971.460
912.429;  167.810;  -13.480; 1094.080
912.988;  164.098;  -12.370; 1081.060
913.547;  158.733;  -14.670;  940.380
914.106;  156.216;  -12.800;  999.420
914.665;  153.785;  -11.370;  984.020
915.224;  151.696;  -11.430; 1035.760
915.782;  151.803;  -12.260;  922.560
916.341;  152.112;  -12.540; 1049.840
916.900;  149.703;  -12.540;  925.260
917.458;  147.836;  -13.480;  884.220
918.017;  147.311;  -12.470;  942.600
918.576;  147.473;  -13.450;  904.440
919.134;  145.111;  -12.890;  837.980
919.693;  143.670;  -15.480;  893.060
920.251;  140.813;  -14.420;  876.500
920.809;  141.449;  -12.170;  839.580
921.368;  141.178;  -13.650;  885.360
921.926;  139.625;  -12.750;  842.940
922.484;  139.563;  -14.150;  903.360
923.042;  140.624;  -15.100;  880.340
923.601;  144.745;  -10.990;  998.680
924.159;  143.866;  -12.470;  935.560
924.717;  143.369;  -15.640;  841.080
925.275;  144.720;  -12.380;  903.240
925.833;  144.475;  -12.710;  779.320
926.391;  147.035;  -11.200;  938.380
926.949;  146.464;  -16.000;  857.680
927.506;  149.318;  -12.260;  903.500
928.064;  150.658;  -11.300;  877.580
928.622;  151.864;  -13.750;  880.100
929.180;  149.462;  -15.290;  814.180
929.737;  149.354;  -14.500;  808.540
930.295;  150.602;  -10.630;  928.480
930.853;  153.699;  -14.590;  849.100
931.410;  155.824;  -14.450;  821.120
931.968;  159.278;  -14.390;  940.660
932.525;  157.973;  -13.050;  909.380
933.082;  156.391;  -15.620;  811.440
933.640;  159.861;  -15.650;  925.900
934.197;  163.269;  -13.610;  886.360
934.754;  167.993;  -13.320;  897.780
935.312;  172.555;  -13.370;  863.340
935.869;  174.813;  -12.780; 1012.980
936.426;  173.290;  -14.480;  872.800
936.983;  174.310;  -13.180;  889.020
937.540;  175.728;  -15.710;  838.280
938.097;  176.636;  -14.980;  940.120
938.654;  179.947;  -13.060;  898.860
939.211;  181.353;  -12.760;  952.480
939.768;  180.116;  -16.230;  915.420
940.324;  178.400;  -10.940;  904.200
940.881;  177.107;  -12.570;  878.500
941.438;  176.073;  -13.650; 1021.200
941.995;  177.359;  -13.300;  992.560
942.551;  178.489;  -15.800;  875.620
943.108;  178.434;  -14.180;  937.920
943.664;  178.841;  -13.890;  869.340
944.221;  182.145;  -12.640; 1088.140
944.777;  180.707;  -14.700;  869.680
945.334;  181.044;  -13.010;  884.840
945.890;  182.486;  -13.480;  946.480
946.446;  182.433;  -14.920;  947.020
947.003;  179.875;  -13.860;  964.940
947.559;  180.113;  -12.000; 1063.040
948.115;  179.023;  -10.510; 1026.540
948.671;  179.034;  -12.760;  967.300
949.227;  174.168;  -15.390;  859.560
949.783;  169.370;  -15.570;  858.900
950.339;  168.751;  -12.800;  991.000
950.895;  168.236;  -13.780; 1023.840
951.451;  166.680;  -13.810;  925.280
952.007;  167.497;  -12.390;  998.540
952.563;  167.542;  -11.980;  937.780
953.118;  166.009;  -14.070;  904.940
953.674;  167.606;  -14.140;  935.780
954.230;  172.748;  -12.680;  949.640
954.785;  174.757;  -12.770;  936.640
955.341;  171.388;  -11.450;  998.160
955.897;  163.013;  -15.350;  834.660
956.452;  159.457;  -14.200;  953.840
957.008;  155.648;  -10.820; 1083.640
957.563;  153.892;  -13.200; 1009.540
958.118;  152.558;  -14.460;  877.700
958.674;  154.191;  -13.840;  946.780
959.229;  155.266;  -10.670; 1013.980
959.784;  153.212;  -17.040;  832.400
960.339;  155.509;  -12.970; 1001.280
960.894;  160.988;  -12.700;  963.760
961.449;  164.310;  -13.790;  859.960
962.004;  169.264;  -11.760; 1212.840
962.559;  165.012;  -14.840;  860.140
963.114;  161.759;  -14.530;  742.480
963.669;  158.487;  -12.780;  915.500
964.224;  153.623;  -14.330;  874.340
964.779;  148.455;  -14.380;  828.420
965.334;  146.056;  -12.460; 1017.860
965.888;  142.222;  -13.490;  875.360
966.443;  142.173;  -14.140;  972.380
966.998;  139.389;  -16.240;  819.460
967.552;  138.973;  -12.730;  908.380
968.107;  136.920;  -14.510;  868.300
968.661;  136.985;  -11.850;  922.440
969.216;  135.105;  -14.370;  856.280
969.770;  131.032;  -13.010;  917.200
970.324;  130.602;  -12.460;  923.140
970.879;  132.014;  -11.580;  947.180
971.433;  133.257;  -13.130;  952.720
971.987;  131.839;  -12.360;  895.340
972.541;  128.187;  -14.330;  917.100
973.095;  126.521;  -13.310; 1009.460
973.649;  122.197;  -15.830;  809.480
974.203;  123.380;  -15.830;  829.040
974.757;  126.511;  -13.480;  855.220
975.311;  128.458;  -13.720;  872.600
975.865;  127.604;  -15.780;  881.820
976.419;  121.902;  -14.290;  857.400
976.973;  113.233;  -13.210;  849.620
977.526;  103.008;  -12.300;  949.920
978.080;   89.634;  -14.840;  796.780
978.634;   86.531;  -13.100;  921.320
979.187;   82.890;  -12.300;  905.400
979.741;   83.714;  -12.020; 1018.380
980.294;   82.766;  -14.590;  789.160
980.848;   82.575;  -14.390;  717.220
981.401;   85.607;  -14.280;  816.540
981.955;   86.131;  -11.920;  844.300
982.508;   84.210;  -15.790;  746.340
983.061;   86.136;  -12.070;  915.260
983.615;   83.708;  -13.260;  798.800
984.168;   81.948;  -15.540;  770.080
984.721;   82.538;  -13.230;  880.760
985.274;   80.533;  -11.820;  867.500
985.827;   79.913;  -13.510;  834.220
986.380;   78.278;  -14.840;  721.340
986.933;   79.671;  -13.970;  864.800
987.486;   78.374;  -12.450;  861.920
988.039;   77.175;  -11.170;  863.100
988.591;   74.398;  -13.070;  893.260
989.144;   71.686;  -15.530;  737.260
989.697;   71.351;  -14.300;  758.740
990.250;   70.577;  -13.310;  858.100
990.802;   68.437;  -14.490;  755.860
991.355;   70.513;  -12.980;  974.880
991.907;   68.285;  -13.715;  864.320
992.460;   66.056;  -14.450;  753.760
993.012;   64.764;  -12.590;  749.540
993.565;   62.534;  -15.180;  711.360
994.117;   64.594;  -11.630;  950.780
994.669;   61.644;  -13.760;  701.320
995.221;   60.074;  -12.710;  791.920
995.774;   58.306;  -14.620;  787.580
996.326;   57.719;  -13.150;  740.220
996.878;   58.979;  -12.880;  838.420
997.430;   56.626;  -14.580;  699.860
997.982;   55.670;  -14.030;  750.140
998.534;   56.261;  -12.190;  739.060
999.086;   54.045;  -12.990;  738.220
999.638;   52.640;  -13.180;  661.380
1000.190;   52.536;  -14.970;  699.320
1000.741;   52.518;  -12.200;  742.700
1001.293;   51.869;  -13.400;  686.020
1001.845;   51.275;  -14.490;  676.640
1002.396;   51.332;  -15.280;  743.400
1002.948;   50.770;  -12.380;  737.400
1003.500;   49.769;  -13.260;  723.780
1004.051;   51.577;  -13.730;  907.580
1004.603;   49.878;  -12.300;  791.820
1005.154;   46.934;  -15.330;  608.980
1005.705;   46.016;  -12.800;  723.960
1006.257;   44.895;  -13.900;  707.220
1006.808;   43.919;  -14.430;  685.460
1007.359;   43.637;  -12.010;  763.240
1007.910;   42.575;  -12.690;  646.640
1008.461;   42.098;  -13.610;  732.940
1009.013;   40.160;  -14.990;  588.340
1009.564;   41.565;  -11.860;  793.520
1010.115;   39.478;  -12.640;  597.040
1010.665;   39.615;  -14.570;  602.160
1011.216;   39.830;  -15.190;  667.920
1011.767;   39.383;  -13.470;  697.920
1012.318;   39.878;  -13.760;  736.980
1012.869;   38.380;  -15.950;  679.000
1013.419;   37.640;  -15.880;  603.120
1013.970;   38.098;  -14.540;  666.640
1014.521;   37.339;  -13.220;  620.620
1015.071;   37.850;  -15.020;  670.380
1015.622;   36.699;  -17.510;  635.460
1016.172;   36.134;  -14.130;  596.820
1016.723;   36.517;  -14.220;  614.380
1017.273;   36.500;  -15.370;  604.160
1017.823;   35.394;  -15.290;  650.340
1018.374;   35.682;  -13.420;  611.760
1018.924;   35.236;  -11.740;  716.880
1019.474;   35.992;  -12.250;  718.880
1020.024;   34.847;  -15.850;  657.580
1020.574;   35.298;  -13.280;  726.160
1021.124;   35.890;  -13.560;  673.580
1021.674;   33.357;  -13.790;  559.120
1022.224;   34.741;  -14.610;  708.940
1022.774;   33.916;  -13.100;  668.820
1023.324;   35.266;  -11.470;  753.520
1023.874;   35.830;  -11.990;  875.760
1024.423;   32.414;  -14.550;  613.700
1024.973;   33.009;  -14.440;  610.760
1025.523;   32.610;  -13.250;  620.960
1026.072;   31.613;  -15.200;  606.420
1026.622;   31.602;  -14.590;  675.740
1027.172;   33.225;  -11.080;  715.660
1027.721;   31.010;  -14.010;  601.220
1028.270;   31.856;  -13.690;  663.400
1028.820;   31.638;  -15.380;  638.080
1029.369;   30.832;  -14.980;  612.700
1029.918;   31.033;  -13.100;  649.840
1030.468;   30.150;  -13.680;  564.780
1031.017;   31.167;  -13.770;  634.800
1031.566;   29.365;  -14.100;  608.900
1032.115;   31.374;  -11.770;  694.500
1032.664;   29.333;  -14.940;  596.480
1033.213;   30.171;  -13.370;  735.420
1033.762;   29.747;  -13.660;  635.620
1034.311;   29.260;  -13.650;  677.220
1034.860;   28.941;  -13.820;  691.000
1035.408;   29.254;  -12.860;  722.720
1035.957;   29.408;  -13.060;  719.540
1036.506;   27.055;  -14.510;  530.800
1037.055;   30.210;  -13.470;  844.320
1037.603;   27.833;  -14.800;  664.000
1038.152;   26.476;  -14.190;  534.760
1038.700;   27.456;  -11.810;  585.740
1039.249;   27.764;  -12.850;  681.220
1039.797;   27.036;  -14.610;  633.360
1040.345;   26.867;  -15.220;  705.420
1040.894;   26.988;  -13.480;  625.300
1041.442;   26.371;  -13.310;  632.200
1041.990;   25.202;  -14.510;  559.160
1042.538;   25.289;  -15.700;  536.180
1043.087;   25.922;  -13.910;  570.860
1043.635;   26.469;  -13.620;  670.500
1044.183;   24.787;  -14.230;  586.400
1044.731;   25.515;  -13.730;  576.000
1045.279;   25.247;  -13.970;  674.920
1045.827;   28.488;  -10.750;  892.400
1046.374;   23.762;  -15.230;  515.420
1046.922;   23.431;  -15.390;  590.580
1047.470;   25.494;  -12.320;  691.300
1048.018;   24.753;  -13.230;  647.960
1048.565;   26.263;  -13.390;  708.600
1049.113;   24.191;  -15.030;  557.000
1049.660;   24.168;  -12.540;  629.660
1050.208;   24.314;  -15.040;  675.640
1050.755;   23.597;  -14.680;  606.580
1051.303;   24.150;  -13.610;  686.820
1051.850;   23.273;  -14.340;  635.120
1052.397;   20.374;  -16.330;  473.960
1052.945;   22.405;  -15.710;  617.760
1053.492;   24.002;  -12.320;  741.840
1054.039;   24.180;  -13.730;  720.180
1054.586;   21.894;  -16.140;  557.240
1055.133;   23.218;  -14.020;  693.140
1055.680;   23.004;  -13.430;  646.620
1056.227;   21.789;  -14.570;  542.780
1056.774;   23.764;  -14.400;  794.980
1057.321;   20.063;  -14.230;  523.260
1057.868;   21.900;  -14.220;  651.320
1058.415;   21.506;  -14.060;  651.980
1058.961;   22.097;  -14.640;  678.940
1059.508;   20.883;  -13.970;  643.820
1060.055;   20.710;  -15.100;  581.780
1060.601;   21.535;  -12.180;  624.300
1061.148;   20.612;  -15.010;  616.820
1061.694;   20.266;  -14.750;  592.580
1062.241;   21.016;  -14.130;  596.320
1062.787;   21.357;  -14.770;  663.140
1063.334;   22.943;  -13.130;  808.560
1063.880;   21.064;  -14.420;  668.360
1064.426;   20.300;  -13.130;  706.820
1064.972;   19.180;  -13.960;  601.340
1065.518;   18.344;  -13.680;  566.640
1066.065;   19.539;  -15.720;  624.460
1066.611;   18.668;  -13.970;  598.800
1067.157;   18.871;  -13.920;  641.860
1067.703;   19.363;  -14.760;  668.480
1068.249;   18.648;  -14.490;  605.220
1068.794;   18.727;  -14.740;  626.880
1069.340;   18.260;  -13.220;  578.960
1069.886;   18.530;  -14.930;  590.700
1070.432;   17.461;  -14.700;  541.720
1070.977;   17.445;  -14.470;  601.080
1071.523;   17.606;  -14.330;  573.060
1072.068;   17.581;  -14.960;  582.000
1072.614;   16.465;  -16.220;  527.760
1073.160;   18.038;  -11.280;  687.040
1073.705;   17.169;  -15.990;  572.520
1074.250;   17.412;  -16.550;  559.900
1074.796;   17.620;  -14.600;  655.160
1075.341;   18.022;  -13.440;  664.100
1075.886;   16.815;  -14.450;  594.240
1076.431;   17.012;  -13.160;  649.880
1076.976;   16.514;  -14.710;  639.220
1077.521;   16.277;  -14.000;  583.080
1078.067;   15.710;  -14.470;  579.400
1078.612;   16.699;  -14.530;  661.620
1079.156;   16.080;  -15.660;  601.540
1079.701;   16.785;  -16.120;  693.260
1080.246;   16.721;  -12.960;  696.300
1080.791;   15.755;  -13.700;  625.020
1081.336;   16.098;  -15.540;  659.320
1081.880;   16.315;  -14.640;  649.680
1082.425;   15.349;  -14.220;  573.480
1082.970;   16.972;  -11.890;  717.040
1083.514;   14.899;  -13.820;  597.000
1084.059;   14.407;  -14.280;  586.720
1084.603;   14.237;  -12.890;  565.840
1085.147;   14.935;  -13.590;  645.220
1085.692;   15.801;  -14.050;  716.800
1086.236;   13.588;  -14.990;  503.140
1086.780;   15.807;  -12.640;  751.440
1087.325;   15.144;  -15.550;  654.620
1087.869;   14.356;  -14.980;  610.700
1088.413;   14.595;  -13.440;  705.040
1088.957;   12.855;  -12.170;  543.400
1089.501;   14.941;  -12.730;  766.640
1090.045;   14.529;  -14.650;  726.480
1090.589;   12.644;  -14.500;  569.920
1091.133;   13.996;  -12.320;  673.340
1091.676;   13.918;  -16.130;  591.940
1092.220;   12.399;  -13.930;  600.920
1092.764;   14.604;  -12.820;  706.960
1093.307;   13.920;  -11.700;  673.780
1093.851;   11.597;  -15.600;  556.540
1094.395;   13.517;  -13.920;  683.140
1094.938;   12.339;  -16.090;  632.520
1095.482;   12.899;  -13.820;  559.800
1096.025;   14.285;  -12.720;  710.880
1096.568;   13.372;  -12.100;  779.280
1097.112;   10.221;  -15.450;  508.180
1097.655;   12.193;  -14.310;  603.000
1098.198;   10.456;  -14.740;  600.180
1098.741;   11.135;  -15.550;  612.860
1099.285;   11.930;  -12.600;  657.300
1099.828;   10.355;  -15.050;  439.400
1100.371;   10.729;  -14.800;  608.160
1100.914;   11.006;  -16.480;  682.660
1101.457;   12.032;  -12.990;  679.900
1101.999;   10.857;  -14.110;  584.680
1102.542;   11.916;  -11.450;  641.440
1103.085;   10.872;  -13.350;  658.500
1103.628;   12.020;  -13.200;  762.060
1104.170;   10.562;  -12.310;  588.280
1104.713;   10.685;  -14.320;  646.700
1105.256;   10.543;  -16.110;  557.440
1105.798;    8.057;  -15.910;  499.980
1106.341;   11.566;  -12.200;  728.900
1106.883;    9.540;  -14.910;  521.340
1107.425;   10.053;  -14.960;  668.180
1107.968;    9.377;  -13.440;  612.380
1108.510;   10.786;  -14.010;  684.960
1109.052;    8.851;  -15.430;  612.620
1109.594;    8.839;  -15.290;  554.440
1110.136;   10.319;  -13.360;  643.220
1110.679;    8.401;  -13.820;  633.080
1111.221;    9.450;  -13.690;  604.460
1111.763;    8.790;  -14.890;  559.220
1112.304;    8.291;  -14.550;  547.140
1112.846;    9.631;  -12.760;  666.240
1113.388;   12.568;  -10.780;  942.180
1113.930;    9.003;  -12.690;  694.200
1114.472;    8.471;  -15.730;  606.540
1115.013;    7.169;  -14.620;  551.280
1115.555;    7.548;  -14.950;  587.100
1116.097;    7.013;  -16.460;  579.480
1116.638;    8.326;  -13.730;  684.600
1117.180;    8.930;  -13.810;  667.740
1117.721;    7.674;  -13.280;  568.580
1118.262;    8.496;  -15.080;  677.960
1118.804;    8.190;  -14.040;  637.340
1119.345;    7.341;  -15.430;  578.400
1119.886;    8.774;  -15.240;  704.040
1120.427;    7.187;  -15.820;  589.020
1120.969;    6.451;  -14.550;  597.920
1121.510;    6.489;  -14.030;  563.060
1122.051;    7.740;  -11.990;  723.580
1122.592;    6.609;  -16.490;  655.420
1123.133;    5.440;  -15.580;  547.940
1123.673;    8.352;  -12.850;  706.480
1124.214;    6.725;  -13.630;  612.460
1124.755;    7.242;  -14.830;  639.460
1125.296;    7.219;  -13.110;  627.320
1125.836;    7.751;  -11.320;  691.500
1126.377;    6.035;  -14.330;  599.660
1126.918;    6.672;  -12.800;  614.980
1127.458;    5.630;  -13.580;  622.220
1127.999;    7.347;  -10.330;  656.980
1128.539;    6.812;  -13.390;  694.240
1129.079;    5.453;  -16.420;  632.720
1129.620;    5.074;  -15.700;  558.100
1130.160;    4.585;  -14.790;  539.480
1130.700;    6.355;  -12.910;  640.840
1131.240;    6.332;  -15.610;  643.700
1131.781;    5.163;  -12.920;  619.680
1132.321;    4.744;  -15.300;  599.120
1132.861;    4.815;  -14.760;  564.200
1133.401;    4.548;  -15.470;  593.940
1133.941;    5.206;  -13.710;  626.280
1134.481;    4.953;  -11.820;  597.580
1135.020;    3.974;  -14.810;  609.160
1135.560;    4.919;  -13.660;  674.940
1136.100;    3.639;  -13.940;  501.160
1136.640;    4.071;  -15.410;  510.480
1137.179;    3.730;  -16.920;  537.960
1137.719;    4.101;  -16.430;  605.400
1138.258;    3.886;  -16.300;  587.360
1138.798;    5.132;  -13.710;  663.780
1139.337;    3.336;  -13.840;  482.840
1139.877;    4.243;  -16.140;  642.360
1140.416;    7.139;  -11.410;  878.060
1140.955;    3.958;  -12.820;  535.380
1141.494;    4.130;  -12.310;  669.280
1142.034;    3.000;  -16.280;  583.520
1142.573;    4.859;  -13.090;  646.280
1143.112;    3.387;  -13.770;  553.480
1143.651;    3.049;  -15.830;  536.480
1144.190;    4.052;  -15.010;  691.640
1144.729;    3.416;  -13.650;  607.420
1145.267;    3.476;  -13.670;  584.900
1145.806;    3.817;  -13.630;  637.040
1146.345;    3.017;  -14.160;  635.020
1146.884;    3.321;  -11.180;  622.500
1147.422;    2.860;  -15.890;  533.060
1147.961;    4.481;  -12.760;  708.460
1148.500;    3.472;  -15.220;  669.720
1149.038;    3.654;  -13.720;  632.500
1149.577;    3.627;  -13.250;  698.640
1150.115;    0.634;  -16.790;  452.280
1150.653;    2.599;  -15.810;  607.340
1151.192;    2.694;  -14.730;  552.920
1151.730;    2.970;  -13.660;  652.560
1152.268;    2.512;  -15.120;  589.520
1152.806;    1.793;  -15.580;  571.180
1153.344;    1.088;  -16.210;  577.640
1153.882;    2.656;  -12.810;  600.060
1154.421;    1.060;  -14.150;  470.620
1154.958;    1.150;  -15.360;  595.240
1155.496;    2.598;  -14.710;  645.280
1156.034;    2.246;  -13.640;  721.880
1156.572;    2.676;  -13.740;  667.060
1157.110;    0.510;  -16.960;  473.940
1157.647;    2.014;  -11.940;  676.960
1158.185;    1.246;  -14.090;  564.320
1158.723;   -0.084;  -13.610;  509.200
1159.260;    1.790;  -14.760;  701.700
1159.798;    2.121;  -13.700;  658.160
1160.335;    1.578;  -13.820;  631.820

