
Integration time [ms]:   3.276
Averaging Nr. [scans]: 1000
Smoothing Nr. [pixels]: 0
Data measured with spectrometer [name]: 7414430SP
Wave   ;Sample   ;Dark     ;Reference
[nm]   ;[counts] ;[counts] ;[counts] 

288.544;  149.040;    7.793;  793.890
289.143;  154.138;    7.462;  681.602
289.742;  154.236;    8.602;  828.814
290.341;  139.776;    1.321;  789.841
290.940;  127.750;   -0.709;  730.702
291.538;  128.714;    0.881;  881.108
292.137;  129.828;    0.122;  792.581
292.736;  133.698;   -1.929;  975.101
293.335;  129.884;   -8.229;  735.086
293.934;  131.113;   -5.279;  781.677
294.532;  129.812;   -1.369; 1031.958
295.131;  115.259;   -7.641;  834.394
295.730;  115.109;   -8.420;  809.588
296.328;  114.222;   -5.611;  783.442
296.927;  115.551;   -5.781;  779.652
297.525;  116.855;   -6.361;  781.236
298.124;  106.690;  -11.382;  654.009
298.722;  110.052;   -7.641;  761.933
299.321;  107.836;   -6.811;  708.597
299.919;  106.462;   -6.991;  751.918
300.518;  102.947;  -10.362;  689.338
301.116;  104.952;   -9.581;  691.381
301.715;  105.314;   -4.891;  730.222
302.313;  104.457;   -8.801;  704.943
302.911;   98.335;   -8.522;  733.830
303.509;  104.515;   -6.171;  925.627
304.108;  102.349;   -7.311;  760.383
304.706;  101.432;   -8.321;  801.664
305.304;   95.100;  -10.222;  796.707
305.902;  100.892;   -6.021;  784.484
306.500;   96.979;   -4.971;  728.200
307.098;   96.266;   -7.061;  746.560
307.696;   92.609;   -8.801;  780.432
308.294;   93.298;   -6.411;  731.359
308.892;   95.972;   -2.901;  759.769
309.490;   92.298;   -5.041;  712.161
310.088;   90.231;   -5.002;  788.444
310.686;   94.250;   -2.041;  821.749
311.284;   90.544;   -2.351;  766.040
311.882;   87.405;   -4.422;  731.225
312.480;   84.671;   -4.192;  697.167
313.078;   87.077;   -1.172;  808.331
313.675;   87.129;   -2.601;  691.600
314.273;   83.052;   -1.312;  797.837
314.871;   81.092;   -3.942;  589.829
315.468;   79.126;   -2.802;  652.090
316.066;   82.542;   -0.701;  694.427
316.664;   75.583;   -4.362;  656.351
317.261;   79.697;   -2.872;  910.128
317.859;   75.107;   -2.022;  768.735
318.456;   75.104;   -0.531;  830.096
319.054;   71.600;   -3.912;  787.828
319.651;   69.759;   -4.752;  759.928
320.249;   69.348;   -2.602;  810.188
320.846;   67.482;   -0.821;  714.286
321.443;   64.236;   -4.642;  832.135
322.041;   61.395;   -5.002;  812.315
322.638;   58.777;   -3.982;  701.456
323.235;   60.917;   -3.411;  665.683
323.833;   57.459;   -7.361;  740.354
324.430;   53.025;   -8.611;  615.900
325.027;   53.901;   -4.061;  876.855
325.624;   53.946;   -4.031;  644.532
326.221;   51.035;   -7.481;  689.717
326.818;   49.989;   -5.281;  818.332
327.415;   53.173;   -7.460;  748.828
328.012;   53.618;   -5.510;  690.585
328.609;   52.272;   -7.880;  731.389
329.206;   50.201;   -8.331;  778.621
329.803;   49.820;   -5.121;  737.841
330.400;   52.618;   -4.510;  704.260
330.997;   53.667;   -6.441;  817.147
331.594;   51.743;   -8.831;  788.185
332.191;   57.744;   -7.621;  728.722
332.787;   60.290;   -4.591;  844.463
333.384;   59.525;   -7.412;  763.093
333.981;   57.217;   -8.293;  815.687
334.578;   60.310;   -7.052;  708.378
335.174;   64.254;   -3.102;  731.469
335.771;   63.503;   -5.943;  836.456
336.367;   59.822;   -7.393;  710.631
336.964;   62.996;   -4.063;  793.266
337.561;   61.434;   -3.813;  731.112
338.157;   58.364;   -4.654;  911.916
338.754;   55.398;   -7.934;  796.589
339.350;   53.362;   -4.414;  722.493
339.946;   55.190;   -4.664;  773.135
340.543;   47.263;   -6.375;  846.136
341.139;   41.220;   -9.815;  720.836
341.735;   39.656;   -4.526;  772.593
342.332;   38.070;   -4.895;  691.472
342.928;   38.972;   -4.295;  795.394
343.524;   32.452;   -5.476;  761.684
344.120;   29.176;   -5.856;  738.562
344.716;   32.174;   -2.155;  723.717
345.313;   29.838;   -6.275;  795.342
345.909;   24.645;   -8.815;  627.336
346.505;   26.572;   -5.305;  740.247
347.101;   27.889;   -2.674;  827.864
347.697;   27.300;   -4.344;  785.398
348.293;   21.894;   -9.975;  627.244
348.889;   23.278;   -5.774;  745.914
349.485;   22.914;   -5.004;  688.205
350.081;   23.661;   -4.704;  772.592
350.676;   18.303;   -6.635;  691.606
351.272;   22.559;   -4.504;  809.530
351.868;   21.316;   -3.914;  780.497
352.464;   19.242;   -9.044;  723.932
353.059;   14.963;   -8.314;  646.017
353.655;   19.017;   -7.024;  777.063
354.251;   20.155;   -5.343;  759.845
354.846;   14.522;   -8.604;  740.646
355.442;   12.182;   -6.945;  753.071
356.038;   15.047;   -7.564;  751.708
356.633;   14.111;   -5.814;  728.594
357.229;   12.405;   -7.364;  724.757
357.824;   10.187;   -8.024;  703.600
358.420;    9.264;   -9.384;  679.726
359.015;   10.112;   -5.104;  695.357
359.610;   10.917;   -6.854;  763.920
360.206;    4.768;  -10.185;  603.240
360.801;    8.425;   -7.054;  646.503
361.396;   10.214;   -5.034;  725.975
361.992;    5.574;   -8.284;  668.220
362.587;    2.669;   -8.625;  670.160
363.182;    4.706;   -7.674;  689.631
363.777;    5.600;   -5.164;  738.242
364.372;    5.066;   -8.604;  737.314
364.967;    0.831;   -9.055;  680.744
365.563;    6.073;   -6.114;  815.567
366.158;    2.603;   -5.814;  685.161
366.753;    3.248;   -7.854;  649.263
367.348;    1.632;   -7.804;  746.056
367.942;    0.779;   -7.954;  697.298
368.537;    1.207;   -4.984;  754.245
369.132;    1.228;   -8.564;  703.428
369.727;   -3.552;   -8.855;  638.079
370.322;   -2.257;   -6.245;  580.186
370.917;   -2.267;   -6.425;  710.646
371.511;    0.845;   -6.294;  861.834
372.106;   -3.311;   -7.685;  776.964
372.701;   -5.881;   -7.335;  585.988
373.296;   -0.174;   -4.564;  863.135
373.890;   -4.850;  -10.235;  647.840
374.485;   -7.434;   -7.885;  691.199
375.079;   -3.557;   -7.324;  738.685
375.674;   -1.601;   -3.494;  812.970
376.268;   -6.075;   -8.525;  691.759
376.863;  -12.687;  -10.086;  580.327
377.457;   -6.240;   -7.025;  662.490
378.052;   -7.931;   -3.585;  764.884
378.646;   -8.597;   -7.595;  741.167
379.240;   -9.136;   -8.335;  721.176
379.835;   -8.269;   -5.785;  636.978
380.429;  -10.186;   -4.335;  562.557
381.023;   -9.549;   -6.805;  779.205
381.617;  -12.920;   -9.195;  680.106
382.212;   -8.522;   -6.905;  685.303
382.806;   -7.220;   -3.745;  760.690
383.400;  -11.925;   -7.745;  672.281
383.994;  -13.827;   -9.765;  664.870
384.588;   -9.241;   -6.564;  697.701
385.182;   -8.632;   -5.344;  726.624
385.776;   -9.938;   -8.514;  706.875
386.370;  -13.296;   -9.555;  681.968
386.964;  -11.752;   -8.715;  684.155
387.558;  -10.060;   -6.174;  598.360
388.152;  -13.456;   -8.725;  681.959
388.745;  -12.955;   -7.965;  814.707
389.339;  -10.687;   -5.924;  747.642
389.933;   -8.649;   -5.524;  695.370
390.527;  -10.357;   -7.114;  859.029
391.120;  -17.057;  -10.725;  595.318
391.714;  -14.158;   -8.035;  711.633
392.308;   -9.820;   -3.574;  780.253
392.901;  -14.314;   -7.245;  642.460
393.495;  -16.410;   -9.285;  595.414
394.089;  -13.679;   -5.895;  760.452
394.682;  -13.705;   -4.295;  697.188
395.275;  -15.121;   -9.875;  719.927
395.869;  -16.732;   -8.485;  667.314
396.462;  -14.636;   -7.455;  616.609
397.056;  -10.574;   -5.424;  776.621
397.649;  -15.372;   -6.605;  731.575
398.242;  -13.512;   -8.224;  712.645
398.836;  -12.387;   -7.474;  766.408
399.429;  -12.384;   -7.094;  631.041
400.022;  -16.693;   -9.475;  665.902
400.615;  -14.441;   -7.145;  805.609
401.208;  -12.661;   -7.174;  691.451
401.802;  -14.856;   -5.515;  699.329
402.395;  -16.109;   -9.875;  683.502
402.988;  -16.944;   -8.845;  696.627
403.581;  -13.779;   -8.874;  646.878
404.174;  -11.199;   -5.324;  686.568
404.767;  -14.372;   -9.575;  638.583
405.360;  -16.950;  -10.965;  621.445
405.953;  -11.527;   -8.764;  759.034
406.545;  -10.664;   -7.514;  725.342
407.138;  -14.907;  -10.025;  618.350
407.731;  -14.709;  -10.034;  613.303
408.324;   -9.419;   -9.374;  660.554
408.917;  -10.658;   -6.534;  681.864
409.509;  -12.619;   -8.004;  740.396
410.102;  -14.964;   -9.875;  643.948
410.695;   -8.217;   -8.604;  665.758
411.287;   -9.266;   -6.794;  599.821
411.880;  -10.954;   -9.334;  585.421
412.472;  -14.261;  -10.254;  613.092
413.065;  -10.879;   -6.714;  629.408
413.657;   -8.023;   -7.234;  576.678
414.250;   -8.876;  -10.544;  646.681
414.842;  -10.916;   -9.744;  676.353
415.434;   -8.435;   -6.994;  570.463
416.027;   -3.909;   -5.893;  652.196
416.619;   -6.140;   -7.264;  713.400
417.211;   -7.234;  -10.374;  599.352
417.804;   -3.275;   -7.993;  628.499
418.396;   -6.840;   -7.234;  607.643
418.988;   -4.987;   -9.443;  659.238
419.580;   -8.728;  -10.724;  568.276
420.172;   -6.400;  -10.323;  536.196
420.764;   -1.602;   -8.793;  672.482
421.356;   -3.072;  -11.143;  636.898
421.948;   -4.424;   -8.293;  677.661
422.540;    0.590;   -7.893;  680.027
423.132;    0.463;   -7.082;  600.641
423.724;   -2.907;   -8.653;  561.267
424.316;   -1.464;  -10.213;  621.345
424.908;    2.314;   -9.762;  591.517
425.500;    3.000;   -5.572;  647.978
426.092;    3.995;   -8.422;  648.268
426.683;    1.658;   -9.283;  684.836
427.275;    5.356;   -7.852;  641.471
427.867;    6.404;   -5.272;  668.948
428.458;    7.645;   -7.682;  732.344
429.050;    5.335;  -10.612;  680.749
429.642;    8.312;   -9.882;  743.124
430.233;    9.067;   -6.962;  569.356
430.825;    9.298;   -6.842;  724.809
431.416;    6.255;   -9.672;  698.241
432.008;   10.552;   -6.552;  651.723
432.599;   11.532;   -6.891;  656.073
433.190;    8.475;  -10.912;  637.670
433.782;    7.639;  -11.172;  590.395
434.373;   14.850;   -6.061;  884.765
434.964;   13.360;   -8.251;  602.920
435.556;   11.459;   -9.722;  634.537
436.147;   13.777;   -9.082;  758.490
436.738;   14.317;   -8.041;  701.099
437.329;   19.891;   -7.341;  721.723
437.920;   13.235;   -8.162;  666.688
438.511;   11.892;  -11.802;  564.526
439.103;   18.871;  -10.191;  623.998
439.694;   20.891;   -7.601;  681.583
440.285;   21.752;   -8.541;  764.432
440.876;   19.066;   -9.751;  845.738
441.466;   18.982;   -9.401;  575.162
442.057;   24.769;   -7.760;  665.814
442.648;   22.810;   -9.971;  746.255
443.239;   20.124;  -11.001;  620.477
443.830;   26.455;   -7.990;  704.958
444.421;   28.424;   -7.910;  655.474
445.011;   24.680;   -8.131;  693.619
445.602;   23.774;   -7.111;  743.126
446.193;   24.698;  -10.920;  488.117
446.783;   31.389;   -6.500;  640.397
447.374;   26.187;   -8.671;  692.759
447.964;   25.791;  -10.781;  713.770
448.555;   34.896;   -9.650;  822.742
449.145;   32.070;   -8.660;  662.853
449.736;   32.113;   -8.990;  803.179
450.326;   32.163;   -9.500;  713.626
450.917;   36.585;   -8.680;  675.324
451.507;   36.951;   -7.520;  600.661
452.097;   36.941;   -8.590;  746.267
452.688;   37.913;  -11.340;  742.160
453.278;   37.150;  -10.100;  566.840
453.868;   42.091;   -6.019;  793.550
454.458;   40.427;   -9.440;  651.141
455.048;   39.975;  -10.560;  711.783
455.639;   42.452;  -11.799;  567.096
456.229;   45.594;   -6.899;  710.694
456.819;   47.310;   -7.389;  751.158
457.409;   46.963;  -11.119;  773.993
457.999;   50.270;   -9.289;  737.505
458.589;   50.570;   -6.139;  686.606
459.179;   49.994;   -8.729;  717.658
459.769;   47.936;   -9.789;  627.099
460.358;   52.714;  -10.259;  797.262
460.948;   52.665;   -7.299;  689.503
461.538;   54.627;  -10.289;  660.677
462.128;   52.095;  -11.269;  664.934
462.717;   59.075;   -9.368;  710.326
463.307;   62.267;   -7.908;  705.846
463.897;   57.837;   -9.599;  656.942
464.486;   56.818;   -9.769;  837.128
465.076;   61.945;   -8.048;  733.776
465.666;   65.613;   -9.358;  652.900
466.255;   62.898;   -7.919;  785.651
466.845;   61.547;  -11.689;  666.749
467.434;   65.249;   -7.818;  725.873
468.023;   65.493;   -7.678;  658.357
468.613;   63.192;  -10.939;  713.946
469.202;   67.493;  -10.118;  646.507
469.791;   72.191;   -9.108;  737.811
470.381;   73.943;   -6.058;  742.813
470.970;   73.450;  -10.428;  711.099
471.559;   73.239;  -10.268;  733.291
472.148;   76.639;   -8.448;  675.737
472.738;   79.045;   -6.917;  765.466
473.327;   79.168;  -11.978;  637.529
473.916;   77.436;  -11.888;  737.446
474.505;   81.492;   -9.437;  751.703
475.094;   85.622;   -6.747;  806.570
475.683;   85.093;   -9.367;  797.699
476.272;   84.832;  -12.637;  730.632
476.861;   88.289;  -10.027;  706.754
477.449;   94.389;   -8.716;  728.487
478.038;   89.910;   -9.577;  692.513
478.627;   89.815;   -9.718;  714.852
479.216;   96.829;   -8.947;  769.441
479.805;  100.300;   -6.256;  783.375
480.393;   99.540;   -7.937; 1008.945
480.982;   97.603;   -7.717;  874.501
481.571;  104.810;   -9.266;  858.333
482.159;  105.053;   -7.636;  705.386
482.748;  105.613;   -9.667;  821.385
483.336;  109.922;  -10.376;  858.209
483.925;  110.278;   -7.147;  774.373
484.513;  116.456;   -7.996;  758.962
485.102;  113.577;  -10.027;  810.965
485.690;  122.440;  -10.446; 1011.050
486.278;  124.674;   -8.446;  979.329
486.867;  125.478;   -6.356;  809.662
487.455;  125.981;   -9.136;  898.229
488.043;  126.644;  -10.646;  748.361
488.631;  136.517;   -7.456; 1005.079
489.220;  139.805;   -6.636;  908.626
489.808;  140.158;  -11.036;  741.415
490.396;  147.136;  -10.246;  914.645
490.984;  153.673;   -8.556;  830.161
491.572;  163.454;   -5.886;  940.315
492.160;  168.562;   -9.486;  919.081
492.748;  180.266;  -10.976;  884.341
493.336;  202.612;   -8.776; 1019.693
493.924;  228.505;   -5.465;  958.077
494.512;  253.655;   -9.986; 1066.638
495.100;  289.916;  -10.636; 1103.280
495.687;  343.468;  -10.885; 1206.373
496.275;  404.335;   -8.126; 1150.796
496.863;  471.605;  -10.586; 1281.171
497.451;  568.509;  -11.926; 1386.805
498.038;  695.818;  -10.885; 1556.729
498.626;  796.258;   -6.315; 1741.407
499.214;  935.920;   -7.326; 2016.609
499.801; 1125.757;  -11.906; 2220.633
500.389; 1359.299;  -10.466; 2312.494
500.976; 1660.514;   -5.236; 2744.849
501.564; 2082.756;   -8.936; 3148.565
502.151; 2446.606;  -13.176; 3515.999
502.738; 2876.265;  -10.646; 3971.274
503.326; 3242.249;   -9.525; 4403.796
503.913; 3602.573;  -10.856; 5161.749
504.500; 3950.337;  -11.586; 5986.420
505.088; 4341.092;  -10.336; 6381.201
505.675; 4859.346;   -6.355; 6925.547
506.262; 5549.187;   -9.046; 7619.060
506.849; 6221.762;  -10.416; 8733.969
507.436; 6664.063;  -10.305; 9790.121
508.023; 7222.666;   -5.496; 9985.472
508.610; 7495.333;   -7.856;10434.618
509.197; 8118.440;  -10.097;11198.435
509.784; 9447.278;  -10.886;12391.194
510.371;10463.951;   -9.315;13603.713
510.958;11181.823;   -9.936;14426.586
511.545;11908.791;   -9.326;15243.775
512.132;12800.039;  -10.075;15945.876
512.719;13385.934;   -7.796;16340.369
513.305;14281.179;  -10.606;18011.766
513.892;14998.289;  -11.486;19754.971
514.479;16274.532;   -9.126;20967.805
515.066;17700.055;   -6.026;22299.793
515.652;18926.055;   -8.466;22908.660
516.239;20316.352;  -10.886;23798.875
516.825;21429.477;  -11.496;25567.275
517.412;22512.529;   -5.796;28154.959
517.998;23009.010;  -10.506;28344.111
518.585;22990.129;  -10.076;27134.219
519.171;23531.518;   -8.315;27268.576
519.758;24951.170;   -8.596;28964.129
520.344;26716.906;   -8.466;30664.494
520.930;26829.084;  -11.006;32550.605
521.516;28412.975;  -10.495;35422.895
522.103;30757.557;   -5.526;38280.004
522.689;31330.818;   -8.746;37835.117
523.275;30717.113;  -11.376;37288.613
523.861;31755.922;  -11.156;37281.395
524.447;33047.801;   -8.135;37846.949
525.033;32813.359;   -7.896;38321.949
525.619;33030.715;  -12.476;38579.285
526.205;34773.492;   -9.516;40622.875
526.791;37079.395;   -6.926;42258.836
527.377;37276.332;   -8.346;42966.902
527.963;38805.953;   -8.717;42018.949
528.549;37217.461;  -11.016;42476.828
529.135;36095.438;   -8.536;41854.852
529.721;35658.023;   -9.666;41237.711
530.306;35029.070;  -10.066;41259.445
530.892;34798.027;  -11.356;41506.047
531.478;36228.016;   -6.596;43559.613
532.063;39078.070;   -8.836;47695.563
532.649;39364.398;  -10.047;50808.324
533.235;40427.805;   -9.746;51787.500
533.820;41283.867;   -6.566;52145.035
534.406;42679.879;  -10.817;51133.488
534.991;42496.711;   -9.416;49996.805
535.576;41091.484;   -9.036;48882.852
536.162;41480.188;   -6.156;46942.285
536.747;42412.973;  -11.607;45711.746
537.333;46368.383;  -11.787;48510.180
537.918;49052.922;  -12.437;50439.891
538.503;47486.375;   -7.196;50863.711
539.088;44440.074;  -10.556;50906.922
539.673;44422.512;   -8.767;52621.965
540.259;44211.242;  -10.026;52368.094
540.844;41591.125;   -7.416;50879.109
541.429;42775.926;   -9.467;52077.777
542.014;45646.199;   -9.527;52716.695
542.599;45114.035;   -9.946;52363.281
543.184;43031.754;   -7.927;53187.137
543.769;44506.316;   -9.297;54697.605
544.354;43728.047;  -10.127;53913.914
544.938;42461.848;   -9.267;49680.164
545.523;44300.848;   -6.506;47386.277
546.108;46780.324;   -9.787;49151.949
546.693;49009.574;  -11.587;51384.637
547.278;48717.930;  -10.986;51853.254
547.862;45818.172;   -8.206;51173.750
548.447;41516.137;  -10.067;51691.395
549.031;41055.164;   -9.637;52456.703
549.616;45846.762;   -9.926;52714.516
550.201;44930.477;   -6.347;52414.598
550.785;46018.480;   -7.917;52355.059
551.370;45219.723;  -10.867;54589.453
551.954;45064.453;   -9.047;58267.348
552.538;45908.031;   -7.827;59062.176
553.123;44374.523;  -10.287;58115.285
553.707;42332.477;  -12.178;56556.285
554.291;43392.461;   -8.717;56201.668
554.876;45250.539;   -7.457;55335.762
555.460;45602.055;  -10.387;54155.703
556.044;46884.555;   -9.618;53721.484
556.628;45570.793;  -11.567;53731.016
557.212;44278.355;   -8.097;54312.531
557.796;42877.859;  -11.077;53797.773
558.380;42729.184;  -11.108;56145.984
558.964;42968.398;   -9.057;57277.930
559.548;44008.203;   -6.977;56459.641
560.132;42519.484;  -11.457;54434.543
560.716;41375.230;  -11.378;54800.617
561.300;42466.695;   -9.577;57606.945
561.884;43429.488;   -7.127;58972.445
562.467;42109.574;   -7.118;57327.570
563.051;41487.273;  -13.358;54962.434
563.635;42459.254;  -10.178;52594.473
564.219;42637.066;   -7.837;50610.410
564.802;43424.742;  -11.398;49551.180
565.386;43505.578;  -12.788;48370.953
565.969;42978.078;   -9.077;48178.871
566.553;42428.449;   -6.207;49957.305
567.136;42624.395;   -8.568;50369.594
567.720;38945.512;  -11.868;49492.004
568.303;36973.523;   -8.268;50616.352
568.887;37118.973;   -8.698;50727.148
569.470;37314.941;   -6.808;51698.379
570.053;36020.914;  -13.188;52122.078
570.637;34490.609;  -12.037;52536.438
571.220;34206.559;   -8.577;51186.098
571.803;34774.434;   -8.498;51032.762
572.386;37167.375;  -10.498;49609.887
572.969;39497.559;   -9.388;48285.926
573.552;37419.270;   -8.338;47624.285
574.135;36061.605;   -8.518;45498.641
574.718;33692.898;  -13.628;41970.434
575.301;32618.480;  -10.893;41447.137
575.884;31544.061;   -8.158;40923.836
576.467;32745.568;  -10.328;45267.723
577.050;34784.582;  -13.058;48175.543
577.633;35950.391;   -9.458;47729.328
578.216;34531.195;   -8.928;47579.793
578.799;33167.711;   -9.358;47820.996
579.381;31762.545;  -11.388;48115.551
579.964;30591.244;  -11.718;47333.766
580.547;32715.512;   -8.588;46668.969
581.129;34295.063;   -8.859;44466.141
581.712;35123.531;  -10.729;44164.922
582.294;35730.941;  -11.118;46477.855
582.877;35617.754;   -5.218;48244.254
583.459;33055.117;   -8.679;47437.895
584.042;31247.988;  -10.709;46943.219
584.624;31912.393;  -11.669;46792.227
585.206;31164.156;   -8.218;46557.250
585.789;30965.232;  -10.569;45793.773
586.371;33240.750;  -11.859;43836.391
586.953;32901.309;  -10.719;42972.492
587.536;32731.457;   -7.198;42487.211
588.118;30692.324;   -8.720;42086.414
588.700;26421.693;  -10.439;43389.930
589.282;26605.184;   -9.198;43646.039
589.864;30177.225;   -9.199;43438.109
590.446;33204.980;  -11.319;43151.926
591.028;33970.707;  -11.159;42781.867
591.610;33320.324;  -11.779;42839.098
592.192;30985.160;   -7.668;42820.402
592.774;29577.744;  -11.949;40724.277
593.356;28315.943;  -12.129;39874.789
593.937;27353.875;  -10.669;39980.648
594.519;29460.520;   -6.509;42069.633
595.101;31597.855;  -10.849;42976.031
595.683;31594.066;  -11.679;44084.441
596.264;32755.266;   -9.049;43478.797
596.846;32102.963;   -8.849;43803.672
597.427;31880.455;   -9.570;42986.934
598.009;33479.023;  -12.620;42832.219
598.591;33817.949;  -10.039;42580.086
599.172;32848.242;  -10.369;43061.805
599.753;32968.402;   -9.140;41691.469
600.335;34508.176;  -11.430;40692.520
600.916;32902.602;   -9.939;39982.422
601.498;30482.063;   -8.479;40318.617
602.079;28985.764;  -10.920;40670.609
602.660;28990.152;  -11.480;41450.898
603.241;30551.156;  -11.699;41137.738
603.823;29384.834;   -9.579;38868.797
604.404;29156.049;  -10.620;38182.785
604.985;30645.229;  -10.450;38078.047
605.566;30303.191;   -9.129;38056.633
606.147;30360.758;   -7.510;37020.418
606.728;32005.293;  -10.660;37883.359
607.309;30804.592;  -11.740;38748.273
607.890;30232.469;   -9.759;38850.230
608.471;29679.670;   -8.250;37457.918
609.051;28702.756;   -9.240;36066.457
609.632;27709.832;  -12.120;35991.074
610.213;28567.232;   -9.110;37402.641
610.794;29161.076;   -8.030;38383.363
611.374;28654.299;   -8.110;40562.387
611.955;29033.754;  -13.560;38533.727
612.536;30295.992;  -11.400;36951.789
613.116;30388.230;   -8.070;37197.891
613.697;30677.566;  -10.830;38411.125
614.277;29280.867;  -11.641;38673.938
614.858;30219.109;  -13.310;37075.863
615.438;29270.115;   -7.460;35092.906
616.019;26497.109;   -7.601;33666.301
616.599;27266.176;  -12.020;34189.023
617.179;28982.070;  -11.780;36952.047
617.760;29750.809;   -8.570;39582.574
618.340;30879.922;  -11.471;38943.977
618.920;32267.541;  -11.170;37594.156
619.500;32147.771;  -11.071;37866.938
620.080;31408.881;   -7.750;37869.043
620.660;32555.660;  -12.711;36868.617
621.241;33880.754;  -10.211;36352.309
621.821;33989.563;  -10.961;35459.520
622.401;32965.785;   -7.720;35207.414
622.980;32268.578;   -8.981;35980.422
623.560;30859.871;   -9.331;37351.328
624.140;29699.117;   -9.850;34388.582
624.720;24560.658;   -7.451;32368.764
625.300;21038.814;   -9.070;32638.629
625.880;24433.416;  -12.601;34599.035
626.459;28399.543;  -11.751;36831.738
627.039;31520.139;   -9.281;38299.098
627.619;31519.229;   -8.801;38289.574
628.198;29831.342;  -12.071;37220.695
628.778;28967.273;   -9.461;37632.563
629.357;29768.281;   -8.491;38003.012
629.937;29894.605;   -9.721;38402.039
630.516;29261.555;   -9.951;37868.801
631.096;28796.984;  -11.731;35760.410
631.675;31640.150;   -8.572;35225.219
632.254;36666.156;  -11.282;35130.289
632.834;36173.027;  -13.322;35794.570
633.413;34304.570;  -10.301;35788.922
633.992;31336.492;   -8.582;34532.863
634.571;32080.754;   -8.352;33590.113
635.151;35058.313;  -11.912;34943.863
635.730;33520.031;  -10.511;35352.523
636.309;30152.182;   -7.731;35366.605
636.888;27706.486;   -9.952;36165.637
637.467;28585.150;  -11.672;37515.902
638.046;30247.324;   -8.901;39288.695
638.625;33330.844;   -7.912;38279.699
639.204;33077.145;  -10.022;37741.598
639.782;31551.598;  -12.252;38364.551
640.361;27856.314;  -10.041;36740.621
640.940;25080.146;  -11.161;34950.082
641.519;25702.768;   -9.701;34137.398
642.097;28737.338;  -11.271;35654.258
642.676;31619.426;   -8.651;35637.957
643.255;32099.645;   -8.711;36567.074
643.833;31204.949;   -9.581;37809.434
644.412;31340.273;  -13.711;37337.293
644.990;30585.135;  -11.811;37018.531
645.569;30710.107;   -9.411;36518.469
646.147;29415.205;  -10.291;36186.430
646.726;28850.176;  -12.401;36267.688
647.304;29994.316;  -10.411;36647.625
647.882;32008.000;   -9.651;39286.742
648.461;33774.063;   -9.631;39157.703
649.039;31893.035;  -11.881;35412.883
649.617;31343.318;   -9.661;34744.918
650.195;31151.934;   -9.301;35403.098
650.773;29672.160;  -10.511;35053.797
651.352;27270.123;  -11.521;33756.816
651.930;24903.512;  -12.211;31868.773
652.508;23293.217;   -9.171;33121.551
653.086;27220.932;   -9.371;33564.793
653.663;29973.906;  -13.161;34054.668
654.241;28887.322;  -13.031;35693.309
654.819;30551.264;   -9.371;36422.906
655.397;30759.012;  -10.511;38213.484
655.975;30610.992;  -10.371;39507.625
656.553;30256.834;  -10.051;39498.223
657.130;28652.830;  -10.061;40395.480
657.708;28082.822;   -9.561;39242.020
658.286;28117.135;  -11.511;38920.020
658.863;29301.832;  -10.261;40202.898
659.441;32274.477;   -7.531;39677.938
660.018;31713.299;   -9.501;40413.355
660.596;30669.131;  -13.301;39931.414
661.173;32794.246;  -11.211;39604.531
661.750;32945.984;   -9.951;39700.070
662.328;31705.672;   -9.390;39292.809
662.905;30609.660;  -11.330;38235.648
663.482;26200.750;   -9.050;36212.305
664.060;24328.330;   -8.240;35944.945
664.637;27138.373;  -10.050;35170.785
665.214;29015.104;  -11.760;34197.523
665.791;30316.242;  -10.530;34549.520
666.368;29118.033;   -9.690;35118.578
666.945;30121.064;   -9.320;36019.418
667.522;31728.254;  -11.860;36048.438
668.099;31426.863;  -10.770;36243.914
668.676;30332.658;   -6.260;35958.875
669.253;28965.480;   -7.000;37384.730
669.830;29675.996;  -10.190;36779.629
670.407;29424.107;   -9.550;35231.289
670.984;29488.824;   -9.260;35544.270
671.560;30021.625;   -9.280;35466.867
672.137;29041.959;  -11.810;34280.863
672.714;29848.297;  -11.490;34632.863
673.290;30416.006;   -7.740;35135.422
673.867;30630.580;  -10.660;36114.480
674.443;30438.078;  -12.230;36152.859
675.020;28779.816;  -10.450;35327.238
675.596;29909.727;   -9.260;35795.176
676.173;30365.924;  -10.780;35430.355
676.749;30152.465;  -13.690;33549.516
677.326;30149.219;  -11.980;32210.012
677.902;30074.377;   -8.630;32068.871
678.478;29338.016;  -10.730;32583.891
679.054;28855.240;  -10.520;32088.928
679.631;29166.305;  -11.920;30978.848
680.207;30817.729;   -7.490;33160.887
680.783;32529.295;   -9.860;35570.363
681.359;31565.754;  -13.380;36125.184
681.935;30770.957;  -12.480;35240.922
682.511;29796.686;   -7.900;34429.961
683.087;29824.631;   -7.710;34463.680
683.663;29510.879;  -11.480;34648.898
684.239;28338.000;  -14.090;34546.457
684.815;28042.436;   -7.560;35586.375
685.390;28384.092;   -9.910;35821.895
685.966;28943.014;  -11.159;35085.871
686.542;31558.600;  -11.169;34198.230
687.118;33471.668;   -5.959;32847.707
687.693;33470.641;  -10.329;32794.027
688.269;33274.180;  -12.059;33072.367
688.844;31581.488;  -10.909;33141.664
689.420;29395.600;   -8.019;33965.742
689.995;26934.107;   -8.399;34655.523
690.571;25547.230;  -10.949;33576.742
691.146;26066.947;   -9.619;32657.219
691.722;25509.439;   -8.999;32526.979
692.297;25573.701;  -11.589;33014.617
692.872;27519.236;  -11.739;34012.254
693.448;27013.439;  -11.059;34237.434
694.023;26181.896;  -10.139;34142.672
694.598;28171.574;   -9.029;34132.031
695.173;28474.959;  -13.319;34205.250
695.748;27853.697;  -10.169;32882.488
696.323;27930.463;   -8.339;32864.906
696.898;28236.117;   -8.169;33170.004
697.473;27942.920;  -12.309;32432.984
698.048;27287.504;  -10.989;31649.303
698.623;27337.248;   -9.329;30778.141
699.198;29406.229;   -9.849;31140.119
699.773;30162.295;  -12.329;31764.299
700.348;28413.459;  -10.389;31780.816
700.922;28377.422;   -9.269;32046.375
701.497;29078.643;   -9.329;32603.574
702.072;29232.256;  -10.789;34799.871
702.646;28028.539;  -10.839;35793.172
703.221;26150.568;   -9.099;35201.590
703.795;28312.586;  -10.939;34764.527
704.370;28615.732;  -12.859;34307.367
704.944;28994.131;  -11.559;33509.887
705.519;29939.322;   -7.939;31388.584
706.093;31514.842;  -10.499;31340.104
706.668;31711.840;  -11.289;32630.281
707.242;30638.863;  -11.509;32728.779
707.816;29046.895;   -9.639;32947.238
708.390;27451.225;  -11.429;33277.855
708.965;28069.158;  -11.869;33834.336
709.539;28242.996;  -11.689;33709.273
710.113;28815.445;  -10.478;33044.313
710.687;28236.270;  -10.228;31953.992
711.261;26459.982;  -13.698;30505.949
711.835;26344.607;  -13.378;30262.369
712.409;27206.102;   -9.698;31254.447
712.983;28977.230;  -11.898;32754.986
713.557;29840.811;  -15.138;34018.824
714.131;29381.543;  -14.098;34579.625
714.704;28373.084;   -9.958;33890.262
715.278;26164.887;  -10.028;33531.102
715.852;25372.955;  -11.148;33601.660
716.425;26293.953;   -9.068;33515.117
716.999;26961.740;  -10.038;33185.555
717.573;27944.877;   -9.798;33905.996
718.146;29074.818;  -12.378;35199.293
718.720;28918.791;  -11.918;35060.551
719.293;28317.977;   -8.088;34973.230
719.867;31189.688;  -10.888;36394.449
720.440;30826.229;  -11.938;36663.008
721.013;29064.244;  -12.818;35102.426
721.587;27788.744;  -10.298;33985.266
722.160;26930.561;  -10.048;33524.965
722.733;25888.932;  -12.108;32987.043
723.306;26233.945;  -10.818;33066.301
723.880;28547.645;   -8.908;33399.500
724.453;30212.824;   -9.878;33468.297
725.026;29154.385;  -11.188;33816.637
725.599;26707.172;  -11.678;32797.996
726.172;27368.539;   -9.618;33187.434
726.745;28514.855;   -8.258;35136.613
727.318;29848.328;  -12.978;35751.730
727.891;30182.701;  -12.148;35890.430
728.463;29859.959;   -8.968;34822.090
729.036;28949.332;  -10.188;32895.086
729.609;29296.529;  -11.788;31823.225
730.182;26219.186;  -11.788;31445.283
730.754;23648.719;  -10.268;32373.223
731.327;23582.664;   -9.998;33676.820
731.900;24009.357;  -12.228;33417.000
732.472;25495.387;  -13.848;31978.498
733.045;27380.611;   -8.698;30368.777
733.617;27483.916;  -10.607;30574.215
734.190;27017.098;  -11.507;31280.975
734.762;24039.086;  -13.647;31674.412
735.334;22399.100;   -9.767;31247.291
735.907;23067.467;   -9.897;29876.211
736.479;23117.338;  -11.637;29808.488
737.051;22745.430;   -9.567;30233.547
737.623;23669.912;   -8.187;31469.086
738.195;24603.229;  -11.187;31784.225
738.768;26641.023;  -12.337;32120.523
739.340;26626.432;  -12.227;32094.342
739.912;25277.299;  -11.057;31312.680
740.484;23855.311;  -10.207;31946.238
741.056;22863.707;  -10.047;32984.059
741.628;24736.156;  -13.627;33897.715
742.199;26976.807;   -7.177;33213.016
742.771;25305.492;  -10.797;31369.113
743.343;22984.334;  -11.997;31865.473
743.915;22020.816;  -12.867;32388.631
744.487;22181.469;   -7.617;31079.568
745.058;22383.811;   -9.557;30570.107
745.630;22907.438;   -9.877;29970.127
746.201;23653.271;  -14.177;29186.766
746.773;23890.652;   -9.237;28805.723
747.344;23698.336;   -9.847;29591.223
747.916;22437.371;  -11.657;31412.201
748.487;22715.494;  -10.587;32194.898
749.059;23843.643;   -8.707;32533.719
749.630;24555.570;  -10.537;32158.518
750.201;23703.225;  -11.687;30855.395
750.773;21926.369;  -11.647;28622.555
751.344;21904.742;   -7.147;28405.732
751.915;23130.676;   -9.757;28461.551
752.486;22871.896;  -12.427;27842.850
753.057;20626.746;  -12.227;27845.008
753.628;19503.973;  -10.417;27728.107
754.199;20682.709;  -11.767;27381.086
754.770;21656.682;  -11.187;25882.203
755.341;21629.059;  -10.507;25886.184
755.912;21560.885;   -9.387;26050.861
756.483;20950.896;  -10.647;26798.779
757.054;19153.572;  -11.837;27048.238
757.625;17875.971;  -12.716;26294.838
758.195;17711.559;   -9.666;26142.076
758.766;17486.645;   -8.656;26392.234
759.337;18278.127;  -12.856;26334.594
759.907;20036.914;  -13.366;27579.652
760.478;20893.451;   -8.576;28352.770
761.048;20214.619;  -10.526;27325.088
761.619;19395.682;  -11.116;26460.428
762.189;19498.047;  -12.136;26029.826
762.760;20719.617;   -9.456;26430.145
763.330;21776.506;   -7.136;26670.902
763.900;21096.070;  -11.786;26603.021
764.471;18414.172;  -11.546;25542.740
765.041;17199.291;   -8.096;24358.459
765.611;17338.828;   -8.876;23991.297
766.181;17743.436;  -12.196;24470.236
766.751;18658.729;  -11.636;24845.975
767.321;18382.174;  -10.156;24533.633
767.891;16416.059;  -11.766;24916.492
768.461;15925.517;  -14.936;24776.771
769.031;16491.527;  -12.356;24757.988
769.601;18032.354;   -7.526;24181.088
770.171;17796.098;  -10.766;23670.387
770.741;17033.537;  -13.176;22960.045
771.311;17291.754;  -10.616;22917.523
771.880;17622.361;   -9.576;23562.941
772.450;17296.148;  -10.336;24216.500
773.020;17420.461;  -13.516;24140.398
773.589;16872.090;  -13.466;24414.857
774.159;16229.179;   -8.686;23858.717
774.729;15760.872;   -9.476;22942.135
775.298;15195.590;  -13.666;22324.033
775.867;14792.946;  -11.716;21140.313
776.437;14869.872;   -9.906;20838.092
777.006;14656.904;  -12.166;20599.510
777.576;14584.961;  -12.356;20508.809
778.145;14738.937;  -11.646;20732.947
778.714;14575.497;   -8.226;21062.465
779.283;13780.273;   -9.556;20949.664
779.853;13287.589;  -14.116;20508.623
780.422;13738.008;  -11.506;20649.082
780.991;13343.101;   -9.556;21527.520
781.560;12237.761;   -9.095;22632.658
782.129;12122.934;  -12.135;23048.277
782.698;12147.490;  -10.865;23438.555
783.267;11716.034;   -9.335;23267.734
783.836;11716.487;  -11.045;22415.133
784.404;12845.571;  -13.865;20443.152
784.973;13398.788;  -13.095;19699.150
785.542;13285.254;  -11.575;19763.828
786.111;13083.840;   -9.705;20341.408
786.679;12527.891;  -12.105;20207.967
787.248;12265.615;  -12.455;19516.465
787.817;12117.634;  -11.535;18900.363
788.385;11733.970;   -9.765;17879.121
788.954;11157.000;  -14.005;17658.301
789.522;10643.309;  -11.955;17788.879
790.090;11191.719;  -10.135;18118.277
790.659;11559.820;  -10.975;18338.736
791.227;11054.747;  -13.375;18508.615
791.795;11522.193;  -12.375;17898.254
792.364;11894.336;  -10.725;17295.133
792.932;12205.382;   -9.715;16822.051
793.500;12386.261;  -12.675;17040.148
794.068;12630.852;  -13.495;17179.787
794.636;12737.223;  -10.885;16664.246
795.204;12205.263;  -11.045;16524.545
795.772;12311.566;  -13.175;17274.564
796.340;11825.420;  -12.445;17891.002
796.908;11652.527;   -9.735;17648.561
797.476;11522.901;   -9.815;17064.080
798.044;11043.993;  -13.985;16672.777
798.612;10218.421;  -13.115;17023.996
799.180; 9798.944;  -10.185;16561.615
799.747; 9713.230;   -9.055;15962.773
800.315; 9477.630;  -12.385;15296.992
800.883; 9118.176;  -15.035;14801.771
801.450; 9100.728;  -10.365;14534.430
802.018; 9177.973;   -9.855;14173.248
802.585; 9350.219;  -11.905;14029.547
803.153; 9426.750;  -11.585;13836.846
803.720; 9254.684;   -9.095;13567.324
804.287; 8804.640;   -9.135;13360.622
804.855; 8384.885;  -11.604;13681.981
805.422; 8242.580;  -11.794;13536.560
805.989; 8230.011;  -10.734;13355.958
806.556; 8431.924;  -10.444;13747.896
807.124; 8705.667;  -12.764;13987.376
807.691; 8686.952;  -12.964;14038.674
808.258; 8474.016;  -11.134;14120.152
808.825; 8104.684;   -9.854;13860.111
809.392; 8133.564;  -10.504;13268.790
809.959; 7648.281;  -13.054;12680.389
810.526; 7243.895;   -8.294;12427.308
811.093; 7327.360;   -8.394;12030.105
811.659; 7917.924;  -12.304;11653.664
812.226; 8391.945;  -13.944;11637.183
812.793; 8056.652;  -10.484;11611.521
813.360; 7426.972;  -10.144;11885.181
813.926; 7134.381;  -11.684;12770.539
814.493; 6904.380;  -13.644;12677.638
815.060; 6506.858;   -9.724;11974.336
815.626; 6523.761;   -9.854;11594.715
816.193; 6940.737;  -13.254;11579.474
816.759; 6989.352;  -13.204;11666.972
817.325; 7078.275;   -9.434;11325.530
817.892; 7414.482;  -10.134;11105.369
818.458; 7809.963;  -13.474;10843.928
819.024; 7377.482;  -11.854;10714.406
819.591; 6990.081;  -10.244;10469.165
820.157; 6765.848;  -10.704;10235.523
820.723; 6302.745;  -12.324;10847.563
821.289; 6007.718;   -9.444;11040.980
821.855; 5913.741;   -8.374;10357.100
822.421; 5852.414;  -10.234; 9978.918
822.987; 5835.422;  -13.294; 9754.177
823.553; 5553.742;  -10.884;10065.755
824.119; 5399.962;   -8.884;10036.294
824.685; 5475.256;   -6.784;10029.192
825.251; 5544.632;  -12.004;10199.230
825.816; 5507.738;  -11.474; 9820.189
826.382; 5288.799;   -9.174; 9297.248
826.948; 5517.827;   -9.214; 9381.347
827.513; 5910.169;  -10.774; 9450.726
828.079; 5713.856;  -11.924; 9472.444
828.645; 5140.965;  -10.543; 9292.643
829.210; 5066.357;  -10.533; 9065.341
829.776; 5046.140;  -10.753; 9132.620
830.341; 4924.812;  -10.173; 9092.878
830.906; 5119.432;  -10.743; 9078.557
831.472; 5444.413;  -11.113; 8534.535
832.037; 5151.018;  -10.603; 8677.874
832.602; 4605.711;  -13.323; 8628.692
833.167; 4367.660;  -10.823; 8879.031
833.733; 4313.965;  -10.113; 9189.790
834.298; 4435.802;  -13.583; 9052.608
834.863; 4482.975;  -12.703; 8895.087
835.428; 4468.657;  -10.523; 8824.266
835.993; 4358.567;   -6.963; 8845.385
836.558; 4223.507;  -10.763; 8888.563
837.123; 4356.502;   -9.903; 8966.582
837.688; 4558.155;   -9.913; 8617.860
838.253; 4754.910;  -10.283; 8590.699
838.817; 4927.387;  -12.963; 8443.797
839.382; 4823.554;  -14.243; 8799.356
839.947; 4504.905;  -10.733; 8810.595
840.511; 4219.984;   -9.383; 8796.394
841.076; 3868.537;  -12.563; 8347.231
841.641; 3954.483;  -12.953; 8224.330
842.205; 4060.693;   -7.043; 8223.349
842.770; 4185.195;   -8.163; 8622.107
843.334; 4371.619;  -12.503; 8410.386
843.898; 4326.409;  -11.693; 8337.465
844.463; 4351.157;  -10.203; 8506.283
845.027; 4127.338;   -9.533; 8280.962
845.591; 3948.958;  -13.443; 8231.141
846.156; 3905.363;  -13.143; 7969.179
846.720; 3773.881;   -9.433; 7768.278
847.284; 3639.167;  -11.033; 7630.957
847.848; 3514.677;  -10.403; 7472.395
848.412; 3427.172;  -11.553; 7437.394
848.976; 3471.702;   -8.393; 7674.592
849.540; 3418.878;   -8.713; 7836.011
850.104; 3555.271;  -12.463; 7913.669
850.668; 3913.552;  -12.973; 7694.508
851.232; 3999.783;  -10.793; 7756.887
851.796; 3822.401;  -10.662; 7926.545
852.359; 3525.531;  -13.082; 7827.844
852.923; 3369.747;  -12.192; 7641.163
853.487; 3187.636;  -11.912; 7342.501
854.050; 3133.749;  -10.892; 7042.820
854.614; 3272.706;  -13.992; 7151.338
855.177; 3403.424;  -11.732; 7105.077
855.741; 3451.006;   -8.962; 6989.675
856.304; 3342.181;   -9.442; 6596.634
856.868; 3288.727;  -14.192; 6356.272
857.431; 3395.077;  -12.702; 6468.571
857.995; 3529.333;   -9.942; 6373.210
858.558; 3540.743;   -9.112; 6324.448
859.121; 3256.950;  -12.932; 6408.327
859.684; 3129.831;  -13.442; 6347.886
860.247; 3234.500;  -10.632; 6321.264
860.810; 3220.391;  -11.272; 6301.903
861.374; 2961.058;   -9.832; 6607.881
861.937; 2711.622;  -11.762; 6408.200
862.500; 2714.345;   -9.722; 6572.639
863.062; 2906.328;  -10.512; 6387.297
863.625; 3077.589;  -11.232; 6190.836
864.188; 3233.947;  -14.112; 5807.254
864.751; 3291.088;  -11.302; 5682.413
865.314; 3172.255;  -10.112; 5547.492
865.876; 2965.841;  -12.182; 5500.150
866.439; 2959.802;  -10.722; 5415.909
867.002; 2906.808;   -9.252; 5501.567
867.564; 2686.249;   -9.572; 5413.946
868.127; 2450.471;  -13.142; 5160.325
868.689; 2341.605;  -12.902; 5133.183
869.252; 2242.558;   -9.732; 5252.382
869.814; 2150.054;   -9.432; 5297.141
870.377; 2174.572;  -11.552; 5390.919
870.939; 2249.448;   -9.052; 5599.898
871.501; 2308.345;  -10.982; 5248.336
872.063; 2302.733;  -12.292; 4854.235
872.626; 2262.832;  -14.912; 4817.074
873.188; 2296.558;  -13.112; 4987.732
873.750; 2264.031;  -13.442; 4868.651
874.312; 2163.452;   -9.402; 4779.330
874.874; 2066.404;  -11.062; 4866.348
875.436; 1974.391;  -13.931; 4718.887
875.998; 1961.518;   -9.561; 4660.005
876.560; 1983.138;  -11.321; 4462.964
877.122; 1920.186;  -12.221; 4145.042
877.683; 1829.921;  -12.191; 4056.481
878.245; 1760.457;  -12.101; 3950.740
878.807; 1807.998;   -8.971; 4058.958
879.369; 1829.105;  -12.071; 3954.677
879.930; 1727.167;  -14.621; 3941.495
880.492; 1662.628;  -10.311; 4067.014
881.053; 1622.164;  -10.901; 3859.633
881.615; 1505.775;  -14.411; 3776.071
882.176; 1405.567;  -13.761; 3734.750
882.738; 1362.780;   -9.181; 3678.489
883.299; 1338.541;  -11.791; 3405.407
883.860; 1345.832;  -13.121; 3351.106
884.422; 1343.447;  -11.211; 3394.044
884.983; 1293.784;  -10.091; 3166.443
885.544; 1212.213;   -8.461; 3189.802
886.105; 1131.079;  -12.361; 3160.360
886.666; 1061.717;  -14.141; 3093.059
887.227; 1004.430;  -11.361; 2941.957
887.788;  941.076;  -11.401; 2974.836
888.349;  877.511;  -13.791; 2721.214
888.910;  873.687;  -13.191; 2696.493
889.471;  883.753;   -9.881; 2560.172
890.032;  865.047;   -9.881; 2558.190
890.593;  840.399;  -10.371; 2567.669
891.153;  811.377;  -13.301; 2460.307
891.714;  760.785;  -11.431; 2372.046
892.275;  720.806;  -11.291; 2309.505
892.835;  677.498;  -11.471; 2382.543
893.396;  621.975;  -11.541; 2295.502
893.956;  565.715;  -11.181; 2162.420
894.517;  530.154;  -11.741; 2125.439
895.077;  525.671;  -11.671; 2086.978
895.638;  526.114;  -11.311; 2126.316
896.198;  497.561;   -9.831; 1838.275
896.758;  455.518;   -8.421; 1892.813
897.319;  423.062;  -12.351; 1792.232
897.879;  405.011;  -13.511; 1762.751
898.439;  378.710;  -12.001; 1661.149
898.999;  355.982;  -10.180; 1781.468
899.559;  346.400;  -12.030; 1703.347
900.119;  340.980;  -15.710; 1537.525
900.679;  338.026;   -8.900; 1638.384
901.239;  321.815;   -8.340; 1527.902
901.799;  312.092;  -13.910; 1456.441
902.359;  305.463;  -13.460; 1357.140
902.919;  299.225;  -11.490; 1331.118
903.479;  285.702;  -12.110; 1317.257
904.038;  265.042;  -11.720; 1262.595
904.598;  249.593;  -13.610; 1152.034
905.158;  245.928;  -11.040; 1240.893
905.717;  239.393;  -10.900; 1233.691
906.277;  227.983;  -15.080; 1217.330
906.836;  217.694;  -13.380; 1222.408
907.396;  209.047;  -10.780; 1193.047
907.955;  202.230;   -8.500; 1182.526
908.515;  196.089;  -12.760; 1099.364
909.074;  189.485;  -11.900; 1092.863
909.633;  184.159;   -8.950; 1069.121
910.192;  180.577;   -8.770; 1196.460
910.752;  173.504;  -12.390; 1029.960
911.311;  169.427;  -13.680; 1009.780
911.870;  167.259;  -12.370;  971.460
912.429;  169.406;  -10.900; 1094.080
912.988;  168.164;  -11.690; 1081.060
913.547;  162.341;  -13.240;  940.380
914.106;  157.317;  -11.990;  999.420
914.665;  155.369;   -9.990;  984.020
915.224;  153.431;  -12.880; 1035.760
915.782;  153.948;  -12.350;  922.560
916.341;  153.442;   -9.110; 1049.840
916.900;  149.986;   -9.270;  925.260
917.458;  147.197;  -13.240;  884.220
918.017;  146.643;  -13.550;  942.600
918.576;  146.199;  -12.320;  904.440
919.134;  144.914;  -11.490;  837.980
919.693;  143.167;  -13.670;  893.060
920.251;  140.003;  -15.470;  876.500
920.809;  139.874;  -11.290;  839.580
921.368;  139.204;  -10.210;  885.360
921.926;  138.298;  -12.140;  842.940
922.484;  136.934;  -13.080;  903.360
923.042;  136.888;  -11.720;  880.340
923.601;  139.627;   -7.480;  998.680
924.159;  137.432;  -11.570;  935.560
924.717;  134.516;  -13.840;  841.080
925.275;  134.515;  -10.640;  903.240
925.833;  134.606;  -11.540;  779.320
926.391;  135.447;  -12.960;  938.380
926.949;  133.015;  -14.130;  857.680
927.506;  134.180;  -11.750;  903.500
928.064;  134.137;  -10.250;  877.580
928.622;  133.281;  -13.030;  880.100
929.180;  132.565;  -13.400;  814.180
929.737;  134.667;  -10.700;  808.540
930.295;  139.689;  -10.070;  928.480
930.853;  140.203;  -11.960;  849.100
931.410;  140.495;  -13.120;  821.120
931.968;  140.366;  -10.770;  940.660
932.525;  139.848;  -10.680;  909.380
933.082;  140.998;  -13.130;  811.440
933.640;  140.957;  -13.210;  925.900
934.197;  140.239;  -11.060;  886.360
934.754;  141.048;   -9.580;  897.780
935.312;  143.736;  -14.000;  863.340
935.869;  147.351;  -10.710; 1012.980
936.426;  149.152;   -9.860;  872.800
936.983;  150.262;   -9.710;  889.020
937.540;  148.918;  -13.990;  838.280
938.097;  146.776;  -14.040;  940.120
938.654;  147.763;  -10.310;  898.860
939.211;  150.468;  -10.560;  952.480
939.768;  154.526;  -13.900;  915.420
940.324;  157.546;  -14.760;  904.200
940.881;  157.800;  -10.370;  878.500
941.438;  159.627;   -8.260; 1021.200
941.995;  155.280;  -12.540;  992.560
942.551;  152.856;  -14.670;  875.620
943.108;  153.460;  -10.450;  937.920
943.664;  155.776;  -10.750;  869.340
944.221;  159.067;  -11.550; 1088.140
944.777;  157.243;  -14.770;  869.680
945.334;  157.313;  -12.820;  884.840
945.890;  159.521;  -10.130;  946.480
946.446;  159.507;  -13.470;  947.020
947.003;  161.176;  -12.120;  964.940
947.559;  163.809;   -9.980; 1063.040
948.115;  164.018;   -9.080; 1026.540
948.671;  162.112;  -10.830;  967.300
949.227;  159.850;  -12.440;  859.560
949.783;  156.893;  -12.910;  858.900
950.339;  158.060;  -10.270;  991.000
950.895;  159.023;  -13.630; 1023.840
951.451;  158.138;  -15.100;  925.280
952.007;  158.890;  -11.330;  998.540
952.563;  159.689;  -10.580;  937.780
953.118;  157.482;  -13.440;  904.940
953.674;  158.345;  -12.710;  935.780
954.230;  156.484;  -10.350;  949.640
954.785;  154.882;   -9.190;  936.640
955.341;  153.177;  -11.200;  998.160
955.897;  150.486;  -16.560;  834.660
956.452;  152.287;  -12.570;  953.840
957.008;  151.983;   -7.970; 1083.640
957.563;  149.277;  -11.940; 1009.540
958.118;  144.706;  -13.450;  877.700
958.674;  145.284;  -12.030;  946.780
959.229;  147.085;   -9.410; 1013.980
959.784;  145.026;  -12.000;  832.400
960.339;  144.109;  -14.780; 1001.280
960.894;  140.532;   -9.860;  963.760
961.449;  135.903;   -9.970;  859.960
962.004;  136.819;  -10.900; 1212.840
962.559;  130.736;  -13.150;  860.140
963.114;  128.187;  -13.740;  742.480
963.669;  128.975;   -9.820;  915.500
964.224;  126.944;  -13.890;  874.340
964.779;  126.218;  -12.600;  828.420
965.334;  126.442;  -10.950; 1017.860
965.888;  127.173;  -11.170;  875.360
966.443;  129.929;  -12.540;  972.380
966.998;  128.938;  -15.780;  819.460
967.552;  128.126;   -9.760;  908.380
968.107;  125.238;   -9.060;  868.300
968.661;  125.849;  -11.950;  922.440
969.216;  126.688;  -12.800;  856.280
969.770;  126.803;  -11.210;  917.200
970.324;  125.569;  -11.610;  923.140
970.879;  121.117;  -11.370;  947.180
971.433;  118.004;  -12.540;  952.720
971.987;  113.824;  -11.320;  895.340
972.541;  111.647;  -10.720;  917.100
973.095;  112.339;   -9.680; 1009.460
973.649;  110.589;  -11.440;  809.480
974.203;  107.578;  -11.210;  829.040
974.757;  101.798;  -10.240;  855.220
975.311;   94.888;  -13.720;  872.600
975.865;   86.956;  -13.770;  881.820
976.419;   79.890;  -11.690;  857.400
976.973;   79.327;   -9.510;  849.620
977.526;   81.277;  -12.620;  949.920
978.080;   81.561;  -12.010;  796.780
978.634;   85.307;  -10.170;  921.320
979.187;   86.528;   -9.020;  905.400
979.741;   86.051;   -9.820; 1018.380
980.294;   82.209;  -14.870;  789.160
980.848;   82.011;  -12.380;  717.220
981.401;   84.572;  -10.350;  816.540
981.955;   87.089;  -13.720;  844.300
982.508;   86.510;  -11.490;  746.340
983.061;   87.085;  -10.000;  915.260
983.615;   84.699;  -11.480;  798.800
984.168;   82.095;  -13.220;  770.080
984.721;   81.462;  -13.960;  880.760
985.274;   81.331;  -10.870;  867.500
985.827;   81.315;   -9.790;  834.220
986.380;   78.213;  -13.120;  721.340
986.933;   77.645;  -12.450;  864.800
987.486;   76.383;  -10.210;  861.920
988.039;   75.974;   -8.430;  863.100
988.591;   73.516;  -10.520;  893.260
989.144;   71.241;  -14.860;  737.260
989.697;   70.857;  -13.080;  758.740
990.250;   72.491;  -10.150;  858.100
990.802;   70.476;  -13.430;  755.860
991.355;   71.763;  -12.750;  974.880
991.907;   69.628;  -12.040;  864.320
992.460;   67.492;  -11.330;  753.760
993.012;   67.063;  -13.610;  749.540
993.565;   65.805;  -13.460;  711.360
994.117;   68.110;   -9.360;  950.780
994.669;   63.953;  -11.300;  701.320
995.221;   62.263;  -13.540;  791.920
995.774;   60.010;  -13.430;  787.580
996.326;   58.419;  -12.520;  740.220
996.878;   57.461;  -10.950;  838.420
997.430;   53.996;  -14.300;  699.860
997.982;   52.964;  -13.760;  750.140
998.534;   52.771;  -11.530;  739.060
999.086;   52.500;  -10.310;  738.220
999.638;   52.206;  -12.530;  661.380
1000.190;   51.263;  -11.840;  699.320
1000.741;   50.937;  -10.260;  742.700
1001.293;   50.810;   -8.860;  686.020
1001.845;   49.293;  -13.700;  676.640
1002.396;   49.351;  -12.100;  743.400
1002.948;   48.877;  -12.760;  737.400
1003.500;   48.206;  -10.380;  723.780
1004.051;   48.529;  -11.900;  907.580
1004.603;   46.798;  -12.250;  791.820
1005.154;   42.370;  -13.210;  608.980
1005.705;   42.271;  -10.950;  723.960
1006.257;   41.834;  -13.880;  707.220
1006.808;   40.664;  -12.840;  685.460
1007.359;   40.790;  -10.570;  763.240
1007.910;   40.280;   -9.620;  646.640
1008.461;   38.966;  -13.630;  732.940
1009.013;   38.494;  -17.200;  588.340
1009.564;   39.810;  -10.200;  793.520
1010.115;   38.387;  -12.570;  597.040
1010.665;   36.892;  -15.150;  602.160
1011.216;   36.822;  -14.480;  667.920
1011.767;   36.782;  -11.340;  697.920
1012.318;   36.928;   -9.780;  736.980
1012.869;   35.735;  -12.380;  679.000
1013.419;   34.968;  -15.560;  603.120
1013.970;   35.488;  -11.010;  666.640
1014.521;   35.036;  -11.610;  620.620
1015.071;   35.527;  -13.450;  670.380
1015.622;   34.883;  -13.870;  635.460
1016.172;   33.882;  -11.610;  596.820
1016.723;   33.653;  -12.120;  614.380
1017.273;   33.600;  -13.620;  604.160
1017.823;   33.430;  -14.140;  650.340
1018.374;   32.922;  -12.800;  611.760
1018.924;   33.894;  -12.340;  716.880
1019.474;   33.311;  -11.410;  718.880
1020.024;   31.818;  -14.770;  657.580
1020.574;   32.658;   -9.780;  726.160
1021.124;   33.208;   -8.560;  673.580
1021.674;   31.962;  -15.190;  559.120
1022.224;   32.625;  -13.530;  708.940
1022.774;   32.430;  -13.280;  668.820
1023.324;   32.430;  -10.690;  753.520
1023.874;   33.393;  -10.240;  875.760
1024.423;   30.752;  -12.540;  613.700
1024.973;   30.541;  -10.010;  610.760
1025.523;   30.190;  -10.550;  620.960
1026.072;   30.230;  -13.560;  606.420
1026.622;   29.615;  -15.120;  675.740
1027.172;   30.651;  -11.260;  715.660
1027.721;   29.987;  -11.410;  601.220
1028.270;   30.086;  -13.530;  663.400
1028.820;   29.004;  -13.680;  638.080
1029.369;   28.655;  -13.520;  612.700
1029.918;   29.720;  -10.980;  649.840
1030.468;   28.221;  -13.530;  564.780
1031.017;   28.386;  -13.170;  634.800
1031.566;   27.737;  -12.200;  608.900
1032.115;   28.434;   -9.960;  694.500
1032.664;   27.360;  -13.210;  596.480
1033.213;   28.191;  -12.500;  735.420
1033.762;   27.724;  -11.910;  635.620
1034.311;   27.091;   -9.640;  677.220
1034.860;   27.466;  -13.310;  691.000
1035.408;   27.614;  -11.830;  722.720
1035.957;   27.260;  -12.000;  719.540
1036.506;   25.620;  -11.690;  530.800
1037.055;   28.643;  -10.990;  844.320
1037.603;   25.755;  -15.120;  664.000
1038.152;   24.834;  -12.450;  534.760
1038.700;   26.220;  -10.560;  585.740
1039.249;   25.285;  -11.080;  681.220
1039.797;   25.669;  -12.540;  633.360
1040.345;   25.287;  -11.920;  705.420
1040.894;   25.537;  -11.410;  625.300
1041.442;   24.466;  -14.320;  632.200
1041.990;   23.922;  -16.240;  559.160
1042.538;   23.673;  -11.680;  536.180
1043.087;   24.029;  -10.760;  570.860
1043.635;   24.989;  -11.850;  670.500
1044.183;   23.889;  -15.480;  586.400
1044.731;   22.900;  -11.770;  576.000
1045.279;   23.550;  -13.090;  674.920
1045.827;   25.710;  -12.440;  892.400
1046.374;   21.559;  -13.840;  515.420
1046.922;   21.847;  -13.220;  590.580
1047.470;   24.534;  -10.230;  691.300
1048.018;   23.199;  -14.590;  647.960
1048.565;   24.012;  -12.050;  708.600
1049.113;   21.921;  -11.650;  557.000
1049.660;   22.071;  -10.510;  629.660
1050.208;   22.122;  -13.310;  675.640
1050.755;   21.179;  -15.900;  606.580
1051.303;   21.922;  -11.430;  686.820
1051.850;   21.361;   -8.480;  635.120
1052.397;   20.879;  -15.010;  473.960
1052.945;   20.710;  -13.960;  617.760
1053.492;   22.705;  -13.150;  741.840
1054.039;   22.189;   -9.630;  720.180
1054.586;   21.016;  -13.680;  557.240
1055.133;   21.291;  -14.570;  693.140
1055.680;   20.997;  -13.820;  646.620
1056.227;   20.166;  -11.730;  542.780
1056.774;   22.303;  -12.480;  794.980
1057.321;   19.653;  -13.930;  523.260
1057.868;   20.059;  -11.690;  651.320
1058.415;   19.401;   -9.520;  651.980
1058.961;   20.609;  -13.160;  678.940
1059.508;   19.422;  -12.920;  643.820
1060.055;   19.614;  -11.920;  581.780
1060.601;   20.659;  -11.500;  624.300
1061.148;   20.083;  -14.330;  616.820
1061.694;   19.032;  -16.870;  592.580
1062.241;   18.650;  -10.330;  596.320
1062.787;   20.010;  -10.620;  663.140
1063.334;   20.675;  -10.110;  808.560
1063.880;   18.751;  -13.400;  668.360
1064.426;   19.332;  -10.680;  706.820
1064.972;   18.062;   -9.920;  601.340
1065.518;   17.220;  -10.980;  566.640
1066.065;   18.358;  -14.890;  624.460
1066.611;   16.914;  -12.870;  598.800
1067.157;   18.464;  -12.950;  641.860
1067.703;   17.550;  -13.540;  668.480
1068.249;   17.612;  -13.540;  605.220
1068.794;   16.918;  -12.600;  626.880
1069.340;   16.362;  -10.620;  578.960
1069.886;   17.461;  -12.830;  590.700
1070.432;   16.336;  -14.870;  541.720
1070.977;   16.064;  -11.980;  601.080
1071.523;   17.235;   -8.200;  573.060
1072.068;   16.823;  -12.330;  582.000
1072.614;   16.370;  -16.370;  527.760
1073.160;   16.455;  -11.100;  687.040
1073.705;   15.456;  -10.480;  572.520
1074.250;   15.777;  -14.520;  559.900
1074.796;   16.039;  -11.460;  655.160
1075.341;   16.331;  -11.950;  664.100
1075.886;   16.435;  -11.460;  594.240
1076.431;   15.590;  -13.770;  649.880
1076.976;   15.311;  -12.680;  639.220
1077.521;   14.653;  -13.170;  583.080
1078.067;   14.710;  -10.860;  579.400
1078.612;   15.428;  -13.920;  661.620
1079.156;   14.598;  -13.880;  601.540
1079.701;   15.110;  -13.120;  693.260
1080.246;   15.682;   -9.940;  696.300
1080.791;   14.940;  -14.740;  625.020
1081.336;   15.178;  -13.750;  659.320
1081.880;   14.663;  -13.400;  649.680
1082.425;   13.436;  -12.220;  573.480
1082.970;   16.166;  -11.610;  717.040
1083.514;   13.624;  -13.580;  597.000
1084.059;   13.501;  -12.810;  586.720
1084.603;   13.366;  -12.320;  565.840
1085.147;   13.758;  -13.190;  645.220
1085.692;   14.281;  -12.480;  716.800
1086.236;   12.129;  -13.020;  503.140
1086.780;   15.718;   -9.190;  751.440
1087.325;   13.911;  -12.480;  654.620
1087.869;   12.730;  -12.450;  610.700
1088.413;   13.609;  -12.240;  705.040
1088.957;   12.210;   -9.020;  543.400
1089.501;   13.804;  -10.320;  766.640
1090.045;   12.848;  -12.720;  726.480
1090.589;   11.215;  -13.690;  569.920
1091.133;   13.003;  -10.020;  673.340
1091.676;   13.062;  -12.330;  591.940
1092.220;   11.770;  -14.970;  600.920
1092.764;   12.736;  -12.430;  706.960
1093.307;   12.780;   -9.800;  673.780
1093.851;   11.693;  -14.970;  556.540
1094.395;   12.644;  -15.310;  683.140
1094.938;   11.380;  -10.370;  632.520
1095.482;   11.351;  -11.050;  559.800
1096.025;   12.341;  -11.840;  710.880
1096.568;   12.636;  -12.840;  779.280
1097.112;    9.798;  -14.700;  508.180
1097.655;   10.822;   -8.720;  603.000
1098.198;   10.025;  -13.610;  600.180
1098.741;    9.600;  -13.350;  612.860
1099.285;   10.870;  -11.230;  657.300
1099.828;    9.861;  -11.840;  439.400
1100.371;   10.729;  -10.840;  608.160
1100.914;    9.607;  -14.190;  682.660
1101.457;   10.658;  -11.240;  679.900
1101.999;    9.211;  -11.270;  584.680
1102.542;   10.429;  -11.480;  641.440
1103.085;    9.507;  -11.750;  658.500
1103.628;   10.382;  -11.400;  762.060
1104.170;    9.615;  -10.490;  588.280
1104.713;   10.933;  -10.600;  646.700
1105.256;    8.562;  -14.360;  557.440
1105.798;    8.211;  -13.210;  499.980
1106.341;   10.788;  -10.270;  728.900
1106.883;    9.290;  -12.200;  521.340
1107.425;    8.850;  -13.110;  668.180
1107.968;    8.927;  -12.840;  612.380
1108.510;    9.358;   -6.480;  684.960
1109.052;    8.341;  -13.940;  612.620
1109.594;    8.059;  -13.690;  554.440
1110.136;    8.561;  -11.880;  643.220
1110.679;    8.506;   -9.500;  633.080
1111.221;    8.702;  -14.160;  604.460
1111.763;    8.088;  -13.980;  559.220
1112.304;    7.271;  -13.880;  547.140
1112.846;    9.073;  -12.210;  666.240
1113.388;   11.207;  -11.390;  942.180
1113.930;    7.342;  -14.540;  694.200
1114.472;    7.230;  -12.640;  606.540
1115.013;    6.309;  -11.620;  551.280
1115.555;    6.855;  -13.640;  587.100
1116.097;    5.810;  -15.380;  579.480
1116.638;    7.322;  -12.640;  684.600
1117.180;    8.028;   -9.850;  667.740
1117.721;    7.218;  -13.690;  568.580
1118.262;    7.425;  -12.680;  677.960
1118.804;    7.700;  -12.530;  637.340
1119.345;    6.935;  -11.690;  578.400
1119.886;    7.993;  -13.380;  704.040
1120.427;    5.906;  -14.070;  589.020
1120.969;    6.095;  -13.500;  597.920
1121.510;    5.580;  -11.480;  563.060
1122.051;    6.161;  -12.830;  723.580
1122.592;    5.347;  -14.290;  655.420
1123.133;    4.467;  -12.400;  547.940
1123.673;    6.997;  -10.130;  706.480
1124.214;    6.027;  -12.930;  612.460
1124.755;    5.729;  -14.380;  639.460
1125.296;    5.971;  -14.000;  627.320
1125.836;    6.635;  -10.070;  691.500
1126.377;    5.663;  -12.640;  599.660
1126.918;    5.472;  -12.960;  614.980
1127.458;    4.823;  -13.350;  622.220
1127.999;    5.828;  -10.750;  656.980
1128.539;    6.041;  -12.350;  694.240
1129.079;    4.795;  -14.860;  632.720
1129.620;    4.130;  -13.840;  558.100
1130.160;    5.159;  -12.330;  539.480
1130.700;    5.608;  -14.530;  640.840
1131.240;    5.153;  -12.530;  643.700
1131.781;    3.782;  -14.450;  619.680
1132.321;    4.616;   -9.790;  599.120
1132.861;    3.212;  -14.860;  564.200
1133.401;    3.275;  -14.290;  593.940
1133.941;    3.673;  -11.750;  626.280
1134.481;    3.594;   -9.920;  597.580
1135.020;    3.951;  -12.290;  609.160
1135.560;    3.880;  -11.650;  674.940
1136.100;    2.734;  -16.270;  501.160
1136.640;    3.292;  -10.890;  510.480
1137.179;    3.438;  -14.180;  537.960
1137.719;    3.392;  -16.250;  605.400
1138.258;    4.094;  -14.230;  587.360
1138.798;    3.963;   -9.090;  663.780
1139.337;    2.728;  -15.130;  482.840
1139.877;    3.419;  -13.680;  642.360
1140.416;    4.743;  -11.320;  878.060
1140.955;    2.320;  -10.860;  535.380
1141.494;    3.554;  -12.920;  669.280
1142.034;    1.934;  -13.930;  583.520
1142.573;    3.715;  -11.440;  646.280
1143.112;    2.545;  -12.000;  553.480
1143.651;    2.913;  -13.670;  536.480
1144.190;    2.856;  -12.730;  691.640
1144.729;    2.047;  -14.560;  607.420
1145.267;    2.649;  -11.830;  584.900
1145.806;    3.357;  -12.230;  637.040
1146.345;    1.744;  -14.130;  635.020
1146.884;    1.860;  -11.590;  622.500
1147.422;    1.545;  -12.550;  533.060
1147.961;    3.192;  -11.180;  708.460
1148.500;    2.409;  -11.510;  669.720
1149.038;    2.826;  -11.640;  632.500
1149.577;    2.740;  -10.130;  698.640
1150.115;    0.440;  -13.970;  452.280
1150.653;    1.841;  -14.520;  607.340
1151.192;    1.912;  -12.810;  552.920
1151.730;    1.427;   -9.100;  652.560
1152.268;    0.932;  -12.220;  589.520
1152.806;    1.294;  -14.140;  571.180
1153.344;   -0.435;  -12.350;  577.640
1153.882;    1.435;   -8.980;  600.060
1154.421;    0.253;  -15.190;  470.620
1154.958;    0.375;  -15.210;  595.240
1155.496;    1.961;  -12.850;  645.280
1156.034;    0.849;   -9.940;  721.880
1156.572;    2.434;  -13.570;  667.060
1157.110;    0.088;  -14.590;  473.940
1157.647;    1.831;  -13.030;  676.960
1158.185;    0.627;  -12.140;  564.320
1158.723;   -0.503;  -14.390;  509.200
1159.260;    0.120;  -14.090;  701.700
1159.798;    0.424;  -11.920;  658.160
1160.335;    0.195;  -11.110;  631.820

