
Integration time [ms]:   3.276
Averaging Nr. [scans]: 1000
Smoothing Nr. [pixels]: 0
Data measured with spectrometer [name]: 7414430SP
Wave   ;Sample   ;Dark     ;Reference
[nm]   ;[counts] ;[counts] ;[counts] 

288.544;  150.011;    7.793;  793.890
289.143;  153.694;    7.462;  681.602
289.742;  154.061;    8.602;  828.814
290.341;  139.382;    1.321;  789.841
290.940;  128.831;   -0.709;  730.702
291.538;  130.126;    0.881;  881.108
292.137;  130.429;    0.122;  792.581
292.736;  134.511;   -1.929;  975.101
293.335;  130.481;   -8.229;  735.086
293.934;  130.893;   -5.279;  781.677
294.532;  129.306;   -1.369; 1031.958
295.131;  115.203;   -7.641;  834.394
295.730;  115.978;   -8.420;  809.588
296.328;  114.575;   -5.611;  783.442
296.927;  115.470;   -5.781;  779.652
297.525;  116.161;   -6.361;  781.236
298.124;  106.880;  -11.382;  654.009
298.722;  111.575;   -7.641;  761.933
299.321;  108.793;   -6.811;  708.597
299.919;  107.066;   -6.991;  751.918
300.518;  103.035;  -10.362;  689.338
301.116;  105.512;   -9.581;  691.381
301.715;  104.939;   -4.891;  730.222
302.313;  103.933;   -8.801;  704.943
302.911;   99.398;   -8.522;  733.830
303.509;  105.189;   -6.171;  925.627
304.108;  102.228;   -7.311;  760.383
304.706;  101.812;   -8.321;  801.664
305.304;   96.171;  -10.222;  796.707
305.902;  101.573;   -6.021;  784.484
306.500;   96.970;   -4.971;  728.200
307.098;   95.827;   -7.061;  746.560
307.696;   93.500;   -8.801;  780.432
308.294;   94.431;   -6.411;  731.359
308.892;   96.094;   -2.901;  759.769
309.490;   92.629;   -5.041;  712.161
310.088;   90.277;   -5.002;  788.444
310.686;   94.548;   -2.041;  821.749
311.284;   90.489;   -2.351;  766.040
311.882;   88.426;   -4.422;  731.225
312.480;   84.901;   -4.192;  697.167
313.078;   87.274;   -1.172;  808.331
313.675;   87.900;   -2.601;  691.600
314.273;   83.437;   -1.312;  797.837
314.871;   81.327;   -3.942;  589.829
315.468;   80.612;   -2.802;  652.090
316.066;   83.129;   -0.701;  694.427
316.664;   76.328;   -4.362;  656.351
317.261;   79.885;   -2.872;  910.128
317.859;   75.591;   -2.022;  768.735
318.456;   76.956;   -0.531;  830.096
319.054;   72.062;   -3.912;  787.828
319.651;   71.439;   -4.752;  759.928
320.249;   70.578;   -2.602;  810.188
320.846;   67.331;   -0.821;  714.286
321.443;   65.612;   -4.642;  832.135
322.041;   61.360;   -5.002;  812.315
322.638;   59.704;   -3.982;  701.456
323.235;   62.157;   -3.411;  665.683
323.833;   58.959;   -7.361;  740.354
324.430;   54.242;   -8.611;  615.900
325.027;   54.930;   -4.061;  876.855
325.624;   55.060;   -4.031;  644.532
326.221;   50.765;   -7.481;  689.717
326.818;   51.617;   -5.281;  818.332
327.415;   55.181;   -7.460;  748.828
328.012;   54.266;   -5.510;  690.585
328.609;   52.503;   -7.880;  731.389
329.206;   50.633;   -8.331;  778.621
329.803;   50.604;   -5.121;  737.841
330.400;   53.107;   -4.510;  704.260
330.997;   55.016;   -6.441;  817.147
331.594;   53.129;   -8.831;  788.185
332.191;   59.557;   -7.621;  728.722
332.787;   61.530;   -4.591;  844.463
333.384;   60.359;   -7.412;  763.093
333.981;   58.689;   -8.293;  815.687
334.578;   61.448;   -7.052;  708.378
335.174;   64.339;   -3.102;  731.469
335.771;   63.377;   -5.943;  836.456
336.367;   61.174;   -7.393;  710.631
336.964;   64.073;   -4.063;  793.266
337.561;   62.524;   -3.813;  731.112
338.157;   58.318;   -4.654;  911.916
338.754;   55.747;   -7.934;  796.589
339.350;   54.050;   -4.414;  722.493
339.946;   55.891;   -4.664;  773.135
340.543;   49.028;   -6.375;  846.136
341.139;   43.166;   -9.815;  720.836
341.735;   40.114;   -4.526;  772.593
342.332;   39.365;   -4.895;  691.472
342.928;   39.737;   -4.295;  795.394
343.524;   34.197;   -5.476;  761.684
344.120;   30.434;   -5.856;  738.562
344.716;   34.284;   -2.155;  723.717
345.313;   31.773;   -6.275;  795.342
345.909;   26.018;   -8.815;  627.336
346.505;   27.502;   -5.305;  740.247
347.101;   28.555;   -2.674;  827.864
347.697;   29.147;   -4.344;  785.398
348.293;   23.055;   -9.975;  627.244
348.889;   24.430;   -5.774;  745.914
349.485;   24.572;   -5.004;  688.205
350.081;   23.818;   -4.704;  772.592
350.676;   19.774;   -6.635;  691.606
351.272;   23.993;   -4.504;  809.530
351.868;   23.796;   -3.914;  780.497
352.464;   21.051;   -9.044;  723.932
353.059;   16.863;   -8.314;  646.017
353.655;   20.690;   -7.024;  777.063
354.251;   21.538;   -5.343;  759.845
354.846;   16.743;   -8.604;  740.646
355.442;   14.163;   -6.945;  753.071
356.038;   16.106;   -7.564;  751.708
356.633;   16.122;   -5.814;  728.594
357.229;   13.726;   -7.364;  724.757
357.824;   12.416;   -8.024;  703.600
358.420;   11.916;   -9.384;  679.726
359.015;   11.843;   -5.104;  695.357
359.610;   13.822;   -6.854;  763.920
360.206;    7.169;  -10.185;  603.240
360.801;    9.247;   -7.054;  646.503
361.396;   11.904;   -5.034;  725.975
361.992;    7.389;   -8.284;  668.220
362.587;    4.239;   -8.625;  670.160
363.182;    6.454;   -7.674;  689.631
363.777;    7.608;   -5.164;  738.242
364.372;    8.157;   -8.604;  737.314
364.967;    3.649;   -9.055;  680.744
365.563;    7.554;   -6.114;  815.567
366.158;    5.678;   -5.814;  685.161
366.753;    5.545;   -7.854;  649.263
367.348;    3.851;   -7.804;  746.056
367.942;    4.081;   -7.954;  697.298
368.537;    2.874;   -4.984;  754.245
369.132;    2.729;   -8.564;  703.428
369.727;   -1.114;   -8.855;  638.079
370.322;    0.455;   -6.245;  580.186
370.917;    0.307;   -6.425;  710.646
371.511;    3.502;   -6.294;  861.834
372.106;   -0.791;   -7.685;  776.964
372.701;   -3.416;   -7.335;  585.988
373.296;    2.031;   -4.564;  863.135
373.890;   -2.885;  -10.235;  647.840
374.485;   -5.053;   -7.885;  691.199
375.079;   -1.030;   -7.324;  738.685
375.674;    0.492;   -3.494;  812.970
376.268;   -4.187;   -8.525;  691.759
376.863;   -9.942;  -10.086;  580.327
377.457;   -3.758;   -7.025;  662.490
378.052;   -5.442;   -3.585;  764.884
378.646;   -6.373;   -7.595;  741.167
379.240;   -6.392;   -8.335;  721.176
379.835;   -5.263;   -5.785;  636.978
380.429;   -7.636;   -4.335;  562.557
381.023;   -7.818;   -6.805;  779.205
381.617;   -9.883;   -9.195;  680.106
382.212;   -6.038;   -6.905;  685.303
382.806;   -5.509;   -3.745;  760.690
383.400;  -10.243;   -7.745;  672.281
383.994;  -11.625;   -9.765;  664.870
384.588;   -6.667;   -6.564;  697.701
385.182;   -5.910;   -5.344;  726.624
385.776;   -7.172;   -8.514;  706.875
386.370;   -9.889;   -9.555;  681.968
386.964;   -9.447;   -8.715;  684.155
387.558;   -7.614;   -6.174;  598.360
388.152;  -11.019;   -8.725;  681.959
388.745;   -9.035;   -7.965;  814.707
389.339;   -7.817;   -5.924;  747.642
389.933;   -6.328;   -5.524;  695.370
390.527;   -7.362;   -7.114;  859.029
391.120;  -13.570;  -10.725;  595.318
391.714;  -10.498;   -8.035;  711.633
392.308;   -7.571;   -3.574;  780.253
392.901;  -11.304;   -7.245;  642.460
393.495;  -12.901;   -9.285;  595.414
394.089;  -11.161;   -5.895;  760.452
394.682;  -11.212;   -4.295;  697.188
395.275;  -12.134;   -9.875;  719.927
395.869;  -12.932;   -8.485;  667.314
396.462;  -11.438;   -7.455;  616.609
397.056;   -7.537;   -5.424;  776.621
397.649;  -11.834;   -6.605;  731.575
398.242;   -9.923;   -8.224;  712.645
398.836;   -9.544;   -7.474;  766.408
399.429;   -9.929;   -7.094;  631.041
400.022;  -13.368;   -9.475;  665.902
400.615;  -11.360;   -7.145;  805.609
401.208;   -8.647;   -7.174;  691.451
401.802;  -11.206;   -5.515;  699.329
402.395;  -12.453;   -9.875;  683.502
402.988;  -13.587;   -8.845;  696.627
403.581;   -9.834;   -8.874;  646.878
404.174;   -8.653;   -5.324;  686.568
404.767;  -11.217;   -9.575;  638.583
405.360;  -13.505;  -10.965;  621.445
405.953;   -7.831;   -8.764;  759.034
406.545;   -7.281;   -7.514;  725.342
407.138;  -11.158;  -10.025;  618.350
407.731;  -10.749;  -10.034;  613.303
408.324;   -7.143;   -9.374;  660.554
408.917;   -7.095;   -6.534;  681.864
409.509;   -9.387;   -8.004;  740.396
410.102;  -11.005;   -9.875;  643.948
410.695;   -5.722;   -8.604;  665.758
411.287;   -5.748;   -6.794;  599.821
411.880;   -7.077;   -9.334;  585.421
412.472;  -10.319;  -10.254;  613.092
413.065;   -7.751;   -6.714;  629.408
413.657;   -5.026;   -7.234;  576.678
414.250;   -5.526;  -10.544;  646.681
414.842;   -7.394;   -9.744;  676.353
415.434;   -4.909;   -6.994;  570.463
416.027;   -0.517;   -5.893;  652.196
416.619;   -2.366;   -7.264;  713.400
417.211;   -3.459;  -10.374;  599.352
417.804;    0.852;   -7.993;  628.499
418.396;   -3.021;   -7.234;  607.643
418.988;   -1.320;   -9.443;  659.238
419.580;   -4.577;  -10.724;  568.276
420.172;   -2.449;  -10.323;  536.196
420.764;    1.999;   -8.793;  672.482
421.356;    0.862;  -11.143;  636.898
421.948;   -0.490;   -8.293;  677.661
422.540;    4.820;   -7.893;  680.027
423.132;    3.975;   -7.082;  600.641
423.724;    1.514;   -8.653;  561.267
424.316;    3.332;  -10.213;  621.345
424.908;    6.051;   -9.762;  591.517
425.500;    7.220;   -5.572;  647.978
426.092;    7.855;   -8.422;  648.268
426.683;    6.296;   -9.283;  684.836
427.275;    8.965;   -7.852;  641.471
427.867;   11.132;   -5.272;  668.948
428.458;   11.319;   -7.682;  732.344
429.050;   10.272;  -10.612;  680.749
429.642;   12.668;   -9.882;  743.124
430.233;   13.008;   -6.962;  569.356
430.825;   14.051;   -6.842;  724.809
431.416;   10.440;   -9.672;  698.241
432.008;   14.877;   -6.552;  651.723
432.599;   15.520;   -6.891;  656.073
433.190;   12.810;  -10.912;  637.670
433.782;   12.036;  -11.172;  590.395
434.373;   19.731;   -6.061;  884.765
434.964;   17.561;   -8.251;  602.920
435.556;   16.070;   -9.722;  634.537
436.147;   18.879;   -9.082;  758.490
436.738;   19.153;   -8.041;  701.099
437.329;   24.695;   -7.341;  721.723
437.920;   17.261;   -8.162;  666.688
438.511;   17.534;  -11.802;  564.526
439.103;   24.239;  -10.191;  623.998
439.694;   25.419;   -7.601;  681.583
440.285;   26.663;   -8.541;  764.432
440.876;   24.713;   -9.751;  845.738
441.466;   23.721;   -9.401;  575.162
442.057;   29.831;   -7.760;  665.814
442.648;   27.340;   -9.971;  746.255
443.239;   26.353;  -11.001;  620.477
443.830;   31.879;   -7.990;  704.958
444.421;   33.116;   -7.910;  655.474
445.011;   30.200;   -8.131;  693.619
445.602;   29.790;   -7.111;  743.126
446.193;   32.077;  -10.920;  488.117
446.783;   35.413;   -6.500;  640.397
447.374;   31.343;   -8.671;  692.759
447.964;   31.693;  -10.781;  713.770
448.555;   40.433;   -9.650;  822.742
449.145;   37.641;   -8.660;  662.853
449.736;   37.763;   -8.990;  803.179
450.326;   37.679;   -9.500;  713.626
450.917;   42.425;   -8.680;  675.324
451.507;   43.031;   -7.520;  600.661
452.097;   42.439;   -8.590;  746.267
452.688;   43.794;  -11.340;  742.160
453.278;   43.332;  -10.100;  566.840
453.868;   48.024;   -6.019;  793.550
454.458;   46.228;   -9.440;  651.141
455.048;   45.550;  -10.560;  711.783
455.639;   48.568;  -11.799;  567.096
456.229;   51.773;   -6.899;  710.694
456.819;   53.482;   -7.389;  751.158
457.409;   53.386;  -11.119;  773.993
457.999;   56.873;   -9.289;  737.505
458.589;   55.988;   -6.139;  686.606
459.179;   56.539;   -8.729;  717.658
459.769;   54.191;   -9.789;  627.099
460.358;   59.061;  -10.259;  797.262
460.948;   60.084;   -7.299;  689.503
461.538;   61.002;  -10.289;  660.677
462.128;   58.076;  -11.269;  664.934
462.717;   65.260;   -9.368;  710.326
463.307;   68.925;   -7.908;  705.846
463.897;   64.594;   -9.599;  656.942
464.486;   63.846;   -9.769;  837.128
465.076;   68.175;   -8.048;  733.776
465.666;   71.696;   -9.358;  652.900
466.255;   69.718;   -7.919;  785.651
466.845;   69.225;  -11.689;  666.749
467.434;   71.571;   -7.818;  725.873
468.023;   72.938;   -7.678;  658.357
468.613;   70.577;  -10.939;  713.946
469.202;   74.467;  -10.118;  646.507
469.791;   78.900;   -9.108;  737.811
470.381;   81.247;   -6.058;  742.813
470.970;   80.887;  -10.428;  711.099
471.559;   80.770;  -10.268;  733.291
472.148;   84.451;   -8.448;  675.737
472.738;   86.367;   -6.917;  765.466
473.327;   85.284;  -11.978;  637.529
473.916;   84.757;  -11.888;  737.446
474.505;   89.953;   -9.437;  751.703
475.094;   93.051;   -6.747;  806.570
475.683;   93.289;   -9.367;  797.699
476.272;   94.164;  -12.637;  730.632
476.861;   96.904;  -10.027;  706.754
477.449;  103.231;   -8.716;  728.487
478.038;   97.223;   -9.577;  692.513
478.627;   98.169;   -9.718;  714.852
479.216;  104.916;   -8.947;  769.441
479.805;  108.558;   -6.256;  783.375
480.393;  108.141;   -7.937; 1008.945
480.982;  106.923;   -7.717;  874.501
481.571;  113.602;   -9.266;  858.333
482.159;  114.200;   -7.636;  705.386
482.748;  114.424;   -9.667;  821.385
483.336;  118.307;  -10.376;  858.209
483.925;  119.920;   -7.147;  774.373
484.513;  126.140;   -7.996;  758.962
485.102;  123.160;  -10.027;  810.965
485.690;  132.400;  -10.446; 1011.050
486.278;  134.671;   -8.446;  979.329
486.867;  135.033;   -6.356;  809.662
487.455;  136.491;   -9.136;  898.229
488.043;  138.314;  -10.646;  748.361
488.631;  146.970;   -7.456; 1005.079
489.220;  151.292;   -6.636;  908.626
489.808;  152.216;  -11.036;  741.415
490.396;  159.701;  -10.246;  914.645
490.984;  166.895;   -8.556;  830.161
491.572;  176.443;   -5.886;  940.315
492.160;  183.335;   -9.486;  919.081
492.748;  195.037;  -10.976;  884.341
493.336;  220.353;   -8.776; 1019.693
493.924;  248.871;   -5.465;  958.077
494.512;  278.322;   -9.986; 1066.638
495.100;  320.016;  -10.636; 1103.280
495.687;  377.927;  -10.885; 1206.373
496.275;  447.218;   -8.126; 1150.796
496.863;  519.165;  -10.586; 1281.171
497.451;  626.126;  -11.926; 1386.805
498.038;  765.775;  -10.885; 1556.729
498.626;  878.118;   -6.315; 1741.407
499.214; 1029.370;   -7.326; 2016.609
499.801; 1251.225;  -11.906; 2220.633
500.389; 1503.680;  -10.466; 2312.494
500.976; 1846.397;   -5.236; 2744.849
501.564; 2310.768;   -8.936; 3148.565
502.151; 2725.710;  -13.176; 3515.999
502.738; 3212.434;  -10.646; 3971.274
503.326; 3599.100;   -9.525; 4403.796
503.913; 3994.908;  -10.856; 5161.749
504.500; 4378.740;  -11.586; 5986.420
505.088; 4794.561;  -10.336; 6381.201
505.675; 5366.732;   -6.355; 6925.547
506.262; 6105.796;   -9.046; 7619.060
506.849; 6811.423;  -10.416; 8733.969
507.436; 7312.318;  -10.305; 9790.121
508.023; 7942.920;   -5.496; 9985.472
508.610; 8217.544;   -7.856;10434.618
509.197; 8872.320;  -10.097;11198.435
509.784;10305.962;  -10.886;12391.194
510.371;11379.736;   -9.315;13603.713
510.958;12133.613;   -9.936;14426.586
511.545;12946.939;   -9.326;15243.775
512.132;13987.297;  -10.075;15945.876
512.719;14719.655;   -7.796;16340.369
513.305;15731.030;  -10.606;18011.766
513.892;16562.156;  -11.486;19754.971
514.479;17886.842;   -9.126;20967.805
515.066;19235.961;   -6.026;22299.793
515.652;20475.662;   -8.466;22908.660
516.239;22103.408;  -10.886;23798.875
516.825;23418.404;  -11.496;25567.275
517.412;24724.172;   -5.796;28154.959
517.998;25241.518;  -10.506;28344.111
518.585;25120.596;  -10.076;27134.219
519.171;25701.938;   -8.315;27268.576
519.758;27392.533;   -8.596;28964.129
520.344;29117.869;   -8.466;30664.494
520.930;29124.199;  -11.006;32550.605
521.516;31108.629;  -10.495;35422.895
522.103;33716.102;   -5.526;38280.004
522.689;34470.133;   -8.746;37835.117
523.275;33594.695;  -11.376;37288.613
523.861;34288.832;  -11.156;37281.395
524.447;35728.652;   -8.135;37846.949
525.033;35510.992;   -7.896;38321.949
525.619;35647.977;  -12.476;38579.285
526.205;37492.723;   -9.516;40622.875
526.791;40083.902;   -6.926;42258.836
527.377;40255.590;   -8.346;42966.902
527.963;41954.102;   -8.717;42018.949
528.549;40196.535;  -11.016;42476.828
529.135;39043.188;   -8.536;41854.852
529.721;38679.543;   -9.666;41237.711
530.306;38155.035;  -10.066;41259.445
530.892;37836.117;  -11.356;41506.047
531.478;39331.094;   -6.596;43559.613
532.063;42189.422;   -8.836;47695.563
532.649;42152.055;  -10.047;50808.324
533.235;43370.926;   -9.746;51787.500
533.820;44629.758;   -6.566;52145.035
534.406;46167.090;  -10.817;51133.488
534.991;46053.895;   -9.416;49996.805
535.576;44501.906;   -9.036;48882.852
536.162;44815.270;   -6.156;46942.285
536.747;46069.387;  -11.607;45711.746
537.333;50484.375;  -11.787;48510.180
537.918;52751.957;  -12.437;50439.891
538.503;50824.434;   -7.196;50863.711
539.088;48138.539;  -10.556;50906.922
539.673;48332.750;   -8.767;52621.965
540.259;47728.285;  -10.026;52368.094
540.844;44733.781;   -7.416;50879.109
541.429;45927.105;   -9.467;52077.777
542.014;49196.559;   -9.527;52716.695
542.599;48511.027;   -9.946;52363.281
543.184;46445.594;   -7.927;53187.137
543.769;48474.109;   -9.297;54697.605
544.354;47352.434;  -10.127;53913.914
544.938;45877.063;   -9.267;49680.164
545.523;47667.465;   -6.506;47386.277
546.108;49866.113;   -9.787;49151.949
546.693;52256.469;  -11.587;51384.637
547.278;52323.980;  -10.986;51853.254
547.862;49153.492;   -8.206;51173.750
548.447;44459.539;  -10.067;51691.395
549.031;44078.910;   -9.637;52456.703
549.616;49178.512;   -9.926;52714.516
550.201;47787.582;   -6.347;52414.598
550.785;48913.781;   -7.917;52355.059
551.370;48181.785;  -10.867;54589.453
551.954;48523.102;   -9.047;58267.348
552.538;49350.520;   -7.827;59062.176
553.123;47739.645;  -10.287;58115.285
553.707;45794.527;  -12.178;56556.285
554.291;46843.633;   -8.717;56201.668
554.876;48706.250;   -7.457;55335.762
555.460;49246.984;  -10.387;54155.703
556.044;50743.020;   -9.618;53721.484
556.628;49138.242;  -11.567;53731.016
557.212;47486.605;   -8.097;54312.531
557.796;45917.188;  -11.077;53797.773
558.380;45558.719;  -11.108;56145.984
558.964;45840.953;   -9.057;57277.930
559.548;46666.660;   -6.977;56459.641
560.132;45230.105;  -11.457;54434.543
560.716;44278.918;  -11.378;54800.617
561.300;45545.641;   -9.577;57606.945
561.884;46409.941;   -7.127;58972.445
562.467;45052.367;   -7.118;57327.570
563.051;44213.250;  -13.358;54962.434
563.635;45089.383;  -10.178;52594.473
564.219;45544.402;   -7.837;50610.410
564.802;46473.941;  -11.398;49551.180
565.386;46702.121;  -12.788;48370.953
565.969;46259.230;   -9.077;48178.871
566.553;45873.738;   -6.207;49957.305
567.136;45661.398;   -8.568;50369.594
567.720;41457.738;  -11.868;49492.004
568.303;39418.730;   -8.268;50616.352
568.887;39624.195;   -8.698;50727.148
569.470;39725.363;   -6.808;51698.379
570.053;38317.465;  -13.188;52122.078
570.637;36683.387;  -12.037;52536.438
571.220;36272.531;   -8.577;51186.098
571.803;36754.965;   -8.498;51032.762
572.386;39648.488;  -10.498;49609.887
572.969;42026.250;   -9.388;48285.926
573.552;39598.867;   -8.338;47624.285
574.135;38222.523;   -8.518;45498.641
574.718;35731.406;  -13.628;41970.434
575.301;34424.434;  -10.893;41447.137
575.884;33117.457;   -8.158;40923.836
576.467;34594.438;  -10.328;45267.723
577.050;37461.418;  -13.058;48175.543
577.633;38903.055;   -9.458;47729.328
578.216;37512.320;   -8.928;47579.793
578.799;36545.449;   -9.358;47820.996
579.381;35254.637;  -11.388;48115.551
579.964;33970.496;  -11.718;47333.766
580.547;35500.055;   -8.588;46668.969
581.129;36542.156;   -8.859;44466.141
581.712;36906.480;  -10.729;44164.922
582.294;37524.879;  -11.118;46477.855
582.877;37528.770;   -5.218;48244.254
583.459;34961.070;   -8.679;47437.895
584.042;33218.375;  -10.709;46943.219
584.624;34188.465;  -11.669;46792.227
585.206;33529.848;   -8.218;46557.250
585.789;33826.539;  -10.569;45793.773
586.371;36650.492;  -11.859;43836.391
586.953;36780.051;  -10.719;42972.492
587.536;38091.172;   -7.198;42487.211
588.118;37565.516;   -8.720;42086.414
588.700;34560.531;  -10.439;43389.930
589.282;33838.953;   -9.198;43646.039
589.864;34453.637;   -9.199;43438.109
590.446;35054.949;  -11.319;43151.926
591.028;34753.598;  -11.159;42781.867
591.610;33896.184;  -11.779;42839.098
592.192;31732.199;   -7.668;42820.402
592.774;30437.025;  -11.949;40724.277
593.356;29207.035;  -12.129;39874.789
593.937;28365.385;  -10.669;39980.648
594.519;30641.498;   -6.509;42069.633
595.101;32719.219;  -10.849;42976.031
595.683;32683.959;  -11.679;44084.441
596.264;33881.035;   -9.049;43478.797
596.846;32965.035;   -8.849;43803.672
597.427;32654.721;   -9.570;42986.934
598.009;34361.199;  -12.620;42832.219
598.591;34597.375;  -10.039;42580.086
599.172;33417.582;  -10.369;43061.805
599.753;33426.840;   -9.140;41691.469
600.335;34934.078;  -11.430;40692.520
600.916;33485.359;   -9.939;39982.422
601.498;31234.383;   -8.479;40318.617
602.079;29817.623;  -10.920;40670.609
602.660;30047.965;  -11.480;41450.898
603.241;31529.025;  -11.699;41137.738
603.823;30290.268;   -9.579;38868.797
604.404;30452.293;  -10.620;38182.785
604.985;31679.916;  -10.450;38078.047
605.566;31052.508;   -9.129;38056.633
606.147;31149.543;   -7.510;37020.418
606.728;32980.137;  -10.660;37883.359
607.309;31721.650;  -11.740;38748.273
607.890;31023.566;   -9.759;38850.230
608.471;30529.531;   -8.250;37457.918
609.051;29472.818;   -9.240;36066.457
609.632;28463.182;  -12.120;35991.074
610.213;29440.123;   -9.110;37402.641
610.794;29978.941;   -8.030;38383.363
611.374;29400.805;   -8.110;40562.387
611.955;29728.262;  -13.560;38533.727
612.536;30947.422;  -11.400;36951.789
613.116;31236.301;   -8.070;37197.891
613.697;31395.336;  -10.830;38411.125
614.277;30074.543;  -11.641;38673.938
614.858;31036.654;  -13.310;37075.863
615.438;29994.615;   -7.460;35092.906
616.019;27001.078;   -7.601;33666.301
616.599;27884.477;  -12.020;34189.023
617.179;29669.408;  -11.780;36952.047
617.760;30342.447;   -8.570;39582.574
618.340;31488.426;  -11.471;38943.977
618.920;32930.801;  -11.170;37594.156
619.500;32956.633;  -11.071;37866.938
620.080;32331.357;   -7.750;37869.043
620.660;33520.730;  -12.711;36868.617
621.241;34852.609;  -10.211;36352.309
621.821;34787.203;  -10.961;35459.520
622.401;33620.699;   -7.720;35207.414
622.980;32775.777;   -8.981;35980.422
623.560;31477.979;   -9.331;37351.328
624.140;30559.422;   -9.850;34388.582
624.720;25131.393;   -7.451;32368.764
625.300;21469.727;   -9.070;32638.629
625.880;24925.836;  -12.601;34599.035
626.459;29083.115;  -11.751;36831.738
627.039;32314.578;   -9.281;38299.098
627.619;32281.682;   -8.801;38289.574
628.198;30396.988;  -12.071;37220.695
628.778;29400.576;   -9.461;37632.563
629.357;30219.381;   -8.491;38003.012
629.937;30436.365;   -9.721;38402.039
630.516;29718.672;   -9.951;37868.801
631.096;29159.104;  -11.731;35760.410
631.675;32599.146;   -8.572;35225.219
632.254;37641.754;  -11.282;35130.289
632.834;37024.527;  -13.322;35794.570
633.413;34928.602;  -10.301;35788.922
633.992;31719.561;   -8.582;34532.863
634.571;32531.955;   -8.352;33590.113
635.151;35321.313;  -11.912;34943.863
635.730;33862.129;  -10.511;35352.523
636.309;30718.195;   -7.731;35366.605
636.888;28441.828;   -9.952;36165.637
637.467;29571.861;  -11.672;37515.902
638.046;31178.254;   -8.901;39288.695
638.625;34259.371;   -7.912;38279.699
639.204;33874.738;  -10.022;37741.598
639.782;32265.477;  -12.252;38364.551
640.361;28304.646;  -10.041;36740.621
640.940;25464.631;  -11.161;34950.082
641.519;26040.725;   -9.701;34137.398
642.097;29257.420;  -11.271;35654.258
642.676;32134.338;   -8.651;35637.957
643.255;32399.553;   -8.711;36567.074
643.833;31548.742;   -9.581;37809.434
644.412;31834.471;  -13.711;37337.293
644.990;31159.459;  -11.811;37018.531
645.569;31558.488;   -9.411;36518.469
646.147;30244.541;  -10.291;36186.430
646.726;29291.082;  -12.401;36267.688
647.304;30101.740;  -10.411;36647.625
647.882;32446.322;   -9.651;39286.742
648.461;34383.484;   -9.631;39157.703
649.039;32238.500;  -11.881;35412.883
649.617;31581.000;   -9.661;34744.918
650.195;31417.383;   -9.301;35403.098
650.773;29854.230;  -10.511;35053.797
651.352;27612.982;  -11.521;33756.816
651.930;25285.654;  -12.211;31868.773
652.508;23561.146;   -9.171;33121.551
653.086;27533.488;   -9.371;33564.793
653.663;30134.211;  -13.161;34054.668
654.241;29328.207;  -13.031;35693.309
654.819;31064.621;   -9.371;36422.906
655.397;31152.414;  -10.511;38213.484
655.975;31041.268;  -10.371;39507.625
656.553;30472.930;  -10.051;39498.223
657.130;28891.338;  -10.061;40395.480
657.708;28537.076;   -9.561;39242.020
658.286;28498.436;  -11.511;38920.020
658.863;29398.854;  -10.261;40202.898
659.441;32360.697;   -7.531;39677.938
660.018;31697.867;   -9.501;40413.355
660.596;30658.887;  -13.301;39931.414
661.173;32868.063;  -11.211;39604.531
661.750;33182.535;   -9.951;39700.070
662.328;32252.877;   -9.390;39292.809
662.905;31014.857;  -11.330;38235.648
663.482;26172.480;   -9.050;36212.305
664.060;24360.645;   -8.240;35944.945
664.637;27315.850;  -10.050;35170.785
665.214;29202.637;  -11.760;34197.523
665.791;30362.750;  -10.530;34549.520
666.368;29136.980;   -9.690;35118.578
666.945;30468.379;   -9.320;36019.418
667.522;31940.068;  -11.860;36048.438
668.099;31662.301;  -10.770;36243.914
668.676;30670.340;   -6.260;35958.875
669.253;29249.361;   -7.000;37384.730
669.830;29952.012;  -10.190;36779.629
670.407;29604.807;   -9.550;35231.289
670.984;29929.486;   -9.260;35544.270
671.560;30270.328;   -9.280;35466.867
672.137;28939.637;  -11.810;34280.863
672.714;29609.404;  -11.490;34632.863
673.290;30127.695;   -7.740;35135.422
673.867;30538.785;  -10.660;36114.480
674.443;30199.811;  -12.230;36152.859
675.020;28662.662;  -10.450;35327.238
675.596;29985.832;   -9.260;35795.176
676.173;30510.121;  -10.780;35430.355
676.749;30405.945;  -13.690;33549.516
677.326;30392.855;  -11.980;32210.012
677.902;30224.760;   -8.630;32068.871
678.478;29327.307;  -10.730;32583.891
679.054;28914.553;  -10.520;32088.928
679.631;29208.457;  -11.920;30978.848
680.207;30770.563;   -7.490;33160.887
680.783;32438.740;   -9.860;35570.363
681.359;31485.283;  -13.380;36125.184
681.935;30631.021;  -12.480;35240.922
682.511;29503.805;   -7.900;34429.961
683.087;29663.885;   -7.710;34463.680
683.663;29562.359;  -11.480;34648.898
684.239;28265.971;  -14.090;34546.457
684.815;27973.090;   -7.560;35586.375
685.390;28447.412;   -9.910;35821.895
685.966;29036.701;  -11.159;35085.871
686.542;31700.441;  -11.169;34198.230
687.118;33329.539;   -5.959;32847.707
687.693;33018.105;  -10.329;32794.027
688.269;32757.232;  -12.059;33072.367
688.844;30976.797;  -10.909;33141.664
689.420;28753.506;   -8.019;33965.742
689.995;26394.451;   -8.399;34655.523
690.571;25233.803;  -10.949;33576.742
691.146;25873.488;   -9.619;32657.219
691.722;25275.766;   -8.999;32526.979
692.297;25659.521;  -11.589;33014.617
692.872;27613.852;  -11.739;34012.254
693.448;26898.949;  -11.059;34237.434
694.023;26092.105;  -10.139;34142.672
694.598;28177.916;   -9.029;34132.031
695.173;28318.045;  -13.319;34205.250
695.748;27710.316;  -10.169;32882.488
696.323;27639.037;   -8.339;32864.906
696.898;27981.863;   -8.169;33170.004
697.473;27664.215;  -12.309;32432.984
698.048;27011.959;  -10.989;31649.303
698.623;27267.682;   -9.329;30778.141
699.198;29346.223;   -9.849;31140.119
699.773;29862.035;  -12.329;31764.299
700.348;28169.371;  -10.389;31780.816
700.922;28090.270;   -9.269;32046.375
701.497;28479.359;   -9.329;32603.574
702.072;28435.758;  -10.789;34799.871
702.646;27443.037;  -10.839;35793.172
703.221;26013.736;   -9.099;35201.590
703.795;28022.746;  -10.939;34764.527
704.370;28106.090;  -12.859;34307.367
704.944;28494.070;  -11.559;33509.887
705.519;29535.324;   -7.939;31388.584
706.093;31137.844;  -10.499;31340.104
706.668;31203.311;  -11.289;32630.281
707.242;30166.740;  -11.509;32728.779
707.816;28672.400;   -9.639;32947.238
708.390;27135.523;  -11.429;33277.855
708.965;27952.674;  -11.869;33834.336
709.539;28420.420;  -11.689;33709.273
710.113;28924.445;  -10.478;33044.313
710.687;27941.740;  -10.228;31953.992
711.261;26123.396;  -13.698;30505.949
711.835;26119.604;  -13.378;30262.369
712.409;27076.988;   -9.698;31254.447
712.983;28692.486;  -11.898;32754.986
713.557;29382.457;  -15.138;34018.824
714.131;28897.727;  -14.098;34579.625
714.704;28003.143;   -9.958;33890.262
715.278;25959.859;  -10.028;33531.102
715.852;25296.936;  -11.148;33601.660
716.425;26258.283;   -9.068;33515.117
716.999;26866.428;  -10.038;33185.555
717.573;27899.061;   -9.798;33905.996
718.146;28976.998;  -12.378;35199.293
718.720;28583.650;  -11.918;35060.551
719.293;27992.205;   -8.088;34973.230
719.867;30836.014;  -10.888;36394.449
720.440;30201.996;  -11.938;36663.008
721.013;28391.432;  -12.818;35102.426
721.587;27293.656;  -10.298;33985.266
722.160;26674.217;  -10.048;33524.965
722.733;25752.195;  -12.108;32987.043
723.306;26126.242;  -10.818;33066.301
723.880;28175.434;   -8.908;33399.500
724.453;29314.607;   -9.878;33468.297
725.026;28173.355;  -11.188;33816.637
725.599;26156.998;  -11.678;32797.996
726.172;27232.943;   -9.618;33187.434
726.745;28484.205;   -8.258;35136.613
727.318;29787.699;  -12.978;35751.730
727.891;29691.391;  -12.148;35890.430
728.463;29269.057;   -8.968;34822.090
729.036;28546.172;  -10.188;32895.086
729.609;28882.066;  -11.788;31823.225
730.182;25856.371;  -11.788;31445.283
730.754;23335.316;  -10.268;32373.223
731.327;23260.816;   -9.998;33676.820
731.900;23830.645;  -12.228;33417.000
732.472;25346.307;  -13.848;31978.498
733.045;27036.648;   -8.698;30368.777
733.617;27059.535;  -10.607;30574.215
734.190;26323.305;  -11.507;31280.975
734.762;23272.313;  -13.647;31674.412
735.334;21925.951;   -9.767;31247.291
735.907;22699.787;   -9.897;29876.211
736.479;22642.826;  -11.637;29808.488
737.051;22249.705;   -9.567;30233.547
737.623;23188.221;   -8.187;31469.086
738.195;24370.736;  -11.187;31784.225
738.768;26544.963;  -12.337;32120.523
739.340;26120.160;  -12.227;32094.342
739.912;24595.361;  -11.057;31312.680
740.484;23291.484;  -10.207;31946.238
741.056;22518.734;  -10.047;32984.059
741.628;24390.773;  -13.627;33897.715
742.199;26618.924;   -7.177;33213.016
742.771;24971.027;  -10.797;31369.113
743.343;22677.357;  -11.997;31865.473
743.915;21757.084;  -12.867;32388.631
744.487;21914.438;   -7.617;31079.568
745.058;22005.141;   -9.557;30570.107
745.630;22468.639;   -9.877;29970.127
746.201;23044.109;  -14.177;29186.766
746.773;23130.449;   -9.237;28805.723
747.344;23041.148;   -9.847;29591.223
747.916;21942.730;  -11.657;31412.201
748.487;22368.072;  -10.587;32194.898
749.059;23552.963;   -8.707;32533.719
749.630;24322.748;  -10.537;32158.518
750.201;23570.127;  -11.687;30855.395
750.773;21802.078;  -11.647;28622.555
751.344;21780.971;   -7.147;28405.732
751.915;22797.395;   -9.757;28461.551
752.486;22205.246;  -12.427;27842.850
753.057;20142.824;  -12.227;27845.008
753.628;19244.189;  -10.417;27728.107
754.199;20430.695;  -11.767;27381.086
754.770;21286.678;  -11.187;25882.203
755.341;21268.596;  -10.507;25886.184
755.912;21066.320;   -9.387;26050.861
756.483;20376.611;  -10.647;26798.779
757.054;18501.861;  -11.837;27048.238
757.625;17365.955;  -12.716;26294.838
758.195;17431.662;   -9.666;26142.076
758.766;17284.334;   -8.656;26392.234
759.337;18041.865;  -12.856;26334.594
759.907;19788.309;  -13.366;27579.652
760.478;20512.348;   -8.576;28352.770
761.048;19712.537;  -10.526;27325.088
761.619;18895.279;  -11.116;26460.428
762.189;19103.535;  -12.136;26029.826
762.760;20476.945;   -9.456;26430.145
763.330;21367.490;   -7.136;26670.902
763.900;20541.764;  -11.786;26603.021
764.471;17892.889;  -11.546;25542.740
765.041;16696.307;   -8.096;24358.459
765.611;16819.326;   -8.876;23991.297
766.181;17255.889;  -12.196;24470.236
766.751;18158.465;  -11.636;24845.975
767.321;17820.148;  -10.156;24533.633
767.891;15816.683;  -11.766;24916.492
768.461;15403.352;  -14.936;24776.771
769.031;16075.385;  -12.356;24757.988
769.601;17461.705;   -7.526;24181.088
770.171;17092.613;  -10.766;23670.387
770.741;16478.766;  -13.176;22960.045
771.311;16883.682;  -10.616;22917.523
771.880;17119.498;   -9.576;23562.941
772.450;16824.195;  -10.336;24216.500
773.020;17074.506;  -13.516;24140.398
773.589;16581.648;  -13.466;24414.857
774.159;15974.427;   -8.686;23858.717
774.729;15479.433;   -9.476;22942.135
775.298;14866.187;  -13.666;22324.033
775.867;14456.585;  -11.716;21140.313
776.437;14480.834;   -9.906;20838.092
777.006;14234.917;  -12.166;20599.510
777.576;14191.722;  -12.356;20508.809
778.145;14443.854;  -11.646;20732.947
778.714;14279.846;   -8.226;21062.465
779.283;13482.825;   -9.556;20949.664
779.853;13033.089;  -14.116;20508.623
780.422;13450.925;  -11.506;20649.082
780.991;13061.602;   -9.556;21527.520
781.560;12029.651;   -9.095;22632.658
782.129;11898.190;  -12.135;23048.277
782.698;11903.128;  -10.865;23438.555
783.267;11462.582;   -9.335;23267.734
783.836;11512.257;  -11.045;22415.133
784.404;12614.196;  -13.865;20443.152
784.973;13088.726;  -13.095;19699.150
785.542;13006.870;  -11.575;19763.828
786.111;12851.917;   -9.705;20341.408
786.679;12240.087;  -12.105;20207.967
787.248;12005.285;  -12.455;19516.465
787.817;11847.167;  -11.535;18900.363
788.385;11423.166;   -9.765;17879.121
788.954;10845.361;  -14.005;17658.301
789.522;10392.325;  -11.955;17788.879
790.090;10937.108;  -10.135;18118.277
790.659;11252.005;  -10.975;18338.736
791.227;10747.955;  -13.375;18508.615
791.795;11202.075;  -12.375;17898.254
792.364;11487.905;  -10.725;17295.133
792.932;11699.385;   -9.715;16822.051
793.500;11912.828;  -12.675;17040.148
794.068;12236.266;  -13.495;17179.787
794.636;12312.017;  -10.885;16664.246
795.204;11860.111;  -11.045;16524.545
795.772;11965.410;  -13.175;17274.564
796.340;11456.492;  -12.445;17891.002
796.908;11269.035;   -9.735;17648.561
797.476;11108.345;   -9.815;17064.080
798.044;10654.406;  -13.985;16672.777
798.612; 9900.760;  -13.115;17023.996
799.180; 9522.936;  -10.185;16561.615
799.747; 9443.183;   -9.055;15962.773
800.315; 9222.654;  -12.385;15296.992
800.883; 8860.604;  -15.035;14801.771
801.450; 8813.652;  -10.365;14534.430
802.018; 8885.470;   -9.855;14173.248
802.585; 9069.277;  -11.905;14029.547
803.153; 9181.417;  -11.585;13836.846
803.720; 8999.793;   -9.095;13567.324
804.287; 8517.604;   -9.135;13360.622
804.855; 8132.577;  -11.604;13681.981
805.422; 7996.750;  -11.794;13536.560
805.989; 7944.473;  -10.734;13355.958
806.556; 8167.137;  -10.444;13747.896
807.124; 8472.618;  -12.764;13987.376
807.691; 8453.507;  -12.964;14038.674
808.258; 8199.665;  -11.134;14120.152
808.825; 7775.129;   -9.854;13860.111
809.392; 7794.923;  -10.504;13268.790
809.959; 7363.117;  -13.054;12680.389
810.526; 7009.709;   -8.294;12427.308
811.093; 7098.617;   -8.394;12030.105
811.659; 7620.452;  -12.304;11653.664
812.226; 8013.523;  -13.944;11637.183
812.793; 7662.642;  -10.484;11611.521
813.360; 7066.128;  -10.144;11885.181
813.926; 6811.852;  -11.684;12770.539
814.493; 6609.923;  -13.644;12677.638
815.060; 6252.894;   -9.724;11974.336
815.626; 6290.876;   -9.854;11594.715
816.193; 6673.104;  -13.254;11579.474
816.759; 6714.595;  -13.204;11666.972
817.325; 6820.079;   -9.434;11325.530
817.892; 7163.546;  -10.134;11105.369
818.458; 7563.975;  -13.474;10843.928
819.024; 7133.967;  -11.854;10714.406
819.591; 6780.289;  -10.244;10469.165
820.157; 6604.851;  -10.704;10235.523
820.723; 6182.029;  -12.324;10847.563
821.289; 5899.215;   -9.444;11040.980
821.855; 5743.677;   -8.374;10357.100
822.421; 5603.283;  -10.234; 9978.918
822.987; 5540.979;  -13.294; 9754.177
823.553; 5305.201;  -10.884;10065.755
824.119; 5195.955;   -8.884;10036.294
824.685; 5265.414;   -6.784;10029.192
825.251; 5317.775;  -12.004;10199.230
825.816; 5279.880;  -11.474; 9820.189
826.382; 5089.149;   -9.174; 9297.248
826.948; 5343.409;   -9.214; 9381.347
827.513; 5687.974;  -10.774; 9450.726
828.079; 5478.262;  -11.924; 9472.444
828.645; 4973.382;  -10.543; 9292.643
829.210; 4944.652;  -10.533; 9065.341
829.776; 4907.021;  -10.753; 9132.620
830.341; 4767.239;  -10.173; 9092.878
830.906; 4948.989;  -10.743; 9078.557
831.472; 5247.847;  -11.113; 8534.535
832.037; 4925.151;  -10.603; 8677.874
832.602; 4388.826;  -13.323; 8628.692
833.167; 4184.009;  -10.823; 8879.031
833.733; 4137.620;  -10.113; 9189.790
834.298; 4246.049;  -13.583; 9052.608
834.863; 4278.720;  -12.703; 8895.087
835.428; 4271.839;  -10.523; 8824.266
835.993; 4187.183;   -6.963; 8845.385
836.558; 4074.560;  -10.763; 8888.563
837.123; 4208.677;   -9.903; 8966.582
837.688; 4403.889;   -9.913; 8617.860
838.253; 4581.387;  -10.283; 8590.699
838.817; 4752.982;  -12.963; 8443.797
839.382; 4665.721;  -14.243; 8799.356
839.947; 4364.613;  -10.733; 8810.595
840.511; 4057.721;   -9.383; 8796.394
841.076; 3704.847;  -12.563; 8347.231
841.641; 3798.129;  -12.953; 8224.330
842.205; 3897.805;   -7.043; 8223.349
842.770; 4020.752;   -8.163; 8622.107
843.334; 4205.243;  -12.503; 8410.386
843.898; 4197.644;  -11.693; 8337.465
844.463; 4241.637;  -10.203; 8506.283
845.027; 4033.727;   -9.533; 8280.962
845.591; 3858.921;  -13.443; 8231.141
846.156; 3788.099;  -13.143; 7969.179
846.720; 3641.763;   -9.433; 7768.278
847.284; 3503.148;  -11.033; 7630.957
847.848; 3376.331;  -10.403; 7472.395
848.412; 3277.481;  -11.553; 7437.394
848.976; 3306.806;   -8.393; 7674.592
849.540; 3269.028;   -8.713; 7836.011
850.104; 3417.795;  -12.463; 7913.669
850.668; 3745.383;  -12.973; 7694.508
851.232; 3808.101;  -10.793; 7756.887
851.796; 3644.638;  -10.662; 7926.545
852.359; 3370.132;  -13.082; 7827.844
852.923; 3232.792;  -12.192; 7641.163
853.487; 3060.984;  -11.912; 7342.501
854.050; 3002.402;  -10.892; 7042.820
854.614; 3113.876;  -13.992; 7151.338
855.177; 3211.675;  -11.732; 7105.077
855.741; 3248.819;   -8.962; 6989.675
856.304; 3163.153;   -9.442; 6596.634
856.868; 3126.961;  -14.192; 6356.272
857.431; 3240.262;  -12.702; 6468.571
857.995; 3378.557;   -9.942; 6373.210
858.558; 3389.063;   -9.112; 6324.448
859.121; 3128.632;  -12.932; 6408.327
859.684; 3009.065;  -13.442; 6347.886
860.247; 3093.146;  -10.632; 6321.264
860.810; 3060.166;  -11.272; 6301.903
861.374; 2812.447;   -9.832; 6607.881
861.937; 2578.635;  -11.762; 6408.200
862.500; 2589.410;   -9.722; 6572.639
863.062; 2773.500;  -10.512; 6387.297
863.625; 2926.116;  -11.232; 6190.836
864.188; 3074.130;  -14.112; 5807.254
864.751; 3128.693;  -11.302; 5682.413
865.314; 3011.132;  -10.112; 5547.492
865.876; 2834.940;  -12.182; 5500.150
866.439; 2844.163;  -10.722; 5415.909
867.002; 2784.701;   -9.252; 5501.567
867.564; 2563.721;   -9.572; 5413.946
868.127; 2330.246;  -13.142; 5160.325
868.689; 2227.624;  -12.902; 5133.183
869.252; 2122.577;   -9.732; 5252.382
869.814; 2032.016;   -9.432; 5297.141
870.377; 2065.152;  -11.552; 5390.919
870.939; 2147.947;   -9.052; 5599.898
871.501; 2199.616;  -10.982; 5248.336
872.063; 2190.099;  -12.292; 4854.235
872.626; 2155.228;  -14.912; 4817.074
873.188; 2191.270;  -13.112; 4987.732
873.750; 2159.805;  -13.442; 4868.651
874.312; 2072.370;   -9.402; 4779.330
874.874; 1977.033;  -11.062; 4866.348
875.436; 1887.319;  -13.931; 4718.887
875.998; 1877.479;   -9.561; 4660.005
876.560; 1890.353;  -11.321; 4462.964
877.122; 1831.723;  -12.221; 4145.042
877.683; 1752.729;  -12.191; 4056.481
878.245; 1685.983;  -12.101; 3950.740
878.807; 1727.238;   -8.971; 4058.958
879.369; 1745.072;  -12.071; 3954.677
879.930; 1653.548;  -14.621; 3941.495
880.492; 1597.544;  -10.311; 4067.014
881.053; 1548.879;  -10.901; 3859.633
881.615; 1428.258;  -14.411; 3776.071
882.176; 1338.979;  -13.761; 3734.750
882.738; 1300.650;   -9.181; 3678.489
883.299; 1280.427;  -11.791; 3405.407
883.860; 1292.335;  -13.121; 3351.106
884.422; 1292.561;  -11.211; 3394.044
884.983; 1238.110;  -10.091; 3166.443
885.544; 1156.701;   -8.461; 3189.802
886.105; 1079.309;  -12.361; 3160.360
886.666; 1016.092;  -14.141; 3093.059
887.227;  964.725;  -11.361; 2941.957
887.788;  903.133;  -11.401; 2974.836
888.349;  843.113;  -13.791; 2721.214
888.910;  840.735;  -13.191; 2696.493
889.471;  849.538;   -9.881; 2560.172
890.032;  828.996;   -9.881; 2558.190
890.593;  805.827;  -10.371; 2567.669
891.153;  779.923;  -13.301; 2460.307
891.714;  733.010;  -11.431; 2372.046
892.275;  691.033;  -11.291; 2309.505
892.835;  645.872;  -11.471; 2382.543
893.396;  590.148;  -11.541; 2295.502
893.956;  534.622;  -11.181; 2162.420
894.517;  505.022;  -11.741; 2125.439
895.077;  503.473;  -11.671; 2086.978
895.638;  503.827;  -11.311; 2126.316
896.198;  475.161;   -9.831; 1838.275
896.758;  433.089;   -8.421; 1892.813
897.319;  405.664;  -12.351; 1792.232
897.879;  389.228;  -13.511; 1762.751
898.439;  365.006;  -12.001; 1661.149
898.999;  340.001;  -10.180; 1781.468
899.559;  331.078;  -12.030; 1703.347
900.119;  325.904;  -15.710; 1537.525
900.679;  322.255;   -8.900; 1638.384
901.239;  308.476;   -8.340; 1527.902
901.799;  299.568;  -13.910; 1456.441
902.359;  294.073;  -13.460; 1357.140
902.919;  286.132;  -11.490; 1331.118
903.479;  273.653;  -12.110; 1317.257
904.038;  255.072;  -11.720; 1262.595
904.598;  240.319;  -13.610; 1152.034
905.158;  236.463;  -11.040; 1240.893
905.717;  230.302;  -10.900; 1233.691
906.277;  217.871;  -15.080; 1217.330
906.836;  209.098;  -13.380; 1222.408
907.396;  201.014;  -10.780; 1193.047
907.955;  193.771;   -8.500; 1182.526
908.515;  188.571;  -12.760; 1099.364
909.074;  182.616;  -11.900; 1092.863
909.633;  178.115;   -8.950; 1069.121
910.192;  172.762;   -8.770; 1196.460
910.752;  167.946;  -12.390; 1029.960
911.311;  164.245;  -13.680; 1009.780
911.870;  161.726;  -12.370;  971.460
912.429;  164.010;  -10.900; 1094.080
912.988;  162.571;  -11.690; 1081.060
913.547;  157.115;  -13.240;  940.380
914.106;  152.723;  -11.990;  999.420
914.665;  149.042;   -9.990;  984.020
915.224;  148.690;  -12.880; 1035.760
915.782;  148.398;  -12.350;  922.560
916.341;  148.590;   -9.110; 1049.840
916.900;  144.292;   -9.270;  925.260
917.458;  141.984;  -13.240;  884.220
918.017;  142.496;  -13.550;  942.600
918.576;  142.051;  -12.320;  904.440
919.134;  139.484;  -11.490;  837.980
919.693;  138.025;  -13.670;  893.060
920.251;  135.686;  -15.470;  876.500
920.809;  135.407;  -11.290;  839.580
921.368;  134.521;  -10.210;  885.360
921.926;  133.689;  -12.140;  842.940
922.484;  132.478;  -13.080;  903.360
923.042;  132.171;  -11.720;  880.340
923.601;  134.692;   -7.480;  998.680
924.159;  133.403;  -11.570;  935.560
924.717;  130.001;  -13.840;  841.080
925.275;  130.451;  -10.640;  903.240
925.833;  130.198;  -11.540;  779.320
926.391;  130.746;  -12.960;  938.380
926.949;  128.790;  -14.130;  857.680
927.506;  129.762;  -11.750;  903.500
928.064;  129.338;  -10.250;  877.580
928.622;  129.619;  -13.030;  880.100
929.180;  128.091;  -13.400;  814.180
929.737;  130.487;  -10.700;  808.540
930.295;  133.685;  -10.070;  928.480
930.853;  134.736;  -11.960;  849.100
931.410;  134.737;  -13.120;  821.120
931.968;  135.154;  -10.770;  940.660
932.525;  135.556;  -10.680;  909.380
933.082;  135.046;  -13.130;  811.440
933.640;  135.715;  -13.210;  925.900
934.197;  133.648;  -11.060;  886.360
934.754;  135.036;   -9.580;  897.780
935.312;  138.305;  -14.000;  863.340
935.869;  142.264;  -10.710; 1012.980
936.426;  142.790;   -9.860;  872.800
936.983;  144.113;   -9.710;  889.020
937.540;  141.886;  -13.990;  838.280
938.097;  140.634;  -14.040;  940.120
938.654;  140.850;  -10.310;  898.860
939.211;  143.472;  -10.560;  952.480
939.768;  147.253;  -13.900;  915.420
940.324;  149.787;  -14.760;  904.200
940.881;  151.000;  -10.370;  878.500
941.438;  151.996;   -8.260; 1021.200
941.995;  147.162;  -12.540;  992.560
942.551;  145.157;  -14.670;  875.620
943.108;  146.416;  -10.450;  937.920
943.664;  148.617;  -10.750;  869.340
944.221;  151.620;  -11.550; 1088.140
944.777;  148.761;  -14.770;  869.680
945.334;  149.746;  -12.820;  884.840
945.890;  151.990;  -10.130;  946.480
946.446;  151.697;  -13.470;  947.020
947.003;  152.975;  -12.120;  964.940
947.559;  156.589;   -9.980; 1063.040
948.115;  155.635;   -9.080; 1026.540
948.671;  154.109;  -10.830;  967.300
949.227;  151.537;  -12.440;  859.560
949.783;  148.173;  -12.910;  858.900
950.339;  150.697;  -10.270;  991.000
950.895;  149.708;  -13.630; 1023.840
951.451;  149.685;  -15.100;  925.280
952.007;  150.166;  -11.330;  998.540
952.563;  150.002;  -10.580;  937.780
953.118;  149.629;  -13.440;  904.940
953.674;  148.066;  -12.710;  935.780
954.230;  147.858;  -10.350;  949.640
954.785;  145.406;   -9.190;  936.640
955.341;  143.513;  -11.200;  998.160
955.897;  141.546;  -16.560;  834.660
956.452;  142.802;  -12.570;  953.840
957.008;  142.530;   -7.970; 1083.640
957.563;  141.190;  -11.940; 1009.540
958.118;  136.935;  -13.450;  877.700
958.674;  136.793;  -12.030;  946.780
959.229;  138.068;   -9.410; 1013.980
959.784;  136.156;  -12.000;  832.400
960.339;  135.749;  -14.780; 1001.280
960.894;  130.913;   -9.860;  963.760
961.449;  128.155;   -9.970;  859.960
962.004;  127.399;  -10.900; 1212.840
962.559;  121.739;  -13.150;  860.140
963.114;  120.524;  -13.740;  742.480
963.669;  120.541;   -9.820;  915.500
964.224;  118.228;  -13.890;  874.340
964.779;  117.281;  -12.600;  828.420
965.334;  118.173;  -10.950; 1017.860
965.888;  117.223;  -11.170;  875.360
966.443;  120.291;  -12.540;  972.380
966.998;  118.526;  -15.780;  819.460
967.552;  118.502;   -9.760;  908.380
968.107;  114.863;   -9.060;  868.300
968.661;  115.789;  -11.950;  922.440
969.216;  116.558;  -12.800;  856.280
969.770;  117.051;  -11.210;  917.200
970.324;  115.316;  -11.610;  923.140
970.879;  113.056;  -11.370;  947.180
971.433;  109.001;  -12.540;  952.720
971.987;  104.792;  -11.320;  895.340
972.541;  101.417;  -10.720;  917.100
973.095;  101.694;   -9.680; 1009.460
973.649;   99.554;  -11.440;  809.480
974.203;   98.829;  -11.210;  829.040
974.757;   97.743;  -10.240;  855.220
975.311;   98.108;  -13.720;  872.600
975.865;   97.225;  -13.770;  881.820
976.419;   96.146;  -11.690;  857.400
976.973;   95.950;   -9.510;  849.620
977.526;   98.283;  -12.620;  949.920
978.080;   97.000;  -12.010;  796.780
978.634;   98.275;  -10.170;  921.320
979.187;   95.272;   -9.020;  905.400
979.741;   92.746;   -9.820; 1018.380
980.294;   88.537;  -14.870;  789.160
980.848;   85.860;  -12.380;  717.220
981.401;   89.431;  -10.350;  816.540
981.955;   90.613;  -13.720;  844.300
982.508;   89.516;  -11.490;  746.340
983.061;   90.607;  -10.000;  915.260
983.615;   85.965;  -11.480;  798.800
984.168;   83.569;  -13.220;  770.080
984.721;   82.766;  -13.960;  880.760
985.274;   82.810;  -10.870;  867.500
985.827;   81.037;   -9.790;  834.220
986.380;   79.059;  -13.120;  721.340
986.933;   78.506;  -12.450;  864.800
987.486;   76.491;  -10.210;  861.920
988.039;   74.927;   -8.430;  863.100
988.591;   73.468;  -10.520;  893.260
989.144;   70.369;  -14.860;  737.260
989.697;   69.607;  -13.080;  758.740
990.250;   71.091;  -10.150;  858.100
990.802;   70.024;  -13.430;  755.860
991.355;   70.760;  -12.750;  974.880
991.907;   68.587;  -12.040;  864.320
992.460;   66.413;  -11.330;  753.760
993.012;   65.565;  -13.610;  749.540
993.565;   64.352;  -13.460;  711.360
994.117;   66.107;   -9.360;  950.780
994.669;   62.409;  -11.300;  701.320
995.221;   61.287;  -13.540;  791.920
995.774;   59.043;  -13.430;  787.580
996.326;   56.546;  -12.520;  740.220
996.878;   56.970;  -10.950;  838.420
997.430;   55.552;  -14.300;  699.860
997.982;   54.287;  -13.760;  750.140
998.534;   53.944;  -11.530;  739.060
999.086;   52.727;  -10.310;  738.220
999.638;   51.131;  -12.530;  661.380
1000.190;   50.565;  -11.840;  699.320
1000.741;   51.133;  -10.260;  742.700
1001.293;   50.357;   -8.860;  686.020
1001.845;   48.695;  -13.700;  676.640
1002.396;   48.586;  -12.100;  743.400
1002.948;   48.910;  -12.760;  737.400
1003.500;   46.614;  -10.380;  723.780
1004.051;   47.141;  -11.900;  907.580
1004.603;   45.314;  -12.250;  791.820
1005.154;   40.984;  -13.210;  608.980
1005.705;   42.154;  -10.950;  723.960
1006.257;   41.049;  -13.880;  707.220
1006.808;   39.735;  -12.840;  685.460
1007.359;   39.224;  -10.570;  763.240
1007.910;   38.541;   -9.620;  646.640
1008.461;   38.210;  -13.630;  732.940
1009.013;   37.144;  -17.200;  588.340
1009.564;   38.608;  -10.200;  793.520
1010.115;   36.412;  -12.570;  597.040
1010.665;   35.719;  -15.150;  602.160
1011.216;   35.674;  -14.480;  667.920
1011.767;   35.223;  -11.340;  697.920
1012.318;   35.886;   -9.780;  736.980
1012.869;   33.957;  -12.380;  679.000
1013.419;   34.245;  -15.560;  603.120
1013.970;   34.593;  -11.010;  666.640
1014.521;   33.964;  -11.610;  620.620
1015.071;   34.298;  -13.450;  670.380
1015.622;   33.090;  -13.870;  635.460
1016.172;   32.610;  -11.610;  596.820
1016.723;   32.343;  -12.120;  614.380
1017.273;   32.741;  -13.620;  604.160
1017.823;   33.456;  -14.140;  650.340
1018.374;   31.670;  -12.800;  611.760
1018.924;   32.404;  -12.340;  716.880
1019.474;   31.927;  -11.410;  718.880
1020.024;   30.951;  -14.770;  657.580
1020.574;   31.846;   -9.780;  726.160
1021.124;   31.873;   -8.560;  673.580
1021.674;   29.510;  -15.190;  559.120
1022.224;   31.467;  -13.530;  708.940
1022.774;   30.470;  -13.280;  668.820
1023.324;   31.469;  -10.690;  753.520
1023.874;   32.310;  -10.240;  875.760
1024.423;   29.732;  -12.540;  613.700
1024.973;   29.776;  -10.010;  610.760
1025.523;   28.519;  -10.550;  620.960
1026.072;   28.334;  -13.560;  606.420
1026.622;   28.050;  -15.120;  675.740
1027.172;   30.264;  -11.260;  715.660
1027.721;   28.240;  -11.410;  601.220
1028.270;   28.729;  -13.530;  663.400
1028.820;   28.332;  -13.680;  638.080
1029.369;   27.814;  -13.520;  612.700
1029.918;   28.749;  -10.980;  649.840
1030.468;   27.274;  -13.530;  564.780
1031.017;   27.788;  -13.170;  634.800
1031.566;   26.786;  -12.200;  608.900
1032.115;   27.068;   -9.960;  694.500
1032.664;   26.397;  -13.210;  596.480
1033.213;   27.213;  -12.500;  735.420
1033.762;   26.496;  -11.910;  635.620
1034.311;   25.464;   -9.640;  677.220
1034.860;   26.946;  -13.310;  691.000
1035.408;   26.704;  -11.830;  722.720
1035.957;   26.666;  -12.000;  719.540
1036.506;   24.967;  -11.690;  530.800
1037.055;   26.852;  -10.990;  844.320
1037.603;   25.204;  -15.120;  664.000
1038.152;   23.761;  -12.450;  534.760
1038.700;   24.501;  -10.560;  585.740
1039.249;   24.230;  -11.080;  681.220
1039.797;   24.657;  -12.540;  633.360
1040.345;   24.444;  -11.920;  705.420
1040.894;   24.311;  -11.410;  625.300
1041.442;   24.119;  -14.320;  632.200
1041.990;   22.843;  -16.240;  559.160
1042.538;   22.541;  -11.680;  536.180
1043.087;   22.837;  -10.760;  570.860
1043.635;   24.066;  -11.850;  670.500
1044.183;   22.369;  -15.480;  586.400
1044.731;   22.248;  -11.770;  576.000
1045.279;   22.502;  -13.090;  674.920
1045.827;   23.977;  -12.440;  892.400
1046.374;   21.360;  -13.840;  515.420
1046.922;   20.832;  -13.220;  590.580
1047.470;   22.343;  -10.230;  691.300
1048.018;   22.259;  -14.590;  647.960
1048.565;   22.546;  -12.050;  708.600
1049.113;   21.077;  -11.650;  557.000
1049.660;   20.907;  -10.510;  629.660
1050.208;   21.233;  -13.310;  675.640
1050.755;   20.670;  -15.900;  606.580
1051.303;   21.765;  -11.430;  686.820
1051.850;   20.283;   -8.480;  635.120
1052.397;   19.538;  -15.010;  473.960
1052.945;   20.038;  -13.960;  617.760
1053.492;   20.823;  -13.150;  741.840
1054.039;   21.640;   -9.630;  720.180
1054.586;   19.615;  -13.680;  557.240
1055.133;   20.727;  -14.570;  693.140
1055.680;   20.206;  -13.820;  646.620
1056.227;   19.527;  -11.730;  542.780
1056.774;   20.288;  -12.480;  794.980
1057.321;   18.825;  -13.930;  523.260
1057.868;   19.735;  -11.690;  651.320
1058.415;   19.107;   -9.520;  651.980
1058.961;   19.335;  -13.160;  678.940
1059.508;   19.021;  -12.920;  643.820
1060.055;   18.660;  -11.920;  581.780
1060.601;   19.687;  -11.500;  624.300
1061.148;   18.751;  -14.330;  616.820
1061.694;   17.131;  -16.870;  592.580
1062.241;   18.184;  -10.330;  596.320
1062.787;   18.388;  -10.620;  663.140
1063.334;   19.631;  -10.110;  808.560
1063.880;   18.203;  -13.400;  668.360
1064.426;   18.719;  -10.680;  706.820
1064.972;   17.112;   -9.920;  601.340
1065.518;   16.381;  -10.980;  566.640
1066.065;   17.275;  -14.890;  624.460
1066.611;   16.490;  -12.870;  598.800
1067.157;   18.011;  -12.950;  641.860
1067.703;   17.487;  -13.540;  668.480
1068.249;   16.633;  -13.540;  605.220
1068.794;   16.660;  -12.600;  626.880
1069.340;   16.036;  -10.620;  578.960
1069.886;   16.445;  -12.830;  590.700
1070.432;   15.140;  -14.870;  541.720
1070.977;   15.599;  -11.980;  601.080
1071.523;   15.815;   -8.200;  573.060
1072.068;   16.494;  -12.330;  582.000
1072.614;   15.447;  -16.370;  527.760
1073.160;   16.815;  -11.100;  687.040
1073.705;   14.524;  -10.480;  572.520
1074.250;   14.862;  -14.520;  559.900
1074.796;   16.032;  -11.460;  655.160
1075.341;   15.995;  -11.950;  664.100
1075.886;   15.406;  -11.460;  594.240
1076.431;   14.454;  -13.770;  649.880
1076.976;   14.934;  -12.680;  639.220
1077.521;   14.461;  -13.170;  583.080
1078.067;   13.845;  -10.860;  579.400
1078.612;   14.917;  -13.920;  661.620
1079.156;   13.849;  -13.880;  601.540
1079.701;   14.333;  -13.120;  693.260
1080.246;   15.150;   -9.940;  696.300
1080.791;   14.248;  -14.740;  625.020
1081.336;   14.012;  -13.750;  659.320
1081.880;   14.029;  -13.400;  649.680
1082.425;   13.109;  -12.220;  573.480
1082.970;   14.206;  -11.610;  717.040
1083.514;   12.665;  -13.580;  597.000
1084.059;   12.649;  -12.810;  586.720
1084.603;   13.041;  -12.320;  565.840
1085.147;   12.715;  -13.190;  645.220
1085.692;   13.737;  -12.480;  716.800
1086.236;   11.372;  -13.020;  503.140
1086.780;   14.166;   -9.190;  751.440
1087.325;   13.110;  -12.480;  654.620
1087.869;   12.805;  -12.450;  610.700
1088.413;   12.847;  -12.240;  705.040
1088.957;   11.354;   -9.020;  543.400
1089.501;   13.246;  -10.320;  766.640
1090.045;   12.704;  -12.720;  726.480
1090.589;   11.044;  -13.690;  569.920
1091.133;   11.373;  -10.020;  673.340
1091.676;   12.175;  -12.330;  591.940
1092.220;   10.948;  -14.970;  600.920
1092.764;   11.932;  -12.430;  706.960
1093.307;   11.346;   -9.800;  673.780
1093.851;   10.782;  -14.970;  556.540
1094.395;   11.350;  -15.310;  683.140
1094.938;   10.695;  -10.370;  632.520
1095.482;   10.705;  -11.050;  559.800
1096.025;   11.343;  -11.840;  710.880
1096.568;   11.602;  -12.840;  779.280
1097.112;    9.217;  -14.700;  508.180
1097.655;   11.133;   -8.720;  603.000
1098.198;   10.100;  -13.610;  600.180
1098.741;    9.954;  -13.350;  612.860
1099.285;   10.264;  -11.230;  657.300
1099.828;    9.148;  -11.840;  439.400
1100.371;   10.212;  -10.840;  608.160
1100.914;    9.947;  -14.190;  682.660
1101.457;   10.358;  -11.240;  679.900
1101.999;    8.818;  -11.270;  584.680
1102.542;    9.755;  -11.480;  641.440
1103.085;    8.734;  -11.750;  658.500
1103.628;    9.540;  -11.400;  762.060
1104.170;    9.061;  -10.490;  588.280
1104.713;    8.986;  -10.600;  646.700
1105.256;    8.576;  -14.360;  557.440
1105.798;    6.785;  -13.210;  499.980
1106.341;   10.405;  -10.270;  728.900
1106.883;    8.190;  -12.200;  521.340
1107.425;    7.764;  -13.110;  668.180
1107.968;    8.162;  -12.840;  612.380
1108.510;    8.484;   -6.480;  684.960
1109.052;    7.333;  -13.940;  612.620
1109.594;    7.293;  -13.690;  554.440
1110.136;    8.271;  -11.880;  643.220
1110.679;    7.504;   -9.500;  633.080
1111.221;    8.370;  -14.160;  604.460
1111.763;    6.919;  -13.980;  559.220
1112.304;    6.973;  -13.880;  547.140
1112.846;    8.130;  -12.210;  666.240
1113.388;   10.181;  -11.390;  942.180
1113.930;    7.493;  -14.540;  694.200
1114.472;    6.243;  -12.640;  606.540
1115.013;    5.707;  -11.620;  551.280
1115.555;    6.499;  -13.640;  587.100
1116.097;    5.473;  -15.380;  579.480
1116.638;    6.731;  -12.640;  684.600
1117.180;    7.025;   -9.850;  667.740
1117.721;    6.419;  -13.690;  568.580
1118.262;    6.754;  -12.680;  677.960
1118.804;    6.865;  -12.530;  637.340
1119.345;    5.638;  -11.690;  578.400
1119.886;    7.320;  -13.380;  704.040
1120.427;    5.525;  -14.070;  589.020
1120.969;    5.510;  -13.500;  597.920
1121.510;    5.364;  -11.480;  563.060
1122.051;    5.994;  -12.830;  723.580
1122.592;    4.810;  -14.290;  655.420
1123.133;    3.364;  -12.400;  547.940
1123.673;    5.791;  -10.130;  706.480
1124.214;    4.556;  -12.930;  612.460
1124.755;    5.717;  -14.380;  639.460
1125.296;    5.487;  -14.000;  627.320
1125.836;    5.769;  -10.070;  691.500
1126.377;    4.576;  -12.640;  599.660
1126.918;    4.907;  -12.960;  614.980
1127.458;    4.851;  -13.350;  622.220
1127.999;    5.369;  -10.750;  656.980
1128.539;    5.477;  -12.350;  694.240
1129.079;    3.535;  -14.860;  632.720
1129.620;    3.997;  -13.840;  558.100
1130.160;    3.550;  -12.330;  539.480
1130.700;    4.517;  -14.530;  640.840
1131.240;    4.706;  -12.530;  643.700
1131.781;    3.221;  -14.450;  619.680
1132.321;    3.855;   -9.790;  599.120
1132.861;    3.759;  -14.860;  564.200
1133.401;    2.219;  -14.290;  593.940
1133.941;    3.662;  -11.750;  626.280
1134.481;    3.215;   -9.920;  597.580
1135.020;    3.211;  -12.290;  609.160
1135.560;    3.816;  -11.650;  674.940
1136.100;    2.387;  -16.270;  501.160
1136.640;    2.568;  -10.890;  510.480
1137.179;    3.073;  -14.180;  537.960
1137.719;    2.814;  -16.250;  605.400
1138.258;    3.228;  -14.230;  587.360
1138.798;    3.369;   -9.090;  663.780
1139.337;    1.517;  -15.130;  482.840
1139.877;    2.376;  -13.680;  642.360
1140.416;    4.569;  -11.320;  878.060
1140.955;    2.599;  -10.860;  535.380
1141.494;    2.615;  -12.920;  669.280
1142.034;    1.590;  -13.930;  583.520
1142.573;    3.065;  -11.440;  646.280
1143.112;    1.992;  -12.000;  553.480
1143.651;    2.300;  -13.670;  536.480
1144.190;    2.853;  -12.730;  691.640
1144.729;    1.844;  -14.560;  607.420
1145.267;    2.043;  -11.830;  584.900
1145.806;    2.968;  -12.230;  637.040
1146.345;    1.037;  -14.130;  635.020
1146.884;    1.673;  -11.590;  622.500
1147.422;    0.921;  -12.550;  533.060
1147.961;    3.003;  -11.180;  708.460
1148.500;    1.702;  -11.510;  669.720
1149.038;    2.816;  -11.640;  632.500
1149.577;    2.222;  -10.130;  698.640
1150.115;   -0.517;  -13.970;  452.280
1150.653;    1.491;  -14.520;  607.340
1151.192;    0.854;  -12.810;  552.920
1151.730;    1.869;   -9.100;  652.560
1152.268;    0.905;  -12.220;  589.520
1152.806;    0.829;  -14.140;  571.180
1153.344;   -0.036;  -12.350;  577.640
1153.882;    0.456;   -8.980;  600.060
1154.421;   -0.377;  -15.190;  470.620
1154.958;   -0.302;  -15.210;  595.240
1155.496;    1.567;  -12.850;  645.280
1156.034;    0.673;   -9.940;  721.880
1156.572;    1.857;  -13.570;  667.060
1157.110;   -0.252;  -14.590;  473.940
1157.647;    0.818;  -13.030;  676.960
1158.185;   -0.508;  -12.140;  564.320
1158.723;   -1.113;  -14.390;  509.200
1159.260;    0.272;  -14.090;  701.700
1159.798;    0.361;  -11.920;  658.160
1160.335;    0.052;  -11.110;  631.820

