
Integration time [ms]:   3.276
Averaging Nr. [scans]: 1000
Smoothing Nr. [pixels]: 0
Data measured with spectrometer [name]: 7414430SP
Wave   ;Sample   ;Dark     ;Reference
[nm]   ;[counts] ;[counts] ;[counts] 

288.544;  149.299;    7.793;  793.890
289.143;  152.438;    7.462;  681.602
289.742;  153.333;    8.602;  828.814
290.341;  139.440;    1.321;  789.841
290.940;  128.255;   -0.709;  730.702
291.538;  128.470;    0.881;  881.108
292.137;  128.943;    0.122;  792.581
292.736;  134.698;   -1.929;  975.101
293.335;  130.806;   -8.229;  735.086
293.934;  129.931;   -5.279;  781.677
294.532;  128.638;   -1.369; 1031.958
295.131;  114.988;   -7.641;  834.394
295.730;  115.079;   -8.420;  809.588
296.328;  113.830;   -5.611;  783.442
296.927;  116.159;   -5.781;  779.652
297.525;  116.551;   -6.361;  781.236
298.124;  106.669;  -11.382;  654.009
298.722;  109.704;   -7.641;  761.933
299.321;  107.756;   -6.811;  708.597
299.919;  106.863;   -6.991;  751.918
300.518;  103.203;  -10.362;  689.338
301.116;  104.392;   -9.581;  691.381
301.715;  104.254;   -4.891;  730.222
302.313;  103.524;   -8.801;  704.943
302.911;   98.567;   -8.522;  733.830
303.509;  104.336;   -6.171;  925.627
304.108;  102.060;   -7.311;  760.383
304.706;  101.504;   -8.321;  801.664
305.304;   95.539;  -10.222;  796.707
305.902;  100.593;   -6.021;  784.484
306.500;   96.875;   -4.971;  728.200
307.098;   95.591;   -7.061;  746.560
307.696;   93.176;   -8.801;  780.432
308.294;   92.754;   -6.411;  731.359
308.892;   96.400;   -2.901;  759.769
309.490;   91.939;   -5.041;  712.161
310.088;   90.463;   -5.002;  788.444
310.686;   94.108;   -2.041;  821.749
311.284;   90.400;   -2.351;  766.040
311.882;   87.721;   -4.422;  731.225
312.480;   85.298;   -4.192;  697.167
313.078;   86.298;   -1.172;  808.331
313.675;   87.519;   -2.601;  691.600
314.273;   82.357;   -1.312;  797.837
314.871;   81.290;   -3.942;  589.829
315.468;   78.610;   -2.802;  652.090
316.066;   82.599;   -0.701;  694.427
316.664;   75.039;   -4.362;  656.351
317.261;   79.085;   -2.872;  910.128
317.859;   74.627;   -2.022;  768.735
318.456;   74.837;   -0.531;  830.096
319.054;   71.696;   -3.912;  787.828
319.651;   69.897;   -4.752;  759.928
320.249;   69.366;   -2.602;  810.188
320.846;   67.027;   -0.821;  714.286
321.443;   64.433;   -4.642;  832.135
322.041;   61.067;   -5.002;  812.315
322.638;   59.373;   -3.982;  701.456
323.235;   60.948;   -3.411;  665.683
323.833;   58.257;   -7.361;  740.354
324.430;   52.730;   -8.611;  615.900
325.027;   53.800;   -4.061;  876.855
325.624;   54.525;   -4.031;  644.532
326.221;   50.509;   -7.481;  689.717
326.818;   49.348;   -5.281;  818.332
327.415;   53.298;   -7.460;  748.828
328.012;   53.116;   -5.510;  690.585
328.609;   51.409;   -7.880;  731.389
329.206;   49.376;   -8.331;  778.621
329.803;   49.680;   -5.121;  737.841
330.400;   52.413;   -4.510;  704.260
330.997;   53.685;   -6.441;  817.147
331.594;   52.605;   -8.831;  788.185
332.191;   57.224;   -7.621;  728.722
332.787;   60.983;   -4.591;  844.463
333.384;   59.248;   -7.412;  763.093
333.981;   57.920;   -8.293;  815.687
334.578;   60.372;   -7.052;  708.378
335.174;   63.416;   -3.102;  731.469
335.771;   63.511;   -5.943;  836.456
336.367;   59.898;   -7.393;  710.631
336.964;   63.546;   -4.063;  793.266
337.561;   60.864;   -3.813;  731.112
338.157;   56.901;   -4.654;  911.916
338.754;   54.415;   -7.934;  796.589
339.350;   52.662;   -4.414;  722.493
339.946;   55.220;   -4.664;  773.135
340.543;   47.130;   -6.375;  846.136
341.139;   41.331;   -9.815;  720.836
341.735;   39.956;   -4.526;  772.593
342.332;   38.415;   -4.895;  691.472
342.928;   38.407;   -4.295;  795.394
343.524;   32.011;   -5.476;  761.684
344.120;   28.557;   -5.856;  738.562
344.716;   32.012;   -2.155;  723.717
345.313;   30.600;   -6.275;  795.342
345.909;   24.014;   -8.815;  627.336
346.505;   26.155;   -5.305;  740.247
347.101;   26.818;   -2.674;  827.864
347.697;   27.400;   -4.344;  785.398
348.293;   21.547;   -9.975;  627.244
348.889;   22.615;   -5.774;  745.914
349.485;   22.538;   -5.004;  688.205
350.081;   22.504;   -4.704;  772.592
350.676;   17.406;   -6.635;  691.606
351.272;   22.705;   -4.504;  809.530
351.868;   21.706;   -3.914;  780.497
352.464;   19.164;   -9.044;  723.932
353.059;   15.200;   -8.314;  646.017
353.655;   18.089;   -7.024;  777.063
354.251;   19.614;   -5.343;  759.845
354.846;   14.361;   -8.604;  740.646
355.442;   11.842;   -6.945;  753.071
356.038;   13.653;   -7.564;  751.708
356.633;   13.901;   -5.814;  728.594
357.229;   12.634;   -7.364;  724.757
357.824;   10.388;   -8.024;  703.600
358.420;    9.303;   -9.384;  679.726
359.015;   10.471;   -5.104;  695.357
359.610;   11.259;   -6.854;  763.920
360.206;    5.189;  -10.185;  603.240
360.801;    7.860;   -7.054;  646.503
361.396;   10.715;   -5.034;  725.975
361.992;    5.582;   -8.284;  668.220
362.587;    2.529;   -8.625;  670.160
363.182;    4.884;   -7.674;  689.631
363.777;    5.707;   -5.164;  738.242
364.372;    5.490;   -8.604;  737.314
364.967;    1.322;   -9.055;  680.744
365.563;    5.735;   -6.114;  815.567
366.158;    2.915;   -5.814;  685.161
366.753;    2.932;   -7.854;  649.263
367.348;    1.360;   -7.804;  746.056
367.942;    0.682;   -7.954;  697.298
368.537;    0.830;   -4.984;  754.245
369.132;    1.020;   -8.564;  703.428
369.727;   -3.268;   -8.855;  638.079
370.322;   -1.623;   -6.245;  580.186
370.917;   -2.161;   -6.425;  710.646
371.511;    0.969;   -6.294;  861.834
372.106;   -3.043;   -7.685;  776.964
372.701;   -6.391;   -7.335;  585.988
373.296;    0.204;   -4.564;  863.135
373.890;   -5.967;  -10.235;  647.840
374.485;   -7.942;   -7.885;  691.199
375.079;   -3.707;   -7.324;  738.685
375.674;   -2.453;   -3.494;  812.970
376.268;   -6.456;   -8.525;  691.759
376.863;  -11.988;  -10.086;  580.327
377.457;   -6.427;   -7.025;  662.490
378.052;   -7.069;   -3.585;  764.884
378.646;   -9.384;   -7.595;  741.167
379.240;   -9.775;   -8.335;  721.176
379.835;   -9.063;   -5.785;  636.978
380.429;  -10.523;   -4.335;  562.557
381.023;  -10.541;   -6.805;  779.205
381.617;  -12.228;   -9.195;  680.106
382.212;   -9.060;   -6.905;  685.303
382.806;   -8.002;   -3.745;  760.690
383.400;  -12.027;   -7.745;  672.281
383.994;  -12.915;   -9.765;  664.870
384.588;   -9.527;   -6.564;  697.701
385.182;   -7.644;   -5.344;  726.624
385.776;  -10.252;   -8.514;  706.875
386.370;  -13.765;   -9.555;  681.968
386.964;  -11.988;   -8.715;  684.155
387.558;  -10.134;   -6.174;  598.360
388.152;  -14.001;   -8.725;  681.959
388.745;  -11.929;   -7.965;  814.707
389.339;   -9.892;   -5.924;  747.642
389.933;   -9.578;   -5.524;  695.370
390.527;   -9.899;   -7.114;  859.029
391.120;  -16.669;  -10.725;  595.318
391.714;  -13.630;   -8.035;  711.633
392.308;  -10.192;   -3.574;  780.253
392.901;  -14.842;   -7.245;  642.460
393.495;  -16.062;   -9.285;  595.414
394.089;  -14.301;   -5.895;  760.452
394.682;  -14.451;   -4.295;  697.188
395.275;  -15.240;   -9.875;  719.927
395.869;  -16.394;   -8.485;  667.314
396.462;  -14.702;   -7.455;  616.609
397.056;  -10.865;   -5.424;  776.621
397.649;  -15.590;   -6.605;  731.575
398.242;  -13.007;   -8.224;  712.645
398.836;  -11.923;   -7.474;  766.408
399.429;  -13.142;   -7.094;  631.041
400.022;  -16.559;   -9.475;  665.902
400.615;  -14.027;   -7.145;  805.609
401.208;  -12.972;   -7.174;  691.451
401.802;  -14.272;   -5.515;  699.329
402.395;  -14.988;   -9.875;  683.502
402.988;  -16.706;   -8.845;  696.627
403.581;  -14.545;   -8.874;  646.878
404.174;  -10.999;   -5.324;  686.568
404.767;  -14.191;   -9.575;  638.583
405.360;  -16.940;  -10.965;  621.445
405.953;  -11.563;   -8.764;  759.034
406.545;  -10.776;   -7.514;  725.342
407.138;  -14.540;  -10.025;  618.350
407.731;  -14.068;  -10.034;  613.303
408.324;   -9.740;   -9.374;  660.554
408.917;   -9.928;   -6.534;  681.864
409.509;  -13.039;   -8.004;  740.396
410.102;  -14.722;   -9.875;  643.948
410.695;   -9.459;   -8.604;  665.758
411.287;   -9.587;   -6.794;  599.821
411.880;  -10.718;   -9.334;  585.421
412.472;  -14.384;  -10.254;  613.092
413.065;  -10.690;   -6.714;  629.408
413.657;   -8.778;   -7.234;  576.678
414.250;   -9.143;  -10.544;  646.681
414.842;  -11.372;   -9.744;  676.353
415.434;   -8.738;   -6.994;  570.463
416.027;   -4.886;   -5.893;  652.196
416.619;   -6.025;   -7.264;  713.400
417.211;   -7.112;  -10.374;  599.352
417.804;   -3.518;   -7.993;  628.499
418.396;   -7.344;   -7.234;  607.643
418.988;   -4.951;   -9.443;  659.238
419.580;   -8.807;  -10.724;  568.276
420.172;   -6.635;  -10.323;  536.196
420.764;   -1.719;   -8.793;  672.482
421.356;   -2.979;  -11.143;  636.898
421.948;   -3.989;   -8.293;  677.661
422.540;    0.525;   -7.893;  680.027
423.132;   -0.072;   -7.082;  600.641
423.724;   -3.183;   -8.653;  561.267
424.316;   -1.217;  -10.213;  621.345
424.908;    1.846;   -9.762;  591.517
425.500;    2.915;   -5.572;  647.978
426.092;    3.520;   -8.422;  648.268
426.683;    1.870;   -9.283;  684.836
427.275;    5.072;   -7.852;  641.471
427.867;    6.743;   -5.272;  668.948
428.458;    7.754;   -7.682;  732.344
429.050;    5.216;  -10.612;  680.749
429.642;    7.654;   -9.882;  743.124
430.233;    8.219;   -6.962;  569.356
430.825;    9.857;   -6.842;  724.809
431.416;    7.028;   -9.672;  698.241
432.008;    9.975;   -6.552;  651.723
432.599;   10.637;   -6.891;  656.073
433.190;    8.270;  -10.912;  637.670
433.782;    7.214;  -11.172;  590.395
434.373;   14.198;   -6.061;  884.765
434.964;   14.099;   -8.251;  602.920
435.556;   11.697;   -9.722;  634.537
436.147;   14.473;   -9.082;  758.490
436.738;   13.999;   -8.041;  701.099
437.329;   19.316;   -7.341;  721.723
437.920;   12.479;   -8.162;  666.688
438.511;   12.480;  -11.802;  564.526
439.103;   19.027;  -10.191;  623.998
439.694;   20.151;   -7.601;  681.583
440.285;   21.673;   -8.541;  764.432
440.876;   19.049;   -9.751;  845.738
441.466;   18.659;   -9.401;  575.162
442.057;   24.860;   -7.760;  665.814
442.648;   23.187;   -9.971;  746.255
443.239;   20.489;  -11.001;  620.477
443.830;   26.201;   -7.990;  704.958
444.421;   28.570;   -7.910;  655.474
445.011;   24.783;   -8.131;  693.619
445.602;   23.540;   -7.111;  743.126
446.193;   26.112;  -10.920;  488.117
446.783;   31.220;   -6.500;  640.397
447.374;   25.418;   -8.671;  692.759
447.964;   26.237;  -10.781;  713.770
448.555;   34.334;   -9.650;  822.742
449.145;   31.800;   -8.660;  662.853
449.736;   32.268;   -8.990;  803.179
450.326;   31.157;   -9.500;  713.626
450.917;   36.614;   -8.680;  675.324
451.507;   36.400;   -7.520;  600.661
452.097;   37.177;   -8.590;  746.267
452.688;   37.618;  -11.340;  742.160
453.278;   37.163;  -10.100;  566.840
453.868;   42.216;   -6.019;  793.550
454.458;   39.042;   -9.440;  651.141
455.048;   39.522;  -10.560;  711.783
455.639;   41.341;  -11.799;  567.096
456.229;   45.382;   -6.899;  710.694
456.819;   46.956;   -7.389;  751.158
457.409;   46.866;  -11.119;  773.993
457.999;   49.886;   -9.289;  737.505
458.589;   49.415;   -6.139;  686.606
459.179;   49.735;   -8.729;  717.658
459.769;   47.963;   -9.789;  627.099
460.358;   51.920;  -10.259;  797.262
460.948;   52.928;   -7.299;  689.503
461.538;   54.115;  -10.289;  660.677
462.128;   52.142;  -11.269;  664.934
462.717;   58.759;   -9.368;  710.326
463.307;   61.615;   -7.908;  705.846
463.897;   57.949;   -9.599;  656.942
464.486;   57.487;   -9.769;  837.128
465.076;   61.051;   -8.048;  733.776
465.666;   65.342;   -9.358;  652.900
466.255;   62.954;   -7.919;  785.651
466.845;   61.603;  -11.689;  666.749
467.434;   63.990;   -7.818;  725.873
468.023;   66.047;   -7.678;  658.357
468.613;   63.192;  -10.939;  713.946
469.202;   67.482;  -10.118;  646.507
469.791;   70.979;   -9.108;  737.811
470.381;   73.093;   -6.058;  742.813
470.970;   72.555;  -10.428;  711.099
471.559;   72.753;  -10.268;  733.291
472.148;   76.200;   -8.448;  675.737
472.738;   78.916;   -6.917;  765.466
473.327;   78.405;  -11.978;  637.529
473.916;   77.106;  -11.888;  737.446
474.505;   81.689;   -9.437;  751.703
475.094;   84.599;   -6.747;  806.570
475.683;   83.828;   -9.367;  797.699
476.272;   85.140;  -12.637;  730.632
476.861;   88.157;  -10.027;  706.754
477.449;   94.586;   -8.716;  728.487
478.038;   88.781;   -9.577;  692.513
478.627;   90.509;   -9.718;  714.852
479.216;   95.906;   -8.947;  769.441
479.805;   99.751;   -6.256;  783.375
480.393;   98.932;   -7.937; 1008.945
480.982;   98.152;   -7.717;  874.501
481.571;  103.679;   -9.266;  858.333
482.159;  105.320;   -7.636;  705.386
482.748;  105.096;   -9.667;  821.385
483.336;  109.223;  -10.376;  858.209
483.925;  109.859;   -7.147;  774.373
484.513;  115.892;   -7.996;  758.962
485.102;  113.920;  -10.027;  810.965
485.690;  121.695;  -10.446; 1011.050
486.278;  123.486;   -8.446;  979.329
486.867;  125.097;   -6.356;  809.662
487.455;  125.807;   -9.136;  898.229
488.043;  127.308;  -10.646;  748.361
488.631;  135.090;   -7.456; 1005.079
489.220;  140.385;   -6.636;  908.626
489.808;  140.295;  -11.036;  741.415
490.396;  147.758;  -10.246;  914.645
490.984;  153.440;   -8.556;  830.161
491.572;  162.478;   -5.886;  940.315
492.160;  168.493;   -9.486;  919.081
492.748;  179.400;  -10.976;  884.341
493.336;  201.990;   -8.776; 1019.693
493.924;  226.955;   -5.465;  958.077
494.512;  253.730;   -9.986; 1066.638
495.100;  289.198;  -10.636; 1103.280
495.687;  343.493;  -10.885; 1206.373
496.275;  404.964;   -8.126; 1150.796
496.863;  474.585;  -10.586; 1281.171
497.451;  573.903;  -11.926; 1386.805
498.038;  701.119;  -10.885; 1556.729
498.626;  806.938;   -6.315; 1741.407
499.214;  952.815;   -7.326; 2016.609
499.801; 1142.582;  -11.906; 2220.633
500.389; 1392.713;  -10.466; 2312.494
500.976; 1690.746;   -5.236; 2744.849
501.564; 2119.235;   -8.936; 3148.565
502.151; 2483.075;  -13.176; 3515.999
502.738; 2918.381;  -10.646; 3971.274
503.326; 3312.373;   -9.525; 4403.796
503.913; 3692.717;  -10.856; 5161.749
504.500; 4040.801;  -11.586; 5986.420
505.088; 4453.381;  -10.336; 6381.201
505.675; 4975.059;   -6.355; 6925.547
506.262; 5702.901;   -9.046; 7619.060
506.849; 6407.995;  -10.416; 8733.969
507.436; 6863.047;  -10.305; 9790.121
508.023; 7418.951;   -5.496; 9985.472
508.610; 7689.667;   -7.856;10434.618
509.197; 8322.295;  -10.097;11198.435
509.784; 9666.231;  -10.886;12391.194
510.371;10701.915;   -9.315;13603.713
510.958;11430.191;   -9.936;14426.586
511.545;12192.343;   -9.326;15243.775
512.132;12978.649;  -10.075;15945.876
512.719;13514.813;   -7.796;16340.369
513.305;14435.009;  -10.606;18011.766
513.892;15140.762;  -11.486;19754.971
514.479;16482.332;   -9.126;20967.805
515.066;17998.963;   -6.026;22299.793
515.652;19303.590;   -8.466;22908.660
516.239;20464.545;  -10.886;23798.875
516.825;21362.373;  -11.496;25567.275
517.412;22317.043;   -5.796;28154.959
517.998;22926.797;  -10.506;28344.111
518.585;23091.330;  -10.076;27134.219
519.171;23643.318;   -8.315;27268.576
519.758;25004.568;   -8.596;28964.129
520.344;26807.854;   -8.466;30664.494
520.930;26837.566;  -11.006;32550.605
521.516;28052.023;  -10.495;35422.895
522.103;30292.229;   -5.526;38280.004
522.689;30819.943;   -8.746;37835.117
523.275;30429.943;  -11.376;37288.613
523.861;31756.059;  -11.156;37281.395
524.447;33133.758;   -8.135;37846.949
525.033;32952.371;   -7.896;38321.949
525.619;33104.973;  -12.476;38579.285
526.205;34731.480;   -9.516;40622.875
526.791;36964.582;   -6.926;42258.836
527.377;37194.324;   -8.346;42966.902
527.963;38594.023;   -8.717;42018.949
528.549;37064.473;  -11.016;42476.828
529.135;35759.473;   -8.536;41854.852
529.721;35062.441;   -9.666;41237.711
530.306;34353.707;  -10.066;41259.445
530.892;34238.750;  -11.356;41506.047
531.478;35643.906;   -6.596;43559.613
532.063;38468.570;   -8.836;47695.563
532.649;39049.227;  -10.047;50808.324
533.235;39886.164;   -9.746;51787.500
533.820;40351.109;   -6.566;52145.035
534.406;41725.891;  -10.817;51133.488
534.991;41485.336;   -9.416;49996.805
535.576;40111.691;   -9.036;48882.852
536.162;40665.691;   -6.156;46942.285
536.747;41494.785;  -11.607;45711.746
537.333;44954.359;  -11.787;48510.180
537.918;47916.590;  -12.437;50439.891
538.503;46793.719;   -7.196;50863.711
539.088;43475.148;  -10.556;50906.922
539.673;43216.609;   -8.767;52621.965
540.259;43365.129;  -10.026;52368.094
540.844;41049.621;   -7.416;50879.109
541.429;42311.121;   -9.467;52077.777
542.014;44920.855;   -9.527;52716.695
542.599;44259.879;   -9.946;52363.281
543.184;42029.902;   -7.927;53187.137
543.769;43323.387;   -9.297;54697.605
544.354;42972.602;  -10.127;53913.914
544.938;41896.207;   -9.267;49680.164
545.523;43850.152;   -6.506;47386.277
546.108;46667.406;   -9.787;49151.949
546.693;48537.582;  -11.587;51384.637
547.278;48087.270;  -10.986;51853.254
547.862;45271.070;   -8.206;51173.750
548.447;41085.980;  -10.067;51691.395
549.031;40599.094;   -9.637;52456.703
549.616;45337.254;   -9.926;52714.516
550.201;44779.363;   -6.347;52414.598
550.785;45815.148;   -7.917;52355.059
551.370;44928.887;  -10.867;54589.453
551.954;44511.395;   -9.047;58267.348
552.538;45354.234;   -7.827;59062.176
553.123;43883.688;  -10.287;58115.285
553.707;41653.840;  -12.178;56556.285
554.291;43017.352;   -8.717;56201.668
554.876;45397.637;   -7.457;55335.762
555.460;45602.910;  -10.387;54155.703
556.044;46459.809;   -9.618;53721.484
556.628;45230.254;  -11.567;53731.016
557.212;44309.617;   -8.097;54312.531
557.796;42926.898;  -11.077;53797.773
558.380;42921.309;  -11.108;56145.984
558.964;43172.000;   -9.057;57277.930
559.548;44428.281;   -6.977;56459.641
560.132;42901.090;  -11.457;54434.543
560.716;41427.117;  -11.378;54800.617
561.300;42350.719;   -9.577;57606.945
561.884;43577.266;   -7.127;58972.445
562.467;42107.984;   -7.118;57327.570
563.051;41471.105;  -13.358;54962.434
563.635;42454.313;  -10.178;52594.473
564.219;42633.891;   -7.837;50610.410
564.802;43496.305;  -11.398;49551.180
565.386;43446.301;  -12.788;48370.953
565.969;42802.746;   -9.077;48178.871
566.553;41993.953;   -6.207;49957.305
567.136;42596.883;   -8.568;50369.594
567.720;39170.113;  -11.868;49492.004
568.303;37169.285;   -8.268;50616.352
568.887;37171.590;   -8.698;50727.148
569.470;37543.887;   -6.808;51698.379
570.053;36188.879;  -13.188;52122.078
570.637;34681.590;  -12.037;52536.438
571.220;34644.188;   -8.577;51186.098
571.803;35309.613;   -8.498;51032.762
572.386;37309.973;  -10.498;49609.887
572.969;39671.352;   -9.388;48285.926
573.552;37998.086;   -8.338;47624.285
574.135;36694.156;   -8.518;45498.641
574.718;34279.184;  -13.628;41970.434
575.301;33245.965;  -10.893;41447.137
575.884;32212.746;   -8.158;40923.836
576.467;33057.281;  -10.328;45267.723
577.050;34398.805;  -13.058;48175.543
577.633;35121.172;   -9.458;47729.328
578.216;33875.430;   -8.928;47579.793
578.799;33402.801;   -9.358;47820.996
579.381;33146.160;  -11.388;48115.551
579.964;32001.549;  -11.718;47333.766
580.547;33944.363;   -8.588;46668.969
581.129;35125.652;   -8.859;44466.141
581.712;35984.449;  -10.729;44164.922
582.294;36573.453;  -11.118;46477.855
582.877;36354.301;   -5.218;48244.254
583.459;33980.441;   -8.679;47437.895
584.042;32035.979;  -10.709;46943.219
584.624;32429.064;  -11.669;46792.227
585.206;31899.797;   -8.218;46557.250
585.789;31723.555;  -10.569;45793.773
586.371;34254.020;  -11.859;43836.391
586.953;34563.246;  -10.719;42972.492
587.536;35499.059;   -7.198;42487.211
588.118;35085.719;   -8.720;42086.414
588.700;30398.607;  -10.439;43389.930
589.282;27729.807;   -9.198;43646.039
589.864;27320.635;   -9.199;43438.109
590.446;29409.133;  -11.319;43151.926
591.028;32013.180;  -11.159;42781.867
591.610;32834.816;  -11.779;42839.098
592.192;30988.934;   -7.668;42820.402
592.774;29714.563;  -11.949;40724.277
593.356;28507.053;  -12.129;39874.789
593.937;27409.074;  -10.669;39980.648
594.519;29481.279;   -6.509;42069.633
595.101;31647.213;  -10.849;42976.031
595.683;31798.084;  -11.679;44084.441
596.264;32809.652;   -9.049;43478.797
596.846;32298.676;   -8.849;43803.672
597.427;32245.354;   -9.570;42986.934
598.009;33804.527;  -12.620;42832.219
598.591;34248.113;  -10.039;42580.086
599.172;33553.090;  -10.369;43061.805
599.753;33776.516;   -9.140;41691.469
600.335;35309.676;  -11.430;40692.520
600.916;33438.168;   -9.939;39982.422
601.498;30766.465;   -8.479;40318.617
602.079;29225.438;  -10.920;40670.609
602.660;29103.865;  -11.480;41450.898
603.241;30654.945;  -11.699;41137.738
603.823;29464.668;   -9.579;38868.797
604.404;28880.158;  -10.620;38182.785
604.985;30471.738;  -10.450;38078.047
605.566;30347.521;   -9.129;38056.633
606.147;30564.189;   -7.510;37020.418
606.728;32130.285;  -10.660;37883.359
607.309;30815.154;  -11.740;38748.273
607.890;30392.014;   -9.759;38850.230
608.471;29818.131;   -8.250;37457.918
609.051;28903.850;   -9.240;36066.457
609.632;27792.520;  -12.120;35991.074
610.213;28556.182;   -9.110;37402.641
610.794;29310.479;   -8.030;38383.363
611.374;28828.193;   -8.110;40562.387
611.955;29393.990;  -13.560;38533.727
612.536;30726.139;  -11.400;36951.789
613.116;30572.176;   -8.070;37197.891
613.697;30908.768;  -10.830;38411.125
614.277;29270.523;  -11.641;38673.938
614.858;30112.951;  -13.310;37075.863
615.438;29325.566;   -7.460;35092.906
616.019;26789.375;   -7.601;33666.301
616.599;27406.607;  -12.020;34189.023
617.179;29259.047;  -11.780;36952.047
617.760;30342.545;   -8.570;39582.574
618.340;31427.313;  -11.471;38943.977
618.920;32559.766;  -11.170;37594.156
619.500;32236.043;  -11.071;37866.938
620.080;31319.398;   -7.750;37869.043
620.660;32504.680;  -12.711;36868.617
621.241;33792.836;  -10.211;36352.309
621.821;33996.543;  -10.961;35459.520
622.401;33115.137;   -7.720;35207.414
622.980;32529.742;   -8.981;35980.422
623.560;31067.297;   -9.331;37351.328
624.140;29729.557;   -9.850;34388.582
624.720;24708.746;   -7.451;32368.764
625.300;21300.475;   -9.070;32638.629
625.880;24701.113;  -12.601;34599.035
626.459;28547.141;  -11.751;36831.738
627.039;31487.131;   -9.281;38299.098
627.619;31371.322;   -8.801;38289.574
628.198;29922.301;  -12.071;37220.695
628.778;29231.512;   -9.461;37632.563
629.357;29950.174;   -8.491;38003.012
629.937;29816.490;   -9.721;38402.039
630.516;29268.471;   -9.951;37868.801
631.096;29071.098;  -11.731;35760.410
631.675;31488.014;   -8.572;35225.219
632.254;36405.664;  -11.282;35130.289
632.834;35863.727;  -13.322;35794.570
633.413;34147.852;  -10.301;35788.922
633.992;31569.285;   -8.582;34532.863
634.571;32472.785;   -8.352;33590.113
635.151;35574.957;  -11.912;34943.863
635.730;33823.988;  -10.511;35352.523
636.309;30144.596;   -7.731;35366.605
636.888;27637.078;   -9.952;36165.637
637.467;28294.762;  -11.672;37515.902
638.046;30010.814;   -8.901;39288.695
638.625;33208.828;   -7.912;38279.699
639.204;32985.691;  -10.022;37741.598
639.782;31468.068;  -12.252;38364.551
640.361;27876.160;  -10.041;36740.621
640.940;25080.049;  -11.161;34950.082
641.519;25782.957;   -9.701;34137.398
642.097;28603.939;  -11.271;35654.258
642.676;31481.244;   -8.651;35637.957
643.255;32235.650;   -8.711;36567.074
643.833;31354.285;   -9.581;37809.434
644.412;31288.420;  -13.711;37337.293
644.990;30280.945;  -11.811;37018.531
645.569;30103.445;   -9.411;36518.469
646.147;29097.371;  -10.291;36186.430
646.726;29041.139;  -12.401;36267.688
647.304;30432.031;  -10.411;36647.625
647.882;32121.658;   -9.651;39286.742
648.461;33655.555;   -9.631;39157.703
649.039;32023.232;  -11.881;35412.883
649.617;31456.592;   -9.661;34744.918
650.195;31114.668;   -9.301;35403.098
650.773;29665.125;  -10.511;35053.797
651.352;27155.670;  -11.521;33756.816
651.930;24802.318;  -12.211;31868.773
652.508;23341.309;   -9.171;33121.551
653.086;27202.006;   -9.371;33564.793
653.663;30088.105;  -13.161;34054.668
654.241;28845.162;  -13.031;35693.309
654.819;30487.332;   -9.371;36422.906
655.397;30647.355;  -10.511;38213.484
655.975;30195.775;  -10.371;39507.625
656.553;30043.807;  -10.051;39498.223
657.130;28465.711;  -10.061;40395.480
657.708;27732.217;   -9.561;39242.020
658.286;27851.311;  -11.511;38920.020
658.863;29242.049;  -10.261;40202.898
659.441;32220.834;   -7.531;39677.938
660.018;31758.428;   -9.501;40413.355
660.596;30650.172;  -13.301;39931.414
661.173;32539.404;  -11.211;39604.531
661.750;32542.686;   -9.951;39700.070
662.328;31024.658;   -9.390;39292.809
662.905;30208.961;  -11.330;38235.648
663.482;26268.412;   -9.050;36212.305
664.060;24453.803;   -8.240;35944.945
664.637;27197.367;  -10.050;35170.785
665.214;29031.807;  -11.760;34197.523
665.791;30624.004;  -10.530;34549.520
666.368;29495.861;   -9.690;35118.578
666.945;30027.459;   -9.320;36019.418
667.522;31541.213;  -11.860;36048.438
668.099;31201.008;  -10.770;36243.914
668.676;29995.453;   -6.260;35958.875
669.253;28850.219;   -7.000;37384.730
669.830;29581.260;  -10.190;36779.629
670.407;29241.414;   -9.550;35231.289
670.984;28964.518;   -9.260;35544.270
671.560;29493.363;   -9.280;35466.867
672.137;28830.563;  -11.810;34280.863
672.714;29696.025;  -11.490;34632.863
673.290;30263.539;   -7.740;35135.422
673.867;30412.875;  -10.660;36114.480
674.443;30426.424;  -12.230;36152.859
675.020;28758.873;  -10.450;35327.238
675.596;29800.242;   -9.260;35795.176
676.173;30169.592;  -10.780;35430.355
676.749;29824.535;  -13.690;33549.516
677.326;29829.301;  -11.980;32210.012
677.902;29772.598;   -8.630;32068.871
678.478;29120.197;  -10.730;32583.891
679.054;28548.514;  -10.520;32088.928
679.631;28843.010;  -11.920;30978.848
680.207;30388.354;   -7.490;33160.887
680.783;32083.137;   -9.860;35570.363
681.359;31269.916;  -13.380;36125.184
681.935;30697.328;  -12.480;35240.922
682.511;29868.246;   -7.900;34429.961
683.087;29916.084;   -7.710;34463.680
683.663;29495.939;  -11.480;34648.898
684.239;28298.479;  -14.090;34546.457
684.815;27941.910;   -7.560;35586.375
685.390;28286.668;   -9.910;35821.895
685.966;28780.848;  -11.159;35085.871
686.542;31124.193;  -11.169;34198.230
687.118;33401.598;   -5.959;32847.707
687.693;33795.914;  -10.329;32794.027
688.269;33487.262;  -12.059;33072.367
688.844;31617.182;  -10.909;33141.664
689.420;29417.695;   -8.019;33965.742
689.995;27211.854;   -8.399;34655.523
690.571;25822.125;  -10.949;33576.742
691.146;26216.221;   -9.619;32657.219
691.722;25758.723;   -8.999;32526.979
692.297;25503.020;  -11.589;33014.617
692.872;27297.018;  -11.739;34012.254
693.448;26948.236;  -11.059;34237.434
694.023;26097.027;  -10.139;34142.672
694.598;27942.078;   -9.029;34132.031
695.173;28258.359;  -13.319;34205.250
695.748;27509.492;  -10.169;32882.488
696.323;27792.248;   -8.339;32864.906
696.898;28076.695;   -8.169;33170.004
697.473;27903.266;  -12.309;32432.984
698.048;27369.293;  -10.989;31649.303
698.623;27241.533;   -9.329;30778.141
699.198;29178.051;   -9.849;31140.119
699.773;30214.582;  -12.329;31764.299
700.348;28520.719;  -10.389;31780.816
700.922;28539.711;   -9.269;32046.375
701.497;29489.020;   -9.329;32603.574
702.072;29689.684;  -10.789;34799.871
702.646;28274.219;  -10.839;35793.172
703.221;26167.369;   -9.099;35201.590
703.795;28372.980;  -10.939;34764.527
704.370;28825.883;  -12.859;34307.367
704.944;29221.793;  -11.559;33509.887
705.519;30087.246;   -7.939;31388.584
706.093;31441.912;  -10.499;31340.104
706.668;31755.162;  -11.289;32630.281
707.242;30613.346;  -11.509;32728.779
707.816;29021.896;   -9.639;32947.238
708.390;27549.166;  -11.429;33277.855
708.965;28003.805;  -11.869;33834.336
709.539;27909.441;  -11.689;33709.273
710.113;28393.896;  -10.478;33044.313
710.687;27922.084;  -10.228;31953.992
711.261;26302.270;  -13.698;30505.949
711.835;26136.174;  -13.378;30262.369
712.409;26898.393;   -9.698;31254.447
712.983;28861.611;  -11.898;32754.986
713.557;29827.738;  -15.138;34018.824
714.131;29421.779;  -14.098;34579.625
714.704;28466.271;   -9.958;33890.262
715.278;26237.119;  -10.028;33531.102
715.852;25153.965;  -11.148;33601.660
716.425;25887.707;   -9.068;33515.117
716.999;26563.582;  -10.038;33185.555
717.573;27522.473;   -9.798;33905.996
718.146;28620.213;  -12.378;35199.293
718.720;28765.041;  -11.918;35060.551
719.293;28251.844;   -8.088;34973.230
719.867;31115.053;  -10.888;36394.449
720.440;30978.352;  -11.938;36663.008
721.013;29391.297;  -12.818;35102.426
721.587;27870.408;  -10.298;33985.266
722.160;26793.670;  -10.048;33524.965
722.733;25722.883;  -12.108;32987.043
723.306;25995.637;  -10.818;33066.301
723.880;28472.982;   -8.908;33399.500
724.453;30634.650;   -9.878;33468.297
725.026;29791.426;  -11.188;33816.637
725.599;26970.994;  -11.678;32797.996
726.172;27121.111;   -9.618;33187.434
726.745;28095.898;   -8.258;35136.613
727.318;29373.947;  -12.978;35751.730
727.891;30035.086;  -12.148;35890.430
728.463;29798.564;   -8.968;34822.090
729.036;28719.342;  -10.188;32895.086
729.609;29117.498;  -11.788;31823.225
730.182;26042.215;  -11.788;31445.283
730.754;23554.105;  -10.268;32373.223
731.327;23610.721;   -9.998;33676.820
731.900;23877.980;  -12.228;33417.000
732.472;25206.189;  -13.848;31978.498
733.045;27207.984;   -8.698;30368.777
733.617;27285.863;  -10.607;30574.215
734.190;26998.428;  -11.507;31280.975
734.762;24224.318;  -13.647;31674.412
735.334;22389.957;   -9.767;31247.291
735.907;22963.645;   -9.897;29876.211
736.479;23100.609;  -11.637;29808.488
737.051;22829.373;   -9.567;30233.547
737.623;23789.564;   -8.187;31469.086
738.195;24445.717;  -11.187;31784.225
738.768;26216.602;  -12.337;32120.523
739.340;26614.537;  -12.227;32094.342
739.912;25538.871;  -11.057;31312.680
740.484;24056.576;  -10.207;31946.238
741.056;22861.885;  -10.047;32984.059
741.628;24622.795;  -13.627;33897.715
742.199;26773.762;   -7.177;33213.016
742.771;25099.152;  -10.797;31369.113
743.343;22840.303;  -11.997;31865.473
743.915;21861.090;  -12.867;32388.631
744.487;21970.324;   -7.617;31079.568
745.058;22219.336;   -9.557;30570.107
745.630;22673.393;   -9.877;29970.127
746.201;23557.945;  -14.177;29186.766
746.773;24132.063;   -9.237;28805.723
747.344;23970.439;   -9.847;29591.223
747.916;22546.020;  -11.657;31412.201
748.487;22691.143;  -10.587;32194.898
749.059;23797.701;   -8.707;32533.719
749.630;24390.723;  -10.537;32158.518
750.201;23363.762;  -11.687;30855.395
750.773;21574.096;  -11.647;28622.555
751.344;21511.215;   -7.147;28405.732
751.915;22863.609;   -9.757;28461.551
752.486;22972.809;  -12.427;27842.850
753.057;20624.232;  -12.227;27845.008
753.628;19283.211;  -10.417;27728.107
754.199;20372.109;  -11.767;27381.086
754.770;21425.553;  -11.187;25882.203
755.341;21427.080;  -10.507;25886.184
755.912;21514.854;   -9.387;26050.861
756.483;21067.256;  -10.647;26798.779
757.054;19415.051;  -11.837;27048.238
757.625;18159.561;  -12.716;26294.838
758.195;17766.105;   -9.666;26142.076
758.766;17408.721;   -8.656;26392.234
759.337;18197.297;  -12.856;26334.594
759.907;19860.463;  -13.366;27579.652
760.478;20806.383;   -8.576;28352.770
761.048;20298.119;  -10.526;27325.088
761.619;19490.010;  -11.116;26460.428
762.189;19470.521;  -12.136;26029.826
762.760;20424.625;   -9.456;26430.145
763.330;21546.799;   -7.136;26670.902
763.900;21020.611;  -11.786;26603.021
764.471;18464.082;  -11.546;25542.740
765.041;17244.660;   -8.096;24358.459
765.611;17333.563;   -8.876;23991.297
766.181;17717.697;  -12.196;24470.236
766.751;18694.197;  -11.636;24845.975
767.321;18493.129;  -10.156;24533.633
767.891;16621.521;  -11.766;24916.492
768.461;16055.627;  -14.936;24776.771
769.031;16514.068;  -12.356;24757.988
769.601;18101.250;   -7.526;24181.088
770.171;17957.256;  -10.766;23670.387
770.741;17146.090;  -13.176;22960.045
771.311;17276.924;  -10.616;22917.523
771.880;17666.199;   -9.576;23562.941
772.450;17338.721;  -10.336;24216.500
773.020;17287.547;  -13.516;24140.398
773.589;16599.855;  -13.466;24414.857
774.159;15959.990;   -8.686;23858.717
774.729;15624.250;   -9.476;22942.135
775.298;15171.674;  -13.666;22324.033
775.867;14774.526;  -11.716;21140.313
776.437;14842.951;   -9.906;20838.092
777.006;14663.528;  -12.166;20599.510
777.576;14554.879;  -12.356;20508.809
778.145;14614.295;  -11.646;20732.947
778.714;14457.901;   -8.226;21062.465
779.283;13724.934;   -9.556;20949.664
779.853;13284.191;  -14.116;20508.623
780.422;13780.589;  -11.506;20649.082
780.991;13332.942;   -9.556;21527.520
781.560;12166.043;   -9.095;22632.658
782.129;12038.801;  -12.135;23048.277
782.698;12084.915;  -10.865;23438.555
783.267;11662.013;   -9.335;23267.734
783.836;11574.915;  -11.045;22415.133
784.404;12604.566;  -13.865;20443.152
784.973;13206.778;  -13.095;19699.150
785.542;13092.225;  -11.575;19763.828
786.111;12858.789;   -9.705;20341.408
786.679;12378.095;  -12.105;20207.967
787.248;12136.288;  -12.455;19516.465
787.817;11965.020;  -11.535;18900.363
788.385;11615.911;   -9.765;17879.121
788.954;11061.931;  -14.005;17658.301
789.522;10534.015;  -11.955;17788.879
790.090;11102.744;  -10.135;18118.277
790.659;11518.656;  -10.975;18338.736
791.227;11011.215;  -13.375;18508.615
791.795;11437.364;  -12.375;17898.254
792.364;11819.188;  -10.725;17295.133
792.932;12159.093;   -9.715;16822.051
793.500;12281.109;  -12.675;17040.148
794.068;12446.397;  -13.495;17179.787
794.636;12590.687;  -10.885;16664.246
795.204;11986.828;  -11.045;16524.545
795.772;12054.493;  -13.175;17274.564
796.340;11609.988;  -12.445;17891.002
796.908;11438.261;   -9.735;17648.561
797.476;11348.428;   -9.815;17064.080
798.044;10876.224;  -13.985;16672.777
798.612;10026.262;  -13.115;17023.996
799.180; 9642.379;  -10.185;16561.615
799.747; 9595.081;   -9.055;15962.773
800.315; 9350.661;  -12.385;15296.992
800.883; 9009.610;  -15.035;14801.771
801.450; 9027.161;  -10.365;14534.430
802.018; 9098.634;   -9.855;14173.248
802.585; 9223.995;  -11.905;14029.547
803.153; 9241.640;  -11.585;13836.846
803.720; 9050.138;   -9.095;13567.324
804.287; 8617.827;   -9.135;13360.622
804.855; 8199.834;  -11.604;13681.981
805.422; 8091.580;  -11.794;13536.560
805.989; 8133.594;  -10.734;13355.958
806.556; 8289.922;  -10.444;13747.896
807.124; 8498.798;  -12.764;13987.376
807.691; 8451.371;  -12.964;14038.674
808.258; 8268.593;  -11.134;14120.152
808.825; 7993.771;   -9.854;13860.111
809.392; 8060.354;  -10.504;13268.790
809.959; 7557.453;  -13.054;12680.389
810.526; 7115.862;   -8.294;12427.308
811.093; 7171.607;   -8.394;12030.105
811.659; 7826.130;  -12.304;11653.664
812.226; 8355.910;  -13.944;11637.183
812.793; 8070.881;  -10.484;11611.521
813.360; 7449.895;  -10.144;11885.181
813.926; 7142.981;  -11.684;12770.539
814.493; 6926.602;  -13.644;12677.638
815.060; 6503.678;   -9.724;11974.336
815.626; 6458.438;   -9.854;11594.715
816.193; 6838.775;  -13.254;11579.474
816.759; 6846.616;  -13.204;11666.972
817.325; 6917.872;   -9.434;11325.530
817.892; 7333.099;  -10.134;11105.369
818.458; 7823.079;  -13.474;10843.928
819.024; 7474.308;  -11.854;10714.406
819.591; 7158.015;  -10.244;10469.165
820.157; 6921.229;  -10.704;10235.523
820.723; 6391.076;  -12.324;10847.563
821.289; 6082.784;   -9.444;11040.980
821.855; 6016.633;   -8.374;10357.100
822.421; 6034.351;  -10.234; 9978.918
822.987; 6064.150;  -13.294; 9754.177
823.553; 5728.934;  -10.884;10065.755
824.119; 5523.232;   -8.884;10036.294
824.685; 5606.939;   -6.784;10029.192
825.251; 5699.268;  -12.004;10199.230
825.816; 5669.315;  -11.474; 9820.189
826.382; 5439.144;   -9.174; 9297.248
826.948; 5640.188;   -9.214; 9381.347
827.513; 6047.180;  -10.774; 9450.726
828.079; 5856.905;  -11.924; 9472.444
828.645; 5250.382;  -10.543; 9292.643
829.210; 5151.671;  -10.533; 9065.341
829.776; 5147.712;  -10.753; 9132.620
830.341; 5037.945;  -10.173; 9092.878
830.906; 5242.183;  -10.743; 9078.557
831.472; 5601.227;  -11.113; 8534.535
832.037; 5349.302;  -10.603; 8677.874
832.602; 4798.957;  -13.323; 8628.692
833.167; 4520.741;  -10.823; 8879.031
833.733; 4439.143;  -10.113; 9189.790
834.298; 4582.945;  -13.583; 9052.608
834.863; 4669.979;  -12.703; 8895.087
835.428; 4650.187;  -10.523; 8824.266
835.993; 4487.624;   -6.963; 8845.385
836.558; 4312.620;  -10.763; 8888.563
837.123; 4437.856;   -9.903; 8966.582
837.688; 4680.191;   -9.913; 8617.860
838.253; 4945.871;  -10.283; 8590.699
838.817; 5164.104;  -12.963; 8443.797
839.382; 5073.126;  -14.243; 8799.356
839.947; 4749.338;  -10.733; 8810.595
840.511; 4436.403;   -9.383; 8796.394
841.076; 4031.118;  -12.563; 8347.231
841.641; 4058.343;  -12.953; 8224.330
842.205; 4129.848;   -7.043; 8223.349
842.770; 4224.269;   -8.163; 8622.107
843.334; 4390.082;  -12.503; 8410.386
843.898; 4325.820;  -11.693; 8337.465
844.463; 4341.817;  -10.203; 8506.283
845.027; 4114.524;   -9.533; 8280.962
845.591; 3938.106;  -13.443; 8231.141
846.156; 3937.964;  -13.143; 7969.179
846.720; 3823.218;   -9.433; 7768.278
847.284; 3696.680;  -11.033; 7630.957
847.848; 3566.893;  -10.403; 7472.395
848.412; 3476.587;  -11.553; 7437.394
848.976; 3526.664;   -8.393; 7674.592
849.540; 3451.969;   -8.713; 7836.011
850.104; 3565.060;  -12.463; 7913.669
850.668; 3923.022;  -12.973; 7694.508
851.232; 4021.703;  -10.793; 7756.887
851.796; 3848.816;  -10.662; 7926.545
852.359; 3547.547;  -13.082; 7827.844
852.923; 3380.427;  -12.192; 7641.163
853.487; 3194.540;  -11.912; 7342.501
854.050; 3153.331;  -10.892; 7042.820
854.614; 3306.426;  -13.992; 7151.338
855.177; 3438.597;  -11.732; 7105.077
855.741; 3470.429;   -8.962; 6989.675
856.304; 3345.562;   -9.442; 6596.634
856.868; 3285.467;  -14.192; 6356.272
857.431; 3371.118;  -12.702; 6468.571
857.995; 3479.888;   -9.942; 6373.210
858.558; 3478.940;   -9.112; 6324.448
859.121; 3203.116;  -12.932; 6408.327
859.684; 3081.863;  -13.442; 6347.886
860.247; 3201.677;  -10.632; 6321.264
860.810; 3207.064;  -11.272; 6301.903
861.374; 2947.577;   -9.832; 6607.881
861.937; 2689.874;  -11.762; 6408.200
862.500; 2680.346;   -9.722; 6572.639
863.062; 2854.200;  -10.512; 6387.297
863.625; 3025.505;  -11.232; 6190.836
864.188; 3178.270;  -14.112; 5807.254
864.751; 3239.603;  -11.302; 5682.413
865.314; 3121.549;  -10.112; 5547.492
865.876; 2903.912;  -12.182; 5500.150
866.439; 2884.829;  -10.722; 5415.909
867.002; 2837.857;   -9.252; 5501.567
867.564; 2641.224;   -9.572; 5413.946
868.127; 2428.580;  -13.142; 5160.325
868.689; 2325.192;  -12.902; 5133.183
869.252; 2230.727;   -9.732; 5252.382
869.814; 2137.305;   -9.432; 5297.141
870.377; 2143.785;  -11.552; 5390.919
870.939; 2206.831;   -9.052; 5599.898
871.501; 2267.557;  -10.982; 5248.336
872.063; 2274.272;  -12.292; 4854.235
872.626; 2233.803;  -14.912; 4817.074
873.188; 2261.708;  -13.112; 4987.732
873.750; 2222.654;  -13.442; 4868.651
874.312; 2118.096;   -9.402; 4779.330
874.874; 2028.418;  -11.062; 4866.348
875.436; 1943.595;  -13.931; 4718.887
875.998; 1936.874;   -9.561; 4660.005
876.560; 1963.094;  -11.321; 4462.964
877.122; 1906.494;  -12.221; 4145.042
877.683; 1812.542;  -12.191; 4056.481
878.245; 1744.933;  -12.101; 3950.740
878.807; 1788.095;   -8.971; 4058.958
879.369; 1809.226;  -12.071; 3954.677
879.930; 1703.307;  -14.621; 3941.495
880.492; 1638.991;  -10.311; 4067.014
881.053; 1603.866;  -10.901; 3859.633
881.615; 1501.915;  -14.411; 3776.071
882.176; 1405.396;  -13.761; 3734.750
882.738; 1353.502;   -9.181; 3678.489
883.299; 1325.680;  -11.791; 3405.407
883.860; 1326.183;  -13.121; 3351.106
884.422; 1326.529;  -11.211; 3394.044
884.983; 1281.313;  -10.091; 3166.443
885.544; 1206.090;   -8.461; 3189.802
886.105; 1123.966;  -12.361; 3160.360
886.666; 1054.142;  -14.141; 3093.059
887.227;  996.795;  -11.361; 2941.957
887.788;  933.444;  -11.401; 2974.836
888.349;  870.934;  -13.791; 2721.214
888.910;  868.765;  -13.191; 2696.493
889.471;  878.174;   -9.881; 2560.172
890.032;  861.472;   -9.881; 2558.190
890.593;  837.328;  -10.371; 2567.669
891.153;  809.691;  -13.301; 2460.307
891.714;  759.373;  -11.431; 2372.046
892.275;  720.058;  -11.291; 2309.505
892.835;  681.536;  -11.471; 2382.543
893.396;  629.025;  -11.541; 2295.502
893.956;  573.012;  -11.181; 2162.420
894.517;  535.098;  -11.741; 2125.439
895.077;  528.548;  -11.671; 2086.978
895.638;  528.806;  -11.311; 2126.316
896.198;  497.657;   -9.831; 1838.275
896.758;  455.265;   -8.421; 1892.813
897.319;  423.034;  -12.351; 1792.232
897.879;  407.059;  -13.511; 1762.751
898.439;  380.228;  -12.001; 1661.149
898.999;  356.679;  -10.180; 1781.468
899.559;  347.736;  -12.030; 1703.347
900.119;  343.017;  -15.710; 1537.525
900.679;  339.016;   -8.900; 1638.384
901.239;  324.817;   -8.340; 1527.902
901.799;  313.100;  -13.910; 1456.441
902.359;  307.079;  -13.460; 1357.140
902.919;  300.575;  -11.490; 1331.118
903.479;  287.283;  -12.110; 1317.257
904.038;  266.308;  -11.720; 1262.595
904.598;  250.776;  -13.610; 1152.034
905.158;  246.094;  -11.040; 1240.893
905.717;  240.200;  -10.900; 1233.691
906.277;  228.079;  -15.080; 1217.330
906.836;  218.281;  -13.380; 1222.408
907.396;  209.939;  -10.780; 1193.047
907.955;  202.113;   -8.500; 1182.526
908.515;  196.595;  -12.760; 1099.364
909.074;  189.866;  -11.900; 1092.863
909.633;  184.668;   -8.950; 1069.121
910.192;  179.955;   -8.770; 1196.460
910.752;  174.951;  -12.390; 1029.960
911.311;  169.629;  -13.680; 1009.780
911.870;  166.437;  -12.370;  971.460
912.429;  168.598;  -10.900; 1094.080
912.988;  168.010;  -11.690; 1081.060
913.547;  163.096;  -13.240;  940.380
914.106;  157.589;  -11.990;  999.420
914.665;  153.561;   -9.990;  984.020
915.224;  153.210;  -12.880; 1035.760
915.782;  153.610;  -12.350;  922.560
916.341;  153.154;   -9.110; 1049.840
916.900;  149.542;   -9.270;  925.260
917.458;  147.175;  -13.240;  884.220
918.017;  146.868;  -13.550;  942.600
918.576;  146.281;  -12.320;  904.440
919.134;  144.818;  -11.490;  837.980
919.693;  142.558;  -13.670;  893.060
920.251;  139.895;  -15.470;  876.500
920.809;  138.954;  -11.290;  839.580
921.368;  139.345;  -10.210;  885.360
921.926;  137.569;  -12.140;  842.940
922.484;  136.395;  -13.080;  903.360
923.042;  136.571;  -11.720;  880.340
923.601;  138.838;   -7.480;  998.680
924.159;  137.352;  -11.570;  935.560
924.717;  133.541;  -13.840;  841.080
925.275;  134.227;  -10.640;  903.240
925.833;  133.635;  -11.540;  779.320
926.391;  134.753;  -12.960;  938.380
926.949;  133.025;  -14.130;  857.680
927.506;  132.962;  -11.750;  903.500
928.064;  134.873;  -10.250;  877.580
928.622;  134.015;  -13.030;  880.100
929.180;  133.096;  -13.400;  814.180
929.737;  134.241;  -10.700;  808.540
930.295;  138.524;  -10.070;  928.480
930.853;  139.439;  -11.960;  849.100
931.410;  140.109;  -13.120;  821.120
931.968;  138.770;  -10.770;  940.660
932.525;  139.306;  -10.680;  909.380
933.082;  139.944;  -13.130;  811.440
933.640;  141.057;  -13.210;  925.900
934.197;  138.582;  -11.060;  886.360
934.754;  140.717;   -9.580;  897.780
935.312;  143.012;  -14.000;  863.340
935.869;  147.505;  -10.710; 1012.980
936.426;  146.879;   -9.860;  872.800
936.983;  149.198;   -9.710;  889.020
937.540;  148.309;  -13.990;  838.280
938.097;  146.175;  -14.040;  940.120
938.654;  146.524;  -10.310;  898.860
939.211;  150.566;  -10.560;  952.480
939.768;  154.495;  -13.900;  915.420
940.324;  157.344;  -14.760;  904.200
940.881;  157.998;  -10.370;  878.500
941.438;  159.730;   -8.260; 1021.200
941.995;  155.008;  -12.540;  992.560
942.551;  152.725;  -14.670;  875.620
943.108;  152.793;  -10.450;  937.920
943.664;  155.602;  -10.750;  869.340
944.221;  158.952;  -11.550; 1088.140
944.777;  156.113;  -14.770;  869.680
945.334;  157.075;  -12.820;  884.840
945.890;  159.533;  -10.130;  946.480
946.446;  159.996;  -13.470;  947.020
947.003;  160.913;  -12.120;  964.940
947.559;  163.463;   -9.980; 1063.040
948.115;  163.501;   -9.080; 1026.540
948.671;  161.482;  -10.830;  967.300
949.227;  157.982;  -12.440;  859.560
949.783;  155.670;  -12.910;  858.900
950.339;  157.974;  -10.270;  991.000
950.895;  158.294;  -13.630; 1023.840
951.451;  157.231;  -15.100;  925.280
952.007;  157.516;  -11.330;  998.540
952.563;  159.006;  -10.580;  937.780
953.118;  158.024;  -13.440;  904.940
953.674;  157.085;  -12.710;  935.780
954.230;  157.570;  -10.350;  949.640
954.785;  155.609;   -9.190;  936.640
955.341;  152.301;  -11.200;  998.160
955.897;  150.258;  -16.560;  834.660
956.452;  151.563;  -12.570;  953.840
957.008;  151.414;   -7.970; 1083.640
957.563;  148.831;  -11.940; 1009.540
958.118;  143.347;  -13.450;  877.700
958.674;  143.773;  -12.030;  946.780
959.229;  145.692;   -9.410; 1013.980
959.784;  143.572;  -12.000;  832.400
960.339;  141.997;  -14.780; 1001.280
960.894;  139.469;   -9.860;  963.760
961.449;  135.571;   -9.970;  859.960
962.004;  135.791;  -10.900; 1212.840
962.559;  130.252;  -13.150;  860.140
963.114;  127.294;  -13.740;  742.480
963.669;  127.811;   -9.820;  915.500
964.224;  125.766;  -13.890;  874.340
964.779;  124.988;  -12.600;  828.420
965.334;  125.757;  -10.950; 1017.860
965.888;  126.193;  -11.170;  875.360
966.443;  129.326;  -12.540;  972.380
966.998;  129.321;  -15.780;  819.460
967.552;  127.636;   -9.760;  908.380
968.107;  124.406;   -9.060;  868.300
968.661;  124.946;  -11.950;  922.440
969.216;  125.419;  -12.800;  856.280
969.770;  125.443;  -11.210;  917.200
970.324;  126.074;  -11.610;  923.140
970.879;  124.799;  -11.370;  947.180
971.433;  122.111;  -12.540;  952.720
971.987;  113.853;  -11.320;  895.340
972.541;  105.746;  -10.720;  917.100
973.095;   98.909;   -9.680; 1009.460
973.649;   88.999;  -11.440;  809.480
974.203;   83.360;  -11.210;  829.040
974.757;   82.159;  -10.240;  855.220
975.311;   83.151;  -13.720;  872.600
975.865;   84.898;  -13.770;  881.820
976.419;   85.588;  -11.690;  857.400
976.973;   87.570;   -9.510;  849.620
977.526;   90.460;  -12.620;  949.920
978.080;   89.949;  -12.010;  796.780
978.634;   92.992;  -10.170;  921.320
979.187;   91.710;   -9.020;  905.400
979.741;   90.179;   -9.820; 1018.380
980.294;   85.920;  -14.870;  789.160
980.848;   84.533;  -12.380;  717.220
981.401;   87.233;  -10.350;  816.540
981.955;   89.307;  -13.720;  844.300
982.508;   88.166;  -11.490;  746.340
983.061;   88.672;  -10.000;  915.260
983.615;   85.660;  -11.480;  798.800
984.168;   82.843;  -13.220;  770.080
984.721;   81.799;  -13.960;  880.760
985.274;   81.386;  -10.870;  867.500
985.827;   80.898;   -9.790;  834.220
986.380;   79.030;  -13.120;  721.340
986.933;   77.902;  -12.450;  864.800
987.486;   76.592;  -10.210;  861.920
988.039;   76.306;   -8.430;  863.100
988.591;   74.601;  -10.520;  893.260
989.144;   71.119;  -14.860;  737.260
989.697;   70.458;  -13.080;  758.740
990.250;   71.883;  -10.150;  858.100
990.802;   70.566;  -13.430;  755.860
991.355;   72.122;  -12.750;  974.880
991.907;   69.607;  -12.040;  864.320
992.460;   67.092;  -11.330;  753.760
993.012;   67.397;  -13.610;  749.540
993.565;   66.186;  -13.460;  711.360
994.117;   67.377;   -9.360;  950.780
994.669;   63.851;  -11.300;  701.320
995.221;   62.161;  -13.540;  791.920
995.774;   60.125;  -13.430;  787.580
996.326;   58.733;  -12.520;  740.220
996.878;   58.989;  -10.950;  838.420
997.430;   56.628;  -14.300;  699.860
997.982;   56.149;  -13.760;  750.140
998.534;   53.101;  -11.530;  739.060
999.086;   51.194;  -10.310;  738.220
999.638;   49.668;  -12.530;  661.380
1000.190;   48.764;  -11.840;  699.320
1000.741;   48.199;  -10.260;  742.700
1001.293;   49.861;   -8.860;  686.020
1001.845;   48.794;  -13.700;  676.640
1002.396;   49.228;  -12.100;  743.400
1002.948;   48.943;  -12.760;  737.400
1003.500;   46.992;  -10.380;  723.780
1004.051;   47.855;  -11.900;  907.580
1004.603;   46.394;  -12.250;  791.820
1005.154;   42.661;  -13.210;  608.980
1005.705;   42.098;  -10.950;  723.960
1006.257;   42.485;  -13.880;  707.220
1006.808;   40.744;  -12.840;  685.460
1007.359;   40.019;  -10.570;  763.240
1007.910;   39.022;   -9.620;  646.640
1008.461;   39.322;  -13.630;  732.940
1009.013;   38.068;  -17.200;  588.340
1009.564;   39.767;  -10.200;  793.520
1010.115;   37.666;  -12.570;  597.040
1010.665;   36.608;  -15.150;  602.160
1011.216;   37.688;  -14.480;  667.920
1011.767;   36.409;  -11.340;  697.920
1012.318;   37.121;   -9.780;  736.980
1012.869;   35.769;  -12.380;  679.000
1013.419;   35.149;  -15.560;  603.120
1013.970;   34.856;  -11.010;  666.640
1014.521;   34.821;  -11.610;  620.620
1015.071;   34.580;  -13.450;  670.380
1015.622;   34.238;  -13.870;  635.460
1016.172;   33.233;  -11.610;  596.820
1016.723;   33.955;  -12.120;  614.380
1017.273;   33.479;  -13.620;  604.160
1017.823;   33.151;  -14.140;  650.340
1018.374;   32.687;  -12.800;  611.760
1018.924;   33.073;  -12.340;  716.880
1019.474;   33.843;  -11.410;  718.880
1020.024;   31.613;  -14.770;  657.580
1020.574;   32.546;   -9.780;  726.160
1021.124;   33.123;   -8.560;  673.580
1021.674;   31.587;  -15.190;  559.120
1022.224;   32.308;  -13.530;  708.940
1022.774;   31.366;  -13.280;  668.820
1023.324;   32.041;  -10.690;  753.520
1023.874;   33.115;  -10.240;  875.760
1024.423;   30.687;  -12.540;  613.700
1024.973;   30.281;  -10.010;  610.760
1025.523;   30.344;  -10.550;  620.960
1026.072;   29.701;  -13.560;  606.420
1026.622;   29.176;  -15.120;  675.740
1027.172;   30.457;  -11.260;  715.660
1027.721;   29.030;  -11.410;  601.220
1028.270;   29.764;  -13.530;  663.400
1028.820;   29.183;  -13.680;  638.080
1029.369;   29.049;  -13.520;  612.700
1029.918;   29.306;  -10.980;  649.840
1030.468;   28.530;  -13.530;  564.780
1031.017;   28.672;  -13.170;  634.800
1031.566;   27.468;  -12.200;  608.900
1032.115;   28.814;   -9.960;  694.500
1032.664;   27.379;  -13.210;  596.480
1033.213;   27.972;  -12.500;  735.420
1033.762;   27.122;  -11.910;  635.620
1034.311;   27.296;   -9.640;  677.220
1034.860;   27.353;  -13.310;  691.000
1035.408;   27.154;  -11.830;  722.720
1035.957;   27.603;  -12.000;  719.540
1036.506;   25.767;  -11.690;  530.800
1037.055;   27.962;  -10.990;  844.320
1037.603;   26.165;  -15.120;  664.000
1038.152;   24.092;  -12.450;  534.760
1038.700;   25.605;  -10.560;  585.740
1039.249;   25.277;  -11.080;  681.220
1039.797;   25.333;  -12.540;  633.360
1040.345;   24.702;  -11.920;  705.420
1040.894;   24.970;  -11.410;  625.300
1041.442;   24.875;  -14.320;  632.200
1041.990;   23.722;  -16.240;  559.160
1042.538;   23.357;  -11.680;  536.180
1043.087;   24.489;  -10.760;  570.860
1043.635;   25.094;  -11.850;  670.500
1044.183;   23.828;  -15.480;  586.400
1044.731;   23.759;  -11.770;  576.000
1045.279;   23.842;  -13.090;  674.920
1045.827;   24.666;  -12.440;  892.400
1046.374;   22.655;  -13.840;  515.420
1046.922;   21.875;  -13.220;  590.580
1047.470;   23.982;  -10.230;  691.300
1048.018;   23.839;  -14.590;  647.960
1048.565;   23.704;  -12.050;  708.600
1049.113;   21.850;  -11.650;  557.000
1049.660;   22.176;  -10.510;  629.660
1050.208;   22.635;  -13.310;  675.640
1050.755;   20.993;  -15.900;  606.580
1051.303;   22.458;  -11.430;  686.820
1051.850;   21.507;   -8.480;  635.120
1052.397;   19.691;  -15.010;  473.960
1052.945;   21.387;  -13.960;  617.760
1053.492;   21.934;  -13.150;  741.840
1054.039;   22.660;   -9.630;  720.180
1054.586;   20.253;  -13.680;  557.240
1055.133;   21.818;  -14.570;  693.140
1055.680;   21.262;  -13.820;  646.620
1056.227;   20.057;  -11.730;  542.780
1056.774;   21.336;  -12.480;  794.980
1057.321;   18.972;  -13.930;  523.260
1057.868;   19.466;  -11.690;  651.320
1058.415;   19.734;   -9.520;  651.980
1058.961;   20.259;  -13.160;  678.940
1059.508;   19.720;  -12.920;  643.820
1060.055;   19.084;  -11.920;  581.780
1060.601;   20.613;  -11.500;  624.300
1061.148;   19.382;  -14.330;  616.820
1061.694;   19.079;  -16.870;  592.580
1062.241;   18.397;  -10.330;  596.320
1062.787;   19.087;  -10.620;  663.140
1063.334;   20.762;  -10.110;  808.560
1063.880;   18.702;  -13.400;  668.360
1064.426;   18.568;  -10.680;  706.820
1064.972;   18.661;   -9.920;  601.340
1065.518;   17.077;  -10.980;  566.640
1066.065;   18.263;  -14.890;  624.460
1066.611;   17.552;  -12.870;  598.800
1067.157;   18.484;  -12.950;  641.860
1067.703;   18.190;  -13.540;  668.480
1068.249;   17.900;  -13.540;  605.220
1068.794;   17.416;  -12.600;  626.880
1069.340;   16.594;  -10.620;  578.960
1069.886;   17.099;  -12.830;  590.700
1070.432;   16.292;  -14.870;  541.720
1070.977;   16.309;  -11.980;  601.080
1071.523;   16.954;   -8.200;  573.060
1072.068;   16.868;  -12.330;  582.000
1072.614;   16.136;  -16.370;  527.760
1073.160;   17.288;  -11.100;  687.040
1073.705;   15.881;  -10.480;  572.520
1074.250;   15.976;  -14.520;  559.900
1074.796;   15.955;  -11.460;  655.160
1075.341;   16.051;  -11.950;  664.100
1075.886;   16.415;  -11.460;  594.240
1076.431;   15.079;  -13.770;  649.880
1076.976;   15.637;  -12.680;  639.220
1077.521;   14.377;  -13.170;  583.080
1078.067;   14.587;  -10.860;  579.400
1078.612;   15.203;  -13.920;  661.620
1079.156;   14.473;  -13.880;  601.540
1079.701;   15.695;  -13.120;  693.260
1080.246;   15.708;   -9.940;  696.300
1080.791;   14.744;  -14.740;  625.020
1081.336;   14.558;  -13.750;  659.320
1081.880;   14.407;  -13.400;  649.680
1082.425;   13.984;  -12.220;  573.480
1082.970;   15.655;  -11.610;  717.040
1083.514;   14.065;  -13.580;  597.000
1084.059;   12.894;  -12.810;  586.720
1084.603;   12.835;  -12.320;  565.840
1085.147;   13.502;  -13.190;  645.220
1085.692;   14.799;  -12.480;  716.800
1086.236;   12.652;  -13.020;  503.140
1086.780;   14.457;   -9.190;  751.440
1087.325;   13.686;  -12.480;  654.620
1087.869;   13.187;  -12.450;  610.700
1088.413;   13.040;  -12.240;  705.040
1088.957;   11.724;   -9.020;  543.400
1089.501;   13.648;  -10.320;  766.640
1090.045;   12.550;  -12.720;  726.480
1090.589;   10.846;  -13.690;  569.920
1091.133;   12.546;  -10.020;  673.340
1091.676;   12.178;  -12.330;  591.940
1092.220;   11.775;  -14.970;  600.920
1092.764;   12.791;  -12.430;  706.960
1093.307;   12.139;   -9.800;  673.780
1093.851;   10.899;  -14.970;  556.540
1094.395;   12.192;  -15.310;  683.140
1094.938;   11.047;  -10.370;  632.520
1095.482;   11.464;  -11.050;  559.800
1096.025;   12.078;  -11.840;  710.880
1096.568;   12.576;  -12.840;  779.280
1097.112;    9.107;  -14.700;  508.180
1097.655;   11.757;   -8.720;  603.000
1098.198;   10.257;  -13.610;  600.180
1098.741;    9.687;  -13.350;  612.860
1099.285;   11.035;  -11.230;  657.300
1099.828;    9.137;  -11.840;  439.400
1100.371;   10.393;  -10.840;  608.160
1100.914;    9.948;  -14.190;  682.660
1101.457;   10.305;  -11.240;  679.900
1101.999;    8.788;  -11.270;  584.680
1102.542;   10.478;  -11.480;  641.440
1103.085;    9.602;  -11.750;  658.500
1103.628;   10.346;  -11.400;  762.060
1104.170;    9.237;  -10.490;  588.280
1104.713;    9.621;  -10.600;  646.700
1105.256;    8.759;  -14.360;  557.440
1105.798;    7.450;  -13.210;  499.980
1106.341;   10.391;  -10.270;  728.900
1106.883;    9.094;  -12.200;  521.340
1107.425;    9.193;  -13.110;  668.180
1107.968;    8.876;  -12.840;  612.380
1108.510;    9.141;   -6.480;  684.960
1109.052;    7.751;  -13.940;  612.620
1109.594;    8.039;  -13.690;  554.440
1110.136;    8.765;  -11.880;  643.220
1110.679;    7.924;   -9.500;  633.080
1111.221;    8.898;  -14.160;  604.460
1111.763;    7.696;  -13.980;  559.220
1112.304;    7.472;  -13.880;  547.140
1112.846;    8.173;  -12.210;  666.240
1113.388;   10.706;  -11.390;  942.180
1113.930;    7.399;  -14.540;  694.200
1114.472;    6.998;  -12.640;  606.540
1115.013;    6.113;  -11.620;  551.280
1115.555;    6.830;  -13.640;  587.100
1116.097;    6.095;  -15.380;  579.480
1116.638;    6.981;  -12.640;  684.600
1117.180;    7.571;   -9.850;  667.740
1117.721;    7.513;  -13.690;  568.580
1118.262;    7.564;  -12.680;  677.960
1118.804;    7.897;  -12.530;  637.340
1119.345;    6.129;  -11.690;  578.400
1119.886;    7.939;  -13.380;  704.040
1120.427;    5.569;  -14.070;  589.020
1120.969;    5.104;  -13.500;  597.920
1121.510;    5.471;  -11.480;  563.060
1122.051;    6.420;  -12.830;  723.580
1122.592;    5.867;  -14.290;  655.420
1123.133;    4.757;  -12.400;  547.940
1123.673;    6.769;  -10.130;  706.480
1124.214;    5.640;  -12.930;  612.460
1124.755;    5.877;  -14.380;  639.460
1125.296;    5.252;  -14.000;  627.320
1125.836;    6.299;  -10.070;  691.500
1126.377;    5.265;  -12.640;  599.660
1126.918;    6.165;  -12.960;  614.980
1127.458;    4.527;  -13.350;  622.220
1127.999;    5.899;  -10.750;  656.980
1128.539;    5.150;  -12.350;  694.240
1129.079;    5.465;  -14.860;  632.720
1129.620;    4.452;  -13.840;  558.100
1130.160;    4.049;  -12.330;  539.480
1130.700;    5.312;  -14.530;  640.840
1131.240;    5.262;  -12.530;  643.700
1131.781;    3.931;  -14.450;  619.680
1132.321;    4.708;   -9.790;  599.120
1132.861;    3.201;  -14.860;  564.200
1133.401;    3.474;  -14.290;  593.940
1133.941;    4.411;  -11.750;  626.280
1134.481;    3.785;   -9.920;  597.580
1135.020;    3.538;  -12.290;  609.160
1135.560;    4.209;  -11.650;  674.940
1136.100;    3.037;  -16.270;  501.160
1136.640;    2.696;  -10.890;  510.480
1137.179;    3.611;  -14.180;  537.960
1137.719;    3.439;  -16.250;  605.400
1138.258;    3.042;  -14.230;  587.360
1138.798;    3.725;   -9.090;  663.780
1139.337;    2.144;  -15.130;  482.840
1139.877;    3.374;  -13.680;  642.360
1140.416;    5.039;  -11.320;  878.060
1140.955;    2.780;  -10.860;  535.380
1141.494;    3.135;  -12.920;  669.280
1142.034;    1.683;  -13.930;  583.520
1142.573;    3.611;  -11.440;  646.280
1143.112;    2.430;  -12.000;  553.480
1143.651;    2.460;  -13.670;  536.480
1144.190;    3.074;  -12.730;  691.640
1144.729;    1.979;  -14.560;  607.420
1145.267;    2.615;  -11.830;  584.900
1145.806;    3.511;  -12.230;  637.040
1146.345;    1.392;  -14.130;  635.020
1146.884;    1.732;  -11.590;  622.500
1147.422;    1.244;  -12.550;  533.060
1147.961;    3.432;  -11.180;  708.460
1148.500;    2.516;  -11.510;  669.720
1149.038;    2.450;  -11.640;  632.500
1149.577;    2.840;  -10.130;  698.640
1150.115;    0.830;  -13.970;  452.280
1150.653;    1.572;  -14.520;  607.340
1151.192;    1.383;  -12.810;  552.920
1151.730;    1.278;   -9.100;  652.560
1152.268;    1.162;  -12.220;  589.520
1152.806;    0.614;  -14.140;  571.180
1153.344;    0.107;  -12.350;  577.640
1153.882;    1.194;   -8.980;  600.060
1154.421;    0.371;  -15.190;  470.620
1154.958;    0.215;  -15.210;  595.240
1155.496;    1.903;  -12.850;  645.280
1156.034;    1.385;   -9.940;  721.880
1156.572;    2.405;  -13.570;  667.060
1157.110;   -0.183;  -14.590;  473.940
1157.647;    1.665;  -13.030;  676.960
1158.185;    0.079;  -12.140;  564.320
1158.723;   -1.225;  -14.390;  509.200
1159.260;    1.049;  -14.090;  701.700
1159.798;    0.644;  -11.920;  658.160
1160.335;    0.400;  -11.110;  631.820

