
Integration time [ms]:   3.882
Averaging Nr. [scans]: 1000
Smoothing Nr. [pixels]: 0
Data measured with spectrometer [name]: 7414430SP
Wave   ;Sample   ;Dark     ;Reference
[nm]   ;[counts] ;[counts] ;[counts] 

288.544;  122.746;   10.292;  793.890
289.143;  124.948;    4.564;  681.602
289.742;  126.499;    6.144;  828.814
290.341;  114.742;    4.396;  789.841
290.940;  106.330;    0.938;  730.702
291.538;  105.893;   -0.684;  881.108
292.137;  104.520;   -2.845;  792.581
292.736;  108.352;   -0.144;  975.101
293.335;  104.430;   -6.352;  735.086
293.934;  104.788;   -7.642;  781.677
294.532;  105.326;   -4.992; 1031.958
295.131;   92.893;   -5.478;  834.394
295.730;   93.122;   -6.549;  809.588
296.328;   89.898;   -9.558;  783.442
296.927;   90.420;   -8.118;  779.652
297.525;   91.575;   -6.908;  781.236
298.124;   82.954;   -9.195;  654.009
298.722;   87.888;   -8.198;  761.933
299.321;   85.676;   -8.817;  708.597
299.919;   82.759;   -7.716;  751.918
300.518;   79.536;  -10.745;  689.338
301.116;   80.797;   -9.647;  691.381
301.715;   81.126;  -10.828;  730.222
302.313;   80.901;   -6.087;  704.943
302.911;   76.606;   -6.824;  733.830
303.509;   81.281;   -8.807;  925.627
304.108;   78.155;   -8.198;  760.383
304.706;   78.898;   -6.218;  801.664
305.304;   74.490;   -7.185;  796.707
305.902;   78.726;   -8.568;  784.484
306.500;   75.124;   -7.737;  728.200
307.098;   74.056;   -6.026;  746.560
307.696;   72.885;   -7.176;  780.432
308.294;   72.622;   -8.656;  731.359
308.892;   75.589;   -6.838;  759.769
309.490;   71.113;   -2.596;  712.161
310.088;   69.243;   -4.485;  788.444
310.686;   73.471;   -3.907;  821.749
311.284;   69.871;   -2.806;  766.040
311.882;   68.095;   -2.845;  731.225
312.480;   65.087;   -3.274;  697.167
313.078;   66.738;   -3.645;  808.331
313.675;   67.524;   -4.997;  691.600
314.273;   63.124;   -0.894;  797.837
314.871;   61.809;   -2.854;  589.829
315.468;   59.834;   -3.644;  652.090
316.066;   63.422;   -3.947;  694.427
316.664;   57.317;   -1.824;  656.351
317.261;   62.071;    1.565;  910.128
317.859;   57.109;   -3.955;  768.735
318.456;   57.870;   -2.886;  830.096
319.054;   54.714;   -0.995;  787.828
319.651;   54.418;   -1.765;  759.928
320.249;   53.027;   -3.685;  810.188
320.846;   50.936;   -3.736;  714.286
321.443;   49.476;   -2.065;  832.135
322.041;   47.514;   -5.635;  812.315
322.638;   45.515;   -5.985;  701.456
323.235;   47.104;   -6.677;  665.683
323.833;   45.445;   -3.497;  740.354
324.430;   41.012;   -6.756;  615.900
325.027;   42.914;   -7.647;  876.855
325.624;   42.470;   -7.598;  644.532
326.221;   40.535;   -5.848;  689.717
326.818;   40.598;   -5.777;  818.332
327.415;   42.798;   -8.769;  748.828
328.012;   41.671;   -6.299;  690.585
328.609;   40.461;   -6.639;  731.389
329.206;   39.472;   -6.358;  778.621
329.803;   38.154;   -8.698;  737.841
330.400;   39.580;   -8.379;  704.260
330.997;   40.266;   -6.178;  817.147
331.594;   37.948;   -5.646;  788.185
332.191;   41.046;   -6.928;  728.722
332.787;   43.416;   -6.057;  844.463
333.384;   41.336;   -6.445;  763.093
333.981;   39.092;   -8.002;  815.687
334.578;   40.395;   -8.443;  708.378
335.174;   42.806;   -6.053;  731.469
335.771;   43.489;   -5.791;  836.456
336.367;   40.474;   -6.570;  710.631
336.964;   41.649;   -6.741;  793.266
337.561;   40.781;   -5.710;  731.112
338.157;   38.748;   -3.928;  911.916
338.754;   36.402;   -5.577;  796.589
339.350;   34.357;   -9.667;  722.493
339.946;   37.614;   -5.269;  773.135
340.543;   29.975;   -4.485;  846.136
341.139;   25.587;   -7.584;  720.836
341.735;   24.567;   -8.553;  772.593
342.332;   23.233;   -4.984;  691.472
342.928;   24.835;   -3.475;  795.394
343.524;   19.156;   -6.653;  761.684
344.120;   16.393;   -7.173;  738.562
344.716;   19.419;   -4.385;  723.717
345.313;   17.838;   -3.565;  795.342
345.909;   14.068;   -7.495;  627.336
346.505;   15.428;   -8.276;  740.247
347.101;   15.606;   -5.697;  827.864
347.697;   16.825;   -4.767;  785.398
348.293;   11.324;   -7.226;  627.244
348.889;   11.949;   -7.547;  745.914
349.485;   12.197;   -9.147;  688.205
350.081;   12.295;   -6.568;  772.592
350.676;    8.314;   -6.516;  691.606
351.272;   12.762;   -7.378;  809.530
351.868;   12.024;   -6.759;  780.497
352.464;   10.143;   -4.798;  723.932
353.059;    6.215;   -7.977;  646.017
353.655;    9.481;   -8.769;  777.063
354.251;   10.331;   -5.920;  759.845
354.846;    5.613;   -7.647;  740.646
355.442;    3.511;   -6.956;  753.071
356.038;    5.337;   -9.928;  751.708
356.633;    5.534;   -7.698;  728.594
357.229;    4.097;   -6.307;  724.757
357.824;    2.633;   -7.647;  703.600
358.420;    0.473;  -10.047;  679.726
359.015;    1.823;   -7.458;  695.357
359.610;    3.599;   -5.748;  763.920
360.206;   -1.615;   -9.346;  603.240
360.801;   -0.291;  -11.268;  646.503
361.396;    2.695;   -8.789;  725.975
361.992;   -1.150;   -6.347;  668.220
362.587;   -4.667;   -6.476;  670.160
363.182;   -3.425;   -9.457;  689.631
363.777;   -0.577;   -7.147;  738.242
364.372;   -0.505;   -5.507;  737.314
364.967;   -4.425;   -6.386;  680.744
365.563;   -1.093;   -7.858;  815.567
366.158;   -3.631;   -8.517;  685.161
366.753;   -2.516;   -8.728;  649.263
367.348;   -4.101;   -7.677;  746.056
367.942;   -4.270;  -10.387;  697.298
368.537;   -5.308;   -7.187;  754.245
369.132;   -4.831;   -8.587;  703.428
369.727;   -9.113;   -8.606;  638.079
370.322;   -7.256;  -10.426;  580.186
370.917;   -7.930;   -5.776;  710.646
371.511;   -3.863;   -6.007;  861.834
372.106;   -8.123;   -6.686;  776.964
372.701;  -11.354;   -9.335;  585.988
373.296;   -4.293;   -6.777;  863.135
373.890;  -10.347;   -7.546;  647.840
374.485;  -12.049;   -8.755;  691.199
375.079;   -8.098;   -9.797;  738.685
375.674;   -6.732;   -6.327;  812.970
376.268;  -11.013;   -9.046;  691.759
376.863;  -15.723;   -7.993;  580.327
377.457;  -10.076;   -9.206;  662.490
378.052;  -11.802;   -5.345;  764.884
378.646;  -12.158;   -5.605;  741.167
379.240;  -12.116;   -6.825;  721.176
379.835;  -11.544;  -10.476;  636.978
380.429;  -14.351;   -8.676;  562.557
381.023;  -13.094;   -4.945;  779.205
381.617;  -15.770;   -8.094;  680.106
382.212;  -12.372;  -10.646;  685.303
382.806;  -11.715;   -8.136;  760.690
383.400;  -15.409;   -7.855;  672.281
383.994;  -15.536;   -8.125;  664.870
384.588;  -11.838;   -7.637;  697.701
385.182;  -11.056;   -7.458;  726.624
385.776;  -11.578;   -6.277;  706.875
386.370;  -15.676;   -7.485;  681.968
386.964;  -14.631;   -9.416;  684.155
387.558;  -13.334;   -8.518;  598.360
388.152;  -15.300;   -7.096;  681.959
388.745;  -14.040;   -7.656;  814.707
389.339;  -12.569;   -8.927;  747.642
389.933;  -11.052;   -9.538;  695.370
390.527;  -11.742;   -5.857;  859.029
391.120;  -17.866;   -9.455;  595.318
391.714;  -15.204;   -9.746;  711.633
392.308;  -12.345;   -7.857;  780.253
392.901;  -16.135;   -9.106;  642.460
393.495;  -17.260;  -10.365;  595.414
394.089;  -14.598;   -9.696;  760.452
394.682;  -15.772;   -7.016;  697.188
395.275;  -16.408;   -8.466;  719.927
395.869;  -17.018;   -8.985;  667.314
396.462;  -16.112;  -11.496;  616.609
397.056;  -12.380;   -7.838;  776.621
397.649;  -15.962;   -6.895;  731.575
398.242;  -13.867;   -5.017;  712.645
398.836;  -12.960;   -8.787;  766.408
399.429;  -13.605;   -8.967;  631.041
400.022;  -17.067;   -8.815;  665.902
400.615;  -14.704;   -6.276;  805.609
401.208;  -12.564;   -8.407;  691.451
401.802;  -15.351;   -7.296;  699.329
402.395;  -16.614;   -7.585;  683.502
402.988;  -16.643;   -8.015;  696.627
403.581;  -14.297;   -9.577;  646.878
404.174;  -12.024;   -7.588;  686.568
404.767;  -14.682;   -7.906;  638.583
405.360;  -16.829;   -7.875;  621.445
405.953;  -11.797;   -8.127;  759.034
406.545;  -10.784;   -7.198;  725.342
407.138;  -14.716;   -8.916;  618.350
407.731;  -13.451;   -9.767;  613.303
408.324;  -10.025;  -10.659;  660.554
408.917;  -10.360;   -8.068;  681.864
409.509;  -12.628;   -9.837;  740.396
410.102;  -14.199;   -8.146;  643.948
410.695;   -8.851;   -7.969;  665.758
411.287;   -9.729;   -8.579;  599.821
411.880;   -9.712;   -6.968;  585.421
412.472;  -12.750;   -9.487;  613.092
413.065;  -10.239;  -10.338;  629.408
413.657;   -8.337;   -9.169;  576.678
414.250;   -7.337;  -10.119;  646.681
414.842;  -10.069;   -9.938;  676.353
415.434;   -7.441;  -10.409;  570.463
416.027;   -3.608;   -9.591;  652.196
416.619;   -5.383;   -7.379;  713.400
417.211;   -5.424;   -9.159;  599.352
417.804;   -2.252;   -9.191;  628.499
418.396;   -6.049;   -8.159;  607.643
418.988;   -4.058;   -6.960;  659.238
419.580;   -7.028;  -11.389;  568.276
420.172;   -4.778;  -13.460;  536.196
420.764;   -0.780;  -10.701;  672.482
421.356;   -2.052;   -8.961;  636.898
421.948;   -2.550;   -9.770;  677.661
422.540;    2.351;   -8.832;  680.027
423.132;    1.353;   -8.153;  600.641
423.724;   -1.687;   -8.481;  561.267
424.316;    0.860;   -9.261;  621.345
424.908;    3.895;   -9.643;  591.517
425.500;    4.768;   -8.663;  647.978
426.092;    5.786;   -8.503;  648.268
426.683;    4.884;  -10.522;  684.836
427.275;    7.220;  -11.734;  641.471
427.867;    8.934;  -10.264;  668.948
428.458;    8.946;   -7.644;  732.344
429.050;    7.776;   -7.853;  680.749
429.642;    9.311;   -8.904;  743.124
430.233;    9.995;  -10.795;  569.356
430.825;   11.644;   -7.665;  724.809
431.416;    9.757;   -8.843;  698.241
432.008;   12.823;   -9.885;  651.723
432.599;   14.040;   -9.966;  656.073
433.190;   10.966;   -9.164;  637.670
433.782;    9.717;   -8.584;  590.395
434.373;   17.466;   -8.296;  884.765
434.964;   15.120;   -9.896;  602.920
435.556;   13.929;   -8.255;  634.537
436.147;   16.673;   -8.075;  758.490
436.738;   16.056;   -9.716;  701.099
437.329;   21.907;   -7.318;  721.723
437.920;   15.121;   -6.694;  666.688
438.511;   15.219;   -9.644;  564.526
439.103;   21.194;   -9.427;  623.998
439.694;   23.257;  -10.748;  681.583
440.285;   24.219;   -7.997;  764.432
440.876;   23.118;  -10.046;  845.738
441.466;   21.428;  -13.467;  575.162
442.057;   26.915;   -9.329;  665.814
442.648;   25.573;   -7.707;  746.255
443.239;   24.431;   -9.017;  620.477
443.830;   29.128;  -10.279;  704.958
444.421;   31.444;  -12.630;  655.474
445.011;   27.743;   -8.697;  693.619
445.602;   27.029;   -7.787;  743.126
446.193;   29.006;  -13.329;  488.117
446.783;   33.615;   -9.171;  640.397
447.374;   28.702;   -7.457;  692.759
447.964;   30.050;   -9.277;  713.770
448.555;   37.329;   -9.041;  822.742
449.145;   33.846;   -8.969;  662.853
449.736;   35.414;   -6.809;  803.179
450.326;   36.459;   -7.229;  713.626
450.917;   39.784;  -11.391;  675.324
451.507;   38.888;   -9.501;  600.661
452.097;   39.833;   -8.460;  746.267
452.688;   42.061;  -10.080;  742.160
453.278;   41.263;  -12.861;  566.840
453.868;   45.381;   -8.372;  793.550
454.458;   43.625;   -8.131;  651.141
455.048;   44.565;   -8.520;  711.783
455.639;   45.698;  -13.632;  567.096
456.229;   49.037;  -10.143;  710.694
456.819;   51.070;   -9.163;  751.158
457.409;   51.767;   -8.652;  773.993
457.999;   53.810;   -9.933;  737.505
458.589;   53.830;  -10.363;  686.606
459.179;   54.138;  -10.633;  717.658
459.769;   52.185;  -12.442;  627.099
460.358;   57.241;   -9.844;  797.262
460.948;   56.250;   -9.924;  689.503
461.538;   57.745;  -10.484;  660.677
462.128;   56.122;  -10.703;  664.934
462.717;   62.489;  -11.486;  710.326
463.307;   66.091;  -10.767;  705.846
463.897;   62.701;   -8.814;  656.942
464.486;   61.679;   -8.182;  837.128
465.076;   65.763;   -9.985;  733.776
465.666;   68.326;  -10.447;  652.900
466.255;   67.799;   -7.754;  785.651
466.845;   66.270;  -10.884;  666.749
467.434;   68.803;  -12.525;  725.873
468.023;   69.319;  -11.456;  658.357
468.613;   67.672;   -9.173;  713.946
469.202;   71.998;   -9.306;  646.507
469.791;   75.466;   -8.917;  737.811
470.381;   78.225;   -9.657;  742.813
470.970;   77.751;   -9.947;  711.099
471.559;   77.960;   -9.256;  733.291
472.148;   81.711;  -13.397;  675.737
472.738;   82.832;   -9.928;  765.466
473.327;   82.320;  -10.897;  637.529
473.916;   83.061;   -8.526;  737.446
474.505;   86.774;  -11.078;  751.703
475.094;   89.974;   -9.559;  806.570
475.683;   88.906;   -8.838;  797.699
476.272;   90.844;  -10.198;  730.632
476.861;   93.833;  -11.489;  706.754
477.449;   99.373;  -10.721;  728.487
478.038;   94.696;   -9.818;  692.513
478.627;   95.410;   -9.887;  714.852
479.216;  101.550;  -10.030;  769.441
479.805;  105.467;   -9.401;  783.375
480.393;  105.308;   -5.739; 1008.945
480.982;  104.127;   -7.838;  874.501
481.571;  110.853;   -9.111;  858.333
482.159;  110.727;  -10.601;  705.386
482.748;  111.534;   -8.500;  821.385
483.336;  115.563;   -9.241;  858.209
483.925;  116.299;  -10.440;  774.373
484.513;  122.959;  -11.063;  758.962
485.102;  119.449;   -9.540;  810.965
485.690;  128.868;   -6.742; 1011.050
486.278;  130.756;   -8.442;  979.329
486.867;  130.414;  -10.472;  809.662
487.455;  133.900;   -8.811;  898.229
488.043;  135.909;  -10.721;  748.361
488.631;  143.924;  -10.393; 1005.079
489.220;  148.286;  -10.843;  908.626
489.808;  148.493;  -10.572;  741.415
490.396;  157.839;  -10.482;  914.645
490.984;  163.657;  -11.542;  830.161
491.572;  174.798;   -8.463;  940.315
492.160;  183.330;   -8.491;  919.081
492.748;  195.785;   -9.681;  884.341
493.336;  220.620;  -10.493; 1019.693
493.924;  251.220;   -9.354;  958.077
494.512;  289.804;   -9.132; 1066.638
495.100;  332.031;   -9.001; 1103.280
495.687;  387.325;  -11.924; 1206.373
496.275;  467.701;  -11.193; 1150.796
496.863;  555.778;   -9.241; 1281.171
497.451;  667.040;  -11.341; 1386.805
498.038;  788.847;  -11.364; 1556.729
498.626;  907.314;   -8.104; 1741.407
499.214; 1120.820;   -8.842; 2016.609
499.801; 1404.134;  -10.112; 2220.633
500.389; 1633.917;  -11.953; 2312.494
500.976; 1834.798;  -10.023; 2744.849
501.564; 2113.802;   -8.662; 3148.565
502.151; 2543.321;  -10.531; 3515.999
502.738; 3049.002;  -13.853; 3971.274
503.326; 3591.376;  -10.794; 4403.796
503.913; 4192.956;   -8.663; 5161.749
504.500; 4741.783;  -10.172; 5986.420
505.088; 5679.621;  -13.472; 6381.201
505.675; 6404.174;  -10.924; 6925.547
506.262; 6711.612;   -8.551; 7619.060
506.849; 7515.917;  -10.523; 8733.969
507.436; 8542.257;  -10.834; 9790.121
508.023; 8780.537;   -9.093; 9985.472
508.610; 9118.390;  -10.073;10434.618
509.197;10327.346;   -9.500;11198.435
509.784;12279.321;  -13.242;12391.194
510.371;13129.461;  -10.964;13603.713
510.958;13983.192;   -9.772;14426.586
511.545;14715.320;   -7.842;15243.775
512.132;14889.104;  -12.184;15945.876
512.719;16481.037;   -9.733;16340.369
513.305;19031.500;   -9.172;18011.766
513.892;20182.029;   -9.581;19754.971
514.479;21018.996;  -10.253;20967.805
515.066;21334.592;   -8.183;22299.793
515.652;22267.404;   -9.253;22908.660
516.239;23835.416;   -9.412;23798.875
516.825;25097.527;  -11.153;25567.275
517.412;24323.148;  -10.263;28154.959
517.998;23758.289;   -8.802;28344.111
518.585;24055.771;  -10.401;27134.219
519.171;24737.363;  -12.744;27268.576
519.758;26538.527;  -11.793;28964.129
520.344;29648.064;   -8.912;30664.494
520.930;32076.113;  -10.901;32550.605
521.516;31361.514;  -12.034;35422.895
522.103;32358.398;  -10.473;38280.004
522.689;34081.289;   -8.311;37835.117
523.275;35509.898;  -10.691;37288.613
523.861;36183.387;  -11.193;37281.395
524.447;34173.754;  -11.484;37846.949
525.033;34450.172;   -7.702;38321.949
525.619;35140.945;  -11.241;38579.285
526.205;35464.281;  -12.152;40622.875
526.791;36520.707;  -11.423;42258.836
527.377;37288.387;   -7.981;42966.902
527.963;37114.672;   -9.450;42018.949
528.549;37648.016;  -11.351;42476.828
529.135;38788.945;  -10.202;41854.852
529.721;38204.473;   -8.672;41237.711
530.306;36258.094;   -9.111;41259.445
530.892;38263.992;  -11.252;41506.047
531.478;40903.613;  -10.432;43559.613
532.063;42698.863;  -10.721;47695.563
532.649;44232.523;   -7.450;50808.324
533.235;45310.191;  -11.811;51787.500
533.820;44781.805;   -9.383;52145.035
534.406;42178.512;   -9.400;51133.488
534.991;42416.875;   -8.861;49996.805
535.576;43698.410;  -10.612;48882.852
536.162;41179.781;   -7.322;46942.285
536.747;41245.652;   -9.360;45711.746
537.333;43940.094;  -10.450;48510.180
537.918;46966.598;  -12.610;50439.891
538.503;47079.172;  -12.132;50863.711
539.088;44257.031;  -10.831;50906.922
539.673;44518.234;  -11.220;52621.965
540.259;46701.809;  -11.481;52368.094
540.844;46284.230;  -11.462;50879.109
541.429;47607.289;   -7.869;52077.777
542.014;46079.047;  -11.859;52716.695
542.599;43728.727;  -11.061;52363.281
543.184;43813.789;  -12.300;53187.137
543.769;45392.758;   -9.369;54697.605
544.354;46135.961;  -12.020;53913.914
544.938;42602.105;  -10.350;49680.164
545.523;39691.430;  -10.841;47386.277
546.108;42696.375;   -8.579;49151.949
546.693;45792.820;   -8.818;51384.637
547.278;46265.008;  -11.331;51853.254
547.862;45074.883;  -10.292;51173.750
548.447;44803.793;   -8.349;51691.395
549.031;44610.266;  -10.838;52456.703
549.616;46099.234;  -11.681;52714.516
550.201;47372.949;  -11.140;52414.598
550.785;45266.723;   -8.649;52355.059
551.370;46768.676;  -11.889;54589.453
551.954;46968.082;  -11.239;58267.348
552.538;48210.004;   -8.850;59062.176
553.123;49803.563;  -10.829;58115.285
553.707;50232.176;   -8.887;56556.285
554.291;47818.016;  -10.430;56201.668
554.876;47905.699;   -9.799;55335.762
555.460;45111.910;  -10.018;54155.703
556.044;45276.727;   -7.307;53721.484
556.628;47829.816;  -12.229;53731.016
557.212;48248.234;   -9.820;54312.531
557.796;46414.766;   -9.109;53797.773
558.380;44697.355;   -9.707;56145.984
558.964;47369.551;  -10.980;57277.930
559.548;49733.910;  -12.010;56459.641
560.132;50267.945;   -7.928;54434.543
560.716;53477.531;  -10.247;54800.617
561.300;53473.695;  -11.250;57606.945
561.884;51234.406;  -10.568;58972.445
562.467;48503.070;   -9.727;57327.570
563.051;45003.934;  -11.847;54962.434
563.635;44819.375;  -10.747;52594.473
564.219;43577.742;  -13.108;50610.410
564.802;42300.410;  -11.417;49551.180
565.386;40902.770;  -10.457;48370.953
565.969;44205.770;   -8.959;48178.871
566.553;45306.332;  -10.328;49957.305
567.136;44831.949;  -10.257;50369.594
567.720;43217.773;  -10.186;49492.004
568.303;42382.238;  -10.027;50616.352
568.887;42857.621;  -10.397;50727.148
569.470;43346.719;   -8.185;51698.379
570.053;40243.898;  -11.596;52122.078
570.637;37547.219;  -11.378;52536.438
571.220;38253.840;   -9.138;51186.098
571.803;39413.320;   -7.675;51032.762
572.386;40226.039;   -8.976;49609.887
572.969;41696.652;  -12.477;48285.926
573.552;41216.848;   -9.767;47624.285
574.135;38859.461;   -8.175;45498.641
574.718;34797.488;  -11.096;41970.434
575.301;34373.941;  -11.966;41447.137
575.884;33950.395;  -12.836;40923.836
576.467;39219.340;   -9.116;45267.723
577.050;41168.828;  -10.536;48175.543
577.633;39816.246;  -11.027;47729.328
578.216;38885.508;   -9.946;47579.793
578.799;39596.734;   -9.645;47820.996
579.381;38773.984;   -9.446;48115.551
579.964;38448.188;  -12.217;47333.766
580.547;38889.895;  -10.586;46668.969
581.129;38898.438;   -8.374;44466.141
581.712;38483.613;  -10.434;44164.922
582.294;37869.281;  -10.896;46477.855
582.877;38774.793;   -8.906;48244.254
583.459;38865.316;   -9.994;47437.895
584.042;37699.512;  -10.084;46943.219
584.624;36088.633;  -13.534;46792.227
585.206;36548.859;  -12.716;46557.250
585.789;36780.152;  -11.614;45793.773
586.371;36175.352;  -10.203;43836.391
586.953;34801.875;  -10.314;42972.492
587.536;33489.227;   -9.776;42487.211
588.118;33692.676;   -9.821;42086.414
588.700;34690.313;  -10.073;43389.930
589.282;36508.434;  -12.395;43646.039
589.864;37270.914;  -11.514;43438.109
590.446;37720.371;  -10.803;43151.926
591.028;38668.762;  -11.043;42781.867
591.610;37561.906;  -13.244;42839.098
592.192;34984.250;  -11.095;42820.402
592.774;32699.916;  -10.823;40724.277
593.356;32296.955;  -11.052;39874.789
593.937;33309.016;  -11.664;39980.648
594.519;34466.102;  -10.454;42069.633
595.101;34357.832;  -10.322;42976.031
595.683;33038.113;  -10.042;44084.441
596.264;31545.281;  -14.334;43478.797
596.846;30714.662;  -10.863;43803.672
597.427;30087.758;   -9.901;42986.934
598.009;30181.418;  -10.911;42832.219
598.591;31107.350;  -10.483;42580.086
599.172;31852.254;   -9.663;43061.805
599.753;32857.363;  -10.631;41691.469
600.335;33689.246;   -9.371;40692.520
600.916;36001.559;  -13.992;39982.422
601.498;37102.902;   -8.352;40318.617
602.079;35527.801;   -8.411;40670.609
602.660;38121.996;  -10.841;41450.898
603.241;37508.074;  -12.963;41137.738
603.823;34049.605;  -11.523;38868.797
604.404;31988.822;  -11.881;38182.785
604.985;33502.676;  -11.721;38078.047
605.566;34072.957;   -9.293;38056.633
606.147;32912.809;  -10.940;37020.418
606.728;32290.293;  -11.840;37883.359
607.309;31308.561;  -11.781;38748.273
607.890;30763.453;  -11.262;38850.230
608.471;29572.180;  -10.111;37457.918
609.051;29945.881;   -7.709;36066.457
609.632;30286.600;  -12.409;35991.074
610.213;28548.320;  -10.811;37402.641
610.794;28670.449;  -11.630;38383.363
611.374;29979.232;   -8.030;40562.387
611.955;31292.000;  -10.809;38533.727
612.536;32913.180;  -10.531;36951.789
613.116;33348.762;  -12.820;37197.891
613.697;33073.578;  -11.419;38411.125
614.277;31925.615;   -9.768;38673.938
614.858;30048.762;  -10.251;37075.863
615.438;26681.256;  -11.981;35092.906
616.019;26607.881;   -8.978;33666.301
616.599;29361.006;  -12.219;34189.023
617.179;31866.936;  -14.170;36952.047
617.760;33842.188;   -9.211;39582.574
618.340;33939.059;   -9.018;38943.977
618.920;32240.875;   -9.249;37594.156
619.500;33021.465;  -12.728;37866.938
620.080;34708.879;  -12.939;37869.043
620.660;33162.281;  -11.586;36868.617
621.241;32548.248;  -11.538;36352.309
621.821;32792.539;  -11.398;35459.520
622.401;33802.441;  -10.179;35207.414
622.980;32727.240;  -11.587;35980.422
623.560;31643.229;  -12.888;37351.328
624.140;29779.516;  -13.149;34388.582
624.720;25424.518;   -9.928;32368.764
625.300;25377.494;  -10.869;32638.629
625.880;29305.994;   -8.617;34599.035
626.459;33124.203;  -12.138;36831.738
627.039;33871.172;  -12.267;38299.098
627.619;33888.234;   -7.476;38289.574
628.198;34649.168;  -11.347;37220.695
628.778;33422.281;  -11.678;37632.563
629.357;31009.334;  -12.438;38003.012
629.937;29587.746;   -9.576;38402.039
630.516;28551.107;  -11.096;37868.801
631.096;28650.918;  -11.828;35760.410
631.675;29637.826;  -11.565;35225.219
632.254;30386.754;  -11.845;35130.289
632.834;31229.295;  -11.545;35794.570
633.413;32407.582;  -10.887;35788.922
633.992;33637.293;  -10.175;34532.863
634.571;32521.945;   -9.704;33590.113
635.151;30347.344;  -10.815;34943.863
635.730;30523.553;  -11.617;35352.523
636.309;30947.842;  -10.836;35366.605
636.888;32041.791;   -9.755;36165.637
637.467;32773.617;  -11.684;37515.902
638.046;34948.469;  -11.987;39288.695
638.625;35201.051;  -10.455;38279.699
639.204;33389.840;  -11.234;37741.598
639.782;30137.512;  -12.023;38364.551
640.361;29592.641;  -11.506;36740.621
640.940;29617.029;  -12.316;34950.082
641.519;30447.645;  -11.616;34137.398
642.097;33160.813;   -9.266;35654.258
642.676;33593.172;  -12.936;35637.957
643.255;33344.867;   -9.966;36567.074
643.833;33565.309;   -8.916;37809.434
644.412;35163.020;  -10.936;37337.293
644.990;36595.277;  -12.176;37018.531
645.569;35912.840;  -12.246;36518.469
646.147;35052.055;  -12.107;36186.430
646.726;34919.605;  -12.937;36267.688
647.304;37999.293;  -12.547;36647.625
647.882;38004.715;  -12.597;39286.742
648.461;35535.004;   -9.427;39157.703
649.039;33182.703;   -8.937;35412.883
649.617;32416.268;  -11.067;34744.918
650.195;32347.004;  -10.657;35403.098
650.773;31187.754;  -10.097;35053.797
651.352;28928.998;  -11.887;33756.816
651.930;25147.691;  -13.557;31868.773
652.508;22821.576;  -11.767;33121.551
653.086;23571.826;  -10.777;33564.793
653.663;27791.566;  -12.067;34054.668
654.241;30856.775;  -14.918;35693.309
654.819;31091.199;  -11.788;36422.906
655.397;30356.715;  -11.268;38213.484
655.975;31451.375;  -11.738;39507.625
656.553;31269.379;  -11.018;39498.223
657.130;30033.332;  -12.848;40395.480
657.708;29335.682;  -10.098;39242.020
658.286;29628.848;  -11.678;38920.020
658.863;30514.473;  -11.498;40202.898
659.441;31422.316;  -11.008;39677.938
660.018;32298.539;  -11.048;40413.355
660.596;31886.691;  -12.058;39931.414
661.173;31906.279;  -14.158;39604.531
661.750;31763.604;  -12.298;39700.070
662.328;31442.213;  -10.699;39292.809
662.905;30145.986;  -12.119;38235.648
663.482;26471.939;  -11.829;36212.305
664.060;25257.734;  -11.009;35944.945
664.637;27840.193;  -10.369;35170.785
665.214;28598.629;  -10.459;34197.523
665.791;27226.174;  -12.599;34549.520
666.368;26865.586;  -12.919;35118.578
666.945;28507.631;  -10.699;36019.418
667.522;29115.305;  -11.359;36048.438
668.099;29501.770;  -13.529;36243.914
668.676;30272.473;  -10.229;35958.875
669.253;30005.617;   -9.279;37384.730
669.830;29989.531;  -11.370;36779.629
670.407;31506.139;  -10.950;35231.289
670.984;32217.375;  -12.850;35544.270
671.560;32107.482;   -8.440;35466.867
672.137;30508.742;  -13.520;34280.863
672.714;29056.354;  -13.620;34632.863
673.290;28624.768;  -10.450;35135.422
673.867;27386.746;  -10.960;36114.480
674.443;26387.879;  -13.300;36152.859
675.020;26984.781;  -12.370;35327.238
675.596;26869.641;  -11.250;35795.176
676.173;27324.604;  -11.080;35430.355
676.749;27977.082;  -13.220;33549.516
677.326;31076.416;  -13.000;32210.012
677.902;31814.850;  -12.701;32068.871
678.478;30946.693;  -12.801;32583.891
679.054;30253.615;   -8.601;32088.928
679.631;31825.756;  -12.631;30978.848
680.207;31853.660;   -9.451;33160.887
680.783;30235.592;  -11.701;35570.363
681.359;30155.463;  -12.701;36125.184
681.935;28809.664;  -13.271;35240.922
682.511;27697.791;  -10.791;34429.961
683.087;28811.318;  -10.791;34463.680
683.663;29481.281;   -8.121;34648.898
684.239;30963.695;  -13.261;34546.457
684.815;29189.289;  -10.581;35586.375
685.390;26569.186;   -9.961;35821.895
685.966;25626.822;  -11.182;35085.871
686.542;25556.531;  -13.512;34198.230
687.118;26443.039;  -11.472;32847.707
687.693;26506.260;  -10.152;32794.027
688.269;28230.889;  -14.442;33072.367
688.844;29443.295;  -11.852;33141.664
689.420;27519.818;  -13.942;33965.742
689.995;26119.828;   -9.702;34655.523
690.571;26142.492;  -11.312;33576.742
691.146;25998.068;  -14.332;32657.219
691.722;27989.121;  -11.192;32526.979
692.297;29244.121;  -10.962;33014.617
692.872;27880.250;  -11.082;34012.254
693.448;27410.559;  -14.732;34237.434
694.023;27429.914;  -12.363;34142.672
694.598;27673.582;  -12.393;34132.031
695.173;27149.566;  -11.023;34205.250
695.748;27389.258;  -12.743;32882.488
696.323;29141.914;  -11.103;32864.906
696.898;30381.730;   -8.123;33170.004
697.473;30020.898;  -12.603;32432.984
698.048;28571.707;  -12.553;31649.303
698.623;29390.281;  -12.573;30778.141
699.198;31120.506;  -12.743;31140.119
699.773;28854.828;  -12.843;31764.299
700.348;28214.252;  -16.683;31780.816
700.922;28998.061;  -11.403;32046.375
701.497;29765.963;  -11.253;32603.574
702.072;29568.350;  -10.044;34799.871
702.646;27926.754;  -13.054;35793.172
703.221;26705.057;  -11.414;35201.590
703.795;27524.152;  -10.644;34764.527
704.370;28578.254;  -13.484;34307.367
704.944;28190.822;  -12.144;33509.887
705.519;27542.156;  -12.024;31388.584
706.093;26717.918;  -11.234;31340.104
706.668;25432.848;   -9.874;32630.281
707.242;25229.834;  -12.404;32728.779
707.816;24763.477;  -10.644;32947.238
708.390;24995.590;  -11.174;33277.855
708.965;26176.527;  -10.324;33834.336
709.539;25736.814;  -12.014;33709.273
710.113;25672.600;  -12.295;33044.313
710.687;26333.848;  -10.965;31953.992
711.261;26804.158;  -13.685;30505.949
711.835;26020.969;  -15.335;30262.369
712.409;25723.502;  -13.785;31254.447
712.983;27243.164;  -10.525;32754.986
713.557;28504.047;  -13.175;34018.824
714.131;29009.361;  -13.245;34579.625
714.704;29782.342;  -13.175;33890.262
715.278;30348.461;  -11.545;33531.102
715.852;28849.605;  -10.975;33601.660
716.425;28330.125;  -10.075;33515.117
716.999;28229.441;  -12.185;33185.555
717.573;29164.641;   -9.685;33905.996
718.146;30336.195;  -10.516;35199.293
718.720;26839.438;  -12.106;35060.551
719.293;26623.129;  -12.386;34973.230
719.867;28410.434;  -12.456;36394.449
720.440;27529.969;  -10.686;36663.008
721.013;27604.100;  -12.596;35102.426
721.587;28172.674;  -13.956;33985.266
722.160;27833.236;   -9.806;33524.965
722.733;28556.840;  -11.676;32987.043
723.306;28661.949;  -14.276;33066.301
723.880;28527.449;  -12.126;33399.500
724.453;28891.547;  -10.156;33468.297
725.026;27741.652;  -12.956;33816.637
725.599;26282.482;  -11.676;32797.996
726.172;25935.479;  -12.337;33187.434
726.745;27322.623;  -11.277;35136.613
727.318;26378.393;  -11.927;35751.730
727.891;25357.891;  -13.607;35890.430
728.463;25541.084;  -11.327;34822.090
729.036;25594.514;  -11.917;32895.086
729.609;26639.822;  -12.697;31823.225
730.182;27683.154;  -11.787;31445.283
730.754;28400.957;  -12.957;32373.223
731.327;28754.514;  -11.017;33676.820
731.900;27268.125;  -12.797;33417.000
732.472;25356.244;  -10.677;31978.498
733.045;24834.145;  -12.797;30368.777
733.617;25041.381;  -13.908;30574.215
734.190;24894.611;  -12.258;31280.975
734.762;25923.186;  -13.438;31674.412
735.334;25934.396;  -11.758;31247.291
735.907;25922.984;  -11.158;29876.211
736.479;26654.676;  -11.258;29808.488
737.051;28184.477;  -10.918;30233.547
737.623;29378.332;  -11.038;31469.086
738.195;28738.213;  -12.188;31784.225
738.768;26161.027;  -11.378;32120.523
739.340;25798.211;  -12.598;32094.342
739.912;26576.525;  -11.568;31312.680
740.484;26194.664;   -9.348;31946.238
741.056;25499.857;  -12.628;32984.059
741.628;25880.902;  -13.349;33897.715
742.199;26274.617;  -11.309;33213.016
742.771;27021.910;  -12.699;31369.113
743.343;28612.455;  -11.919;31865.473
743.915;28624.762;  -11.679;32388.631
744.487;27238.520;  -12.249;31079.568
745.058;25863.854;  -11.119;30570.107
745.630;24696.178;   -9.439;29970.127
746.201;24279.775;  -11.949;29186.766
746.773;23770.711;  -12.639;28805.723
747.344;23159.035;  -11.039;29591.223
747.916;22275.420;  -12.549;31412.201
748.487;21573.754;  -12.659;32194.898
749.059;21707.129;  -13.059;32533.719
749.630;22191.461;  -12.080;32158.518
750.201;21241.895;  -13.100;30855.395
750.773;20168.697;  -15.310;28622.555
751.344;20446.727;  -12.240;28405.732
751.915;20846.625;  -11.960;28461.551
752.486;20952.299;  -13.200;27842.850
753.057;20324.266;  -15.230;27845.008
753.628;19640.193;  -13.130;27728.107
754.199;19784.531;  -12.720;27381.086
754.770;19762.848;  -10.680;25882.203
755.341;19826.785;  -11.010;25886.184
755.912;19102.605;  -12.990;26050.861
756.483;18116.174;  -11.110;26798.779
757.054;17743.031;  -12.190;27048.238
757.625;17901.600;  -13.981;26294.838
758.195;18456.650;  -11.041;26142.076
758.766;19880.855;  -11.861;26392.234
759.337;20386.930;  -11.461;26334.594
759.907;20308.801;  -15.001;27579.652
760.478;20027.820;   -9.681;28352.770
761.048;19472.170;  -12.421;27325.088
761.619;18683.635;  -11.761;26460.428
762.189;17510.768;  -12.391;26029.826
762.760;17511.342;  -10.201;26430.145
763.330;18745.041;  -10.811;26670.902
763.900;20769.180;  -10.261;26603.021
764.471;19874.863;  -13.061;25542.740
765.041;18957.693;  -11.051;24358.459
765.611;19069.477;  -11.032;23991.297
766.181;18875.627;  -10.532;24470.236
766.751;18437.102;  -13.502;24845.975
767.321;18206.588;  -11.392;24533.633
767.891;18423.541;  -11.522;24916.492
768.461;19163.730;  -13.672;24776.771
769.031;18806.418;  -14.652;24757.988
769.601;17750.783;  -10.182;24181.088
770.171;15979.251;  -11.752;23670.387
770.741;15261.989;  -12.272;22960.045
771.311;15431.515;  -13.112;22917.523
771.880;15416.684;  -14.122;23562.941
772.450;16560.949;  -11.782;24216.500
773.020;17553.863;  -12.642;24140.398
773.589;16343.994;  -13.043;24414.857
774.159;14533.447;  -11.783;23858.717
774.729;14179.763;  -13.473;22942.135
775.298;15658.309;  -14.523;22324.033
775.867;16584.531;  -12.013;21140.313
776.437;15589.186;  -12.113;20838.092
777.006;14027.028;  -13.543;20599.510
777.576;12498.812;  -12.523;20508.809
778.145;12672.450;  -12.173;20732.947
778.714;13886.850;  -12.153;21062.465
779.283;14317.638;  -11.833;20949.664
779.853;14660.853;  -13.483;20508.623
780.422;15034.797;  -12.933;20649.082
780.991;14304.060;  -13.173;21527.520
781.560;12986.033;  -10.224;22632.658
782.129;12926.932;  -12.684;23048.277
782.698;14228.634;  -11.284;23438.555
783.267;15001.364;  -11.684;23267.734
783.836;13947.629;  -10.974;22415.133
784.404;12884.769;  -13.534;20443.152
784.973;12967.941;  -16.734;19699.150
785.542;12918.129;  -12.594;19763.828
786.111;12575.435;  -11.644;20341.408
786.679;13097.523;  -11.384;20207.967
787.248;13709.474;  -12.014;19516.465
787.817;12664.855;  -12.804;18900.363
788.385;11478.854;  -11.994;17879.121
788.954;11490.018;  -12.564;17658.301
789.522;12568.208;  -12.225;17788.879
790.090;12618.550;  -13.775;18118.277
790.659;11804.662;  -12.485;18338.736
791.227;11641.696;  -12.295;18508.615
791.795;11817.060;  -13.415;17898.254
792.364;11364.703;  -12.995;17295.133
792.932;10997.207;   -8.365;16822.051
793.500;11093.782;  -11.925;17040.148
794.068;11170.754;  -13.245;17179.787
794.636;11036.131;  -13.815;16664.246
795.204;10499.142;  -13.375;16524.545
795.772;10537.032;  -12.125;17274.564
796.340;10888.521;  -13.855;17891.002
796.908;10945.336;  -13.456;17648.561
797.476;10349.800;  -13.116;17064.080
798.044;10100.288;  -13.226;16672.777
798.612;10891.504;  -11.236;17023.996
799.180;11750.772;  -10.476;16561.615
799.747;11804.835;  -11.746;15962.773
800.315;10919.063;  -12.366;15296.992
800.883;10093.341;  -14.616;14801.771
801.450;10000.460;  -11.996;14534.430
802.018;10514.186;  -11.206;14173.248
802.585; 9721.810;  -12.466;14029.547
803.153; 8665.452;  -12.846;13836.846
803.720; 8434.631;  -12.136;13567.324
804.287; 8684.889;  -10.966;13360.622
804.855; 9174.536;   -9.797;13681.981
805.422; 9010.760;  -13.037;13536.560
805.989; 8679.624;  -12.697;13355.958
806.556; 8881.892;  -11.737;13747.896
807.124; 9220.479;  -11.997;13987.376
807.691; 8821.882;  -13.997;14038.674
808.258; 8776.484;  -10.927;14120.152
808.825; 9352.719;  -13.727;13860.111
809.392; 9670.558;  -11.847;13268.790
809.959; 8827.708;  -14.217;12680.389
810.526; 8019.465;   -8.277;12427.308
811.093; 7992.001;   -9.647;12030.105
811.659; 7834.997;  -10.987;11653.664
812.226; 7337.658;  -13.447;11637.183
812.793; 7484.353;  -14.418;11611.521
813.360; 7931.171;  -13.908;11885.181
813.926; 7995.990;  -12.918;12770.539
814.493; 7969.960;  -14.888;12677.638
815.060; 8021.978;  -12.758;11974.336
815.626; 8266.654;  -13.478;11594.715
816.193; 8227.197;  -13.898;11579.474
816.759; 7910.743;  -13.588;11666.972
817.325; 7798.686;  -12.018;11325.530
817.892; 7265.233;  -14.068;11105.369
818.458; 6651.541;  -13.458;10843.928
819.024; 6457.637;  -11.968;10714.406
819.591; 6179.575;  -11.028;10469.165
820.157; 5947.104;  -12.088;10235.523
820.723; 5817.591;  -12.599;10847.563
821.289; 6104.872;  -10.419;11040.980
821.855; 6841.676;  -10.939;10357.100
822.421; 7344.175;  -12.539; 9978.918
822.987; 7144.617;  -13.259; 9754.177
823.553; 6530.779;  -15.369;10065.755
824.119; 6269.302;  -10.779;10036.294
824.685; 5826.962;   -9.999;10029.192
825.251; 5474.164;  -11.819;10199.230
825.816; 5261.517;  -13.369; 9820.189
826.382; 5419.091;  -12.679; 9297.248
826.948; 5576.065;  -11.199; 9381.347
827.513; 5412.366;  -11.179; 9450.726
828.079; 5395.107;  -13.489; 9472.444
828.645; 5672.971;  -12.500; 9292.643
829.210; 5878.068;  -15.120; 9065.341
829.776; 5730.693;  -12.590; 9132.620
830.341; 5590.188;  -11.540; 9092.878
830.906; 5676.663;  -12.400; 9078.557
831.472; 5573.022;  -12.720; 8534.535
832.037; 5069.554;  -11.490; 8677.874
832.602; 4606.286;  -14.380; 8628.692
833.167; 4815.833;  -12.780; 8879.031
833.733; 5119.036;  -11.100; 9189.790
834.298; 5374.387;  -12.080; 9052.608
834.863; 5229.855;  -13.910; 8895.087
835.428; 4936.512;  -13.470; 8824.266
835.993; 5257.018;  -11.760; 8845.385
836.558; 5711.265;  -12.731; 8888.563
837.123; 5744.507;  -12.431; 8966.582
837.688; 5428.900;  -11.241; 8617.860
838.253; 5087.327;  -13.681; 8590.699
838.817; 4920.045;  -12.531; 8443.797
839.382; 5159.658;  -12.671; 8799.356
839.947; 5097.397;  -11.541; 8810.595
840.511; 4900.684;  -12.021; 8796.394
841.076; 4832.712;  -13.071; 8347.231
841.641; 4660.609;  -11.411; 8224.330
842.205; 4526.656;  -13.671; 8223.349
842.770; 4583.406;  -11.291; 8622.107
843.334; 4682.747;  -12.951; 8410.386
843.898; 4693.861;  -11.221; 8337.465
844.463; 4599.773;  -11.322; 8506.283
845.027; 4302.357;  -11.412; 8280.962
845.591; 4067.685;  -11.512; 8231.141
846.156; 4254.564;  -14.042; 7969.179
846.720; 4505.351;  -12.152; 7768.278
847.284; 4528.294;  -10.922; 7630.957
847.848; 4259.775;  -10.962; 7472.395
848.412; 3936.469;  -14.612; 7437.394
848.976; 3953.185;  -11.492; 7674.592
849.540; 4004.710;   -9.172; 7836.011
850.104; 4376.490;  -11.232; 7913.669
850.668; 4653.879;  -15.182; 7694.508
851.232; 4291.843;  -15.332; 7756.887
851.796; 4099.003;  -13.703; 7926.545
852.359; 4166.514;  -11.113; 7827.844
852.923; 4003.312;  -11.843; 7641.163
853.487; 3796.055;  -11.173; 7342.501
854.050; 3614.054;  -13.443; 7042.820
854.614; 3536.847;  -13.823; 7151.338
855.177; 3671.169;  -16.393; 7105.077
855.741; 3779.794;  -11.693; 6989.675
856.304; 3751.868;  -10.843; 6596.634
856.868; 3646.510;  -13.783; 6356.272
857.431; 3433.072;  -11.953; 6468.571
857.995; 3296.661;  -13.683; 6373.210
858.558; 3248.144;  -11.433; 6324.448
859.121; 3218.337;  -12.493; 6408.327
859.684; 3294.036;  -12.384; 6347.886
860.247; 3317.856;  -14.774; 6321.264
860.810; 3136.275;  -13.154; 6301.903
861.374; 2963.500;  -11.264; 6607.881
861.937; 2885.588;  -15.424; 6408.200
862.500; 2905.655;  -12.854; 6572.639
863.062; 2949.925;  -12.344; 6387.297
863.625; 2963.273;  -13.314; 6190.836
864.188; 2837.685;  -14.724; 5807.254
864.751; 2789.986;  -13.464; 5682.413
865.314; 2776.991;  -11.684; 5547.492
865.876; 2812.384;  -11.104; 5500.150
866.439; 2908.515;  -12.344; 5415.909
867.002; 2899.870;  -13.494; 5501.567
867.564; 2883.884;  -10.935; 5413.946
868.127; 2798.579;  -12.665; 5160.325
868.689; 2706.755;  -14.515; 5133.183
869.252; 2725.897;  -13.425; 5252.382
869.814; 2774.951;  -11.595; 5297.141
870.377; 2781.779;  -12.175; 5390.919
870.939; 2660.922;  -10.265; 5599.898
871.501; 2567.166;  -12.375; 5248.336
872.063; 2520.908;  -14.355; 4854.235
872.626; 2522.506;  -14.435; 4817.074
873.188; 2432.239;  -12.415; 4987.732
873.750; 2368.314;  -14.555; 4868.651
874.312; 2396.614;  -11.185; 4779.330
874.874; 2371.445;  -12.715; 4866.348
875.436; 2258.113;  -13.196; 4718.887
875.998; 2131.287;  -11.426; 4660.005
876.560; 2054.557;   -9.786; 4462.964
877.122; 2027.863;  -12.796; 4145.042
877.683; 1942.228;  -13.226; 4056.481
878.245; 1793.028;  -12.036; 3950.740
878.807; 1677.401;  -11.536; 4058.958
879.369; 1710.517;  -10.806; 3954.677
879.930; 1866.131;  -13.946; 3941.495
880.492; 1931.348;  -11.876; 4067.014
881.053; 1770.227;  -13.216; 3859.633
881.615; 1646.552;  -12.226; 3776.071
882.176; 1582.056;  -12.946; 3734.750
882.738; 1566.694;  -10.736; 3678.489
883.299; 1525.534;  -12.057; 3405.407
883.860; 1438.913;  -12.677; 3351.106
884.422; 1386.041;  -14.097; 3394.044
884.983; 1334.931;  -13.667; 3166.443
885.544; 1275.557;  -10.717; 3189.802
886.105; 1209.920;  -14.357; 3160.360
886.666; 1139.837;  -14.287; 3093.059
887.227; 1068.530;  -14.297; 2941.957
887.788; 1013.231;  -13.137; 2974.836
888.349;  948.682;  -14.637; 2721.214
888.910;  900.030;  -12.247; 2696.493
889.471;  902.647;  -10.577; 2560.172
890.032;  910.144;  -12.937; 2558.190
890.593;  913.785;  -12.487; 2567.669
891.153;  889.659;  -11.898; 2460.307
891.714;  853.622;  -14.278; 2372.046
892.275;  828.827;  -13.308; 2309.505
892.835;  760.589;  -12.058; 2382.543
893.396;  677.225;  -15.268; 2295.502
893.956;  630.999;  -13.278; 2162.420
894.517;  609.009;  -11.968; 2125.439
895.077;  612.080;  -12.798; 2086.978
895.638;  586.582;  -11.908; 2126.316
896.198;  559.498;  -13.288; 1838.275
896.758;  534.974;  -12.198; 1892.813
897.319;  508.115;  -13.048; 1792.232
897.879;  473.286;  -13.718; 1762.751
898.439;  430.390;  -14.138; 1661.149
898.999;  403.306;  -13.659; 1781.468
899.559;  391.540;  -14.699; 1703.347
900.119;  373.282;  -14.339; 1537.525
900.679;  349.625;  -11.789; 1638.384
901.239;  321.245;  -13.629; 1527.902
901.799;  299.327;  -13.679; 1456.441
902.359;  289.200;  -13.679; 1357.140
902.919;  280.625;  -14.159; 1331.118
903.479;  266.959;  -13.419; 1317.257
904.038;  250.678;  -14.899; 1262.595
904.598;  236.239;  -14.339; 1152.034
905.158;  227.115;  -13.959; 1240.893
905.717;  220.533;  -12.749; 1233.691
906.277;  217.249;  -11.889; 1217.330
906.836;  211.003;  -12.870; 1222.408
907.396;  204.655;  -11.790; 1193.047
907.955;  196.295;  -13.750; 1182.526
908.515;  186.776;  -14.760; 1099.364
909.074;  182.600;  -12.540; 1092.863
909.633;  177.394;  -12.120; 1069.121
910.192;  172.015;  -12.550; 1196.460
910.752;  167.085;  -12.760; 1029.960
911.311;  163.926;  -14.750; 1009.780
911.870;  161.660;  -13.860;  971.460
912.429;  161.470;  -13.480; 1094.080
912.988;  161.833;  -12.370; 1081.060
913.547;  158.303;  -14.670;  940.380
914.106;  155.679;  -12.800;  999.420
914.665;  154.639;  -11.370;  984.020
915.224;  151.639;  -11.430; 1035.760
915.782;  148.703;  -12.260;  922.560
916.341;  148.089;  -12.540; 1049.840
916.900;  144.916;  -12.540;  925.260
917.458;  143.210;  -13.480;  884.220
918.017;  143.065;  -12.470;  942.600
918.576;  142.260;  -13.450;  904.440
919.134;  141.100;  -12.890;  837.980
919.693;  139.996;  -15.480;  893.060
920.251;  139.353;  -14.420;  876.500
920.809;  137.994;  -12.170;  839.580
921.368;  136.472;  -13.650;  885.360
921.926;  135.087;  -12.750;  842.940
922.484;  134.885;  -14.150;  903.360
923.042;  134.580;  -15.100;  880.340
923.601;  136.168;  -10.990;  998.680
924.159;  137.760;  -12.470;  935.560
924.717;  137.006;  -15.640;  841.080
925.275;  138.322;  -12.380;  903.240
925.833;  138.084;  -12.710;  779.320
926.391;  141.446;  -11.200;  938.380
926.949;  140.959;  -16.000;  857.680
927.506;  142.537;  -12.260;  903.500
928.064;  144.801;  -11.300;  877.580
928.622;  144.807;  -13.750;  880.100
929.180;  144.056;  -15.290;  814.180
929.737;  145.134;  -14.500;  808.540
930.295;  146.721;  -10.630;  928.480
930.853;  148.899;  -14.590;  849.100
931.410;  149.739;  -14.450;  821.120
931.968;  152.634;  -14.390;  940.660
932.525;  154.294;  -13.050;  909.380
933.082;  159.011;  -15.620;  811.440
933.640;  168.357;  -15.650;  925.900
934.197;  171.681;  -13.610;  886.360
934.754;  173.704;  -13.320;  897.780
935.312;  173.057;  -13.370;  863.340
935.869;  176.962;  -12.780; 1012.980
936.426;  178.178;  -14.480;  872.800
936.983;  181.005;  -13.180;  889.020
937.540;  182.383;  -15.710;  838.280
938.097;  181.965;  -14.980;  940.120
938.654;  180.005;  -13.060;  898.860
939.211;  179.198;  -12.760;  952.480
939.768;  180.514;  -16.230;  915.420
940.324;  185.234;  -10.940;  904.200
940.881;  189.889;  -12.570;  878.500
941.438;  192.606;  -13.650; 1021.200
941.995;  189.148;  -13.300;  992.560
942.551;  186.605;  -15.800;  875.620
943.108;  185.028;  -14.180;  937.920
943.664;  178.826;  -13.890;  869.340
944.221;  178.436;  -12.640; 1088.140
944.777;  178.924;  -14.700;  869.680
945.334;  182.649;  -13.010;  884.840
945.890;  183.536;  -13.480;  946.480
946.446;  180.826;  -14.920;  947.020
947.003;  182.688;  -13.860;  964.940
947.559;  184.453;  -12.000; 1063.040
948.115;  180.042;  -10.510; 1026.540
948.671;  178.407;  -12.760;  967.300
949.227;  177.345;  -15.390;  859.560
949.783;  174.002;  -15.570;  858.900
950.339;  172.112;  -12.800;  991.000
950.895;  169.601;  -13.780; 1023.840
951.451;  167.038;  -13.810;  925.280
952.007;  166.182;  -12.390;  998.540
952.563;  162.906;  -11.980;  937.780
953.118;  161.500;  -14.070;  904.940
953.674;  161.519;  -14.140;  935.780
954.230;  162.069;  -12.680;  949.640
954.785;  164.831;  -12.770;  936.640
955.341;  166.391;  -11.450;  998.160
955.897;  158.895;  -15.350;  834.660
956.452;  152.534;  -14.200;  953.840
957.008;  145.141;  -10.820; 1083.640
957.563;  132.356;  -13.200; 1009.540
958.118;  119.327;  -14.460;  877.700
958.674;  112.549;  -13.840;  946.780
959.229;  110.150;  -10.670; 1013.980
959.784;  113.012;  -17.040;  832.400
960.339;  120.055;  -12.970; 1001.280
960.894;  125.522;  -12.700;  963.760
961.449;  128.577;  -13.790;  859.960
962.004;  134.997;  -11.760; 1212.840
962.559;  133.948;  -14.840;  860.140
963.114;  132.907;  -14.530;  742.480
963.669;  135.765;  -12.780;  915.500
964.224;  135.353;  -14.330;  874.340
964.779;  132.086;  -14.380;  828.420
965.334;  130.431;  -12.460; 1017.860
965.888;  127.912;  -13.490;  875.360
966.443;  128.906;  -14.140;  972.380
966.998;  125.682;  -16.240;  819.460
967.552;  124.471;  -12.730;  908.380
968.107;  121.871;  -14.510;  868.300
968.661;  123.420;  -11.850;  922.440
969.216;  122.303;  -14.370;  856.280
969.770;  121.486;  -13.010;  917.200
970.324;  119.364;  -12.460;  923.140
970.879;  118.847;  -11.580;  947.180
971.433;  119.599;  -13.130;  952.720
971.987;  116.660;  -12.360;  895.340
972.541;  116.735;  -14.330;  917.100
973.095;  116.835;  -13.310; 1009.460
973.649;  116.086;  -15.830;  809.480
974.203;  117.605;  -15.830;  829.040
974.757;  120.233;  -13.480;  855.220
975.311;  118.753;  -13.720;  872.600
975.865;  117.589;  -15.780;  881.820
976.419;  114.266;  -14.290;  857.400
976.973;  112.218;  -13.210;  849.620
977.526;  111.701;  -12.300;  949.920
978.080;  108.340;  -14.840;  796.780
978.634;  107.631;  -13.100;  921.320
979.187;  103.506;  -12.300;  905.400
979.741;  102.140;  -12.020; 1018.380
980.294;   95.104;  -14.590;  789.160
980.848;   92.423;  -14.390;  717.220
981.401;   93.401;  -14.280;  816.540
981.955;   93.906;  -11.920;  844.300
982.508;   90.097;  -15.790;  746.340
983.061;   89.365;  -12.070;  915.260
983.615;   87.142;  -13.260;  798.800
984.168;   85.625;  -15.540;  770.080
984.721;   86.179;  -13.230;  880.760
985.274;   82.859;  -11.820;  867.500
985.827;   82.029;  -13.510;  834.220
986.380;   79.071;  -14.840;  721.340
986.933;   79.095;  -13.970;  864.800
987.486;   77.984;  -12.450;  861.920
988.039;   75.825;  -11.170;  863.100
988.591;   74.532;  -13.070;  893.260
989.144;   69.944;  -15.530;  737.260
989.697;   68.337;  -14.300;  758.740
990.250;   68.011;  -13.310;  858.100
990.802;   67.160;  -14.490;  755.860
991.355;   68.490;  -12.980;  974.880
991.907;   66.391;  -13.715;  864.320
992.460;   64.292;  -14.450;  753.760
993.012;   63.638;  -12.590;  749.540
993.565;   62.350;  -15.180;  711.360
994.117;   63.649;  -11.630;  950.780
994.669;   60.325;  -13.760;  701.320
995.221;   58.993;  -12.710;  791.920
995.774;   57.919;  -14.620;  787.580
996.326;   57.377;  -13.150;  740.220
996.878;   59.049;  -12.880;  838.420
997.430;   56.154;  -14.580;  699.860
997.982;   56.037;  -14.030;  750.140
998.534;   55.311;  -12.190;  739.060
999.086;   53.667;  -12.990;  738.220
999.638;   52.732;  -13.180;  661.380
1000.190;   52.353;  -14.970;  699.320
1000.741;   51.510;  -12.200;  742.700
1001.293;   51.731;  -13.400;  686.020
1001.845;   51.773;  -14.490;  676.640
1002.396;   51.582;  -15.280;  743.400
1002.948;   51.047;  -12.380;  737.400
1003.500;   49.024;  -13.260;  723.780
1004.051;   50.735;  -13.730;  907.580
1004.603;   50.339;  -12.300;  791.820
1005.154;   45.493;  -15.330;  608.980
1005.705;   44.446;  -12.800;  723.960
1006.257;   44.230;  -13.900;  707.220
1006.808;   43.604;  -14.430;  685.460
1007.359;   42.986;  -12.010;  763.240
1007.910;   41.463;  -12.690;  646.640
1008.461;   41.519;  -13.610;  732.940
1009.013;   39.969;  -14.990;  588.340
1009.564;   40.604;  -11.860;  793.520
1010.115;   38.155;  -12.640;  597.040
1010.665;   38.863;  -14.570;  602.160
1011.216;   39.102;  -15.190;  667.920
1011.767;   38.520;  -13.470;  697.920
1012.318;   38.687;  -13.760;  736.980
1012.869;   37.706;  -15.950;  679.000
1013.419;   36.720;  -15.880;  603.120
1013.970;   37.101;  -14.540;  666.640
1014.521;   36.755;  -13.220;  620.620
1015.071;   37.101;  -15.020;  670.380
1015.622;   36.520;  -17.510;  635.460
1016.172;   34.568;  -14.130;  596.820
1016.723;   34.751;  -14.220;  614.380
1017.273;   34.940;  -15.370;  604.160
1017.823;   35.002;  -15.290;  650.340
1018.374;   34.632;  -13.420;  611.760
1018.924;   34.936;  -11.740;  716.880
1019.474;   35.621;  -12.250;  718.880
1020.024;   33.782;  -15.850;  657.580
1020.574;   33.748;  -13.280;  726.160
1021.124;   33.856;  -13.560;  673.580
1021.674;   32.182;  -13.790;  559.120
1022.224;   34.589;  -14.610;  708.940
1022.774;   33.879;  -13.100;  668.820
1023.324;   33.797;  -11.470;  753.520
1023.874;   35.406;  -11.990;  875.760
1024.423;   32.121;  -14.550;  613.700
1024.973;   31.523;  -14.440;  610.760
1025.523;   31.325;  -13.250;  620.960
1026.072;   30.999;  -15.200;  606.420
1026.622;   31.420;  -14.590;  675.740
1027.172;   32.102;  -11.080;  715.660
1027.721;   30.392;  -14.010;  601.220
1028.270;   30.382;  -13.690;  663.400
1028.820;   30.697;  -15.380;  638.080
1029.369;   29.089;  -14.980;  612.700
1029.918;   30.173;  -13.100;  649.840
1030.468;   29.242;  -13.680;  564.780
1031.017;   29.891;  -13.770;  634.800
1031.566;   28.756;  -14.100;  608.900
1032.115;   29.713;  -11.770;  694.500
1032.664;   27.983;  -14.940;  596.480
1033.213;   28.906;  -13.370;  735.420
1033.762;   28.331;  -13.660;  635.620
1034.311;   27.826;  -13.650;  677.220
1034.860;   28.636;  -13.820;  691.000
1035.408;   29.100;  -12.860;  722.720
1035.957;   28.932;  -13.060;  719.540
1036.506;   25.931;  -14.510;  530.800
1037.055;   30.519;  -13.470;  844.320
1037.603;   27.800;  -14.800;  664.000
1038.152;   25.575;  -14.190;  534.760
1038.700;   26.166;  -11.810;  585.740
1039.249;   27.080;  -12.850;  681.220
1039.797;   27.102;  -14.610;  633.360
1040.345;   26.491;  -15.220;  705.420
1040.894;   25.206;  -13.480;  625.300
1041.442;   25.318;  -13.310;  632.200
1041.990;   25.214;  -14.510;  559.160
1042.538;   24.060;  -15.700;  536.180
1043.087;   24.917;  -13.910;  570.860
1043.635;   26.662;  -13.620;  670.500
1044.183;   24.642;  -14.230;  586.400
1044.731;   23.973;  -13.730;  576.000
1045.279;   24.121;  -13.970;  674.920
1045.827;   26.843;  -10.750;  892.400
1046.374;   23.706;  -15.230;  515.420
1046.922;   23.209;  -15.390;  590.580
1047.470;   24.332;  -12.320;  691.300
1048.018;   23.729;  -13.230;  647.960
1048.565;   25.222;  -13.390;  708.600
1049.113;   22.628;  -15.030;  557.000
1049.660;   22.905;  -12.540;  629.660
1050.208;   23.205;  -15.040;  675.640
1050.755;   22.684;  -14.680;  606.580
1051.303;   23.111;  -13.610;  686.820
1051.850;   22.128;  -14.340;  635.120
1052.397;   20.368;  -16.330;  473.960
1052.945;   21.529;  -15.710;  617.760
1053.492;   23.145;  -12.320;  741.840
1054.039;   22.682;  -13.730;  720.180
1054.586;   22.019;  -16.140;  557.240
1055.133;   22.528;  -14.020;  693.140
1055.680;   22.141;  -13.430;  646.620
1056.227;   20.139;  -14.570;  542.780
1056.774;   23.311;  -14.400;  794.980
1057.321;   20.446;  -14.230;  523.260
1057.868;   21.210;  -14.220;  651.320
1058.415;   20.044;  -14.060;  651.980
1058.961;   20.881;  -14.640;  678.940
1059.508;   21.438;  -13.970;  643.820
1060.055;   19.718;  -15.100;  581.780
1060.601;   20.400;  -12.180;  624.300
1061.148;   19.911;  -15.010;  616.820
1061.694;   19.725;  -14.750;  592.580
1062.241;   19.212;  -14.130;  596.320
1062.787;   20.013;  -14.770;  663.140
1063.334;   21.895;  -13.130;  808.560
1063.880;   20.310;  -14.420;  668.360
1064.426;   20.223;  -13.130;  706.820
1064.972;   18.469;  -13.960;  601.340
1065.518;   17.812;  -13.680;  566.640
1066.065;   18.797;  -15.720;  624.460
1066.611;   18.621;  -13.970;  598.800
1067.157;   19.218;  -13.920;  641.860
1067.703;   18.676;  -14.760;  668.480
1068.249;   18.881;  -14.490;  605.220
1068.794;   18.200;  -14.740;  626.880
1069.340;   16.542;  -13.220;  578.960
1069.886;   17.772;  -14.930;  590.700
1070.432;   16.846;  -14.700;  541.720
1070.977;   17.304;  -14.470;  601.080
1071.523;   17.459;  -14.330;  573.060
1072.068;   16.529;  -14.960;  582.000
1072.614;   16.436;  -16.220;  527.760
1073.160;   17.956;  -11.280;  687.040
1073.705;   15.346;  -15.990;  572.520
1074.250;   16.373;  -16.550;  559.900
1074.796;   17.519;  -14.600;  655.160
1075.341;   17.111;  -13.440;  664.100
1075.886;   16.799;  -14.450;  594.240
1076.431;   16.805;  -13.160;  649.880
1076.976;   16.603;  -14.710;  639.220
1077.521;   15.681;  -14.000;  583.080
1078.067;   15.123;  -14.470;  579.400
1078.612;   15.705;  -14.530;  661.620
1079.156;   15.837;  -15.660;  601.540
1079.701;   16.132;  -16.120;  693.260
1080.246;   16.077;  -12.960;  696.300
1080.791;   16.381;  -13.700;  625.020
1081.336;   16.035;  -15.540;  659.320
1081.880;   15.632;  -14.640;  649.680
1082.425;   14.213;  -14.220;  573.480
1082.970;   17.049;  -11.890;  717.040
1083.514;   15.316;  -13.820;  597.000
1084.059;   13.842;  -14.280;  586.720
1084.603;   13.137;  -12.890;  565.840
1085.147;   14.812;  -13.590;  645.220
1085.692;   15.378;  -14.050;  716.800
1086.236;   13.044;  -14.990;  503.140
1086.780;   14.638;  -12.640;  751.440
1087.325;   14.144;  -15.550;  654.620
1087.869;   14.675;  -14.980;  610.700
1088.413;   15.139;  -13.440;  705.040
1088.957;   12.251;  -12.170;  543.400
1089.501;   14.937;  -12.730;  766.640
1090.045;   14.073;  -14.650;  726.480
1090.589;   11.961;  -14.500;  569.920
1091.133;   12.931;  -12.320;  673.340
1091.676;   12.690;  -16.130;  591.940
1092.220;   12.269;  -13.930;  600.920
1092.764;   13.661;  -12.820;  706.960
1093.307;   12.768;  -11.700;  673.780
1093.851;   12.154;  -15.600;  556.540
1094.395;   13.671;  -13.920;  683.140
1094.938;   11.813;  -16.090;  632.520
1095.482;   11.667;  -13.820;  559.800
1096.025;   12.810;  -12.720;  710.880
1096.568;   13.309;  -12.100;  779.280
1097.112;    9.777;  -15.450;  508.180
1097.655;   11.907;  -14.310;  603.000
1098.198;   10.552;  -14.740;  600.180
1098.741;   11.099;  -15.550;  612.860
1099.285;   11.679;  -12.600;  657.300
1099.828;    8.900;  -15.050;  439.400
1100.371;   10.746;  -14.800;  608.160
1100.914;   11.400;  -16.480;  682.660
1101.457;   11.061;  -12.990;  679.900
1101.999;    9.845;  -14.110;  584.680
1102.542;   11.277;  -11.450;  641.440
1103.085;   10.373;  -13.350;  658.500
1103.628;   11.202;  -13.200;  762.060
1104.170;    9.799;  -12.310;  588.280
1104.713;   10.941;  -14.320;  646.700
1105.256;   10.495;  -16.110;  557.440
1105.798;    8.252;  -15.910;  499.980
1106.341;   10.963;  -12.200;  728.900
1106.883;    8.912;  -14.910;  521.340
1107.425;   10.030;  -14.960;  668.180
1107.968;    9.234;  -13.440;  612.380
1108.510;   10.629;  -14.010;  684.960
1109.052;    7.973;  -15.430;  612.620
1109.594;    9.324;  -15.290;  554.440
1110.136;    9.678;  -13.360;  643.220
1110.679;    8.035;  -13.820;  633.080
1111.221;    9.445;  -13.690;  604.460
1111.763;    8.611;  -14.890;  559.220
1112.304;    8.104;  -14.550;  547.140
1112.846;    8.380;  -12.760;  666.240
1113.388;   12.590;  -10.780;  942.180
1113.930;    9.570;  -12.690;  694.200
1114.472;    8.456;  -15.730;  606.540
1115.013;    7.017;  -14.620;  551.280
1115.555;    7.566;  -14.950;  587.100
1116.097;    7.507;  -16.460;  579.480
1116.638;    7.941;  -13.730;  684.600
1117.180;    8.440;  -13.810;  667.740
1117.721;    7.446;  -13.280;  568.580
1118.262;    8.641;  -15.080;  677.960
1118.804;    8.228;  -14.040;  637.340
1119.345;    6.741;  -15.430;  578.400
1119.886;    8.394;  -15.240;  704.040
1120.427;    7.170;  -15.820;  589.020
1120.969;    6.804;  -14.550;  597.920
1121.510;    6.505;  -14.030;  563.060
1122.051;    7.464;  -11.990;  723.580
1122.592;    6.291;  -16.490;  655.420
1123.133;    5.650;  -15.580;  547.940
1123.673;    7.050;  -12.850;  706.480
1124.214;    6.808;  -13.630;  612.460
1124.755;    7.572;  -14.830;  639.460
1125.296;    6.942;  -13.110;  627.320
1125.836;    6.925;  -11.320;  691.500
1126.377;    6.337;  -14.330;  599.660
1126.918;    7.026;  -12.800;  614.980
1127.458;    5.651;  -13.580;  622.220
1127.999;    6.378;  -10.330;  656.980
1128.539;    6.687;  -13.390;  694.240
1129.079;    5.821;  -16.420;  632.720
1129.620;    4.764;  -15.700;  558.100
1130.160;    4.259;  -14.790;  539.480
1130.700;    5.881;  -12.910;  640.840
1131.240;    6.342;  -15.610;  643.700
1131.781;    5.630;  -12.920;  619.680
1132.321;    4.965;  -15.300;  599.120
1132.861;    4.620;  -14.760;  564.200
1133.401;    4.794;  -15.470;  593.940
1133.941;    5.375;  -13.710;  626.280
1134.481;    3.832;  -11.820;  597.580
1135.020;    3.796;  -14.810;  609.160
1135.560;    5.267;  -13.660;  674.940
1136.100;    3.074;  -13.940;  501.160
1136.640;    3.171;  -15.410;  510.480
1137.179;    4.387;  -16.920;  537.960
1137.719;    4.666;  -16.430;  605.400
1138.258;    4.014;  -16.300;  587.360
1138.798;    4.825;  -13.710;  663.780
1139.337;    2.655;  -13.840;  482.840
1139.877;    4.002;  -16.140;  642.360
1140.416;    6.514;  -11.410;  878.060
1140.955;    3.315;  -12.820;  535.380
1141.494;    4.243;  -12.310;  669.280
1142.034;    3.501;  -16.280;  583.520
1142.573;    4.359;  -13.090;  646.280
1143.112;    2.133;  -13.770;  553.480
1143.651;    2.610;  -15.830;  536.480
1144.190;    4.725;  -15.010;  691.640
1144.729;    3.087;  -13.650;  607.420
1145.267;    3.641;  -13.670;  584.900
1145.806;    4.217;  -13.630;  637.040
1146.345;    3.231;  -14.160;  635.020
1146.884;    2.425;  -11.180;  622.500
1147.422;    1.909;  -15.890;  533.060
1147.961;    4.167;  -12.760;  708.460
1148.500;    3.314;  -15.220;  669.720
1149.038;    3.335;  -13.720;  632.500
1149.577;    3.113;  -13.250;  698.640
1150.115;    1.442;  -16.790;  452.280
1150.653;    2.677;  -15.810;  607.340
1151.192;    2.208;  -14.730;  552.920
1151.730;    2.531;  -13.660;  652.560
1152.268;    1.782;  -15.120;  589.520
1152.806;    2.993;  -15.580;  571.180
1153.344;    1.810;  -16.210;  577.640
1153.882;    1.746;  -12.810;  600.060
1154.421;    0.611;  -14.150;  470.620
1154.958;    1.713;  -15.360;  595.240
1155.496;    3.036;  -14.710;  645.280
1156.034;    1.685;  -13.640;  721.880
1156.572;    3.035;  -13.740;  667.060
1157.110;    0.944;  -16.960;  473.940
1157.647;    2.169;  -11.940;  676.960
1158.185;    1.423;  -14.090;  564.320
1158.723;    0.161;  -13.610;  509.200
1159.260;    1.907;  -14.760;  701.700
1159.798;    2.057;  -13.700;  658.160
1160.335;    0.876;  -13.820;  631.820

