
Integration time [ms]:   3.882
Averaging Nr. [scans]: 1000
Smoothing Nr. [pixels]: 0
Data measured with spectrometer [name]: 7414430SP
Wave   ;Sample   ;Dark     ;Reference
[nm]   ;[counts] ;[counts] ;[counts] 

288.544;  122.115;   10.292;  793.890
289.143;  125.454;    4.564;  681.602
289.742;  127.273;    6.144;  828.814
290.341;  114.800;    4.396;  789.841
290.940;  105.453;    0.938;  730.702
291.538;  106.466;   -0.684;  881.108
292.137;  105.704;   -2.845;  792.581
292.736;  108.597;   -0.144;  975.101
293.335;  104.365;   -6.352;  735.086
293.934;  105.007;   -7.642;  781.677
294.532;  106.026;   -4.992; 1031.958
295.131;   93.021;   -5.478;  834.394
295.730;   91.934;   -6.549;  809.588
296.328;   91.320;   -9.558;  783.442
296.927;   90.883;   -8.118;  779.652
297.525;   92.324;   -6.908;  781.236
298.124;   82.602;   -9.195;  654.009
298.722;   87.591;   -8.198;  761.933
299.321;   85.845;   -8.817;  708.597
299.919;   82.969;   -7.716;  751.918
300.518;   79.008;  -10.745;  689.338
301.116;   81.325;   -9.647;  691.381
301.715;   82.610;  -10.828;  730.222
302.313;   81.086;   -6.087;  704.943
302.911;   76.726;   -6.824;  733.830
303.509;   82.359;   -8.807;  925.627
304.108;   79.249;   -8.198;  760.383
304.706;   79.343;   -6.218;  801.664
305.304;   74.429;   -7.185;  796.707
305.902;   79.752;   -8.568;  784.484
306.500;   75.867;   -7.737;  728.200
307.098;   74.388;   -6.026;  746.560
307.696;   72.491;   -7.176;  780.432
308.294;   72.916;   -8.656;  731.359
308.892;   75.807;   -6.838;  759.769
309.490;   71.266;   -2.596;  712.161
310.088;   69.478;   -4.485;  788.444
310.686;   74.404;   -3.907;  821.749
311.284;   71.088;   -2.806;  766.040
311.882;   67.743;   -2.845;  731.225
312.480;   64.845;   -3.274;  697.167
313.078;   67.289;   -3.645;  808.331
313.675;   67.756;   -4.997;  691.600
314.273;   63.346;   -0.894;  797.837
314.871;   62.346;   -2.854;  589.829
315.468;   60.895;   -3.644;  652.090
316.066;   63.202;   -3.947;  694.427
316.664;   57.509;   -1.824;  656.351
317.261;   62.133;    1.565;  910.128
317.859;   56.704;   -3.955;  768.735
318.456;   58.655;   -2.886;  830.096
319.054;   54.800;   -0.995;  787.828
319.651;   53.879;   -1.765;  759.928
320.249;   53.387;   -3.685;  810.188
320.846;   51.577;   -3.736;  714.286
321.443;   49.697;   -2.065;  832.135
322.041;   46.389;   -5.635;  812.315
322.638;   45.640;   -5.985;  701.456
323.235;   48.173;   -6.677;  665.683
323.833;   45.983;   -3.497;  740.354
324.430;   40.992;   -6.756;  615.900
325.027;   43.571;   -7.647;  876.855
325.624;   43.704;   -7.598;  644.532
326.221;   41.214;   -5.848;  689.717
326.818;   40.398;   -5.777;  818.332
327.415;   42.891;   -8.769;  748.828
328.012;   41.754;   -6.299;  690.585
328.609;   40.527;   -6.639;  731.389
329.206;   38.816;   -6.358;  778.621
329.803;   38.634;   -8.698;  737.841
330.400;   40.563;   -8.379;  704.260
330.997;   41.636;   -6.178;  817.147
331.594;   37.308;   -5.646;  788.185
332.191;   42.050;   -6.928;  728.722
332.787;   43.234;   -6.057;  844.463
333.384;   41.155;   -6.445;  763.093
333.981;   38.826;   -8.002;  815.687
334.578;   41.406;   -8.443;  708.378
335.174;   43.507;   -6.053;  731.469
335.771;   44.306;   -5.791;  836.456
336.367;   39.737;   -6.570;  710.631
336.964;   42.444;   -6.741;  793.266
337.561;   42.316;   -5.710;  731.112
338.157;   39.244;   -3.928;  911.916
338.754;   36.248;   -5.577;  796.589
339.350;   34.504;   -9.667;  722.493
339.946;   38.415;   -5.269;  773.135
340.543;   30.241;   -4.485;  846.136
341.139;   26.196;   -7.584;  720.836
341.735;   24.967;   -8.553;  772.593
342.332;   23.873;   -4.984;  691.472
342.928;   23.651;   -3.475;  795.394
343.524;   18.526;   -6.653;  761.684
344.120;   16.429;   -7.173;  738.562
344.716;   20.529;   -4.385;  723.717
345.313;   17.295;   -3.565;  795.342
345.909;   12.762;   -7.495;  627.336
346.505;   15.261;   -8.276;  740.247
347.101;   15.929;   -5.697;  827.864
347.697;   16.540;   -4.767;  785.398
348.293;   11.318;   -7.226;  627.244
348.889;   12.380;   -7.547;  745.914
349.485;   12.473;   -9.147;  688.205
350.081;   12.582;   -6.568;  772.592
350.676;    7.912;   -6.516;  691.606
351.272;   12.687;   -7.378;  809.530
351.868;   12.879;   -6.759;  780.497
352.464;    9.489;   -4.798;  723.932
353.059;    6.001;   -7.977;  646.017
353.655;   10.061;   -8.769;  777.063
354.251;   11.007;   -5.920;  759.845
354.846;    5.663;   -7.647;  740.646
355.442;    3.590;   -6.956;  753.071
356.038;    5.156;   -9.928;  751.708
356.633;    5.781;   -7.698;  728.594
357.229;    3.289;   -6.307;  724.757
357.824;    2.629;   -7.647;  703.600
358.420;    1.237;  -10.047;  679.726
359.015;    2.801;   -7.458;  695.357
359.610;    3.231;   -5.748;  763.920
360.206;   -3.225;   -9.346;  603.240
360.801;    0.557;  -11.268;  646.503
361.396;    2.503;   -8.789;  725.975
361.992;   -1.416;   -6.347;  668.220
362.587;   -4.860;   -6.476;  670.160
363.182;   -2.268;   -9.457;  689.631
363.777;   -0.572;   -7.147;  738.242
364.372;   -1.353;   -5.507;  737.314
364.967;   -5.049;   -6.386;  680.744
365.563;   -0.343;   -7.858;  815.567
366.158;   -2.982;   -8.517;  685.161
366.753;   -3.004;   -8.728;  649.263
367.348;   -4.886;   -7.677;  746.056
367.942;   -4.359;  -10.387;  697.298
368.537;   -4.877;   -7.187;  754.245
369.132;   -5.080;   -8.587;  703.428
369.727;   -9.408;   -8.606;  638.079
370.322;   -7.255;  -10.426;  580.186
370.917;   -7.468;   -5.776;  710.646
371.511;   -4.462;   -6.007;  861.834
372.106;   -8.152;   -6.686;  776.964
372.701;  -11.107;   -9.335;  585.988
373.296;   -5.024;   -6.777;  863.135
373.890;   -9.749;   -7.546;  647.840
374.485;  -11.856;   -8.755;  691.199
375.079;   -7.951;   -9.797;  738.685
375.674;   -6.143;   -6.327;  812.970
376.268;  -10.658;   -9.046;  691.759
376.863;  -16.715;   -7.993;  580.327
377.457;   -9.804;   -9.206;  662.490
378.052;  -11.100;   -5.345;  764.884
378.646;  -12.315;   -5.605;  741.167
379.240;  -12.708;   -6.825;  721.176
379.835;  -11.715;  -10.476;  636.978
380.429;  -13.376;   -8.676;  562.557
381.023;  -13.039;   -4.945;  779.205
381.617;  -16.292;   -8.094;  680.106
382.212;  -12.689;  -10.646;  685.303
382.806;  -11.413;   -8.136;  760.690
383.400;  -15.607;   -7.855;  672.281
383.994;  -16.010;   -8.125;  664.870
384.588;  -12.500;   -7.637;  697.701
385.182;  -10.424;   -7.458;  726.624
385.776;  -12.505;   -6.277;  706.875
386.370;  -15.597;   -7.485;  681.968
386.964;  -13.946;   -9.416;  684.155
387.558;  -12.331;   -8.518;  598.360
388.152;  -15.421;   -7.096;  681.959
388.745;  -13.766;   -7.656;  814.707
389.339;  -12.281;   -8.927;  747.642
389.933;  -10.791;   -9.538;  695.370
390.527;  -11.960;   -5.857;  859.029
391.120;  -18.472;   -9.455;  595.318
391.714;  -14.897;   -9.746;  711.633
392.308;  -11.821;   -7.857;  780.253
392.901;  -15.752;   -9.106;  642.460
393.495;  -18.034;  -10.365;  595.414
394.089;  -14.686;   -9.696;  760.452
394.682;  -16.541;   -7.016;  697.188
395.275;  -16.349;   -8.466;  719.927
395.869;  -17.178;   -8.985;  667.314
396.462;  -16.211;  -11.496;  616.609
397.056;  -11.883;   -7.838;  776.621
397.649;  -16.287;   -6.895;  731.575
398.242;  -13.607;   -5.017;  712.645
398.836;  -12.833;   -8.787;  766.408
399.429;  -13.878;   -8.967;  631.041
400.022;  -17.444;   -8.815;  665.902
400.615;  -14.477;   -6.276;  805.609
401.208;  -12.871;   -8.407;  691.451
401.802;  -15.174;   -7.296;  699.329
402.395;  -15.735;   -7.585;  683.502
402.988;  -17.053;   -8.015;  696.627
403.581;  -13.484;   -9.577;  646.878
404.174;  -11.617;   -7.588;  686.568
404.767;  -13.923;   -7.906;  638.583
405.360;  -16.597;   -7.875;  621.445
405.953;  -10.987;   -8.127;  759.034
406.545;  -10.169;   -7.198;  725.342
407.138;  -15.360;   -8.916;  618.350
407.731;  -14.272;   -9.767;  613.303
408.324;   -9.151;  -10.659;  660.554
408.917;  -10.435;   -8.068;  681.864
409.509;  -12.786;   -9.837;  740.396
410.102;  -14.805;   -8.146;  643.948
410.695;   -8.244;   -7.969;  665.758
411.287;   -8.638;   -8.579;  599.821
411.880;   -9.886;   -6.968;  585.421
412.472;  -13.628;   -9.487;  613.092
413.065;  -10.628;  -10.338;  629.408
413.657;   -8.191;   -9.169;  576.678
414.250;   -8.029;  -10.119;  646.681
414.842;   -9.080;   -9.938;  676.353
415.434;   -8.026;  -10.409;  570.463
416.027;   -3.137;   -9.591;  652.196
416.619;   -5.268;   -7.379;  713.400
417.211;   -6.168;   -9.159;  599.352
417.804;   -2.242;   -9.191;  628.499
418.396;   -5.579;   -8.159;  607.643
418.988;   -3.908;   -6.960;  659.238
419.580;   -7.722;  -11.389;  568.276
420.172;   -4.711;  -13.460;  536.196
420.764;   -0.694;  -10.701;  672.482
421.356;   -2.442;   -8.961;  636.898
421.948;   -2.848;   -9.770;  677.661
422.540;    2.736;   -8.832;  680.027
423.132;    2.333;   -8.153;  600.641
423.724;   -2.043;   -8.481;  561.267
424.316;    0.163;   -9.261;  621.345
424.908;    3.822;   -9.643;  591.517
425.500;    4.928;   -8.663;  647.978
426.092;    5.473;   -8.503;  648.268
426.683;    4.613;  -10.522;  684.836
427.275;    7.211;  -11.734;  641.471
427.867;    8.588;  -10.264;  668.948
428.458;    8.902;   -7.644;  732.344
429.050;    7.752;   -7.853;  680.749
429.642;    9.846;   -8.904;  743.124
430.233;   10.470;  -10.795;  569.356
430.825;   11.588;   -7.665;  724.809
431.416;    8.584;   -8.843;  698.241
432.008;   12.906;   -9.885;  651.723
432.599;   13.663;   -9.966;  656.073
433.190;   11.205;   -9.164;  637.670
433.782;    9.527;   -8.584;  590.395
434.373;   18.810;   -8.296;  884.765
434.964;   15.726;   -9.896;  602.920
435.556;   13.690;   -8.255;  634.537
436.147;   16.889;   -8.075;  758.490
436.738;   17.563;   -9.716;  701.099
437.329;   22.610;   -7.318;  721.723
437.920;   15.288;   -6.694;  666.688
438.511;   14.431;   -9.644;  564.526
439.103;   21.050;   -9.427;  623.998
439.694;   23.610;  -10.748;  681.583
440.285;   24.771;   -7.997;  764.432
440.876;   22.743;  -10.046;  845.738
441.466;   21.803;  -13.467;  575.162
442.057;   27.762;   -9.329;  665.814
442.648;   25.630;   -7.707;  746.255
443.239;   24.143;   -9.017;  620.477
443.830;   29.242;  -10.279;  704.958
444.421;   31.243;  -12.630;  655.474
445.011;   28.345;   -8.697;  693.619
445.602;   27.930;   -7.787;  743.126
446.193;   29.381;  -13.329;  488.117
446.783;   33.007;   -9.171;  640.397
447.374;   29.664;   -7.457;  692.759
447.964;   29.582;   -9.277;  713.770
448.555;   37.998;   -9.041;  822.742
449.145;   35.144;   -8.969;  662.853
449.736;   35.300;   -6.809;  803.179
450.326;   35.248;   -7.229;  713.626
450.917;   40.987;  -11.391;  675.324
451.507;   40.459;   -9.501;  600.661
452.097;   40.530;   -8.460;  746.267
452.688;   41.754;  -10.080;  742.160
453.278;   41.406;  -12.861;  566.840
453.868;   46.370;   -8.372;  793.550
454.458;   44.150;   -8.131;  651.141
455.048;   44.034;   -8.520;  711.783
455.639;   45.421;  -13.632;  567.096
456.229;   49.682;  -10.143;  710.694
456.819;   52.110;   -9.163;  751.158
457.409;   51.589;   -8.652;  773.993
457.999;   54.759;   -9.933;  737.505
458.589;   54.304;  -10.363;  686.606
459.179;   54.384;  -10.633;  717.658
459.769;   51.822;  -12.442;  627.099
460.358;   57.491;   -9.844;  797.262
460.948;   56.832;   -9.924;  689.503
461.538;   58.784;  -10.484;  660.677
462.128;   55.695;  -10.703;  664.934
462.717;   62.451;  -11.486;  710.326
463.307;   66.815;  -10.767;  705.846
463.897;   62.562;   -8.814;  656.942
464.486;   61.817;   -8.182;  837.128
465.076;   65.921;   -9.985;  733.776
465.666;   69.652;  -10.447;  652.900
466.255;   67.296;   -7.754;  785.651
466.845;   66.066;  -10.884;  666.749
467.434;   69.315;  -12.525;  725.873
468.023;   71.068;  -11.456;  658.357
468.613;   67.592;   -9.173;  713.946
469.202;   71.569;   -9.306;  646.507
469.791;   76.742;   -8.917;  737.811
470.381;   78.504;   -9.657;  742.813
470.970;   77.620;   -9.947;  711.099
471.559;   78.182;   -9.256;  733.291
472.148;   80.877;  -13.397;  675.737
472.738;   84.552;   -9.928;  765.466
473.327;   83.771;  -10.897;  637.529
473.916;   82.592;   -8.526;  737.446
474.505;   87.193;  -11.078;  751.703
475.094;   90.799;   -9.559;  806.570
475.683;   89.946;   -8.838;  797.699
476.272;   90.302;  -10.198;  730.632
476.861;   93.925;  -11.489;  706.754
477.449;  100.400;  -10.721;  728.487
478.038;   94.854;   -9.818;  692.513
478.627;   95.178;   -9.887;  714.852
479.216;  101.756;  -10.030;  769.441
479.805;  105.592;   -9.401;  783.375
480.393;  105.576;   -5.739; 1008.945
480.982;  104.546;   -7.838;  874.501
481.571;  111.205;   -9.111;  858.333
482.159;  111.333;  -10.601;  705.386
482.748;  112.362;   -8.500;  821.385
483.336;  116.066;   -9.241;  858.209
483.925;  117.170;  -10.440;  774.373
484.513;  123.162;  -11.063;  758.962
485.102;  120.665;   -9.540;  810.965
485.690;  129.345;   -6.742; 1011.050
486.278;  131.834;   -8.442;  979.329
486.867;  131.819;  -10.472;  809.662
487.455;  134.400;   -8.811;  898.229
488.043;  135.640;  -10.721;  748.361
488.631;  145.037;  -10.393; 1005.079
489.220;  149.248;  -10.843;  908.626
489.808;  149.357;  -10.572;  741.415
490.396;  158.391;  -10.482;  914.645
490.984;  164.738;  -11.542;  830.161
491.572;  175.484;   -8.463;  940.315
492.160;  184.560;   -8.491;  919.081
492.748;  196.434;   -9.681;  884.341
493.336;  222.200;  -10.493; 1019.693
493.924;  253.513;   -9.354;  958.077
494.512;  291.467;   -9.132; 1066.638
495.100;  334.502;   -9.001; 1103.280
495.687;  391.376;  -11.924; 1206.373
496.275;  474.630;  -11.193; 1150.796
496.863;  562.692;   -9.241; 1281.171
497.451;  676.213;  -11.341; 1386.805
498.038;  798.381;  -11.364; 1556.729
498.626;  915.953;   -8.104; 1741.407
499.214; 1132.479;   -8.842; 2016.609
499.801; 1420.816;  -10.112; 2220.633
500.389; 1653.868;  -11.953; 2312.494
500.976; 1853.729;  -10.023; 2744.849
501.564; 2132.345;   -8.662; 3148.565
502.151; 2559.613;  -10.531; 3515.999
502.738; 3062.915;  -13.853; 3971.274
503.326; 3613.899;  -10.794; 4403.796
503.913; 4215.589;   -8.663; 5161.749
504.500; 4758.842;  -10.172; 5986.420
505.088; 5700.474;  -13.472; 6381.201
505.675; 6409.779;  -10.924; 6925.547
506.262; 6677.904;   -8.551; 7619.060
506.849; 7466.140;  -10.523; 8733.969
507.436; 8526.828;  -10.834; 9790.121
508.023; 8811.251;   -9.093; 9985.472
508.610; 9160.771;  -10.073;10434.618
509.197;10404.356;   -9.500;11198.435
509.784;12350.979;  -13.242;12391.194
510.371;13201.858;  -10.964;13603.713
510.958;14035.926;   -9.772;14426.586
511.545;14692.409;   -7.842;15243.775
512.132;14791.928;  -12.184;15945.876
512.719;16362.331;   -9.733;16340.369
513.305;18967.021;   -9.172;18011.766
513.892;20118.973;   -9.581;19754.971
514.479;20956.207;  -10.253;20967.805
515.066;21269.521;   -8.183;22299.793
515.652;22157.994;   -9.253;22908.660
516.239;23706.781;   -9.412;23798.875
516.825;24981.482;  -11.153;25567.275
517.412;24216.908;  -10.263;28154.959
517.998;23555.299;   -8.802;28344.111
518.585;23731.826;  -10.401;27134.219
519.171;24179.047;  -12.744;27268.576
519.758;25658.805;  -11.793;28964.129
520.344;28118.482;   -8.912;30664.494
520.930;29405.947;  -10.901;32550.605
521.516;27114.465;  -12.034;35422.895
522.103;26142.699;  -10.473;38280.004
522.689;27800.852;   -8.311;37835.117
523.275;31997.588;  -10.691;37288.613
523.861;35866.324;  -11.193;37281.395
524.447;35257.938;  -11.484;37846.949
525.033;35796.266;   -7.702;38321.949
525.619;36382.844;  -11.241;38579.285
526.205;36715.059;  -12.152;40622.875
526.791;37639.039;  -11.423;42258.836
527.377;38287.246;   -7.981;42966.902
527.963;38039.055;   -9.450;42018.949
528.549;38440.480;  -11.351;42476.828
529.135;39418.391;  -10.202;41854.852
529.721;39007.641;   -8.672;41237.711
530.306;37168.313;   -9.111;41259.445
530.892;39118.078;  -11.252;41506.047
531.478;41697.887;  -10.432;43559.613
532.063;43430.164;  -10.721;47695.563
532.649;44984.570;   -7.450;50808.324
533.235;46005.129;  -11.811;51787.500
533.820;45472.164;   -9.383;52145.035
534.406;42839.879;   -9.400;51133.488
534.991;42893.445;   -8.861;49996.805
535.576;44175.297;  -10.612;48882.852
536.162;41530.992;   -7.322;46942.285
536.747;41547.508;   -9.360;45711.746
537.333;44096.434;  -10.450;48510.180
537.918;47072.496;  -12.610;50439.891
538.503;47233.648;  -12.132;50863.711
539.088;44368.313;  -10.831;50906.922
539.673;44361.824;  -11.220;52621.965
540.259;46444.434;  -11.481;52368.094
540.844;45970.219;  -11.462;50879.109
541.429;47136.500;   -7.869;52077.777
542.014;45290.664;  -11.859;52716.695
542.599;42673.102;  -11.061;52363.281
543.184;42467.215;  -12.300;53187.137
543.769;42847.836;   -9.369;54697.605
544.354;40756.125;  -12.020;53913.914
544.938;34321.293;  -10.350;49680.164
545.523;32019.232;  -10.841;47386.277
546.108;38429.016;   -8.579;49151.949
546.693;44828.051;   -8.818;51384.637
547.278;47321.965;  -11.331;51853.254
547.862;46795.758;  -10.292;51173.750
548.447;46603.852;   -8.349;51691.395
549.031;46434.516;  -10.838;52456.703
549.616;47865.824;  -11.681;52714.516
550.201;49218.500;  -11.140;52414.598
550.785;46870.914;   -8.649;52355.059
551.370;48227.035;  -11.889;54589.453
551.954;48535.316;  -11.239;58267.348
552.538;49903.852;   -8.850;59062.176
553.123;51668.109;  -10.829;58115.285
553.707;51995.348;   -8.887;56556.285
554.291;49334.598;  -10.430;56201.668
554.876;49199.902;   -9.799;55335.762
555.460;46379.355;  -10.018;54155.703
556.044;46321.469;   -7.307;53721.484
556.628;49071.078;  -12.229;53731.016
557.212;49616.949;   -9.820;54312.531
557.796;47846.152;   -9.109;53797.773
558.380;45998.371;   -9.707;56145.984
558.964;48528.590;  -10.980;57277.930
559.548;51099.703;  -12.010;56459.641
560.132;51768.750;   -7.928;54434.543
560.716;55128.555;  -10.247;54800.617
561.300;55391.152;  -11.250;57606.945
561.884;53180.590;  -10.568;58972.445
562.467;50404.441;   -9.727;57327.570
563.051;46683.898;  -11.847;54962.434
563.635;46463.770;  -10.747;52594.473
564.219;45285.723;  -13.108;50610.410
564.802;43871.992;  -11.417;49551.180
565.386;42270.781;  -10.457;48370.953
565.969;45583.910;   -8.959;48178.871
566.553;46619.277;  -10.328;49957.305
567.136;46151.750;  -10.257;50369.594
567.720;44852.703;  -10.186;49492.004
568.303;44381.957;  -10.027;50616.352
568.887;45322.430;  -10.397;50727.148
569.470;46663.039;   -8.185;51698.379
570.053;44681.422;  -11.596;52122.078
570.637;42568.281;  -11.378;52536.438
571.220;42377.398;   -9.138;51186.098
571.803;41809.441;   -7.675;51032.762
572.386;41258.570;   -8.976;49609.887
572.969;42270.797;  -12.477;48285.926
573.552;41775.621;   -9.767;47624.285
574.135;39436.297;   -8.175;45498.641
574.718;35262.594;  -11.096;41970.434
575.301;34742.215;  -11.966;41447.137
575.884;34221.836;  -12.836;40923.836
576.467;39734.520;   -9.116;45267.723
577.050;41838.836;  -10.536;48175.543
577.633;40601.625;  -11.027;47729.328
578.216;39502.816;   -9.946;47579.793
578.799;40129.988;   -9.645;47820.996
579.381;39287.414;   -9.446;48115.551
579.964;38923.102;  -12.217;47333.766
580.547;39456.242;  -10.586;46668.969
581.129;39424.355;   -8.374;44466.141
581.712;38983.766;  -10.434;44164.922
582.294;38453.750;  -10.896;46477.855
582.877;39294.059;   -8.906;48244.254
583.459;39317.391;   -9.994;47437.895
584.042;38151.164;  -10.084;46943.219
584.624;36544.012;  -13.534;46792.227
585.206;36938.082;  -12.716;46557.250
585.789;37392.660;  -11.614;45793.773
586.371;36898.699;  -10.203;43836.391
586.953;35354.336;  -10.314;42972.492
587.536;33912.293;   -9.776;42487.211
588.118;34176.020;   -9.821;42086.414
588.700;35176.297;  -10.073;43389.930
589.282;36987.895;  -12.395;43646.039
589.864;37610.984;  -11.514;43438.109
590.446;38061.586;  -10.803;43151.926
591.028;39135.625;  -11.043;42781.867
591.610;38148.316;  -13.244;42839.098
592.192;35519.051;  -11.095;42820.402
592.774;33299.230;  -10.823;40724.277
593.356;33016.953;  -11.052;39874.789
593.937;34246.574;  -11.664;39980.648
594.519;35697.879;  -10.454;42069.633
595.101;35767.453;  -10.322;42976.031
595.683;34797.934;  -10.042;44084.441
596.264;34138.270;  -14.334;43478.797
596.846;34843.168;  -10.863;43803.672
597.427;35457.953;   -9.901;42986.934
598.009;34855.129;  -10.911;42832.219
598.591;33760.195;  -10.483;42580.086
599.172;32941.445;   -9.663;43061.805
599.753;33144.023;  -10.631;41691.469
600.335;33598.055;   -9.371;40692.520
600.916;35719.969;  -13.992;39982.422
601.498;36880.086;   -8.352;40318.617
602.079;35387.457;   -8.411;40670.609
602.660;38063.203;  -10.841;41450.898
603.241;37646.699;  -12.963;41137.738
603.823;34185.551;  -11.523;38868.797
604.404;31997.643;  -11.881;38182.785
604.985;33487.484;  -11.721;38078.047
605.566;34146.977;   -9.293;38056.633
606.147;32903.602;  -10.940;37020.418
606.728;32101.432;  -11.840;37883.359
607.309;31281.182;  -11.781;38748.273
607.890;30921.088;  -11.262;38850.230
608.471;29722.766;  -10.111;37457.918
609.051;29941.822;   -7.709;36066.457
609.632;30291.041;  -12.409;35991.074
610.213;28740.857;  -10.811;37402.641
610.794;28865.189;  -11.630;38383.363
611.374;30231.260;   -8.030;40562.387
611.955;31663.104;  -10.809;38533.727
612.536;33320.922;  -10.531;36951.789
613.116;33686.180;  -12.820;37197.891
613.697;33297.512;  -11.419;38411.125
614.277;32098.900;   -9.768;38673.938
614.858;30348.590;  -10.251;37075.863
615.438;26976.100;  -11.981;35092.906
616.019;26834.563;   -8.978;33666.301
616.599;29688.502;  -12.219;34189.023
617.179;32137.613;  -14.170;36952.047
617.760;34059.488;   -9.211;39582.574
618.340;34121.570;   -9.018;38943.977
618.920;32328.074;   -9.249;37594.156
619.500;33114.863;  -12.728;37866.938
620.080;35052.020;  -12.939;37869.043
620.660;33539.621;  -11.586;36868.617
621.241;32769.516;  -11.538;36352.309
621.821;32954.348;  -11.398;35459.520
622.401;33956.988;  -10.179;35207.414
622.980;33065.004;  -11.587;35980.422
623.560;31911.305;  -12.888;37351.328
624.140;29909.115;  -13.149;34388.582
624.720;25483.668;   -9.928;32368.764
625.300;25457.418;  -10.869;32638.629
625.880;29453.180;   -8.617;34599.035
626.459;33422.395;  -12.138;36831.738
627.039;34293.637;  -12.267;38299.098
627.619;34313.551;   -7.476;38289.574
628.198;35132.984;  -11.347;37220.695
628.778;33927.355;  -11.678;37632.563
629.357;31435.242;  -12.438;38003.012
629.937;29818.824;   -9.576;38402.039
630.516;28766.418;  -11.096;37868.801
631.096;28897.316;  -11.828;35760.410
631.675;29899.492;  -11.565;35225.219
632.254;30632.842;  -11.845;35130.289
632.834;31482.656;  -11.545;35794.570
633.413;32624.051;  -10.887;35788.922
633.992;34000.043;  -10.175;34532.863
634.571;32983.742;   -9.704;33590.113
635.151;30746.791;  -10.815;34943.863
635.730;30873.602;  -11.617;35352.523
636.309;31188.592;  -10.836;35366.605
636.888;32202.365;   -9.755;36165.637
637.467;32884.148;  -11.684;37515.902
638.046;35025.832;  -11.987;39288.695
638.625;35322.941;  -10.455;38279.699
639.204;33565.000;  -11.234;37741.598
639.782;30280.684;  -12.023;38364.551
640.361;29500.506;  -11.506;36740.621
640.940;29469.398;  -12.316;34950.082
641.519;30512.430;  -11.616;34137.398
642.097;33353.266;   -9.266;35654.258
642.676;33630.586;  -12.936;35637.957
643.255;33270.102;   -9.966;36567.074
643.833;33533.141;   -8.916;37809.434
644.412;35077.715;  -10.936;37337.293
644.990;36521.340;  -12.176;37018.531
645.569;35862.852;  -12.246;36518.469
646.147;35008.883;  -12.107;36186.430
646.726;34959.977;  -12.937;36267.688
647.304;38142.383;  -12.547;36647.625
647.882;38209.434;  -12.597;39286.742
648.461;35716.863;   -9.427;39157.703
649.039;33307.945;   -8.937;35412.883
649.617;32410.639;  -11.067;34744.918
650.195;32343.973;  -10.657;35403.098
650.773;31272.482;  -10.097;35053.797
651.352;29044.766;  -11.887;33756.816
651.930;25223.748;  -13.557;31868.773
652.508;22927.643;  -11.767;33121.551
653.086;23697.930;  -10.777;33564.793
653.663;27839.148;  -12.067;34054.668
654.241;30884.674;  -14.918;35693.309
654.819;31219.441;  -11.788;36422.906
655.397;30557.461;  -11.268;38213.484
655.975;31566.529;  -11.738;39507.625
656.553;31372.838;  -11.018;39498.223
657.130;30159.934;  -12.848;40395.480
657.708;29428.539;  -10.098;39242.020
658.286;29767.828;  -11.678;38920.020
658.863;30837.939;  -11.498;40202.898
659.441;31793.518;  -11.008;39677.938
660.018;32575.643;  -11.048;40413.355
660.596;32165.213;  -12.058;39931.414
661.173;32194.281;  -14.158;39604.531
661.750;32021.049;  -12.298;39700.070
662.328;31640.189;  -10.699;39292.809
662.905;30218.535;  -12.119;38235.648
663.482;26463.449;  -11.829;36212.305
664.060;25279.279;  -11.009;35944.945
664.637;27876.695;  -10.369;35170.785
665.214;28640.072;  -10.459;34197.523
665.791;27271.930;  -12.599;34549.520
666.368;26839.828;  -12.919;35118.578
666.945;28555.824;  -10.699;36019.418
667.522;29210.193;  -11.359;36048.438
668.099;29560.305;  -13.529;36243.914
668.676;30265.066;  -10.229;35958.875
669.253;30036.430;   -9.279;37384.730
669.830;29973.545;  -11.370;36779.629
670.407;31516.650;  -10.950;35231.289
670.984;32291.369;  -12.850;35544.270
671.560;32104.301;   -8.440;35466.867
672.137;30423.318;  -13.520;34280.863
672.714;28881.965;  -13.620;34632.863
673.290;28541.760;  -10.450;35135.422
673.867;27399.961;  -10.960;36114.480
674.443;26288.367;  -13.300;36152.859
675.020;26882.436;  -12.370;35327.238
675.596;26850.902;  -11.250;35795.176
676.173;27338.391;  -11.080;35430.355
676.749;27983.875;  -13.220;33549.516
677.326;31084.676;  -13.000;32210.012
677.902;31897.654;  -12.701;32068.871
678.478;31089.617;  -12.801;32583.891
679.054;30251.676;   -8.601;32088.928
679.631;31760.055;  -12.631;30978.848
680.207;31873.023;   -9.451;33160.887
680.783;30339.432;  -11.701;35570.363
681.359;30223.604;  -12.701;36125.184
681.935;28990.848;  -13.271;35240.922
682.511;27835.525;  -10.791;34429.961
683.087;28904.047;  -10.791;34463.680
683.663;29495.480;   -8.121;34648.898
684.239;31015.537;  -13.261;34546.457
684.815;29368.117;  -10.581;35586.375
685.390;26771.789;   -9.961;35821.895
685.966;25804.371;  -11.182;35085.871
686.542;25605.902;  -13.512;34198.230
687.118;26418.215;  -11.472;32847.707
687.693;26494.316;  -10.152;32794.027
688.269;28160.828;  -14.442;33072.367
688.844;29398.127;  -11.852;33141.664
689.420;27460.984;  -13.942;33965.742
689.995;26018.129;   -9.702;34655.523
690.571;26038.801;  -11.312;33576.742
691.146;25890.488;  -14.332;32657.219
691.722;27970.658;  -11.192;32526.979
692.297;29420.520;  -10.962;33014.617
692.872;28057.531;  -11.082;34012.254
693.448;27517.586;  -14.732;34237.434
694.023;27421.375;  -12.363;34142.672
694.598;27739.488;  -12.393;34132.031
695.173;27272.232;  -11.023;34205.250
695.748;27407.184;  -12.743;32882.488
696.323;29056.176;  -11.103;32864.906
696.898;30292.100;   -8.123;33170.004
697.473;29977.234;  -12.603;32432.984
698.048;28602.543;  -12.553;31649.303
698.623;29403.914;  -12.573;30778.141
699.198;31239.916;  -12.743;31140.119
699.773;28908.861;  -12.843;31764.299
700.348;28204.598;  -16.683;31780.816
700.922;28994.816;  -11.403;32046.375
701.497;29810.818;  -11.253;32603.574
702.072;29659.604;  -10.044;34799.871
702.646;28053.943;  -13.054;35793.172
703.221;26741.441;  -11.414;35201.590
703.795;27463.660;  -10.644;34764.527
704.370;28587.264;  -13.484;34307.367
704.944;28214.230;  -12.144;33509.887
705.519;27542.432;  -12.024;31388.584
706.093;26720.699;  -11.234;31340.104
706.668;25427.590;   -9.874;32630.281
707.242;25169.813;  -12.404;32728.779
707.816;24738.209;  -10.644;32947.238
708.390;24836.932;  -11.174;33277.855
708.965;25924.281;  -10.324;33834.336
709.539;25375.412;  -12.014;33709.273
710.113;25192.605;  -12.295;33044.313
710.687;25715.668;  -10.965;31953.992
711.261;26119.434;  -13.685;30505.949
711.835;25476.709;  -15.335;30262.369
712.409;25338.938;  -13.785;31254.447
712.983;26886.049;  -10.525;32754.986
713.557;28134.566;  -13.175;34018.824
714.131;28695.693;  -13.245;34579.625
714.704;29618.775;  -13.175;33890.262
715.278;30439.602;  -11.545;33531.102
715.852;29078.205;  -10.975;33601.660
716.425;28532.408;  -10.075;33515.117
716.999;28375.139;  -12.185;33185.555
717.573;29148.316;   -9.685;33905.996
718.146;30312.611;  -10.516;35199.293
718.720;26846.355;  -12.106;35060.551
719.293;26631.506;  -12.386;34973.230
719.867;28587.068;  -12.456;36394.449
720.440;27834.379;  -10.686;36663.008
721.013;27834.926;  -12.596;35102.426
721.587;28294.658;  -13.956;33985.266
722.160;27924.791;   -9.806;33524.965
722.733;28600.887;  -11.676;32987.043
723.306;28686.504;  -14.276;33066.301
723.880;28611.592;  -12.126;33399.500
724.453;29129.316;  -10.156;33468.297
725.026;27999.281;  -12.956;33816.637
725.599;26401.338;  -11.676;32797.996
726.172;25907.553;  -12.337;33187.434
726.745;27212.787;  -11.277;35136.613
727.318;26357.875;  -11.927;35751.730
727.891;25371.973;  -13.607;35890.430
728.463;25592.543;  -11.327;34822.090
729.036;25591.830;  -11.917;32895.086
729.609;26595.590;  -12.697;31823.225
730.182;27638.414;  -11.787;31445.283
730.754;28388.482;  -12.957;32373.223
731.327;28795.500;  -11.017;33676.820
731.900;27249.945;  -12.797;33417.000
732.472;25285.262;  -10.677;31978.498
733.045;24785.271;  -12.797;30368.777
733.617;25107.891;  -13.908;30574.215
734.190;24993.195;  -12.258;31280.975
734.762;25996.746;  -13.438;31674.412
735.334;26019.092;  -11.758;31247.291
735.907;26047.875;  -11.158;29876.211
736.479;26879.596;  -11.258;29808.488
737.051;28459.709;  -10.918;30233.547
737.623;29635.658;  -11.038;31469.086
738.195;28898.891;  -12.188;31784.225
738.768;26199.389;  -11.378;32120.523
739.340;25827.115;  -12.598;32094.342
739.912;26715.221;  -11.568;31312.680
740.484;26454.828;   -9.348;31946.238
741.056;25763.301;  -12.628;32984.059
741.628;25997.137;  -13.349;33897.715
742.199;26259.764;  -11.309;33213.016
742.771;26861.588;  -12.699;31369.113
743.343;28476.900;  -11.919;31865.473
743.915;28537.211;  -11.679;32388.631
744.487;27116.627;  -12.249;31079.568
745.058;25670.684;  -11.119;30570.107
745.630;24493.893;   -9.439;29970.127
746.201;24159.643;  -11.949;29186.766
746.773;23712.756;  -12.639;28805.723
747.344;23094.943;  -11.039;29591.223
747.916;22190.314;  -12.549;31412.201
748.487;21470.770;  -12.659;32194.898
749.059;21582.654;  -13.059;32533.719
749.630;22190.197;  -12.080;32158.518
750.201;21305.391;  -13.100;30855.395
750.773;20194.658;  -15.310;28622.555
751.344;20347.229;  -12.240;28405.732
751.915;20686.654;  -11.960;28461.551
752.486;20782.742;  -13.200;27842.850
753.057;20264.102;  -15.230;27845.008
753.628;19660.795;  -13.130;27728.107
754.199;19772.965;  -12.720;27381.086
754.770;19757.076;  -10.680;25882.203
755.341;19865.152;  -11.010;25886.184
755.912;19169.549;  -12.990;26050.861
756.483;18161.488;  -11.110;26798.779
757.054;17717.678;  -12.190;27048.238
757.625;17851.506;  -13.981;26294.838
758.195;18327.646;  -11.041;26142.076
758.766;19716.227;  -11.861;26392.234
759.337;20312.330;  -11.461;26334.594
759.907;20272.000;  -15.001;27579.652
760.478;19951.896;   -9.681;28352.770
761.048;19352.098;  -12.421;27325.088
761.619;18547.713;  -11.761;26460.428
762.189;17413.258;  -12.391;26029.826
762.760;17514.096;  -10.201;26430.145
763.330;18784.791;  -10.811;26670.902
763.900;20819.607;  -10.261;26603.021
764.471;19831.445;  -13.061;25542.740
765.041;18565.543;  -11.051;24358.459
765.611;18515.113;  -11.032;23991.297
766.181;18360.943;  -10.532;24470.236
766.751;18088.613;  -13.502;24845.975
767.321;18095.412;  -11.392;24533.633
767.891;18422.545;  -11.522;24916.492
768.461;19151.906;  -13.672;24776.771
769.031;18801.502;  -14.652;24757.988
769.601;17738.818;  -10.182;24181.088
770.171;15965.323;  -11.752;23670.387
770.741;15130.049;  -12.272;22960.045
771.311;15319.845;  -13.112;22917.523
771.880;15354.362;  -14.122;23562.941
772.450;16485.203;  -11.782;24216.500
773.020;17584.963;  -12.642;24140.398
773.589;16450.359;  -13.043;24414.857
774.159;14586.265;  -11.783;23858.717
774.729;14138.298;  -13.473;22942.135
775.298;15545.132;  -14.523;22324.033
775.867;16464.770;  -12.013;21140.313
776.437;15539.000;  -12.113;20838.092
777.006;14049.355;  -13.543;20599.510
777.576;12541.747;  -12.523;20508.809
778.145;12640.936;  -12.173;20732.947
778.714;13831.212;  -12.153;21062.465
779.283;14264.443;  -11.833;20949.664
779.853;14646.164;  -13.483;20508.623
780.422;15084.811;  -12.933;20649.082
780.991;14387.056;  -13.173;21527.520
781.560;12993.676;  -10.224;22632.658
782.129;12847.129;  -12.684;23048.277
782.698;14130.598;  -11.284;23438.555
783.267;14955.493;  -11.684;23267.734
783.836;13935.803;  -10.974;22415.133
784.404;12870.309;  -13.534;20443.152
784.973;12939.678;  -16.734;19699.150
785.542;12907.994;  -12.594;19763.828
786.111;12528.304;  -11.644;20341.408
786.679;13015.822;  -11.384;20207.967
787.248;13636.728;  -12.014;19516.465
787.817;12625.479;  -12.804;18900.363
788.385;11495.932;  -11.994;17879.121
788.954;11538.718;  -12.564;17658.301
789.522;12627.810;  -12.225;17788.879
790.090;12665.108;  -13.775;18118.277
790.659;11834.603;  -12.485;18338.736
791.227;11620.365;  -12.295;18508.615
791.795;11781.084;  -13.415;17898.254
792.364;11351.354;  -12.995;17295.133
792.932;11007.470;   -8.365;16822.051
793.500;11120.452;  -11.925;17040.148
794.068;11201.678;  -13.245;17179.787
794.636;11065.896;  -13.815;16664.246
795.204;10534.545;  -13.375;16524.545
795.772;10599.604;  -12.125;17274.564
796.340;11005.351;  -13.855;17891.002
796.908;11152.300;  -13.456;17648.561
797.476;10608.330;  -13.116;17064.080
798.044;10291.608;  -13.226;16672.777
798.612;11008.171;  -11.236;17023.996
799.180;11811.641;  -10.476;16561.615
799.747;11830.241;  -11.746;15962.773
800.315;10949.420;  -12.366;15296.992
800.883;10122.056;  -14.616;14801.771
801.450; 9976.929;  -11.996;14534.430
802.018;10503.324;  -11.206;14173.248
802.585; 9775.512;  -12.466;14029.547
803.153; 8736.935;  -12.846;13836.846
803.720; 8497.399;  -12.136;13567.324
804.287; 8699.931;  -10.966;13360.622
804.855; 9159.625;   -9.797;13681.981
805.422; 9000.320;  -13.037;13536.560
805.989; 8670.929;  -12.697;13355.958
806.556; 8880.942;  -11.737;13747.896
807.124; 9231.121;  -11.997;13987.376
807.691; 8810.911;  -13.997;14038.674
808.258; 8725.883;  -10.927;14120.152
808.825; 9296.656;  -13.727;13860.111
809.392; 9661.307;  -11.847;13268.790
809.959; 8857.949;  -14.217;12680.389
810.526; 8032.999;   -8.277;12427.308
811.093; 7995.163;   -9.647;12030.105
811.659; 7849.440;  -10.987;11653.664
812.226; 7342.565;  -13.447;11637.183
812.793; 7467.929;  -14.418;11611.521
813.360; 7903.692;  -13.908;11885.181
813.926; 7964.256;  -12.918;12770.539
814.493; 7935.253;  -14.888;12677.638
815.060; 8025.328;  -12.758;11974.336
815.626; 8272.514;  -13.478;11594.715
816.193; 8211.030;  -13.898;11579.474
816.759; 7889.542;  -13.588;11666.972
817.325; 7794.241;  -12.018;11325.530
817.892; 7302.767;  -14.068;11105.369
818.458; 6686.682;  -13.458;10843.928
819.024; 6469.797;  -11.968;10714.406
819.591; 6185.963;  -11.028;10469.165
820.157; 5948.108;  -12.088;10235.523
820.723; 5806.817;  -12.599;10847.563
821.289; 6090.531;  -10.419;11040.980
821.855; 6821.789;  -10.939;10357.100
822.421; 7344.356;  -12.539; 9978.918
822.987; 7163.106;  -13.259; 9754.177
823.553; 6545.530;  -15.369;10065.755
824.119; 6287.008;  -10.779;10036.294
824.685; 5831.560;   -9.999;10029.192
825.251; 5461.355;  -11.819;10199.230
825.816; 5250.311;  -13.369; 9820.189
826.382; 5417.386;  -12.679; 9297.248
826.948; 5585.930;  -11.199; 9381.347
827.513; 5422.088;  -11.179; 9450.726
828.079; 5397.609;  -13.489; 9472.444
828.645; 5672.675;  -12.500; 9292.643
829.210; 5889.313;  -15.120; 9065.341
829.776; 5753.251;  -12.590; 9132.620
830.341; 5616.596;  -11.540; 9092.878
830.906; 5702.379;  -12.400; 9078.557
831.472; 5590.233;  -12.720; 8534.535
832.037; 5083.691;  -11.490; 8677.874
832.602; 4613.198;  -14.380; 8628.692
833.167; 4813.746;  -12.780; 8879.031
833.733; 5107.712;  -11.100; 9189.790
834.298; 5361.823;  -12.080; 9052.608
834.863; 5237.442;  -13.910; 8895.087
835.428; 4938.184;  -13.470; 8824.266
835.993; 5255.647;  -11.760; 8845.385
836.558; 5716.839;  -12.731; 8888.563
837.123; 5754.340;  -12.431; 8966.582
837.688; 5450.651;  -11.241; 8617.860
838.253; 5100.766;  -13.681; 8590.699
838.817; 4908.174;  -12.531; 8443.797
839.382; 5137.003;  -12.671; 8799.356
839.947; 5079.557;  -11.541; 8810.595
840.511; 4869.950;  -12.021; 8796.394
841.076; 4792.270;  -13.071; 8347.231
841.641; 4625.587;  -11.411; 8224.330
842.205; 4495.662;  -13.671; 8223.349
842.770; 4548.493;  -11.291; 8622.107
843.334; 4640.396;  -12.951; 8410.386
843.898; 4655.373;  -11.221; 8337.465
844.463; 4573.156;  -11.322; 8506.283
845.027; 4296.019;  -11.412; 8280.962
845.591; 4054.442;  -11.512; 8231.141
846.156; 4228.009;  -14.042; 7969.179
846.720; 4476.569;  -12.152; 7768.278
847.284; 4496.936;  -10.922; 7630.957
847.848; 4230.331;  -10.962; 7472.395
848.412; 3909.531;  -14.612; 7437.394
848.976; 3920.893;  -11.492; 7674.592
849.540; 3971.787;   -9.172; 7836.011
850.104; 4344.932;  -11.232; 7913.669
850.668; 4640.865;  -15.182; 7694.508
851.232; 4297.196;  -15.332; 7756.887
851.796; 4107.749;  -13.703; 7926.545
852.359; 4193.603;  -11.113; 7827.844
852.923; 4047.205;  -11.843; 7641.163
853.487; 3847.318;  -11.173; 7342.501
854.050; 3653.116;  -13.443; 7042.820
854.614; 3561.402;  -13.823; 7151.338
855.177; 3683.221;  -16.393; 7105.077
855.741; 3797.057;  -11.693; 6989.675
856.304; 3772.267;  -10.843; 6596.634
856.868; 3672.960;  -13.783; 6356.272
857.431; 3458.557;  -11.953; 6468.571
857.995; 3324.450;  -13.683; 6373.210
858.558; 3279.403;  -11.433; 6324.448
859.121; 3243.324;  -12.493; 6408.327
859.684; 3315.591;  -12.384; 6347.886
860.247; 3351.146;  -14.774; 6321.264
860.810; 3183.649;  -13.154; 6301.903
861.374; 3030.427;  -11.264; 6607.881
861.937; 2966.197;  -15.424; 6408.200
862.500; 2986.861;  -12.854; 6572.639
863.062; 3030.890;  -12.344; 6387.297
863.625; 3034.341;  -13.314; 6190.836
864.188; 2893.751;  -14.724; 5807.254
864.751; 2840.512;  -13.464; 5682.413
865.314; 2830.238;  -11.684; 5547.492
865.876; 2875.912;  -11.104; 5500.150
866.439; 2995.488;  -12.344; 5415.909
867.002; 3017.531;  -13.494; 5501.567
867.564; 3039.143;  -10.935; 5413.946
868.127; 2973.135;  -12.665; 5160.325
868.689; 2870.511;  -14.515; 5133.183
869.252; 2893.908;  -13.425; 5252.382
869.814; 2958.283;  -11.595; 5297.141
870.377; 2963.042;  -12.175; 5390.919
870.939; 2749.156;  -10.265; 5599.898
871.501; 2433.925;  -12.375; 5248.336
872.063; 2048.207;  -14.355; 4854.235
872.626; 1691.919;  -14.435; 4817.074
873.188; 1444.176;  -12.415; 4987.732
873.750; 1437.319;  -14.555; 4868.651
874.312; 1580.218;  -11.185; 4779.330
874.874; 1689.663;  -12.715; 4866.348
875.436; 1723.369;  -13.196; 4718.887
875.998; 1748.804;  -11.426; 4660.005
876.560; 1774.706;   -9.786; 4462.964
877.122; 1805.659;  -12.796; 4145.042
877.683; 1758.437;  -13.226; 4056.481
878.245; 1640.688;  -12.036; 3950.740
878.807; 1543.095;  -11.536; 4058.958
879.369; 1578.067;  -10.806; 3954.677
879.930; 1731.301;  -13.946; 3941.495
880.492; 1803.265;  -11.876; 4067.014
881.053; 1666.593;  -13.216; 3859.633
881.615; 1562.023;  -12.226; 3776.071
882.176; 1509.155;  -12.946; 3734.750
882.738; 1501.082;  -10.736; 3678.489
883.299; 1463.005;  -12.057; 3405.407
883.860; 1377.960;  -12.677; 3351.106
884.422; 1328.515;  -14.097; 3394.044
884.983; 1276.489;  -13.667; 3166.443
885.544; 1221.207;  -10.717; 3189.802
886.105; 1163.475;  -14.357; 3160.360
886.666; 1101.082;  -14.287; 3093.059
887.227; 1036.614;  -14.297; 2941.957
887.788;  984.102;  -13.137; 2974.836
888.349;  922.540;  -14.637; 2721.214
888.910;  873.969;  -12.247; 2696.493
889.471;  876.126;  -10.577; 2560.172
890.032;  885.283;  -12.937; 2558.190
890.593;  887.523;  -12.487; 2567.669
891.153;  862.885;  -11.898; 2460.307
891.714;  831.053;  -14.278; 2372.046
892.275;  807.580;  -13.308; 2309.505
892.835;  742.716;  -12.058; 2382.543
893.396;  660.800;  -15.268; 2295.502
893.956;  615.946;  -13.278; 2162.420
894.517;  595.867;  -11.968; 2125.439
895.077;  598.384;  -12.798; 2086.978
895.638;  574.995;  -11.908; 2126.316
896.198;  548.358;  -13.288; 1838.275
896.758;  525.689;  -12.198; 1892.813
897.319;  497.672;  -13.048; 1792.232
897.879;  462.627;  -13.718; 1762.751
898.439;  423.351;  -14.138; 1661.149
898.999;  396.046;  -13.659; 1781.468
899.559;  384.052;  -14.699; 1703.347
900.119;  366.332;  -14.339; 1537.525
900.679;  343.062;  -11.789; 1638.384
901.239;  315.497;  -13.629; 1527.902
901.799;  294.808;  -13.679; 1456.441
902.359;  284.260;  -13.679; 1357.140
902.919;  277.684;  -14.159; 1331.118
903.479;  262.788;  -13.419; 1317.257
904.038;  247.871;  -14.899; 1262.595
904.598;  232.812;  -14.339; 1152.034
905.158;  223.783;  -13.959; 1240.893
905.717;  219.263;  -12.749; 1233.691
906.277;  214.452;  -11.889; 1217.330
906.836;  209.011;  -12.870; 1222.408
907.396;  203.089;  -11.790; 1193.047
907.955;  194.786;  -13.750; 1182.526
908.515;  184.888;  -14.760; 1099.364
909.074;  180.999;  -12.540; 1092.863
909.633;  175.477;  -12.120; 1069.121
910.192;  171.365;  -12.550; 1196.460
910.752;  165.681;  -12.760; 1029.960
911.311;  161.680;  -14.750; 1009.780
911.870;  160.610;  -13.860;  971.460
912.429;  160.490;  -13.480; 1094.080
912.988;  159.643;  -12.370; 1081.060
913.547;  156.328;  -14.670;  940.380
914.106;  154.750;  -12.800;  999.420
914.665;  153.043;  -11.370;  984.020
915.224;  149.808;  -11.430; 1035.760
915.782;  146.689;  -12.260;  922.560
916.341;  146.746;  -12.540; 1049.840
916.900;  144.122;  -12.540;  925.260
917.458;  141.622;  -13.480;  884.220
918.017;  140.868;  -12.470;  942.600
918.576;  141.753;  -13.450;  904.440
919.134;  141.705;  -12.890;  837.980
919.693;  139.553;  -15.480;  893.060
920.251;  139.659;  -14.420;  876.500
920.809;  139.261;  -12.170;  839.580
921.368;  135.377;  -13.650;  885.360
921.926;  132.315;  -12.750;  842.940
922.484;  129.338;  -14.150;  903.360
923.042;  128.952;  -15.100;  880.340
923.601;  131.883;  -10.990;  998.680
924.159;  131.678;  -12.470;  935.560
924.717;  132.822;  -15.640;  841.080
925.275;  134.126;  -12.380;  903.240
925.833;  134.623;  -12.710;  779.320
926.391;  136.819;  -11.200;  938.380
926.949;  137.149;  -16.000;  857.680
927.506;  139.203;  -12.260;  903.500
928.064;  140.808;  -11.300;  877.580
928.622;  140.278;  -13.750;  880.100
929.180;  140.453;  -15.290;  814.180
929.737;  141.048;  -14.500;  808.540
930.295;  144.227;  -10.630;  928.480
930.853;  145.720;  -14.590;  849.100
931.410;  145.732;  -14.450;  821.120
931.968;  148.540;  -14.390;  940.660
932.525;  149.955;  -13.050;  909.380
933.082;  153.615;  -15.620;  811.440
933.640;  162.277;  -15.650;  925.900
934.197;  166.695;  -13.610;  886.360
934.754;  168.704;  -13.320;  897.780
935.312;  167.112;  -13.370;  863.340
935.869;  171.439;  -12.780; 1012.980
936.426;  172.327;  -14.480;  872.800
936.983;  175.449;  -13.180;  889.020
937.540;  176.236;  -15.710;  838.280
938.097;  175.544;  -14.980;  940.120
938.654;  173.800;  -13.060;  898.860
939.211;  172.420;  -12.760;  952.480
939.768;  173.643;  -16.230;  915.420
940.324;  178.182;  -10.940;  904.200
940.881;  182.790;  -12.570;  878.500
941.438;  185.701;  -13.650; 1021.200
941.995;  181.749;  -13.300;  992.560
942.551;  180.478;  -15.800;  875.620
943.108;  179.674;  -14.180;  937.920
943.664;  173.091;  -13.890;  869.340
944.221;  172.082;  -12.640; 1088.140
944.777;  171.362;  -14.700;  869.680
945.334;  176.118;  -13.010;  884.840
945.890;  175.470;  -13.480;  946.480
946.446;  173.469;  -14.920;  947.020
947.003;  175.662;  -13.860;  964.940
947.559;  176.362;  -12.000; 1063.040
948.115;  173.701;  -10.510; 1026.540
948.671;  171.128;  -12.760;  967.300
949.227;  168.974;  -15.390;  859.560
949.783;  165.988;  -15.570;  858.900
950.339;  164.488;  -12.800;  991.000
950.895;  161.684;  -13.780; 1023.840
951.451;  158.613;  -13.810;  925.280
952.007;  157.060;  -12.390;  998.540
952.563;  154.327;  -11.980;  937.780
953.118;  151.487;  -14.070;  904.940
953.674;  151.369;  -14.140;  935.780
954.230;  151.722;  -12.680;  949.640
954.785;  153.281;  -12.770;  936.640
955.341;  153.606;  -11.450;  998.160
955.897;  148.165;  -15.350;  834.660
956.452;  147.283;  -14.200;  953.840
957.008;  146.923;  -10.820; 1083.640
957.563;  143.192;  -13.200; 1009.540
958.118;  138.837;  -14.460;  877.700
958.674;  140.274;  -13.840;  946.780
959.229;  142.829;  -10.670; 1013.980
959.784;  142.987;  -17.040;  832.400
960.339;  144.243;  -12.970; 1001.280
960.894;  144.169;  -12.700;  963.760
961.449;  143.715;  -13.790;  859.960
962.004;  147.126;  -11.760; 1212.840
962.559;  145.157;  -14.840;  860.140
963.114;  145.047;  -14.530;  742.480
963.669;  146.674;  -12.780;  915.500
964.224;  143.795;  -14.330;  874.340
964.779;  139.508;  -14.380;  828.420
965.334;  136.279;  -12.460; 1017.860
965.888;  133.576;  -13.490;  875.360
966.443;  133.828;  -14.140;  972.380
966.998;  129.137;  -16.240;  819.460
967.552;  128.662;  -12.730;  908.380
968.107;  125.430;  -14.510;  868.300
968.661;  126.793;  -11.850;  922.440
969.216;  124.320;  -14.370;  856.280
969.770;  123.118;  -13.010;  917.200
970.324;  121.247;  -12.460;  923.140
970.879;  120.128;  -11.580;  947.180
971.433;  120.356;  -13.130;  952.720
971.987;  117.567;  -12.360;  895.340
972.541;  116.782;  -14.330;  917.100
973.095;  117.301;  -13.310; 1009.460
973.649;  116.163;  -15.830;  809.480
974.203;  118.528;  -15.830;  829.040
974.757;  120.501;  -13.480;  855.220
975.311;  119.763;  -13.720;  872.600
975.865;  117.157;  -15.780;  881.820
976.419;  113.533;  -14.290;  857.400
976.973;  112.364;  -13.210;  849.620
977.526;  111.874;  -12.300;  949.920
978.080;  106.662;  -14.840;  796.780
978.634;  107.099;  -13.100;  921.320
979.187;  104.175;  -12.300;  905.400
979.741;  101.491;  -12.020; 1018.380
980.294;   95.157;  -14.590;  789.160
980.848;   91.273;  -14.390;  717.220
981.401;   92.667;  -14.280;  816.540
981.955;   92.539;  -11.920;  844.300
982.508;   88.965;  -15.790;  746.340
983.061;   88.775;  -12.070;  915.260
983.615;   87.255;  -13.260;  798.800
984.168;   84.401;  -15.540;  770.080
984.721;   84.613;  -13.230;  880.760
985.274;   84.216;  -11.820;  867.500
985.827;   80.997;  -13.510;  834.220
986.380;   77.797;  -14.840;  721.340
986.933;   78.165;  -13.970;  864.800
987.486;   77.407;  -12.450;  861.920
988.039;   75.980;  -11.170;  863.100
988.591;   72.813;  -13.070;  893.260
989.144;   68.976;  -15.530;  737.260
989.697;   67.072;  -14.300;  758.740
990.250;   67.636;  -13.310;  858.100
990.802;   64.998;  -14.490;  755.860
991.355;   66.766;  -12.980;  974.880
991.907;   65.392;  -13.715;  864.320
992.460;   64.017;  -14.450;  753.760
993.012;   62.731;  -12.590;  749.540
993.565;   60.813;  -15.180;  711.360
994.117;   62.827;  -11.630;  950.780
994.669;   59.045;  -13.760;  701.320
995.221;   58.587;  -12.710;  791.920
995.774;   57.323;  -14.620;  787.580
996.326;   56.261;  -13.150;  740.220
996.878;   57.713;  -12.880;  838.420
997.430;   55.516;  -14.580;  699.860
997.982;   54.285;  -14.030;  750.140
998.534;   54.711;  -12.190;  739.060
999.086;   53.410;  -12.990;  738.220
999.638;   51.179;  -13.180;  661.380
1000.190;   51.210;  -14.970;  699.320
1000.741;   51.447;  -12.200;  742.700
1001.293;   51.136;  -13.400;  686.020
1001.845;   49.295;  -14.490;  676.640
1002.396;   50.464;  -15.280;  743.400
1002.948;   50.275;  -12.380;  737.400
1003.500;   49.199;  -13.260;  723.780
1004.051;   49.993;  -13.730;  907.580
1004.603;   48.930;  -12.300;  791.820
1005.154;   45.210;  -15.330;  608.980
1005.705;   44.092;  -12.800;  723.960
1006.257;   43.465;  -13.900;  707.220
1006.808;   42.601;  -14.430;  685.460
1007.359;   42.513;  -12.010;  763.240
1007.910;   41.271;  -12.690;  646.640
1008.461;   40.503;  -13.610;  732.940
1009.013;   38.771;  -14.990;  588.340
1009.564;   40.740;  -11.860;  793.520
1010.115;   38.153;  -12.640;  597.040
1010.665;   37.795;  -14.570;  602.160
1011.216;   38.133;  -15.190;  667.920
1011.767;   37.665;  -13.470;  697.920
1012.318;   38.260;  -13.760;  736.980
1012.869;   37.090;  -15.950;  679.000
1013.419;   36.886;  -15.880;  603.120
1013.970;   37.226;  -14.540;  666.640
1014.521;   35.634;  -13.220;  620.620
1015.071;   36.576;  -15.020;  670.380
1015.622;   35.569;  -17.510;  635.460
1016.172;   34.346;  -14.130;  596.820
1016.723;   34.508;  -14.220;  614.380
1017.273;   35.060;  -15.370;  604.160
1017.823;   35.184;  -15.290;  650.340
1018.374;   34.160;  -13.420;  611.760
1018.924;   33.936;  -11.740;  716.880
1019.474;   34.628;  -12.250;  718.880
1020.024;   32.681;  -15.850;  657.580
1020.574;   33.759;  -13.280;  726.160
1021.124;   34.113;  -13.560;  673.580
1021.674;   31.816;  -13.790;  559.120
1022.224;   33.583;  -14.610;  708.940
1022.774;   32.977;  -13.100;  668.820
1023.324;   33.086;  -11.470;  753.520
1023.874;   34.909;  -11.990;  875.760
1024.423;   31.400;  -14.550;  613.700
1024.973;   30.608;  -14.440;  610.760
1025.523;   31.004;  -13.250;  620.960
1026.072;   30.403;  -15.200;  606.420
1026.622;   30.075;  -14.590;  675.740
1027.172;   31.337;  -11.080;  715.660
1027.721;   29.824;  -14.010;  601.220
1028.270;   29.857;  -13.690;  663.400
1028.820;   29.523;  -15.380;  638.080
1029.369;   29.778;  -14.980;  612.700
1029.918;   29.721;  -13.100;  649.840
1030.468;   28.751;  -13.680;  564.780
1031.017;   29.605;  -13.770;  634.800
1031.566;   28.717;  -14.100;  608.900
1032.115;   29.266;  -11.770;  694.500
1032.664;   28.056;  -14.940;  596.480
1033.213;   28.798;  -13.370;  735.420
1033.762;   27.860;  -13.660;  635.620
1034.311;   27.909;  -13.650;  677.220
1034.860;   27.995;  -13.820;  691.000
1035.408;   28.099;  -12.860;  722.720
1035.957;   28.293;  -13.060;  719.540
1036.506;   26.468;  -14.510;  530.800
1037.055;   29.459;  -13.470;  844.320
1037.603;   27.388;  -14.800;  664.000
1038.152;   25.444;  -14.190;  534.760
1038.700;   26.676;  -11.810;  585.740
1039.249;   25.902;  -12.850;  681.220
1039.797;   25.982;  -14.610;  633.360
1040.345;   26.081;  -15.220;  705.420
1040.894;   25.341;  -13.480;  625.300
1041.442;   25.555;  -13.310;  632.200
1041.990;   24.539;  -14.510;  559.160
1042.538;   23.613;  -15.700;  536.180
1043.087;   24.714;  -13.910;  570.860
1043.635;   25.183;  -13.620;  670.500
1044.183;   23.554;  -14.230;  586.400
1044.731;   23.446;  -13.730;  576.000
1045.279;   24.428;  -13.970;  674.920
1045.827;   26.211;  -10.750;  892.400
1046.374;   23.016;  -15.230;  515.420
1046.922;   22.924;  -15.390;  590.580
1047.470;   24.308;  -12.320;  691.300
1048.018;   23.405;  -13.230;  647.960
1048.565;   24.420;  -13.390;  708.600
1049.113;   22.077;  -15.030;  557.000
1049.660;   22.250;  -12.540;  629.660
1050.208;   22.705;  -15.040;  675.640
1050.755;   22.402;  -14.680;  606.580
1051.303;   22.843;  -13.610;  686.820
1051.850;   22.479;  -14.340;  635.120
1052.397;   19.744;  -16.330;  473.960
1052.945;   21.020;  -15.710;  617.760
1053.492;   22.652;  -12.320;  741.840
1054.039;   22.097;  -13.730;  720.180
1054.586;   21.083;  -16.140;  557.240
1055.133;   21.104;  -14.020;  693.140
1055.680;   21.047;  -13.430;  646.620
1056.227;   20.964;  -14.570;  542.780
1056.774;   22.603;  -14.400;  794.980
1057.321;   19.544;  -14.230;  523.260
1057.868;   20.860;  -14.220;  651.320
1058.415;   19.967;  -14.060;  651.980
1058.961;   21.211;  -14.640;  678.940
1059.508;   20.130;  -13.970;  643.820
1060.055;   19.614;  -15.100;  581.780
1060.601;   20.593;  -12.180;  624.300
1061.148;   19.346;  -15.010;  616.820
1061.694;   19.676;  -14.750;  592.580
1062.241;   19.530;  -14.130;  596.320
1062.787;   20.314;  -14.770;  663.140
1063.334;   21.502;  -13.130;  808.560
1063.880;   19.215;  -14.420;  668.360
1064.426;   19.443;  -13.130;  706.820
1064.972;   18.866;  -13.960;  601.340
1065.518;   17.896;  -13.680;  566.640
1066.065;   18.488;  -15.720;  624.460
1066.611;   17.440;  -13.970;  598.800
1067.157;   18.643;  -13.920;  641.860
1067.703;   18.129;  -14.760;  668.480
1068.249;   17.542;  -14.490;  605.220
1068.794;   18.176;  -14.740;  626.880
1069.340;   17.906;  -13.220;  578.960
1069.886;   17.991;  -14.930;  590.700
1070.432;   16.545;  -14.700;  541.720
1070.977;   16.592;  -14.470;  601.080
1071.523;   16.911;  -14.330;  573.060
1072.068;   16.586;  -14.960;  582.000
1072.614;   16.007;  -16.220;  527.760
1073.160;   17.321;  -11.280;  687.040
1073.705;   15.675;  -15.990;  572.520
1074.250;   16.366;  -16.550;  559.900
1074.796;   16.479;  -14.600;  655.160
1075.341;   17.747;  -13.440;  664.100
1075.886;   16.424;  -14.450;  594.240
1076.431;   16.186;  -13.160;  649.880
1076.976;   15.649;  -14.710;  639.220
1077.521;   14.992;  -14.000;  583.080
1078.067;   15.100;  -14.470;  579.400
1078.612;   15.499;  -14.530;  661.620
1079.156;   15.092;  -15.660;  601.540
1079.701;   15.314;  -16.120;  693.260
1080.246;   16.789;  -12.960;  696.300
1080.791;   15.182;  -13.700;  625.020
1081.336;   14.862;  -15.540;  659.320
1081.880;   15.080;  -14.640;  649.680
1082.425;   14.548;  -14.220;  573.480
1082.970;   15.699;  -11.890;  717.040
1083.514;   14.159;  -13.820;  597.000
1084.059;   13.698;  -14.280;  586.720
1084.603;   13.708;  -12.890;  565.840
1085.147;   14.025;  -13.590;  645.220
1085.692;   14.332;  -14.050;  716.800
1086.236;   12.658;  -14.990;  503.140
1086.780;   14.999;  -12.640;  751.440
1087.325;   14.029;  -15.550;  654.620
1087.869;   13.515;  -14.980;  610.700
1088.413;   14.336;  -13.440;  705.040
1088.957;   11.909;  -12.170;  543.400
1089.501;   14.211;  -12.730;  766.640
1090.045;   13.823;  -14.650;  726.480
1090.589;   11.493;  -14.500;  569.920
1091.133;   12.457;  -12.320;  673.340
1091.676;   12.673;  -16.130;  591.940
1092.220;   12.237;  -13.930;  600.920
1092.764;   13.453;  -12.820;  706.960
1093.307;   13.183;  -11.700;  673.780
1093.851;   11.642;  -15.600;  556.540
1094.395;   12.435;  -13.920;  683.140
1094.938;   11.886;  -16.090;  632.520
1095.482;   11.574;  -13.820;  559.800
1096.025;   12.483;  -12.720;  710.880
1096.568;   12.670;  -12.100;  779.280
1097.112;    9.673;  -15.450;  508.180
1097.655;   12.313;  -14.310;  603.000
1098.198;   10.283;  -14.740;  600.180
1098.741;   10.023;  -15.550;  612.860
1099.285;   11.500;  -12.600;  657.300
1099.828;    9.128;  -15.050;  439.400
1100.371;   11.080;  -14.800;  608.160
1100.914;   10.453;  -16.480;  682.660
1101.457;   10.643;  -12.990;  679.900
1101.999;    9.990;  -14.110;  584.680
1102.542;   10.497;  -11.450;  641.440
1103.085;   10.233;  -13.350;  658.500
1103.628;   11.241;  -13.200;  762.060
1104.170;    9.295;  -12.310;  588.280
1104.713;   10.761;  -14.320;  646.700
1105.256;    9.211;  -16.110;  557.440
1105.798;    7.930;  -15.910;  499.980
1106.341;   11.473;  -12.200;  728.900
1106.883;    8.714;  -14.910;  521.340
1107.425;   10.133;  -14.960;  668.180
1107.968;    9.479;  -13.440;  612.380
1108.510;   10.865;  -14.010;  684.960
1109.052;    7.816;  -15.430;  612.620
1109.594;    8.251;  -15.290;  554.440
1110.136;    9.236;  -13.360;  643.220
1110.679;    9.277;  -13.820;  633.080
1111.221;    8.864;  -13.690;  604.460
1111.763;    7.296;  -14.890;  559.220
1112.304;    7.974;  -14.550;  547.140
1112.846;    8.702;  -12.760;  666.240
1113.388;   12.014;  -10.780;  942.180
1113.930;    8.303;  -12.690;  694.200
1114.472;    7.669;  -15.730;  606.540
1115.013;    6.905;  -14.620;  551.280
1115.555;    6.798;  -14.950;  587.100
1116.097;    7.091;  -16.460;  579.480
1116.638;    7.313;  -13.730;  684.600
1117.180;    8.051;  -13.810;  667.740
1117.721;    6.560;  -13.280;  568.580
1118.262;    7.539;  -15.080;  677.960
1118.804;    8.526;  -14.040;  637.340
1119.345;    7.024;  -15.430;  578.400
1119.886;    8.191;  -15.240;  704.040
1120.427;    6.566;  -15.820;  589.020
1120.969;    7.070;  -14.550;  597.920
1121.510;    6.139;  -14.030;  563.060
1122.051;    7.334;  -11.990;  723.580
1122.592;    6.742;  -16.490;  655.420
1123.133;    5.022;  -15.580;  547.940
1123.673;    7.225;  -12.850;  706.480
1124.214;    5.924;  -13.630;  612.460
1124.755;    6.453;  -14.830;  639.460
1125.296;    6.101;  -13.110;  627.320
1125.836;    7.022;  -11.320;  691.500
1126.377;    6.000;  -14.330;  599.660
1126.918;    6.532;  -12.800;  614.980
1127.458;    5.218;  -13.580;  622.220
1127.999;    7.233;  -10.330;  656.980
1128.539;    6.161;  -13.390;  694.240
1129.079;    5.058;  -16.420;  632.720
1129.620;    5.586;  -15.700;  558.100
1130.160;    4.701;  -14.790;  539.480
1130.700;    4.998;  -12.910;  640.840
1131.240;    5.395;  -15.610;  643.700
1131.781;    5.041;  -12.920;  619.680
1132.321;    5.091;  -15.300;  599.120
1132.861;    4.733;  -14.760;  564.200
1133.401;    3.573;  -15.470;  593.940
1133.941;    5.125;  -13.710;  626.280
1134.481;    4.367;  -11.820;  597.580
1135.020;    4.288;  -14.810;  609.160
1135.560;    4.362;  -13.660;  674.940
1136.100;    3.041;  -13.940;  501.160
1136.640;    3.590;  -15.410;  510.480
1137.179;    3.081;  -16.920;  537.960
1137.719;    3.803;  -16.430;  605.400
1138.258;    3.852;  -16.300;  587.360
1138.798;    4.250;  -13.710;  663.780
1139.337;    2.845;  -13.840;  482.840
1139.877;    4.022;  -16.140;  642.360
1140.416;    6.704;  -11.410;  878.060
1140.955;    2.879;  -12.820;  535.380
1141.494;    3.470;  -12.310;  669.280
1142.034;    2.781;  -16.280;  583.520
1142.573;    3.999;  -13.090;  646.280
1143.112;    2.794;  -13.770;  553.480
1143.651;    2.415;  -15.830;  536.480
1144.190;    3.454;  -15.010;  691.640
1144.729;    2.957;  -13.650;  607.420
1145.267;    3.865;  -13.670;  584.900
1145.806;    3.829;  -13.630;  637.040
1146.345;    2.169;  -14.160;  635.020
1146.884;    2.702;  -11.180;  622.500
1147.422;    2.030;  -15.890;  533.060
1147.961;    4.123;  -12.760;  708.460
1148.500;    2.725;  -15.220;  669.720
1149.038;    2.790;  -13.720;  632.500
1149.577;    3.441;  -13.250;  698.640
1150.115;    0.513;  -16.790;  452.280
1150.653;    1.934;  -15.810;  607.340
1151.192;    2.183;  -14.730;  552.920
1151.730;    2.219;  -13.660;  652.560
1152.268;    1.251;  -15.120;  589.520
1152.806;    1.735;  -15.580;  571.180
1153.344;    0.603;  -16.210;  577.640
1153.882;    2.042;  -12.810;  600.060
1154.421;    0.277;  -14.150;  470.620
1154.958;    0.891;  -15.360;  595.240
1155.496;    2.629;  -14.710;  645.280
1156.034;    2.078;  -13.640;  721.880
1156.572;    2.196;  -13.740;  667.060
1157.110;   -0.105;  -16.960;  473.940
1157.647;    2.506;  -11.940;  676.960
1158.185;    0.929;  -14.090;  564.320
1158.723;   -0.692;  -13.610;  509.200
1159.260;    1.492;  -14.760;  701.700
1159.798;    1.537;  -13.700;  658.160
1160.335;    0.936;  -13.820;  631.820

