
Integration time [ms]:   3.882
Averaging Nr. [scans]: 1000
Smoothing Nr. [pixels]: 0
Data measured with spectrometer [name]: 7414430SP
Wave   ;Sample   ;Dark     ;Reference
[nm]   ;[counts] ;[counts] ;[counts] 

288.544;  123.465;   10.292;  793.890
289.143;  125.798;    4.564;  681.602
289.742;  127.006;    6.144;  828.814
290.341;  114.739;    4.396;  789.841
290.940;  105.184;    0.938;  730.702
291.538;  106.767;   -0.684;  881.108
292.137;  104.993;   -2.845;  792.581
292.736;  108.594;   -0.144;  975.101
293.335;  104.764;   -6.352;  735.086
293.934;  105.141;   -7.642;  781.677
294.532;  106.227;   -4.992; 1031.958
295.131;   93.424;   -5.478;  834.394
295.730;   92.546;   -6.549;  809.588
296.328;   91.345;   -9.558;  783.442
296.927;   90.516;   -8.118;  779.652
297.525;   92.155;   -6.908;  781.236
298.124;   83.230;   -9.195;  654.009
298.722;   88.318;   -8.198;  761.933
299.321;   86.355;   -8.817;  708.597
299.919;   83.594;   -7.716;  751.918
300.518;   80.128;  -10.745;  689.338
301.116;   82.049;   -9.647;  691.381
301.715;   81.582;  -10.828;  730.222
302.313;   80.669;   -6.087;  704.943
302.911;   76.946;   -6.824;  733.830
303.509;   82.060;   -8.807;  925.627
304.108;   79.081;   -8.198;  760.383
304.706;   79.429;   -6.218;  801.664
305.304;   74.625;   -7.185;  796.707
305.902;   80.161;   -8.568;  784.484
306.500;   75.461;   -7.737;  728.200
307.098;   74.053;   -6.026;  746.560
307.696;   72.398;   -7.176;  780.432
308.294;   73.091;   -8.656;  731.359
308.892;   75.780;   -6.838;  759.769
309.490;   71.309;   -2.596;  712.161
310.088;   71.020;   -4.485;  788.444
310.686;   75.154;   -3.907;  821.749
311.284;   71.059;   -2.806;  766.040
311.882;   69.222;   -2.845;  731.225
312.480;   65.588;   -3.274;  697.167
313.078;   67.892;   -3.645;  808.331
313.675;   68.563;   -4.997;  691.600
314.273;   63.748;   -0.894;  797.837
314.871;   62.569;   -2.854;  589.829
315.468;   62.188;   -3.644;  652.090
316.066;   64.055;   -3.947;  694.427
316.664;   56.661;   -1.824;  656.351
317.261;   62.340;    1.565;  910.128
317.859;   58.389;   -3.955;  768.735
318.456;   59.413;   -2.886;  830.096
319.054;   55.686;   -0.995;  787.828
319.651;   54.456;   -1.765;  759.928
320.249;   54.333;   -3.685;  810.188
320.846;   52.618;   -3.736;  714.286
321.443;   50.925;   -2.065;  832.135
322.041;   47.996;   -5.635;  812.315
322.638;   46.153;   -5.985;  701.456
323.235;   47.997;   -6.677;  665.683
323.833;   45.959;   -3.497;  740.354
324.430;   42.501;   -6.756;  615.900
325.027;   43.910;   -7.647;  876.855
325.624;   43.980;   -7.598;  644.532
326.221;   40.884;   -5.848;  689.717
326.818;   41.305;   -5.777;  818.332
327.415;   43.720;   -8.769;  748.828
328.012;   43.212;   -6.299;  690.585
328.609;   41.533;   -6.639;  731.389
329.206;   40.188;   -6.358;  778.621
329.803;   39.624;   -8.698;  737.841
330.400;   41.582;   -8.379;  704.260
330.997;   42.072;   -6.178;  817.147
331.594;   39.577;   -5.646;  788.185
332.191;   43.439;   -6.928;  728.722
332.787;   45.435;   -6.057;  844.463
333.384;   42.535;   -6.445;  763.093
333.981;   40.278;   -8.002;  815.687
334.578;   42.061;   -8.443;  708.378
335.174;   44.724;   -6.053;  731.469
335.771;   44.479;   -5.791;  836.456
336.367;   41.134;   -6.570;  710.631
336.964;   44.177;   -6.741;  793.266
337.561;   42.790;   -5.710;  731.112
338.157;   39.578;   -3.928;  911.916
338.754;   37.688;   -5.577;  796.589
339.350;   35.120;   -9.667;  722.493
339.946;   38.750;   -5.269;  773.135
340.543;   31.874;   -4.485;  846.136
341.139;   26.889;   -7.584;  720.836
341.735;   25.752;   -8.553;  772.593
342.332;   24.833;   -4.984;  691.472
342.928;   24.658;   -3.475;  795.394
343.524;   20.230;   -6.653;  761.684
344.120;   17.893;   -7.173;  738.562
344.716;   20.916;   -4.385;  723.717
345.313;   18.673;   -3.565;  795.342
345.909;   14.447;   -7.495;  627.336
346.505;   16.366;   -8.276;  740.247
347.101;   17.765;   -5.697;  827.864
347.697;   17.720;   -4.767;  785.398
348.293;   12.748;   -7.226;  627.244
348.889;   13.727;   -7.547;  745.914
349.485;   12.815;   -9.147;  688.205
350.081;   13.936;   -6.568;  772.592
350.676;    9.659;   -6.516;  691.606
351.272;   14.231;   -7.378;  809.530
351.868;   13.517;   -6.759;  780.497
352.464;   11.130;   -4.798;  723.932
353.059;    7.894;   -7.977;  646.017
353.655;   11.960;   -8.769;  777.063
354.251;   12.426;   -5.920;  759.845
354.846;    6.604;   -7.647;  740.646
355.442;    5.055;   -6.956;  753.071
356.038;    6.606;   -9.928;  751.708
356.633;    7.052;   -7.698;  728.594
357.229;    5.864;   -6.307;  724.757
357.824;    3.835;   -7.647;  703.600
358.420;    2.774;  -10.047;  679.726
359.015;    4.096;   -7.458;  695.357
359.610;    5.037;   -5.748;  763.920
360.206;   -1.161;   -9.346;  603.240
360.801;    2.646;  -11.268;  646.503
361.396;    4.463;   -8.789;  725.975
361.992;   -0.083;   -6.347;  668.220
362.587;   -2.465;   -6.476;  670.160
363.182;   -0.007;   -9.457;  689.631
363.777;    0.757;   -7.147;  738.242
364.372;    0.132;   -5.507;  737.314
364.967;   -2.687;   -6.386;  680.744
365.563;    1.088;   -7.858;  815.567
366.158;   -1.659;   -8.517;  685.161
366.753;   -1.738;   -8.728;  649.263
367.348;   -2.560;   -7.677;  746.056
367.942;   -2.119;  -10.387;  697.298
368.537;   -3.359;   -7.187;  754.245
369.132;   -3.883;   -8.587;  703.428
369.727;   -7.137;   -8.606;  638.079
370.322;   -5.112;  -10.426;  580.186
370.917;   -5.464;   -5.776;  710.646
371.511;   -2.420;   -6.007;  861.834
372.106;   -5.741;   -6.686;  776.964
372.701;   -8.937;   -9.335;  585.988
373.296;   -2.359;   -6.777;  863.135
373.890;   -8.084;   -7.546;  647.840
374.485;  -10.263;   -8.755;  691.199
375.079;   -6.441;   -9.797;  738.685
375.674;   -4.838;   -6.327;  812.970
376.268;   -8.587;   -9.046;  691.759
376.863;  -13.941;   -7.993;  580.327
377.457;   -8.171;   -9.206;  662.490
378.052;   -8.804;   -5.345;  764.884
378.646;  -10.222;   -5.605;  741.167
379.240;  -10.904;   -6.825;  721.176
379.835;  -10.266;  -10.476;  636.978
380.429;  -12.042;   -8.676;  562.557
381.023;  -10.816;   -4.945;  779.205
381.617;  -13.469;   -8.094;  680.106
382.212;  -10.264;  -10.646;  685.303
382.806;   -9.113;   -8.136;  760.690
383.400;  -12.828;   -7.855;  672.281
383.994;  -14.845;   -8.125;  664.870
384.588;   -9.711;   -7.637;  697.701
385.182;   -8.362;   -7.458;  726.624
385.776;  -10.243;   -6.277;  706.875
386.370;  -12.880;   -7.485;  681.968
386.964;  -11.636;   -9.416;  684.155
387.558;   -9.725;   -8.518;  598.360
388.152;  -13.310;   -7.096;  681.959
388.745;  -11.348;   -7.656;  814.707
389.339;   -9.329;   -8.927;  747.642
389.933;   -8.365;   -9.538;  695.370
390.527;   -9.790;   -5.857;  859.029
391.120;  -16.009;   -9.455;  595.318
391.714;  -12.547;   -9.746;  711.633
392.308;   -9.704;   -7.857;  780.253
392.901;  -13.026;   -9.106;  642.460
393.495;  -14.931;  -10.365;  595.414
394.089;  -12.188;   -9.696;  760.452
394.682;  -13.323;   -7.016;  697.188
395.275;  -13.521;   -8.466;  719.927
395.869;  -15.941;   -8.985;  667.314
396.462;  -13.369;  -11.496;  616.609
397.056;   -9.435;   -7.838;  776.621
397.649;  -14.237;   -6.895;  731.575
398.242;  -11.438;   -5.017;  712.645
398.836;  -10.201;   -8.787;  766.408
399.429;  -11.047;   -8.967;  631.041
400.022;  -14.538;   -8.815;  665.902
400.615;  -11.810;   -6.276;  805.609
401.208;  -10.023;   -8.407;  691.451
401.802;  -11.536;   -7.296;  699.329
402.395;  -13.286;   -7.585;  683.502
402.988;  -14.365;   -8.015;  696.627
403.581;  -11.121;   -9.577;  646.878
404.174;   -8.391;   -7.588;  686.568
404.767;  -11.234;   -7.906;  638.583
405.360;  -13.868;   -7.875;  621.445
405.953;   -8.050;   -8.127;  759.034
406.545;   -7.845;   -7.198;  725.342
407.138;  -12.106;   -8.916;  618.350
407.731;  -10.219;   -9.767;  613.303
408.324;   -6.613;  -10.659;  660.554
408.917;   -7.818;   -8.068;  681.864
409.509;   -9.361;   -9.837;  740.396
410.102;  -11.403;   -8.146;  643.948
410.695;   -5.835;   -7.969;  665.758
411.287;   -5.793;   -8.579;  599.821
411.880;   -6.493;   -6.968;  585.421
412.472;  -10.251;   -9.487;  613.092
413.065;   -7.611;  -10.338;  629.408
413.657;   -5.500;   -9.169;  576.678
414.250;   -4.896;  -10.119;  646.681
414.842;   -6.495;   -9.938;  676.353
415.434;   -4.585;  -10.409;  570.463
416.027;   -0.434;   -9.591;  652.196
416.619;   -2.013;   -7.379;  713.400
417.211;   -2.719;   -9.159;  599.352
417.804;    1.389;   -9.191;  628.499
418.396;   -2.551;   -8.159;  607.643
418.988;   -1.059;   -6.960;  659.238
419.580;   -3.475;  -11.389;  568.276
420.172;   -1.857;  -13.460;  536.196
420.764;    2.796;  -10.701;  672.482
421.356;    1.402;   -8.961;  636.898
421.948;    1.458;   -9.770;  677.661
422.540;    5.939;   -8.832;  680.027
423.132;    5.169;   -8.153;  600.641
423.724;    1.149;   -8.481;  561.267
424.316;    3.727;   -9.261;  621.345
424.908;    8.162;   -9.643;  591.517
425.500;    8.281;   -8.663;  647.978
426.092;    9.038;   -8.503;  648.268
426.683;    7.747;  -10.522;  684.836
427.275;   10.797;  -11.734;  641.471
427.867;   12.190;  -10.264;  668.948
428.458;   12.958;   -7.644;  732.344
429.050;   11.173;   -7.853;  680.749
429.642;   13.406;   -8.904;  743.124
430.233;   14.033;  -10.795;  569.356
430.825;   15.786;   -7.665;  724.809
431.416;   12.843;   -8.843;  698.241
432.008;   16.807;   -9.885;  651.723
432.599;   17.237;   -9.966;  656.073
433.190;   14.712;   -9.164;  637.670
433.782;   13.747;   -8.584;  590.395
434.373;   22.220;   -8.296;  884.765
434.964;   19.893;   -9.896;  602.920
435.556;   17.424;   -8.255;  634.537
436.147;   20.925;   -8.075;  758.490
436.738;   20.316;   -9.716;  701.099
437.329;   26.054;   -7.318;  721.723
437.920;   19.220;   -6.694;  666.688
438.511;   18.585;   -9.644;  564.526
439.103;   25.549;   -9.427;  623.998
439.694;   28.527;  -10.748;  681.583
440.285;   28.573;   -7.997;  764.432
440.876;   26.824;  -10.046;  845.738
441.466;   25.604;  -13.467;  575.162
442.057;   31.241;   -9.329;  665.814
442.648;   29.652;   -7.707;  746.255
443.239;   28.170;   -9.017;  620.477
443.830;   32.470;  -10.279;  704.958
444.421;   35.807;  -12.630;  655.474
445.011;   32.180;   -8.697;  693.619
445.602;   32.279;   -7.787;  743.126
446.193;   33.844;  -13.329;  488.117
446.783;   38.054;   -9.171;  640.397
447.374;   33.836;   -7.457;  692.759
447.964;   33.813;   -9.277;  713.770
448.555;   42.999;   -9.041;  822.742
449.145;   39.179;   -8.969;  662.853
449.736;   40.146;   -6.809;  803.179
450.326;   40.961;   -7.229;  713.626
450.917;   44.547;  -11.391;  675.324
451.507;   44.177;   -9.501;  600.661
452.097;   45.507;   -8.460;  746.267
452.688;   46.651;  -10.080;  742.160
453.278;   46.020;  -12.861;  566.840
453.868;   51.023;   -8.372;  793.550
454.458;   48.114;   -8.131;  651.141
455.048;   49.147;   -8.520;  711.783
455.639;   50.652;  -13.632;  567.096
456.229;   53.618;  -10.143;  710.694
456.819;   55.498;   -9.163;  751.158
457.409;   56.636;   -8.652;  773.993
457.999;   59.060;   -9.933;  737.505
458.589;   59.340;  -10.363;  686.606
459.179;   59.456;  -10.633;  717.658
459.769;   57.104;  -12.442;  627.099
460.358;   62.452;   -9.844;  797.262
460.948;   61.969;   -9.924;  689.503
461.538;   62.840;  -10.484;  660.677
462.128;   61.466;  -10.703;  664.934
462.717;   68.415;  -11.486;  710.326
463.307;   70.983;  -10.767;  705.846
463.897;   67.594;   -8.814;  656.942
464.486;   67.776;   -8.182;  837.128
465.076;   71.337;   -9.985;  733.776
465.666;   75.178;  -10.447;  652.900
466.255;   73.177;   -7.754;  785.651
466.845;   71.950;  -10.884;  666.749
467.434;   75.067;  -12.525;  725.873
468.023;   76.299;  -11.456;  658.357
468.613;   73.290;   -9.173;  713.946
469.202;   78.417;   -9.306;  646.507
469.791;   81.970;   -8.917;  737.811
470.381;   85.450;   -9.657;  742.813
470.970;   84.460;   -9.947;  711.099
471.559;   84.256;   -9.256;  733.291
472.148;   87.337;  -13.397;  675.737
472.738;   90.219;   -9.928;  765.466
473.327;   89.191;  -10.897;  637.529
473.916;   89.219;   -8.526;  737.446
474.505;   94.008;  -11.078;  751.703
475.094;   97.346;   -9.559;  806.570
475.683;   96.428;   -8.838;  797.699
476.272;   97.795;  -10.198;  730.632
476.861;  100.573;  -11.489;  706.754
477.449;  107.029;  -10.721;  728.487
478.038;  101.593;   -9.818;  692.513
478.627;  102.316;   -9.887;  714.852
479.216;  109.476;  -10.030;  769.441
479.805;  112.464;   -9.401;  783.375
480.393;  112.864;   -5.739; 1008.945
480.982;  112.240;   -7.838;  874.501
481.571;  118.042;   -9.111;  858.333
482.159;  119.027;  -10.601;  705.386
482.748;  118.420;   -8.500;  821.385
483.336;  124.095;   -9.241;  858.209
483.925;  124.744;  -10.440;  774.373
484.513;  131.872;  -11.063;  758.962
485.102;  128.727;   -9.540;  810.965
485.690;  138.138;   -6.742; 1011.050
486.278;  140.172;   -8.442;  979.329
486.867;  140.202;  -10.472;  809.662
487.455;  143.078;   -8.811;  898.229
488.043;  144.737;  -10.721;  748.361
488.631;  154.421;  -10.393; 1005.079
489.220;  159.131;  -10.843;  908.626
489.808;  159.567;  -10.572;  741.415
490.396;  168.818;  -10.482;  914.645
490.984;  175.779;  -11.542;  830.161
491.572;  188.374;   -8.463;  940.315
492.160;  197.478;   -8.491;  919.081
492.748;  211.021;   -9.681;  884.341
493.336;  238.870;  -10.493; 1019.693
493.924;  273.598;   -9.354;  958.077
494.512;  315.602;   -9.132; 1066.638
495.100;  360.433;   -9.001; 1103.280
495.687;  423.487;  -11.924; 1206.373
496.275;  513.934;  -11.193; 1150.796
496.863;  611.298;   -9.241; 1281.171
497.451;  735.238;  -11.341; 1386.805
498.038;  867.285;  -11.364; 1556.729
498.626;  996.373;   -8.104; 1741.407
499.214; 1230.471;   -8.842; 2016.609
499.801; 1543.653;  -10.112; 2220.633
500.389; 1796.949;  -11.953; 2312.494
500.976; 2014.732;  -10.023; 2744.849
501.564; 2321.141;   -8.662; 3148.565
502.151; 2788.178;  -10.531; 3515.999
502.738; 3337.341;  -13.853; 3971.274
503.326; 3928.120;  -10.794; 4403.796
503.913; 4587.383;   -8.663; 5161.749
504.500; 5180.481;  -10.172; 5986.420
505.088; 6210.383;  -13.472; 6381.201
505.675; 6990.601;  -10.924; 6925.547
506.262; 7298.537;   -8.551; 7619.060
506.849; 8169.848;  -10.523; 8733.969
507.436; 9283.110;  -10.834; 9790.121
508.023; 9543.276;   -9.093; 9985.472
508.610; 9922.643;  -10.073;10434.618
509.197;11269.445;   -9.500;11198.435
509.784;13394.175;  -13.242;12391.194
510.371;14323.406;  -10.964;13603.713
510.958;15252.097;   -9.772;14426.586
511.545;15986.354;   -7.842;15243.775
512.132;16117.951;  -12.184;15945.876
512.719;17833.164;   -9.733;16340.369
513.305;20642.156;   -9.172;18011.766
513.892;21880.738;   -9.581;19754.971
514.479;22838.189;  -10.253;20967.805
515.066;23232.918;   -8.183;22299.793
515.652;24215.627;   -9.253;22908.660
516.239;25881.439;   -9.412;23798.875
516.825;27270.115;  -11.153;25567.275
517.412;26424.869;  -10.263;28154.959
517.998;25733.246;   -8.802;28344.111
518.585;26026.070;  -10.401;27134.219
519.171;26706.945;  -12.744;27268.576
519.758;28659.764;  -11.793;28964.129
520.344;32035.955;   -8.912;30664.494
520.930;34663.539;  -10.901;32550.605
521.516;33952.031;  -12.034;35422.895
522.103;35062.238;  -10.473;38280.004
522.689;36899.102;   -8.311;37835.117
523.275;38320.508;  -10.691;37288.613
523.861;38984.176;  -11.193;37281.395
524.447;36765.590;  -11.484;37846.949
525.033;37013.508;   -7.702;38321.949
525.619;37705.258;  -11.241;38579.285
526.205;38208.691;  -12.152;40622.875
526.791;39283.227;  -11.423;42258.836
527.377;39962.453;   -7.981;42966.902
527.963;39681.738;   -9.450;42018.949
528.549;40252.637;  -11.351;42476.828
529.135;41394.246;  -10.202;41854.852
529.721;40884.852;   -8.672;41237.711
530.306;38867.867;   -9.111;41259.445
530.892;41043.602;  -11.252;41506.047
531.478;43897.785;  -10.432;43559.613
532.063;45820.930;  -10.721;47695.563
532.649;47357.699;   -7.450;50808.324
533.235;48405.234;  -11.811;51787.500
533.820;47966.238;   -9.383;52145.035
534.406;45202.480;   -9.400;51133.488
534.991;45364.652;   -8.861;49996.805
535.576;46776.199;  -10.612;48882.852
536.162;44069.805;   -7.322;46942.285
536.747;44099.109;   -9.360;45711.746
537.333;46841.387;  -10.450;48510.180
537.918;50082.121;  -12.610;50439.891
538.503;50340.543;  -12.132;50863.711
539.088;47344.047;  -10.831;50906.922
539.673;47431.195;  -11.220;52621.965
540.259;49715.117;  -11.481;52368.094
540.844;49272.211;  -11.462;50879.109
541.429;50661.176;   -7.869;52077.777
542.014;48872.344;  -11.859;52716.695
542.599;46230.918;  -11.061;52363.281
543.184;46494.383;  -12.300;53187.137
543.769;48155.176;   -9.369;54697.605
544.354;48804.168;  -12.020;53913.914
544.938;44969.348;  -10.350;49680.164
545.523;41880.730;  -10.841;47386.277
546.108;45147.297;   -8.579;49151.949
546.693;48370.195;   -8.818;51384.637
547.278;48940.602;  -11.331;51853.254
547.862;47669.113;  -10.292;51173.750
548.447;47331.770;   -8.349;51691.395
549.031;47255.707;  -10.838;52456.703
549.616;48811.160;  -11.681;52714.516
550.201;50214.070;  -11.140;52414.598
550.785;48022.453;   -8.649;52355.059
551.370;49582.875;  -11.889;54589.453
551.954;49736.742;  -11.239;58267.348
552.538;51072.914;   -8.850;59062.176
553.123;52939.395;  -10.829;58115.285
553.707;53390.895;   -8.887;56556.285
554.291;50724.824;  -10.430;56201.668
554.876;50639.773;   -9.799;55335.762
555.460;47711.480;  -10.018;54155.703
556.044;47771.320;   -7.307;53721.484
556.628;50456.754;  -12.229;53731.016
557.212;50990.402;   -9.820;54312.531
557.796;49237.055;   -9.109;53797.773
558.380;47465.207;   -9.707;56145.984
558.964;50192.320;  -10.980;57277.930
559.548;52669.914;  -12.010;56459.641
560.132;53301.012;   -7.928;54434.543
560.716;56722.066;  -10.247;54800.617
561.300;56811.363;  -11.250;57606.945
561.884;54532.879;  -10.568;58972.445
562.467;51703.836;   -9.727;57327.570
563.051;47944.949;  -11.847;54962.434
563.635;47750.934;  -10.747;52594.473
564.219;46462.188;  -13.108;50610.410
564.802;45046.121;  -11.417;49551.180
565.386;43503.770;  -10.457;48370.953
565.969;47064.551;   -8.959;48178.871
566.553;48214.059;  -10.328;49957.305
567.136;47733.227;  -10.257;50369.594
567.720;46283.039;  -10.186;49492.004
568.303;45698.941;  -10.027;50616.352
568.887;46749.164;  -10.397;50727.148
569.470;48222.797;   -8.185;51698.379
570.053;46145.926;  -11.596;52122.078
570.637;43992.379;  -11.378;52536.438
571.220;43834.313;   -9.138;51186.098
571.803;43202.461;   -7.675;51032.762
572.386;42630.992;   -8.976;49609.887
572.969;43660.184;  -12.477;48285.926
573.552;43048.773;   -9.767;47624.285
574.135;40607.543;   -8.175;45498.641
574.718;36357.887;  -11.096;41970.434
575.301;35853.496;  -11.966;41447.137
575.884;35349.102;  -12.836;40923.836
576.467;40964.836;   -9.116;45267.723
577.050;43120.063;  -10.536;48175.543
577.633;41763.375;  -11.027;47729.328
578.216;40704.992;   -9.946;47579.793
578.799;41351.648;   -9.645;47820.996
579.381;40427.512;   -9.446;48115.551
579.964;40021.980;  -12.217;47333.766
580.547;40522.715;  -10.586;46668.969
581.129;40527.625;   -8.374;44466.141
581.712;40124.742;  -10.434;44164.922
582.294;39560.785;  -10.896;46477.855
582.877;40423.555;   -8.906;48244.254
583.459;40459.766;   -9.994;47437.895
584.042;39321.695;  -10.084;46943.219
584.624;37753.285;  -13.534;46792.227
585.206;38172.977;  -12.716;46557.250
585.789;38395.434;  -11.614;45793.773
586.371;37819.336;  -10.203;43836.391
586.953;36386.371;  -10.314;42972.492
587.536;35041.035;   -9.776;42487.211
588.118;35269.508;   -9.821;42086.414
588.700;36213.566;  -10.073;43389.930
589.282;38007.309;  -12.395;43646.039
589.864;38735.781;  -11.514;43438.109
590.446;39280.875;  -10.803;43151.926
591.028;40430.625;  -11.043;42781.867
591.610;39360.063;  -13.244;42839.098
592.192;36677.203;  -11.095;42820.402
592.774;34356.508;  -10.823;40724.277
593.356;34085.961;  -11.052;39874.789
593.937;35362.410;  -11.664;39980.648
594.519;36803.781;  -10.454;42069.633
595.101;36859.504;  -10.322;42976.031
595.683;35908.645;  -10.042;44084.441
596.264;35275.672;  -14.334;43478.797
596.846;35928.059;  -10.863;43803.672
597.427;36471.535;   -9.901;42986.934
598.009;35830.137;  -10.911;42832.219
598.591;34643.992;  -10.483;42580.086
599.172;33778.832;   -9.663;43061.805
599.753;34022.770;  -10.631;41691.469
600.335;34502.891;   -9.371;40692.520
600.916;36758.063;  -13.992;39982.422
601.498;37948.820;   -8.352;40318.617
602.079;36414.582;   -8.411;40670.609
602.660;39159.887;  -10.841;41450.898
603.241;38536.152;  -12.963;41137.738
603.823;34856.059;  -11.523;38868.797
604.404;32688.930;  -11.881;38182.785
604.985;34352.676;  -11.721;38078.047
605.566;35070.289;   -9.293;38056.633
606.147;33799.484;  -10.940;37020.418
606.728;33024.520;  -11.840;37883.359
607.309;32050.613;  -11.781;38748.273
607.890;31532.211;  -11.262;38850.230
608.471;30275.043;  -10.111;37457.918
609.051;30587.699;   -7.709;36066.457
609.632;30991.104;  -12.409;35991.074
610.213;29362.537;  -10.811;37402.641
610.794;29517.271;  -11.630;38383.363
611.374;30795.523;   -8.030;40562.387
611.955;32128.143;  -10.809;38533.727
612.536;33773.277;  -10.531;36951.789
613.116;34183.789;  -12.820;37197.891
613.697;33834.426;  -11.419;38411.125
614.277;32604.002;   -9.768;38673.938
614.858;30744.463;  -10.251;37075.863
615.438;27343.541;  -11.981;35092.906
616.019;27177.383;   -8.978;33666.301
616.599;30036.361;  -12.219;34189.023
617.179;32577.230;  -14.170;36952.047
617.760;34543.777;   -9.211;39582.574
618.340;34699.512;   -9.018;38943.977
618.920;32985.332;   -9.249;37594.156
619.500;33772.570;  -12.728;37866.938
620.080;35606.602;  -12.939;37869.043
620.660;33978.820;  -11.586;36868.617
621.241;33252.656;  -11.538;36352.309
621.821;33523.082;  -11.398;35459.520
622.401;34579.105;  -10.179;35207.414
622.980;33594.582;  -11.587;35980.422
623.560;32475.459;  -12.888;37351.328
624.140;30487.629;  -13.149;34388.582
624.720;25971.574;   -9.928;32368.764
625.300;25948.637;  -10.869;32638.629
625.880;30009.578;   -8.617;34599.035
626.459;33998.672;  -12.138;36831.738
627.039;34768.793;  -12.267;38299.098
627.619;34715.672;   -7.476;38289.574
628.198;35477.574;  -11.347;37220.695
628.778;34220.637;  -11.678;37632.563
629.357;31679.521;  -12.438;38003.012
629.937;30103.697;   -9.576;38402.039
630.516;29097.041;  -11.096;37868.801
631.096;29250.365;  -11.828;35760.410
631.675;30252.074;  -11.565;35225.219
632.254;30933.559;  -11.845;35130.289
632.834;31697.182;  -11.545;35794.570
633.413;32825.590;  -10.887;35788.922
633.992;34086.176;  -10.175;34532.863
634.571;33065.797;   -9.704;33590.113
635.151;30947.615;  -10.815;34943.863
635.730;31160.826;  -11.617;35352.523
636.309;31493.537;  -10.836;35366.605
636.888;32467.797;   -9.755;36165.637
637.467;33160.973;  -11.684;37515.902
638.046;35307.121;  -11.987;39288.695
638.625;35597.750;  -10.455;38279.699
639.204;33859.805;  -11.234;37741.598
639.782;30588.320;  -12.023;38364.551
640.361;29915.492;  -11.506;36740.621
640.940;29777.141;  -12.316;34950.082
641.519;30616.486;  -11.616;34137.398
642.097;33481.418;   -9.266;35654.258
642.676;33914.875;  -12.936;35637.957
643.255;33615.059;   -9.966;36567.074
643.833;33906.461;   -8.916;37809.434
644.412;35462.742;  -10.936;37337.293
644.990;36884.398;  -12.176;37018.531
645.569;36223.871;  -12.246;36518.469
646.147;35377.500;  -12.107;36186.430
646.726;35310.184;  -12.937;36267.688
647.304;38410.047;  -12.547;36647.625
647.882;38503.695;  -12.597;39286.742
648.461;36064.445;   -9.427;39157.703
649.039;33631.418;   -8.937;35412.883
649.617;32743.879;  -11.067;34744.918
650.195;32611.482;  -10.657;35403.098
650.773;31520.824;  -10.097;35053.797
651.352;29225.863;  -11.887;33756.816
651.930;25380.178;  -13.557;31868.773
652.508;23047.867;  -11.767;33121.551
653.086;23777.119;  -10.777;33564.793
653.663;28008.354;  -12.067;34054.668
654.241;31077.309;  -14.918;35693.309
654.819;31274.197;  -11.788;36422.906
655.397;30543.639;  -11.268;38213.484
655.975;31605.137;  -11.738;39507.625
656.553;31410.383;  -11.018;39498.223
657.130;30169.178;  -12.848;40395.480
657.708;29491.477;  -10.098;39242.020
658.286;29820.098;  -11.678;38920.020
658.863;30743.684;  -11.498;40202.898
659.441;31688.740;  -11.008;39677.938
660.018;32509.982;  -11.048;40413.355
660.596;32103.816;  -12.058;39931.414
661.173;32137.924;  -14.158;39604.531
661.750;31982.432;  -12.298;39700.070
662.328;31598.932;  -10.699;39292.809
662.905;30193.363;  -12.119;38235.648
663.482;26485.307;  -11.829;36212.305
664.060;25229.102;  -11.009;35944.945
664.637;27835.037;  -10.369;35170.785
665.214;28659.879;  -10.459;34197.523
665.791;27312.129;  -12.599;34549.520
666.368;26902.531;  -12.919;35118.578
666.945;28515.930;  -10.699;36019.418
667.522;29052.377;  -11.359;36048.438
668.099;29415.096;  -13.529;36243.914
668.676;30237.855;  -10.229;35958.875
669.253;30066.080;   -9.279;37384.730
669.830;30039.438;  -11.370;36779.629
670.407;31486.113;  -10.950;35231.289
670.984;32228.693;  -12.850;35544.270
671.560;32066.924;   -8.440;35466.867
672.137;30377.424;  -13.520;34280.863
672.714;28812.311;  -13.620;34632.863
673.290;28425.734;  -10.450;35135.422
673.867;27309.352;  -10.960;36114.480
674.443;26299.594;  -13.300;36152.859
675.020;26902.014;  -12.370;35327.238
675.596;26815.443;  -11.250;35795.176
676.173;27228.039;  -11.080;35430.355
676.749;27823.395;  -13.220;33549.516
677.326;30917.615;  -13.000;32210.012
677.902;31771.178;  -12.701;32068.871
678.478;31002.801;  -12.801;32583.891
679.054;30265.104;   -8.601;32088.928
679.631;31763.783;  -12.631;30978.848
680.207;31777.154;   -9.451;33160.887
680.783;30150.996;  -11.701;35570.363
681.359;29985.561;  -12.701;36125.184
681.935;28637.613;  -13.271;35240.922
682.511;27546.656;  -10.791;34429.961
683.087;28690.076;  -10.791;34463.680
683.663;29407.359;   -8.121;34648.898
684.239;30903.449;  -13.261;34546.457
684.815;29113.563;  -10.581;35586.375
685.390;26472.576;   -9.961;35821.895
685.966;25481.938;  -11.182;35085.871
686.542;25286.705;  -13.512;34198.230
687.118;26127.100;  -11.472;32847.707
687.693;26233.541;  -10.152;32794.027
688.269;27993.598;  -14.442;33072.367
688.844;29292.139;  -11.852;33141.664
689.420;27374.461;  -13.942;33965.742
689.995;25908.148;   -9.702;34655.523
690.571;25877.199;  -11.312;33576.742
691.146;25686.490;  -14.332;32657.219
691.722;27690.203;  -11.192;32526.979
692.297;28986.617;  -10.962;33014.617
692.872;27665.475;  -11.082;34012.254
693.448;27209.754;  -14.732;34237.434
694.023;27278.764;  -12.363;34142.672
694.598;27609.738;  -12.393;34132.031
695.173;27030.869;  -11.023;34205.250
695.748;27043.578;  -12.743;32882.488
696.323;28667.039;  -11.103;32864.906
696.898;29885.646;   -8.123;33170.004
697.473;29614.715;  -12.603;32432.984
698.048;28352.973;  -12.553;31649.303
698.623;29210.313;  -12.573;30778.141
699.198;30984.465;  -12.743;31140.119
699.773;28709.482;  -12.843;31764.299
700.348;28012.178;  -16.683;31780.816
700.922;28736.133;  -11.403;32046.375
701.497;29420.375;  -11.253;32603.574
702.072;29222.781;  -10.044;34799.871
702.646;27653.133;  -13.054;35793.172
703.221;26457.541;  -11.414;35201.590
703.795;27295.322;  -10.644;34764.527
704.370;28434.395;  -13.484;34307.367
704.944;28102.803;  -12.144;33509.887
705.519;27455.891;  -12.024;31388.584
706.093;26593.221;  -11.234;31340.104
706.668;25252.973;   -9.874;32630.281
707.242;24955.100;  -12.404;32728.779
707.816;24500.748;  -10.644;32947.238
708.390;24735.439;  -11.174;33277.855
708.965;25970.371;  -10.324;33834.336
709.539;25540.910;  -12.014;33709.273
710.113;25420.072;  -12.295;33044.313
710.687;26000.053;  -10.965;31953.992
711.261;26497.279;  -13.685;30505.949
711.835;25734.902;  -15.335;30262.369
712.409;25378.354;  -13.785;31254.447
712.983;26777.961;  -10.525;32754.986
713.557;28045.723;  -13.175;34018.824
714.131;28714.209;  -13.245;34579.625
714.704;29674.645;  -13.175;33890.262
715.278;30384.303;  -11.545;33531.102
715.852;28902.270;  -10.975;33601.660
716.425;28323.092;  -10.075;33515.117
716.999;28112.670;  -12.185;33185.555
717.573;28851.916;   -9.685;33905.996
718.146;30001.453;  -10.516;35199.293
718.720;26602.051;  -12.106;35060.551
719.293;26460.070;  -12.386;34973.230
719.867;28366.576;  -12.456;36394.449
720.440;27607.729;  -10.686;36663.008
721.013;27630.939;  -12.596;35102.426
721.587;28045.348;  -13.956;33985.266
722.160;27603.629;   -9.806;33524.965
722.733;28271.572;  -11.676;32987.043
723.306;28366.736;  -14.276;33066.301
723.880;28193.508;  -12.126;33399.500
724.453;28615.719;  -10.156;33468.297
725.026;27545.410;  -12.956;33816.637
725.599;26077.068;  -11.676;32797.996
726.172;25711.598;  -12.337;33187.434
726.745;27042.902;  -11.277;35136.613
727.318;26090.885;  -11.927;35751.730
727.891;25054.602;  -13.607;35890.430
728.463;25187.396;  -11.327;34822.090
729.036;25197.871;  -11.917;32895.086
729.609;26269.625;  -12.697;31823.225
730.182;27385.533;  -11.787;31445.283
730.754;28189.816;  -12.957;32373.223
731.327;28598.988;  -11.017;33676.820
731.900;27076.787;  -12.797;33417.000
732.472;25100.701;  -10.677;31978.498
733.045;24596.523;  -12.797;30368.777
733.617;24849.424;  -13.908;30574.215
734.190;24714.711;  -12.258;31280.975
734.762;25706.426;  -13.438;31674.412
735.334;25732.047;  -11.758;31247.291
735.907;25788.707;  -11.158;29876.211
736.479;26625.498;  -11.258;29808.488
737.051;28204.654;  -10.918;30233.547
737.623;29302.740;  -11.038;31469.086
738.195;28483.121;  -12.188;31784.225
738.768;25824.381;  -11.378;32120.523
739.340;25461.154;  -12.598;32094.342
739.912;26277.426;  -11.568;31312.680
740.484;25951.098;   -9.348;31946.238
741.056;25257.055;  -12.628;32984.059
741.628;25574.988;  -13.349;33897.715
742.199;25957.826;  -11.309;33213.016
742.771;26698.023;  -12.699;31369.113
743.343;28308.260;  -11.919;31865.473
743.915;28269.938;  -11.679;32388.631
744.487;26803.688;  -12.249;31079.568
745.058;25329.607;  -11.119;30570.107
745.630;24092.875;   -9.439;29970.127
746.201;23727.895;  -11.949;29186.766
746.773;23312.346;  -12.639;28805.723
747.344;22751.650;  -11.039;29591.223
747.916;21905.648;  -12.549;31412.201
748.487;21233.227;  -12.659;32194.898
749.059;21382.615;  -13.059;32533.719
749.630;21885.244;  -12.080;32158.518
750.201;20933.398;  -13.100;30855.395
750.773;19824.477;  -15.310;28622.555
751.344;20037.506;  -12.240;28405.732
751.915;20427.707;  -11.960;28461.551
752.486;20574.660;  -13.200;27842.850
753.057;20074.488;  -15.230;27845.008
753.628;19434.990;  -13.130;27728.107
754.199;19501.330;  -12.720;27381.086
754.770;19454.334;  -10.680;25882.203
755.341;19569.512;  -11.010;25886.184
755.912;18889.783;  -12.990;26050.861
756.483;17885.707;  -11.110;26798.779
757.054;17396.713;  -12.190;27048.238
757.625;17442.996;  -13.981;26294.838
758.195;17928.951;  -11.041;26142.076
758.766;19321.605;  -11.861;26392.234
759.337;19953.105;  -11.461;26334.594
759.907;19948.996;  -15.001;27579.652
760.478;19672.350;   -9.681;28352.770
761.048;19089.199;  -12.421;27325.088
761.619;18259.338;  -11.761;26460.428
762.189;17081.297;  -12.391;26029.826
762.760;17074.525;  -10.201;26430.145
763.330;18254.139;  -10.811;26670.902
763.900;20232.168;  -10.261;26603.021
764.471;19376.232;  -13.061;25542.740
765.041;18407.631;  -11.051;24358.459
765.611;18519.627;  -11.032;23991.297
766.181;18366.781;  -10.532;24470.236
766.751;18011.504;  -13.502;24845.975
767.321;17865.424;  -11.392;24533.633
767.891;18056.871;  -11.522;24916.492
768.461;18735.016;  -13.672;24776.771
769.031;18374.076;  -14.652;24757.988
769.601;17325.961;  -10.182;24181.088
770.171;15585.494;  -11.752;23670.387
770.741;14809.334;  -12.272;22960.045
771.311;14978.353;  -13.112;22917.523
771.880;15024.832;  -14.122;23562.941
772.450;16193.512;  -11.782;24216.500
773.020;17237.816;  -12.642;24140.398
773.589;16065.540;  -13.043;24414.857
774.159;14240.896;  -11.783;23858.717
774.729;13848.014;  -13.473;22942.135
775.298;15221.166;  -14.523;22324.033
775.867;16069.484;  -12.013;21140.313
776.437;15142.154;  -12.113;20838.092
777.006;13676.151;  -13.543;20599.510
777.576;12219.129;  -12.523;20508.809
778.145;12385.038;  -12.173;20732.947
778.714;13557.391;  -12.153;21062.465
779.283;13959.526;  -11.833;20949.664
779.853;14302.976;  -13.483;20508.623
780.422;14690.237;  -12.933;20649.082
780.991;13969.798;  -13.173;21527.520
781.560;12620.181;  -10.224;22632.658
782.129;12493.525;  -12.684;23048.277
782.698;13719.269;  -11.284;23438.555
783.267;14482.537;  -11.684;23267.734
783.836;13513.883;  -10.974;22415.133
784.404;12510.766;  -13.534;20443.152
784.973;12626.794;  -16.734;19699.150
785.542;12600.162;  -12.594;19763.828
786.111;12239.581;  -11.644;20341.408
786.679;12727.991;  -11.384;20207.967
787.248;13312.403;  -12.014;19516.465
787.817;12308.388;  -12.804;18900.363
788.385;11175.280;  -11.994;17879.121
788.954;11169.948;  -12.564;17658.301
789.522;12177.655;  -12.225;17788.879
790.090;12215.883;  -13.775;18118.277
790.659;11448.273;  -12.485;18338.736
791.227;11274.974;  -12.295;18508.615
791.795;11431.320;  -13.415;17898.254
792.364;11014.323;  -12.995;17295.133
792.932;10680.945;   -8.365;16822.051
793.500;10787.665;  -11.925;17040.148
794.068;10851.151;  -13.245;17179.787
794.636;10711.022;  -13.815;16664.246
795.204;10190.612;  -13.375;16524.545
795.772;10258.920;  -12.125;17274.564
796.340;10662.905;  -13.855;17891.002
796.908;10794.817;  -13.456;17648.561
797.476;10258.890;  -13.116;17064.080
798.044; 9988.960;  -13.226;16672.777
798.612;10697.095;  -11.236;17023.996
799.180;11455.893;  -10.476;16561.615
799.747;11445.441;  -11.746;15962.773
800.315;10604.491;  -12.366;15296.992
800.883; 9823.156;  -14.616;14801.771
801.450; 9691.822;  -11.996;14534.430
802.018;10189.474;  -11.206;14173.248
802.585; 9473.509;  -12.466;14029.547
803.153; 8441.036;  -12.846;13836.846
803.720; 8212.209;  -12.136;13567.324
804.287; 8434.209;  -10.966;13360.622
804.855; 8891.708;   -9.797;13681.981
805.422; 8731.702;  -13.037;13536.560
805.989; 8413.153;  -12.697;13355.958
806.556; 8616.667;  -11.737;13747.896
807.124; 8953.221;  -11.997;13987.376
807.691; 8551.733;  -13.997;14038.674
808.258; 8471.488;  -10.927;14120.152
808.825; 9016.383;  -13.727;13860.111
809.392; 9326.660;  -11.847;13268.790
809.959; 8553.411;  -14.217;12680.389
810.526; 7781.271;   -8.277;12427.308
811.093; 7741.673;   -9.647;12030.105
811.659; 7596.840;  -10.987;11653.664
812.226; 7102.358;  -13.447;11637.183
812.793; 7218.489;  -14.418;11611.521
813.360; 7635.739;  -13.908;11885.181
813.926; 7682.601;  -12.918;12770.539
814.493; 7657.580;  -14.888;12677.638
815.060; 7730.533;  -12.758;11974.336
815.626; 7967.816;  -13.478;11594.715
816.193; 7919.819;  -13.898;11579.474
816.759; 7612.342;  -13.588;11666.972
817.325; 7504.805;  -12.018;11325.530
817.892; 7007.100;  -14.068;11105.369
818.458; 6414.464;  -13.458;10843.928
819.024; 6211.649;  -11.968;10714.406
819.591; 5934.954;  -11.028;10469.165
820.157; 5710.310;  -12.088;10235.523
820.723; 5587.328;  -12.599;10847.563
821.289; 5869.405;  -10.419;11040.980
821.855; 6580.121;  -10.939;10357.100
822.421; 7069.687;  -12.539; 9978.918
822.987; 6888.988;  -13.259; 9754.177
823.553; 6294.248;  -15.369;10065.755
824.119; 6029.385;  -10.779;10036.294
824.685; 5595.745;   -9.999;10029.192
825.251; 5245.474;  -11.819;10199.230
825.816; 5049.461;  -13.369; 9820.189
826.382; 5202.590;  -12.679; 9297.248
826.948; 5352.559;  -11.199; 9381.347
827.513; 5195.466;  -11.179; 9450.726
828.079; 5185.261;  -13.489; 9472.444
828.645; 5455.257;  -12.500; 9292.643
829.210; 5654.006;  -15.120; 9065.341
829.776; 5525.089;  -12.590; 9132.620
830.341; 5389.612;  -11.540; 9092.878
830.906; 5473.828;  -12.400; 9078.557
831.472; 5358.608;  -12.720; 8534.535
832.037; 4866.581;  -11.490; 8677.874
832.602; 4417.598;  -14.380; 8628.692
833.167; 4601.813;  -12.780; 8879.031
833.733; 4878.907;  -11.100; 9189.790
834.298; 5115.391;  -12.080; 9052.608
834.863; 4988.520;  -13.910; 8895.087
835.428; 4711.846;  -13.470; 8824.266
835.993; 5023.499;  -11.760; 8845.385
836.558; 5466.658;  -12.731; 8888.563
837.123; 5507.506;  -12.431; 8966.582
837.688; 5211.807;  -11.241; 8617.860
838.253; 4877.925;  -13.681; 8590.699
838.817; 4703.747;  -12.531; 8443.797
839.382; 4935.035;  -12.671; 8799.356
839.947; 4871.430;  -11.541; 8810.595
840.511; 4664.992;  -12.021; 8796.394
841.076; 4589.361;  -13.071; 8347.231
841.641; 4436.159;  -11.411; 8224.330
842.205; 4321.322;  -13.671; 8223.349
842.770; 4380.591;  -11.291; 8622.107
843.334; 4480.951;  -12.951; 8410.386
843.898; 4493.864;  -11.221; 8337.465
844.463; 4405.801;  -11.322; 8506.283
845.027; 4125.390;  -11.412; 8280.962
845.591; 3892.524;  -11.512; 8231.141
846.156; 4057.306;  -14.042; 7969.179
846.720; 4289.622;  -12.152; 7768.278
847.284; 4297.590;  -10.922; 7630.957
847.848; 4033.945;  -10.962; 7472.395
848.412; 3726.391;  -14.612; 7437.394
848.976; 3744.122;  -11.492; 7674.592
849.540; 3795.011;   -9.172; 7836.011
850.104; 4138.349;  -11.232; 7913.669
850.668; 4414.905;  -15.182; 7694.508
851.232; 4084.358;  -15.332; 7756.887
851.796; 3908.158;  -13.703; 7926.545
852.359; 3980.388;  -11.113; 7827.844
852.923; 3836.874;  -11.843; 7641.163
853.487; 3634.278;  -11.173; 7342.501
854.050; 3446.657;  -13.443; 7042.820
854.614; 3361.818;  -13.823; 7151.338
855.177; 3478.079;  -16.393; 7105.077
855.741; 3569.288;  -11.693; 6989.675
856.304; 3543.006;  -10.843; 6596.634
856.868; 3444.116;  -13.783; 6356.272
857.431; 3242.331;  -11.953; 6468.571
857.995; 3117.599;  -13.683; 6373.210
858.558; 3075.184;  -11.433; 6324.448
859.121; 3043.043;  -12.493; 6408.327
859.684; 3114.566;  -12.384; 6347.886
860.247; 3145.078;  -14.774; 6321.264
860.810; 2981.886;  -13.154; 6301.903
861.374; 2835.049;  -11.264; 6607.881
861.937; 2776.435;  -15.424; 6408.200
862.500; 2794.696;  -12.854; 6572.639
863.062; 2826.512;  -12.344; 6387.297
863.625; 2830.229;  -13.314; 6190.836
864.188; 2703.856;  -14.724; 5807.254
864.751; 2646.910;  -13.464; 5682.413
865.314; 2637.200;  -11.684; 5547.492
865.876; 2682.231;  -11.104; 5500.150
866.439; 2781.932;  -12.344; 5415.909
867.002; 2778.767;  -13.494; 5501.567
867.564; 2764.562;  -10.935; 5413.946
868.127; 2682.661;  -12.665; 5160.325
868.689; 2590.371;  -14.515; 5133.183
869.252; 2603.144;  -13.425; 5252.382
869.814; 2648.120;  -11.595; 5297.141
870.377; 2652.316;  -12.175; 5390.919
870.939; 2528.100;  -10.265; 5599.898
871.501; 2433.002;  -12.375; 5248.336
872.063; 2393.438;  -14.355; 4854.235
872.626; 2398.025;  -14.435; 4817.074
873.188; 2311.125;  -12.415; 4987.732
873.750; 2257.135;  -14.555; 4868.651
874.312; 2285.027;  -11.185; 4779.330
874.874; 2267.686;  -12.715; 4866.348
875.436; 2158.596;  -13.196; 4718.887
875.998; 2042.485;  -11.426; 4660.005
876.560; 1967.752;   -9.786; 4462.964
877.122; 1932.986;  -12.796; 4145.042
877.683; 1849.296;  -13.226; 4056.481
878.245; 1709.758;  -12.036; 3950.740
878.807; 1599.440;  -11.536; 4058.958
879.369; 1627.713;  -10.806; 3954.677
879.930; 1773.231;  -13.946; 3941.495
880.492; 1835.411;  -11.876; 4067.014
881.053; 1685.105;  -13.216; 3859.633
881.615; 1572.058;  -12.226; 3776.071
882.176; 1513.708;  -12.946; 3734.750
882.738; 1501.991;  -10.736; 3678.489
883.299; 1462.238;  -12.057; 3405.407
883.860; 1377.699;  -12.677; 3351.106
884.422; 1323.168;  -14.097; 3394.044
884.983; 1270.112;  -13.667; 3166.443
885.544; 1211.665;  -10.717; 3189.802
886.105; 1148.807;  -14.357; 3160.360
886.666; 1081.987;  -14.287; 3093.059
887.227; 1015.322;  -14.297; 2941.957
887.788;  965.342;  -13.137; 2974.836
888.349;  904.838;  -14.637; 2721.214
888.910;  857.117;  -12.247; 2696.493
889.471;  860.069;  -10.577; 2560.172
890.032;  867.928;  -12.937; 2558.190
890.593;  871.567;  -12.487; 2567.669
891.153;  848.574;  -11.898; 2460.307
891.714;  817.320;  -14.278; 2372.046
892.275;  791.508;  -13.308; 2309.505
892.835;  728.154;  -12.058; 2382.543
893.396;  645.831;  -15.268; 2295.502
893.956;  602.347;  -13.278; 2162.420
894.517;  582.985;  -11.968; 2125.439
895.077;  583.066;  -12.798; 2086.978
895.638;  560.715;  -11.908; 2126.316
896.198;  533.517;  -13.288; 1838.275
896.758;  510.297;  -12.198; 1892.813
897.319;  484.976;  -13.048; 1792.232
897.879;  451.766;  -13.718; 1762.751
898.439;  410.814;  -14.138; 1661.149
898.999;  386.045;  -13.659; 1781.468
899.559;  375.967;  -14.699; 1703.347
900.119;  357.443;  -14.339; 1537.525
900.679;  334.733;  -11.789; 1638.384
901.239;  308.140;  -13.629; 1527.902
901.799;  287.427;  -13.679; 1456.441
902.359;  276.838;  -13.679; 1357.140
902.919;  269.004;  -14.159; 1331.118
903.479;  256.351;  -13.419; 1317.257
904.038;  240.413;  -14.899; 1262.595
904.598;  227.501;  -14.339; 1152.034
905.158;  217.793;  -13.959; 1240.893
905.717;  213.139;  -12.749; 1233.691
906.277;  208.959;  -11.889; 1217.330
906.836;  203.244;  -12.870; 1222.408
907.396;  197.504;  -11.790; 1193.047
907.955;  189.141;  -13.750; 1182.526
908.515;  179.848;  -14.760; 1099.364
909.074;  176.092;  -12.540; 1092.863
909.633;  171.572;  -12.120; 1069.121
910.192;  166.006;  -12.550; 1196.460
910.752;  160.896;  -12.760; 1029.960
911.311;  157.636;  -14.750; 1009.780
911.870;  156.395;  -13.860;  971.460
912.429;  157.548;  -13.480; 1094.080
912.988;  155.367;  -12.370; 1081.060
913.547;  152.360;  -14.670;  940.380
914.106;  150.329;  -12.800;  999.420
914.665;  149.263;  -11.370;  984.020
915.224;  146.075;  -11.430; 1035.760
915.782;  143.417;  -12.260;  922.560
916.341;  143.380;  -12.540; 1049.840
916.900;  140.228;  -12.540;  925.260
917.458;  138.303;  -13.480;  884.220
918.017;  137.519;  -12.470;  942.600
918.576;  137.079;  -13.450;  904.440
919.134;  136.501;  -12.890;  837.980
919.693;  134.206;  -15.480;  893.060
920.251;  134.445;  -14.420;  876.500
920.809;  133.295;  -12.170;  839.580
921.368;  131.357;  -13.650;  885.360
921.926;  130.225;  -12.750;  842.940
922.484;  128.977;  -14.150;  903.360
923.042;  130.621;  -15.100;  880.340
923.601;  131.596;  -10.990;  998.680
924.159;  131.967;  -12.470;  935.560
924.717;  132.350;  -15.640;  841.080
925.275;  132.907;  -12.380;  903.240
925.833;  133.487;  -12.710;  779.320
926.391;  136.149;  -11.200;  938.380
926.949;  136.392;  -16.000;  857.680
927.506;  137.833;  -12.260;  903.500
928.064;  138.986;  -11.300;  877.580
928.622;  139.057;  -13.750;  880.100
929.180;  138.845;  -15.290;  814.180
929.737;  139.784;  -14.500;  808.540
930.295;  140.975;  -10.630;  928.480
930.853;  142.729;  -14.590;  849.100
931.410;  143.772;  -14.450;  821.120
931.968;  146.755;  -14.390;  940.660
932.525;  147.626;  -13.050;  909.380
933.082;  151.558;  -15.620;  811.440
933.640;  159.975;  -15.650;  925.900
934.197;  163.946;  -13.610;  886.360
934.754;  166.782;  -13.320;  897.780
935.312;  165.086;  -13.370;  863.340
935.869;  169.965;  -12.780; 1012.980
936.426;  170.390;  -14.480;  872.800
936.983;  172.621;  -13.180;  889.020
937.540;  173.927;  -15.710;  838.280
938.097;  172.038;  -14.980;  940.120
938.654;  170.091;  -13.060;  898.860
939.211;  168.939;  -12.760;  952.480
939.768;  170.030;  -16.230;  915.420
940.324;  175.705;  -10.940;  904.200
940.881;  178.769;  -12.570;  878.500
941.438;  182.012;  -13.650; 1021.200
941.995;  178.044;  -13.300;  992.560
942.551;  176.788;  -15.800;  875.620
943.108;  175.870;  -14.180;  937.920
943.664;  169.750;  -13.890;  869.340
944.221;  168.742;  -12.640; 1088.140
944.777;  168.967;  -14.700;  869.680
945.334;  172.612;  -13.010;  884.840
945.890;  172.720;  -13.480;  946.480
946.446;  170.252;  -14.920;  947.020
947.003;  171.704;  -13.860;  964.940
947.559;  172.671;  -12.000; 1063.040
948.115;  169.307;  -10.510; 1026.540
948.671;  167.008;  -12.760;  967.300
949.227;  165.043;  -15.390;  859.560
949.783;  161.828;  -15.570;  858.900
950.339;  160.448;  -12.800;  991.000
950.895;  158.230;  -13.780; 1023.840
951.451;  154.962;  -13.810;  925.280
952.007;  154.168;  -12.390;  998.540
952.563;  151.692;  -11.980;  937.780
953.118;  148.838;  -14.070;  904.940
953.674;  148.468;  -14.140;  935.780
954.230;  148.229;  -12.680;  949.640
954.785;  149.799;  -12.770;  936.640
955.341;  150.452;  -11.450;  998.160
955.897;  145.000;  -15.350;  834.660
956.452;  144.330;  -14.200;  953.840
957.008;  143.361;  -10.820; 1083.640
957.563;  139.250;  -13.200; 1009.540
958.118;  135.438;  -14.460;  877.700
958.674;  136.807;  -13.840;  946.780
959.229;  138.482;  -10.670; 1013.980
959.784;  139.039;  -17.040;  832.400
960.339;  141.067;  -12.970; 1001.280
960.894;  140.994;  -12.700;  963.760
961.449;  140.804;  -13.790;  859.960
962.004;  144.223;  -11.760; 1212.840
962.559;  143.208;  -14.840;  860.140
963.114;  142.669;  -14.530;  742.480
963.669;  143.910;  -12.780;  915.500
964.224;  141.818;  -14.330;  874.340
964.779;  135.994;  -14.380;  828.420
965.334;  133.458;  -12.460; 1017.860
965.888;  130.096;  -13.490;  875.360
966.443;  130.467;  -14.140;  972.380
966.998;  126.935;  -16.240;  819.460
967.552;  125.378;  -12.730;  908.380
968.107;  121.983;  -14.510;  868.300
968.661;  123.265;  -11.850;  922.440
969.216;  122.029;  -14.370;  856.280
969.770;  120.166;  -13.010;  917.200
970.324;  118.206;  -12.460;  923.140
970.879;  116.906;  -11.580;  947.180
971.433;  117.508;  -13.130;  952.720
971.987;  114.379;  -12.360;  895.340
972.541;  114.078;  -14.330;  917.100
973.095;  115.728;  -13.310; 1009.460
973.649;  114.181;  -15.830;  809.480
974.203;  115.772;  -15.830;  829.040
974.757;  118.336;  -13.480;  855.220
975.311;  117.167;  -13.720;  872.600
975.865;  114.931;  -15.780;  881.820
976.419;  111.824;  -14.290;  857.400
976.973;  110.047;  -13.210;  849.620
977.526;  108.482;  -12.300;  949.920
978.080;  104.440;  -14.840;  796.780
978.634;  104.837;  -13.100;  921.320
979.187;  100.809;  -12.300;  905.400
979.741;   99.752;  -12.020; 1018.380
980.294;   93.330;  -14.590;  789.160
980.848;   89.546;  -14.390;  717.220
981.401;   90.887;  -14.280;  816.540
981.955;   89.681;  -11.920;  844.300
982.508;   87.005;  -15.790;  746.340
983.061;   87.255;  -12.070;  915.260
983.615;   84.852;  -13.260;  798.800
984.168;   82.943;  -15.540;  770.080
984.721;   82.496;  -13.230;  880.760
985.274;   81.682;  -11.820;  867.500
985.827;   79.434;  -13.510;  834.220
986.380;   76.070;  -14.840;  721.340
986.933;   76.066;  -13.970;  864.800
987.486;   74.956;  -12.450;  861.920
988.039;   73.017;  -11.170;  863.100
988.591;   71.290;  -13.070;  893.260
989.144;   67.384;  -15.530;  737.260
989.697;   66.017;  -14.300;  758.740
990.250;   64.742;  -13.310;  858.100
990.802;   63.530;  -14.490;  755.860
991.355;   65.777;  -12.980;  974.880
991.907;   64.212;  -13.715;  864.320
992.460;   62.647;  -14.450;  753.760
993.012;   61.117;  -12.590;  749.540
993.565;   60.195;  -15.180;  711.360
994.117;   61.073;  -11.630;  950.780
994.669;   57.889;  -13.760;  701.320
995.221;   56.366;  -12.710;  791.920
995.774;   56.311;  -14.620;  787.580
996.326;   54.750;  -13.150;  740.220
996.878;   56.299;  -12.880;  838.420
997.430;   53.796;  -14.580;  699.860
997.982;   53.553;  -14.030;  750.140
998.534;   52.536;  -12.190;  739.060
999.086;   51.434;  -12.990;  738.220
999.638;   50.134;  -13.180;  661.380
1000.190;   49.791;  -14.970;  699.320
1000.741;   50.062;  -12.200;  742.700
1001.293;   49.472;  -13.400;  686.020
1001.845;   48.090;  -14.490;  676.640
1002.396;   48.948;  -15.280;  743.400
1002.948;   49.820;  -12.380;  737.400
1003.500;   47.400;  -13.260;  723.780
1004.051;   48.822;  -13.730;  907.580
1004.603;   47.687;  -12.300;  791.820
1005.154;   43.908;  -15.330;  608.980
1005.705;   43.481;  -12.800;  723.960
1006.257;   42.292;  -13.900;  707.220
1006.808;   41.330;  -14.430;  685.460
1007.359;   42.059;  -12.010;  763.240
1007.910;   39.216;  -12.690;  646.640
1008.461;   39.361;  -13.610;  732.940
1009.013;   38.319;  -14.990;  588.340
1009.564;   39.689;  -11.860;  793.520
1010.115;   36.543;  -12.640;  597.040
1010.665;   36.507;  -14.570;  602.160
1011.216;   37.510;  -15.190;  667.920
1011.767;   36.621;  -13.470;  697.920
1012.318;   37.331;  -13.760;  736.980
1012.869;   35.592;  -15.950;  679.000
1013.419;   35.572;  -15.880;  603.120
1013.970;   35.615;  -14.540;  666.640
1014.521;   35.042;  -13.220;  620.620
1015.071;   35.130;  -15.020;  670.380
1015.622;   34.852;  -17.510;  635.460
1016.172;   33.734;  -14.130;  596.820
1016.723;   33.593;  -14.220;  614.380
1017.273;   33.082;  -15.370;  604.160
1017.823;   33.763;  -15.290;  650.340
1018.374;   32.475;  -13.420;  611.760
1018.924;   33.156;  -11.740;  716.880
1019.474;   33.834;  -12.250;  718.880
1020.024;   32.090;  -15.850;  657.580
1020.574;   32.973;  -13.280;  726.160
1021.124;   32.522;  -13.560;  673.580
1021.674;   31.373;  -13.790;  559.120
1022.224;   31.920;  -14.610;  708.940
1022.774;   30.842;  -13.100;  668.820
1023.324;   32.451;  -11.470;  753.520
1023.874;   33.142;  -11.990;  875.760
1024.423;   30.794;  -14.550;  613.700
1024.973;   30.464;  -14.440;  610.760
1025.523;   29.525;  -13.250;  620.960
1026.072;   29.494;  -15.200;  606.420
1026.622;   29.544;  -14.590;  675.740
1027.172;   30.634;  -11.080;  715.660
1027.721;   28.733;  -14.010;  601.220
1028.270;   28.906;  -13.690;  663.400
1028.820;   28.861;  -15.380;  638.080
1029.369;   28.646;  -14.980;  612.700
1029.918;   28.743;  -13.100;  649.840
1030.468;   28.242;  -13.680;  564.780
1031.017;   29.084;  -13.770;  634.800
1031.566;   27.293;  -14.100;  608.900
1032.115;   28.589;  -11.770;  694.500
1032.664;   27.491;  -14.940;  596.480
1033.213;   27.706;  -13.370;  735.420
1033.762;   27.111;  -13.660;  635.620
1034.311;   26.665;  -13.650;  677.220
1034.860;   27.656;  -13.820;  691.000
1035.408;   27.692;  -12.860;  722.720
1035.957;   27.378;  -13.060;  719.540
1036.506;   24.784;  -14.510;  530.800
1037.055;   27.673;  -13.470;  844.320
1037.603;   26.257;  -14.800;  664.000
1038.152;   25.084;  -14.190;  534.760
1038.700;   25.576;  -11.810;  585.740
1039.249;   24.995;  -12.850;  681.220
1039.797;   25.523;  -14.610;  633.360
1040.345;   24.986;  -15.220;  705.420
1040.894;   24.877;  -13.480;  625.300
1041.442;   24.013;  -13.310;  632.200
1041.990;   23.751;  -14.510;  559.160
1042.538;   22.741;  -15.700;  536.180
1043.087;   23.532;  -13.910;  570.860
1043.635;   24.114;  -13.620;  670.500
1044.183;   23.625;  -14.230;  586.400
1044.731;   23.279;  -13.730;  576.000
1045.279;   23.253;  -13.970;  674.920
1045.827;   25.658;  -10.750;  892.400
1046.374;   21.722;  -15.230;  515.420
1046.922;   21.362;  -15.390;  590.580
1047.470;   23.189;  -12.320;  691.300
1048.018;   22.771;  -13.230;  647.960
1048.565;   23.204;  -13.390;  708.600
1049.113;   21.415;  -15.030;  557.000
1049.660;   21.453;  -12.540;  629.660
1050.208;   22.116;  -15.040;  675.640
1050.755;   21.261;  -14.680;  606.580
1051.303;   21.958;  -13.610;  686.820
1051.850;   21.725;  -14.340;  635.120
1052.397;   19.424;  -16.330;  473.960
1052.945;   20.238;  -15.710;  617.760
1053.492;   22.258;  -12.320;  741.840
1054.039;   21.719;  -13.730;  720.180
1054.586;   19.226;  -16.140;  557.240
1055.133;   21.397;  -14.020;  693.140
1055.680;   20.595;  -13.430;  646.620
1056.227;   20.214;  -14.570;  542.780
1056.774;   21.493;  -14.400;  794.980
1057.321;   19.191;  -14.230;  523.260
1057.868;   20.037;  -14.220;  651.320
1058.415;   19.557;  -14.060;  651.980
1058.961;   19.919;  -14.640;  678.940
1059.508;   19.155;  -13.970;  643.820
1060.055;   18.527;  -15.100;  581.780
1060.601;   20.104;  -12.180;  624.300
1061.148;   18.552;  -15.010;  616.820
1061.694;   18.292;  -14.750;  592.580
1062.241;   18.944;  -14.130;  596.320
1062.787;   18.858;  -14.770;  663.140
1063.334;   20.933;  -13.130;  808.560
1063.880;   19.347;  -14.420;  668.360
1064.426;   19.747;  -13.130;  706.820
1064.972;   17.128;  -13.960;  601.340
1065.518;   16.263;  -13.680;  566.640
1066.065;   17.505;  -15.720;  624.460
1066.611;   16.168;  -13.970;  598.800
1067.157;   16.991;  -13.920;  641.860
1067.703;   17.322;  -14.760;  668.480
1068.249;   17.386;  -14.490;  605.220
1068.794;   17.044;  -14.740;  626.880
1069.340;   16.784;  -13.220;  578.960
1069.886;   16.705;  -14.930;  590.700
1070.432;   15.170;  -14.700;  541.720
1070.977;   15.776;  -14.470;  601.080
1071.523;   16.148;  -14.330;  573.060
1072.068;   16.162;  -14.960;  582.000
1072.614;   15.799;  -16.220;  527.760
1073.160;   17.027;  -11.280;  687.040
1073.705;   14.143;  -15.990;  572.520
1074.250;   15.350;  -16.550;  559.900
1074.796;   16.358;  -14.600;  655.160
1075.341;   17.081;  -13.440;  664.100
1075.886;   15.331;  -14.450;  594.240
1076.431;   15.153;  -13.160;  649.880
1076.976;   15.531;  -14.710;  639.220
1077.521;   14.434;  -14.000;  583.080
1078.067;   14.678;  -14.470;  579.400
1078.612;   14.472;  -14.530;  661.620
1079.156;   14.654;  -15.660;  601.540
1079.701;   15.193;  -16.120;  693.260
1080.246;   14.882;  -12.960;  696.300
1080.791;   14.899;  -13.700;  625.020
1081.336;   14.996;  -15.540;  659.320
1081.880;   14.235;  -14.640;  649.680
1082.425;   13.970;  -14.220;  573.480
1082.970;   15.338;  -11.890;  717.040
1083.514;   13.249;  -13.820;  597.000
1084.059;   12.746;  -14.280;  586.720
1084.603;   12.909;  -12.890;  565.840
1085.147;   13.323;  -13.590;  645.220
1085.692;   14.769;  -14.050;  716.800
1086.236;   11.639;  -14.990;  503.140
1086.780;   14.215;  -12.640;  751.440
1087.325;   13.522;  -15.550;  654.620
1087.869;   13.733;  -14.980;  610.700
1088.413;   13.457;  -13.440;  705.040
1088.957;   10.978;  -12.170;  543.400
1089.501;   13.877;  -12.730;  766.640
1090.045;   12.975;  -14.650;  726.480
1090.589;   10.975;  -14.500;  569.920
1091.133;   12.400;  -12.320;  673.340
1091.676;   11.705;  -16.130;  591.940
1092.220;   11.768;  -13.930;  600.920
1092.764;   13.099;  -12.820;  706.960
1093.307;   12.019;  -11.700;  673.780
1093.851;   10.159;  -15.600;  556.540
1094.395;   11.983;  -13.920;  683.140
1094.938;   10.672;  -16.090;  632.520
1095.482;   10.882;  -13.820;  559.800
1096.025;   12.124;  -12.720;  710.880
1096.568;   12.007;  -12.100;  779.280
1097.112;    9.084;  -15.450;  508.180
1097.655;   11.251;  -14.310;  603.000
1098.198;    9.668;  -14.740;  600.180
1098.741;   10.050;  -15.550;  612.860
1099.285;   10.461;  -12.600;  657.300
1099.828;    8.438;  -15.050;  439.400
1100.371;   10.516;  -14.800;  608.160
1100.914;    9.984;  -16.480;  682.660
1101.457;   10.842;  -12.990;  679.900
1101.999;    9.314;  -14.110;  584.680
1102.542;   10.019;  -11.450;  641.440
1103.085;    9.477;  -13.350;  658.500
1103.628;   10.502;  -13.200;  762.060
1104.170;    9.479;  -12.310;  588.280
1104.713;    9.953;  -14.320;  646.700
1105.256;    8.688;  -16.110;  557.440
1105.798;    7.383;  -15.910;  499.980
1106.341;   10.088;  -12.200;  728.900
1106.883;    9.149;  -14.910;  521.340
1107.425;    9.829;  -14.960;  668.180
1107.968;    8.721;  -13.440;  612.380
1108.510;    9.427;  -14.010;  684.960
1109.052;    7.256;  -15.430;  612.620
1109.594;    7.909;  -15.290;  554.440
1110.136;    8.855;  -13.360;  643.220
1110.679;    7.802;  -13.820;  633.080
1111.221;    8.478;  -13.690;  604.460
1111.763;    7.096;  -14.890;  559.220
1112.304;    7.534;  -14.550;  547.140
1112.846;    7.937;  -12.760;  666.240
1113.388;   10.732;  -10.780;  942.180
1113.930;    8.520;  -12.690;  694.200
1114.472;    7.647;  -15.730;  606.540
1115.013;    5.663;  -14.620;  551.280
1115.555;    6.632;  -14.950;  587.100
1116.097;    6.118;  -16.460;  579.480
1116.638;    6.968;  -13.730;  684.600
1117.180;    7.424;  -13.810;  667.740
1117.721;    6.244;  -13.280;  568.580
1118.262;    7.551;  -15.080;  677.960
1118.804;    7.567;  -14.040;  637.340
1119.345;    6.016;  -15.430;  578.400
1119.886;    7.625;  -15.240;  704.040
1120.427;    6.786;  -15.820;  589.020
1120.969;    5.993;  -14.550;  597.920
1121.510;    5.058;  -14.030;  563.060
1122.051;    6.544;  -11.990;  723.580
1122.592;    5.874;  -16.490;  655.420
1123.133;    4.839;  -15.580;  547.940
1123.673;    6.169;  -12.850;  706.480
1124.214;    5.866;  -13.630;  612.460
1124.755;    6.187;  -14.830;  639.460
1125.296;    5.704;  -13.110;  627.320
1125.836;    6.772;  -11.320;  691.500
1126.377;    5.320;  -14.330;  599.660
1126.918;    5.489;  -12.800;  614.980
1127.458;    5.090;  -13.580;  622.220
1127.999;    5.819;  -10.330;  656.980
1128.539;    5.511;  -13.390;  694.240
1129.079;    5.190;  -16.420;  632.720
1129.620;    4.102;  -15.700;  558.100
1130.160;    3.719;  -14.790;  539.480
1130.700;    4.503;  -12.910;  640.840
1131.240;    5.332;  -15.610;  643.700
1131.781;    4.154;  -12.920;  619.680
1132.321;    4.409;  -15.300;  599.120
1132.861;    3.601;  -14.760;  564.200
1133.401;    3.545;  -15.470;  593.940
1133.941;    4.586;  -13.710;  626.280
1134.481;    3.543;  -11.820;  597.580
1135.020;    3.589;  -14.810;  609.160
1135.560;    4.617;  -13.660;  674.940
1136.100;    2.080;  -13.940;  501.160
1136.640;    2.640;  -15.410;  510.480
1137.179;    2.891;  -16.920;  537.960
1137.719;    3.014;  -16.430;  605.400
1138.258;    3.473;  -16.300;  587.360
1138.798;    3.231;  -13.710;  663.780
1139.337;    2.030;  -13.840;  482.840
1139.877;    4.087;  -16.140;  642.360
1140.416;    6.084;  -11.410;  878.060
1140.955;    1.692;  -12.820;  535.380
1141.494;    3.801;  -12.310;  669.280
1142.034;    1.906;  -16.280;  583.520
1142.573;    3.035;  -13.090;  646.280
1143.112;    1.990;  -13.770;  553.480
1143.651;    2.135;  -15.830;  536.480
1144.190;    4.082;  -15.010;  691.640
1144.729;    2.705;  -13.650;  607.420
1145.267;    2.709;  -13.670;  584.900
1145.806;    2.803;  -13.630;  637.040
1146.345;    1.972;  -14.160;  635.020
1146.884;    1.780;  -11.180;  622.500
1147.422;    1.527;  -15.890;  533.060
1147.961;    2.805;  -12.760;  708.460
1148.500;    2.721;  -15.220;  669.720
1149.038;    2.632;  -13.720;  632.500
1149.577;    2.132;  -13.250;  698.640
1150.115;   -0.019;  -16.790;  452.280
1150.653;    1.282;  -15.810;  607.340
1151.192;    2.042;  -14.730;  552.920
1151.730;    1.598;  -13.660;  652.560
1152.268;    0.923;  -15.120;  589.520
1152.806;    1.656;  -15.580;  571.180
1153.344;    0.740;  -16.210;  577.640
1153.882;    1.648;  -12.810;  600.060
1154.421;   -0.727;  -14.150;  470.620
1154.958;    0.649;  -15.360;  595.240
1155.496;    2.333;  -14.710;  645.280
1156.034;    1.181;  -13.640;  721.880
1156.572;    2.009;  -13.740;  667.060
1157.110;   -0.496;  -16.960;  473.940
1157.647;    1.601;  -11.940;  676.960
1158.185;    0.491;  -14.090;  564.320
1158.723;    0.063;  -13.610;  509.200
1159.260;    1.012;  -14.760;  701.700
1159.798;    1.367;  -13.700;  658.160
1160.335;    0.411;  -13.820;  631.820

