
Integration time [ms]:   3.276
Averaging Nr. [scans]: 1000
Smoothing Nr. [pixels]: 0
Data measured with spectrometer [name]: 7414430SP
Wave   ;Sample   ;Dark     ;Reference
[nm]   ;[counts] ;[counts] ;[counts] 

288.544;  151.015;    7.793;  793.890
289.143;  154.055;    7.462;  681.602
289.742;  152.864;    8.602;  828.814
290.341;  139.438;    1.321;  789.841
290.940;  128.839;   -0.709;  730.702
291.538;  128.878;    0.881;  881.108
292.137;  129.518;    0.122;  792.581
292.736;  134.504;   -1.929;  975.101
293.335;  131.704;   -8.229;  735.086
293.934;  131.298;   -5.279;  781.677
294.532;  129.037;   -1.369; 1031.958
295.131;  114.810;   -7.641;  834.394
295.730;  116.231;   -8.420;  809.588
296.328;  114.642;   -5.611;  783.442
296.927;  115.678;   -5.781;  779.652
297.525;  115.902;   -6.361;  781.236
298.124;  106.988;  -11.382;  654.009
298.722;  110.309;   -7.641;  761.933
299.321;  107.457;   -6.811;  708.597
299.919;  106.517;   -6.991;  751.918
300.518;  103.784;  -10.362;  689.338
301.116;  105.402;   -9.581;  691.381
301.715;  104.360;   -4.891;  730.222
302.313;  103.073;   -8.801;  704.943
302.911;   99.228;   -8.522;  733.830
303.509;  104.979;   -6.171;  925.627
304.108;  102.354;   -7.311;  760.383
304.706;  100.868;   -8.321;  801.664
305.304;   96.063;  -10.222;  796.707
305.902;  101.376;   -6.021;  784.484
306.500;   96.494;   -4.971;  728.200
307.098;   95.480;   -7.061;  746.560
307.696;   93.332;   -8.801;  780.432
308.294;   94.175;   -6.411;  731.359
308.892;   95.866;   -2.901;  759.769
309.490;   91.927;   -5.041;  712.161
310.088;   90.905;   -5.002;  788.444
310.686;   94.554;   -2.041;  821.749
311.284;   90.028;   -2.351;  766.040
311.882;   87.922;   -4.422;  731.225
312.480;   85.285;   -4.192;  697.167
313.078;   86.832;   -1.172;  808.331
313.675;   86.704;   -2.601;  691.600
314.273;   82.231;   -1.312;  797.837
314.871;   82.221;   -3.942;  589.829
315.468;   80.203;   -2.802;  652.090
316.066;   82.455;   -0.701;  694.427
316.664;   75.201;   -4.362;  656.351
317.261;   79.829;   -2.872;  910.128
317.859;   74.419;   -2.022;  768.735
318.456;   75.177;   -0.531;  830.096
319.054;   71.522;   -3.912;  787.828
319.651;   71.329;   -4.752;  759.928
320.249;   68.762;   -2.602;  810.188
320.846;   65.831;   -0.821;  714.286
321.443;   63.694;   -4.642;  832.135
322.041;   61.689;   -5.002;  812.315
322.638;   59.432;   -3.982;  701.456
323.235;   59.838;   -3.411;  665.683
323.833;   57.492;   -7.361;  740.354
324.430;   53.375;   -8.611;  615.900
325.027;   54.206;   -4.061;  876.855
325.624;   53.111;   -4.031;  644.532
326.221;   50.474;   -7.481;  689.717
326.818;   51.047;   -5.281;  818.332
327.415;   53.634;   -7.460;  748.828
328.012;   52.240;   -5.510;  690.585
328.609;   51.636;   -7.880;  731.389
329.206;   49.991;   -8.331;  778.621
329.803;   49.334;   -5.121;  737.841
330.400;   51.813;   -4.510;  704.260
330.997;   54.218;   -6.441;  817.147
331.594;   53.072;   -8.831;  788.185
332.191;   57.933;   -7.621;  728.722
332.787;   60.816;   -4.591;  844.463
333.384;   58.627;   -7.412;  763.093
333.981;   57.903;   -8.293;  815.687
334.578;   60.442;   -7.052;  708.378
335.174;   63.149;   -3.102;  731.469
335.771;   62.789;   -5.943;  836.456
336.367;   60.418;   -7.393;  710.631
336.964;   64.120;   -4.063;  793.266
337.561;   60.935;   -3.813;  731.112
338.157;   56.348;   -4.654;  911.916
338.754;   55.413;   -7.934;  796.589
339.350;   53.303;   -4.414;  722.493
339.946;   54.542;   -4.664;  773.135
340.543;   46.585;   -6.375;  846.136
341.139;   41.577;   -9.815;  720.836
341.735;   39.175;   -4.526;  772.593
342.332;   37.441;   -4.895;  691.472
342.928;   36.874;   -4.295;  795.394
343.524;   32.645;   -5.476;  761.684
344.120;   28.934;   -5.856;  738.562
344.716;   32.034;   -2.155;  723.717
345.313;   29.360;   -6.275;  795.342
345.909;   25.471;   -8.815;  627.336
346.505;   26.230;   -5.305;  740.247
347.101;   26.157;   -2.674;  827.864
347.697;   27.294;   -4.344;  785.398
348.293;   22.000;   -9.975;  627.244
348.889;   23.047;   -5.774;  745.914
349.485;   21.647;   -5.004;  688.205
350.081;   22.306;   -4.704;  772.592
350.676;   18.190;   -6.635;  691.606
351.272;   22.299;   -4.504;  809.530
351.868;   21.423;   -3.914;  780.497
352.464;   19.083;   -9.044;  723.932
353.059;   16.162;   -8.314;  646.017
353.655;   19.139;   -7.024;  777.063
354.251;   18.954;   -5.343;  759.845
354.846;   13.845;   -8.604;  740.646
355.442;   12.376;   -6.945;  753.071
356.038;   13.929;   -7.564;  751.708
356.633;   12.929;   -5.814;  728.594
357.229;   11.334;   -7.364;  724.757
357.824;   10.140;   -8.024;  703.600
358.420;    9.582;   -9.384;  679.726
359.015;    9.806;   -5.104;  695.357
359.610;   10.687;   -6.854;  763.920
360.206;    5.715;  -10.185;  603.240
360.801;    8.310;   -7.054;  646.503
361.396;    9.822;   -5.034;  725.975
361.992;    5.338;   -8.284;  668.220
362.587;    3.281;   -8.625;  670.160
363.182;    4.446;   -7.674;  689.631
363.777;    5.160;   -5.164;  738.242
364.372;    5.426;   -8.604;  737.314
364.967;    1.356;   -9.055;  680.744
365.563;    5.893;   -6.114;  815.567
366.158;    2.426;   -5.814;  685.161
366.753;    3.146;   -7.854;  649.263
367.348;    1.810;   -7.804;  746.056
367.942;    0.811;   -7.954;  697.298
368.537;    0.229;   -4.984;  754.245
369.132;    0.185;   -8.564;  703.428
369.727;   -2.919;   -8.855;  638.079
370.322;   -2.000;   -6.245;  580.186
370.917;   -2.910;   -6.425;  710.646
371.511;   -0.067;   -6.294;  861.834
372.106;   -2.759;   -7.685;  776.964
372.701;   -5.868;   -7.335;  585.988
373.296;   -0.850;   -4.564;  863.135
373.890;   -5.845;  -10.235;  647.840
374.485;   -6.982;   -7.885;  691.199
375.079;   -3.436;   -7.324;  738.685
375.674;   -2.266;   -3.494;  812.970
376.268;   -6.620;   -8.525;  691.759
376.863;  -12.000;  -10.086;  580.327
377.457;   -6.350;   -7.025;  662.490
378.052;   -8.470;   -3.585;  764.884
378.646;   -8.790;   -7.595;  741.167
379.240;   -8.655;   -8.335;  721.176
379.835;   -7.890;   -5.785;  636.978
380.429;  -10.954;   -4.335;  562.557
381.023;  -10.604;   -6.805;  779.205
381.617;  -11.934;   -9.195;  680.106
382.212;   -9.260;   -6.905;  685.303
382.806;   -9.527;   -3.745;  760.690
383.400;  -12.394;   -7.745;  672.281
383.994;  -12.656;   -9.765;  664.870
384.588;   -8.959;   -6.564;  697.701
385.182;   -8.166;   -5.344;  726.624
385.776;  -10.509;   -8.514;  706.875
386.370;  -13.174;   -9.555;  681.968
386.964;  -11.867;   -8.715;  684.155
387.558;  -10.668;   -6.174;  598.360
388.152;  -13.913;   -8.725;  681.959
388.745;  -11.705;   -7.965;  814.707
389.339;   -9.531;   -5.924;  747.642
389.933;   -9.588;   -5.524;  695.370
390.527;  -10.506;   -7.114;  859.029
391.120;  -16.131;  -10.725;  595.318
391.714;  -13.979;   -8.035;  711.633
392.308;  -10.476;   -3.574;  780.253
392.901;  -14.273;   -7.245;  642.460
393.495;  -15.760;   -9.285;  595.414
394.089;  -13.199;   -5.895;  760.452
394.682;  -15.061;   -4.295;  697.188
395.275;  -15.800;   -9.875;  719.927
395.869;  -15.563;   -8.485;  667.314
396.462;  -14.344;   -7.455;  616.609
397.056;  -11.165;   -5.424;  776.621
397.649;  -15.752;   -6.605;  731.575
398.242;  -13.335;   -8.224;  712.645
398.836;  -11.474;   -7.474;  766.408
399.429;  -13.510;   -7.094;  631.041
400.022;  -15.995;   -9.475;  665.902
400.615;  -13.005;   -7.145;  805.609
401.208;  -12.184;   -7.174;  691.451
401.802;  -14.568;   -5.515;  699.329
402.395;  -16.234;   -9.875;  683.502
402.988;  -16.349;   -8.845;  696.627
403.581;  -13.799;   -8.874;  646.878
404.174;  -11.345;   -5.324;  686.568
404.767;  -13.989;   -9.575;  638.583
405.360;  -16.932;  -10.965;  621.445
405.953;  -10.611;   -8.764;  759.034
406.545;  -10.606;   -7.514;  725.342
407.138;  -14.959;  -10.025;  618.350
407.731;  -13.348;  -10.034;  613.303
408.324;   -9.631;   -9.374;  660.554
408.917;  -11.184;   -6.534;  681.864
409.509;  -12.336;   -8.004;  740.396
410.102;  -14.681;   -9.875;  643.948
410.695;   -7.917;   -8.604;  665.758
411.287;   -9.890;   -6.794;  599.821
411.880;  -11.118;   -9.334;  585.421
412.472;  -13.065;  -10.254;  613.092
413.065;  -11.179;   -6.714;  629.408
413.657;   -8.308;   -7.234;  576.678
414.250;   -9.164;  -10.544;  646.681
414.842;  -10.671;   -9.744;  676.353
415.434;   -8.505;   -6.994;  570.463
416.027;   -4.576;   -5.893;  652.196
416.619;   -5.922;   -7.264;  713.400
417.211;   -6.307;  -10.374;  599.352
417.804;   -3.148;   -7.993;  628.499
418.396;   -7.485;   -7.234;  607.643
418.988;   -5.164;   -9.443;  659.238
419.580;   -7.850;  -10.724;  568.276
420.172;   -5.525;  -10.323;  536.196
420.764;   -3.026;   -8.793;  672.482
421.356;   -3.325;  -11.143;  636.898
421.948;   -3.611;   -8.293;  677.661
422.540;    1.423;   -7.893;  680.027
423.132;   -0.143;   -7.082;  600.641
423.724;   -3.144;   -8.653;  561.267
424.316;   -0.756;  -10.213;  621.345
424.908;    3.226;   -9.762;  591.517
425.500;    3.145;   -5.572;  647.978
426.092;    2.973;   -8.422;  648.268
426.683;    3.257;   -9.283;  684.836
427.275;    5.137;   -7.852;  641.471
427.867;    6.706;   -5.272;  668.948
428.458;    7.084;   -7.682;  732.344
429.050;    5.644;  -10.612;  680.749
429.642;    8.615;   -9.882;  743.124
430.233;    8.446;   -6.962;  569.356
430.825;    8.936;   -6.842;  724.809
431.416;    7.377;   -9.672;  698.241
432.008;   10.608;   -6.552;  651.723
432.599;   11.391;   -6.891;  656.073
433.190;    8.234;  -10.912;  637.670
433.782;    7.941;  -11.172;  590.395
434.373;   15.786;   -6.061;  884.765
434.964;   12.966;   -8.251;  602.920
435.556;   10.661;   -9.722;  634.537
436.147;   15.145;   -9.082;  758.490
436.738;   14.439;   -8.041;  701.099
437.329;   19.684;   -7.341;  721.723
437.920;   12.021;   -8.162;  666.688
438.511;   12.904;  -11.802;  564.526
439.103;   18.620;  -10.191;  623.998
439.694;   20.259;   -7.601;  681.583
440.285;   21.029;   -8.541;  764.432
440.876;   19.930;   -9.751;  845.738
441.466;   19.467;   -9.401;  575.162
442.057;   24.176;   -7.760;  665.814
442.648;   22.314;   -9.971;  746.255
443.239;   21.663;  -11.001;  620.477
443.830;   25.879;   -7.990;  704.958
444.421;   28.019;   -7.910;  655.474
445.011;   23.768;   -8.131;  693.619
445.602;   25.046;   -7.111;  743.126
446.193;   26.388;  -10.920;  488.117
446.783;   30.449;   -6.500;  640.397
447.374;   25.767;   -8.671;  692.759
447.964;   26.417;  -10.781;  713.770
448.555;   34.950;   -9.650;  822.742
449.145;   30.981;   -8.660;  662.853
449.736;   32.244;   -8.990;  803.179
450.326;   33.140;   -9.500;  713.626
450.917;   36.855;   -8.680;  675.324
451.507;   35.499;   -7.520;  600.661
452.097;   36.715;   -8.590;  746.267
452.688;   37.833;  -11.340;  742.160
453.278;   37.834;  -10.100;  566.840
453.868;   42.827;   -6.019;  793.550
454.458;   39.921;   -9.440;  651.141
455.048;   40.707;  -10.560;  711.783
455.639;   41.838;  -11.799;  567.096
456.229;   44.843;   -6.899;  710.694
456.819;   46.885;   -7.389;  751.158
457.409;   47.747;  -11.119;  773.993
457.999;   50.738;   -9.289;  737.505
458.589;   49.934;   -6.139;  686.606
459.179;   49.171;   -8.729;  717.658
459.769;   48.164;   -9.789;  627.099
460.358;   53.472;  -10.259;  797.262
460.948;   53.087;   -7.299;  689.503
461.538;   54.295;  -10.289;  660.677
462.128;   52.675;  -11.269;  664.934
462.717;   59.374;   -9.368;  710.326
463.307;   61.647;   -7.908;  705.846
463.897;   57.754;   -9.599;  656.942
464.486;   57.455;   -9.769;  837.128
465.076;   62.501;   -8.048;  733.776
465.666;   64.845;   -9.358;  652.900
466.255;   62.537;   -7.919;  785.651
466.845;   62.417;  -11.689;  666.749
467.434;   64.687;   -7.818;  725.873
468.023;   65.680;   -7.678;  658.357
468.613;   63.141;  -10.939;  713.946
469.202;   68.267;  -10.118;  646.507
469.791;   71.982;   -9.108;  737.811
470.381;   73.084;   -6.058;  742.813
470.970;   73.027;  -10.428;  711.099
471.559;   73.444;  -10.268;  733.291
472.148;   76.328;   -8.448;  675.737
472.738;   78.462;   -6.917;  765.466
473.327;   78.163;  -11.978;  637.529
473.916;   78.620;  -11.888;  737.446
474.505;   82.557;   -9.437;  751.703
475.094;   85.203;   -6.747;  806.570
475.683;   84.689;   -9.367;  797.699
476.272;   86.145;  -12.637;  730.632
476.861;   88.474;  -10.027;  706.754
477.449;   94.150;   -8.716;  728.487
478.038;   88.950;   -9.577;  692.513
478.627;   90.928;   -9.718;  714.852
479.216;   97.238;   -8.947;  769.441
479.805;   99.328;   -6.256;  783.375
480.393;   99.155;   -7.937; 1008.945
480.982;   98.947;   -7.717;  874.501
481.571;  105.301;   -9.266;  858.333
482.159;  104.627;   -7.636;  705.386
482.748;  104.399;   -9.667;  821.385
483.336;  109.788;  -10.376;  858.209
483.925;  110.439;   -7.147;  774.373
484.513;  116.563;   -7.996;  758.962
485.102;  112.902;  -10.027;  810.965
485.690;  122.232;  -10.446; 1011.050
486.278;  124.358;   -8.446;  979.329
486.867;  124.280;   -6.356;  809.662
487.455;  126.128;   -9.136;  898.229
488.043;  128.249;  -10.646;  748.361
488.631;  136.402;   -7.456; 1005.079
489.220;  139.477;   -6.636;  908.626
489.808;  139.675;  -11.036;  741.415
490.396;  148.428;  -10.246;  914.645
490.984;  154.171;   -8.556;  830.161
491.572;  162.461;   -5.886;  940.315
492.160;  167.842;   -9.486;  919.081
492.748;  179.899;  -10.976;  884.341
493.336;  202.143;   -8.776; 1019.693
493.924;  226.701;   -5.465;  958.077
494.512;  253.632;   -9.986; 1066.638
495.100;  287.485;  -10.636; 1103.280
495.687;  341.798;  -10.885; 1206.373
496.275;  401.430;   -8.126; 1150.796
496.863;  468.511;  -10.586; 1281.171
497.451;  564.400;  -11.926; 1386.805
498.038;  693.907;  -10.885; 1556.729
498.626;  797.386;   -6.315; 1741.407
499.214;  941.217;   -7.326; 2016.609
499.801; 1133.190;  -11.906; 2220.633
500.389; 1362.576;  -10.466; 2312.494
500.976; 1647.900;   -5.236; 2744.849
501.564; 2065.433;   -8.936; 3148.565
502.151; 2410.621;  -13.176; 3515.999
502.738; 2813.329;  -10.646; 3971.274
503.326; 3201.370;   -9.525; 4403.796
503.913; 3598.626;  -10.856; 5161.749
504.500; 3975.740;  -11.586; 5986.420
505.088; 4335.587;  -10.336; 6381.201
505.675; 4841.038;   -6.355; 6925.547
506.262; 5498.950;   -9.046; 7619.060
506.849; 6228.671;  -10.416; 8733.969
507.436; 6764.593;  -10.305; 9790.121
508.023; 7300.184;   -5.496; 9985.472
508.610; 7506.116;   -7.856;10434.618
509.197; 8115.063;  -10.097;11198.435
509.784; 9419.718;  -10.886;12391.194
510.371;10577.516;   -9.315;13603.713
510.958;11348.425;   -9.936;14426.586
511.545;12048.203;   -9.326;15243.775
512.132;12816.537;  -10.075;15945.876
512.719;13334.366;   -7.796;16340.369
513.305;14476.338;  -10.606;18011.766
513.892;15115.786;  -11.486;19754.971
514.479;16246.519;   -9.126;20967.805
515.066;17704.324;   -6.026;22299.793
515.652;19266.701;   -8.466;22908.660
516.239;20475.334;  -10.886;23798.875
516.825;21334.330;  -11.496;25567.275
517.412;22386.225;   -5.796;28154.959
517.998;23092.096;  -10.506;28344.111
518.585;23049.889;  -10.076;27134.219
519.171;23613.313;   -8.315;27268.576
519.758;25443.918;   -8.596;28964.129
520.344;27366.160;   -8.466;30664.494
520.930;27135.666;  -11.006;32550.605
521.516;28244.031;  -10.495;35422.895
522.103;30097.262;   -5.526;38280.004
522.689;30696.820;   -8.746;37835.117
523.275;30194.055;  -11.376;37288.613
523.861;31855.920;  -11.156;37281.395
524.447;33641.926;   -8.135;37846.949
525.033;33497.777;   -7.896;38321.949
525.619;33742.145;  -12.476;38579.285
526.205;35046.453;   -9.516;40622.875
526.791;37679.000;   -6.926;42258.836
527.377;37697.379;   -8.346;42966.902
527.963;38651.480;   -8.717;42018.949
528.549;37899.410;  -11.016;42476.828
529.135;36726.500;   -8.536;41854.852
529.721;35674.117;   -9.666;41237.711
530.306;35185.855;  -10.066;41259.445
530.892;35008.238;  -11.356;41506.047
531.478;35729.281;   -6.596;43559.613
532.063;38931.723;   -8.836;47695.563
532.649;40177.039;  -10.047;50808.324
533.235;40837.754;   -9.746;51787.500
533.820;41190.688;   -6.566;52145.035
534.406;42464.883;  -10.817;51133.488
534.991;42261.801;   -9.416;49996.805
535.576;40679.855;   -9.036;48882.852
536.162;41512.031;   -6.156;46942.285
536.747;42687.914;  -11.607;45711.746
537.333;45467.895;  -11.787;48510.180
537.918;48203.051;  -12.437;50439.891
538.503;47633.770;   -7.196;50863.711
539.088;44419.754;  -10.556;50906.922
539.673;44496.148;   -8.767;52621.965
540.259;45166.582;  -10.026;52368.094
540.844;42697.129;   -7.416;50879.109
541.429;44225.496;   -9.467;52077.777
542.014;46146.641;   -9.527;52716.695
542.599;45330.852;   -9.946;52363.281
543.184;42451.457;   -7.927;53187.137
543.769;43495.922;   -9.297;54697.605
544.354;43882.625;  -10.127;53913.914
544.938;42532.676;   -9.267;49680.164
545.523;44228.164;   -6.506;47386.277
546.108;47056.883;   -9.787;49151.949
546.693;48727.691;  -11.587;51384.637
547.278;48846.000;  -10.986;51853.254
547.862;46010.648;   -8.206;51173.750
548.447;41735.926;  -10.067;51691.395
549.031;40849.734;   -9.637;52456.703
549.616;45364.633;   -9.926;52714.516
550.201;45450.930;   -6.347;52414.598
550.785;46777.465;   -7.917;52355.059
551.370;45925.188;  -10.867;54589.453
551.954;45285.199;   -9.047;58267.348
552.538;46094.219;   -7.827;59062.176
553.123;44542.375;  -10.287;58115.285
553.707;42239.980;  -12.178;56556.285
554.291;43653.383;   -8.717;56201.668
554.876;46689.016;   -7.457;55335.762
555.460;46800.285;  -10.387;54155.703
556.044;46904.605;   -9.618;53721.484
556.628;44940.840;  -11.567;53731.016
557.212;43947.250;   -8.097;54312.531
557.796;42865.805;  -11.077;53797.773
558.380;43038.070;  -11.108;56145.984
558.964;43171.555;   -9.057;57277.930
559.548;44014.395;   -6.977;56459.641
560.132;42192.820;  -11.457;54434.543
560.716;40802.914;  -11.378;54800.617
561.300;41995.223;   -9.577;57606.945
561.884;43142.090;   -7.127;58972.445
562.467;41190.980;   -7.118;57327.570
563.051;40258.563;  -13.358;54962.434
563.635;41557.422;  -10.178;52594.473
564.219;42346.371;   -7.837;50610.410
564.802;43008.055;  -11.398;49551.180
565.386;42562.402;  -12.788;48370.953
565.969;41970.996;   -9.077;48178.871
566.553;40893.746;   -6.207;49957.305
567.136;41784.805;   -8.568;50369.594
567.720;38695.637;  -11.868;49492.004
568.303;36606.863;   -8.268;50616.352
568.887;36473.223;   -8.698;50727.148
569.470;37137.367;   -6.808;51698.379
570.053;36387.797;  -13.188;52122.078
570.637;34075.160;  -12.037;52536.438
571.220;33818.102;   -8.577;51186.098
571.803;34716.441;   -8.498;51032.762
572.386;36872.992;  -10.498;49609.887
572.969;39395.340;   -9.388;48285.926
573.552;37744.203;   -8.338;47624.285
574.135;36304.953;   -8.518;45498.641
574.718;33744.551;  -13.628;41970.434
575.301;33039.398;  -10.893;41447.137
575.884;32334.246;   -8.158;40923.836
576.467;33350.871;  -10.328;45267.723
577.050;34711.172;  -13.058;48175.543
577.633;35786.387;   -9.458;47729.328
578.216;34855.918;   -8.928;47579.793
578.799;33777.004;   -9.358;47820.996
579.381;32439.480;  -11.388;48115.551
579.964;30267.338;  -11.718;47333.766
580.547;32381.139;   -8.588;46668.969
581.129;33656.246;   -8.859;44466.141
581.712;34715.156;  -10.729;44164.922
582.294;35236.770;  -11.118;46477.855
582.877;35351.234;   -5.218;48244.254
583.459;33520.547;   -8.679;47437.895
584.042;31334.041;  -10.709;46943.219
584.624;31163.313;  -11.669;46792.227
585.206;30800.207;   -8.218;46557.250
585.789;30849.057;  -10.569;45793.773
586.371;32380.398;  -11.859;43836.391
586.953;31715.330;  -10.719;42972.492
587.536;30446.553;   -7.198;42487.211
588.118;29069.441;   -8.720;42086.414
588.700;26599.416;  -10.439;43389.930
589.282;28384.568;   -9.198;43646.039
589.864;31694.170;   -9.199;43438.109
590.446;34088.871;  -11.319;43151.926
591.028;34228.539;  -11.159;42781.867
591.610;32995.676;  -11.779;42839.098
592.192;30486.986;   -7.668;42820.402
592.774;29168.008;  -11.949;40724.277
593.356;28208.701;  -12.129;39874.789
593.937;27215.150;  -10.669;39980.648
594.519;29456.854;   -6.509;42069.633
595.101;31496.543;  -10.849;42976.031
595.683;31481.119;  -11.679;44084.441
596.264;32262.354;   -9.049;43478.797
596.846;31954.877;   -8.849;43803.672
597.427;31784.426;   -9.570;42986.934
598.009;32912.355;  -12.620;42832.219
598.591;33364.844;  -10.039;42580.086
599.172;33161.512;  -10.369;43061.805
599.753;33443.453;   -9.140;41691.469
600.335;34652.645;  -11.430;40692.520
600.916;32799.793;   -9.939;39982.422
601.498;30713.363;   -8.479;40318.617
602.079;29174.012;  -10.920;40670.609
602.660;28846.936;  -11.480;41450.898
603.241;30545.582;  -11.699;41137.738
603.823;29166.123;   -9.579;38868.797
604.404;28426.303;  -10.620;38182.785
604.985;30236.912;  -10.450;38078.047
605.566;30289.160;   -9.129;38056.633
606.147;30315.584;   -7.510;37020.418
606.728;31782.307;  -10.660;37883.359
607.309;30405.246;  -11.740;38748.273
607.890;30185.109;   -9.759;38850.230
608.471;29714.047;   -8.250;37457.918
609.051;29057.805;   -9.240;36066.457
609.632;27834.615;  -12.120;35991.074
610.213;28046.512;   -9.110;37402.641
610.794;28926.561;   -8.030;38383.363
611.374;28900.719;   -8.110;40562.387
611.955;29665.619;  -13.560;38533.727
612.536;31051.289;  -11.400;36951.789
613.116;30799.225;   -8.070;37197.891
613.697;31078.842;  -10.830;38411.125
614.277;29296.119;  -11.641;38673.938
614.858;29910.525;  -13.310;37075.863
615.438;29526.082;   -7.460;35092.906
616.019;27411.170;   -7.601;33666.301
616.599;27598.781;  -12.020;34189.023
617.179;29087.264;  -11.780;36952.047
617.760;30210.000;   -8.570;39582.574
618.340;31080.822;  -11.471;38943.977
618.920;31907.197;  -11.170;37594.156
619.500;31899.361;  -11.071;37866.938
620.080;31050.289;   -7.750;37869.043
620.660;32184.223;  -12.711;36868.617
621.241;34049.672;  -10.211;36352.309
621.821;34487.891;  -10.961;35459.520
622.401;33193.211;   -7.720;35207.414
622.980;32049.404;   -8.981;35980.422
623.560;30643.311;   -9.331;37351.328
624.140;29457.119;   -9.850;34388.582
624.720;24744.033;   -7.451;32368.764
625.300;21310.590;   -9.070;32638.629
625.880;24607.977;  -12.601;34599.035
626.459;28698.350;  -11.751;36831.738
627.039;31495.266;   -9.281;38299.098
627.619;31350.105;   -8.801;38289.574
628.198;29759.135;  -12.071;37220.695
628.778;28840.441;   -9.461;37632.563
629.357;29669.090;   -8.491;38003.012
629.937;29929.238;   -9.721;38402.039
630.516;29390.094;   -9.951;37868.801
631.096;29054.557;  -11.731;35760.410
631.675;31261.408;   -8.572;35225.219
632.254;36366.723;  -11.282;35130.289
632.834;35865.895;  -13.322;35794.570
633.413;34287.512;  -10.301;35788.922
633.992;31897.311;   -8.582;34532.863
634.571;32338.412;   -8.352;33590.113
635.151;34844.645;  -11.912;34943.863
635.730;33429.223;  -10.511;35352.523
636.309;30161.662;   -7.731;35366.605
636.888;27673.668;   -9.952;36165.637
637.467;28097.010;  -11.672;37515.902
638.046;29543.424;   -8.901;39288.695
638.625;32402.066;   -7.912;38279.699
639.204;32427.650;  -10.022;37741.598
639.782;31445.121;  -12.252;38364.551
640.361;27644.828;  -10.041;36740.621
640.940;24999.297;  -11.161;34950.082
641.519;25657.154;   -9.701;34137.398
642.097;28526.340;  -11.271;35654.258
642.676;31409.783;   -8.651;35637.957
643.255;32519.779;   -8.711;36567.074
643.833;31719.033;   -9.581;37809.434
644.412;31653.266;  -13.711;37337.293
644.990;30620.156;  -11.811;37018.531
645.569;30526.053;   -9.411;36518.469
646.147;30145.371;  -10.291;36186.430
646.726;30147.357;  -12.401;36267.688
647.304;31161.225;  -10.411;36647.625
647.882;32514.119;   -9.651;39286.742
648.461;34149.867;   -9.631;39157.703
649.039;32613.520;  -11.881;35412.883
649.617;31596.283;   -9.661;34744.918
650.195;30862.691;   -9.301;35403.098
650.773;29508.105;  -10.511;35053.797
651.352;27250.928;  -11.521;33756.816
651.930;24913.525;  -12.211;31868.773
652.508;23227.207;   -9.171;33121.551
653.086;27065.004;   -9.371;33564.793
653.663;30113.859;  -13.161;34054.668
654.241;28816.480;  -13.031;35693.309
654.819;30288.105;   -9.371;36422.906
655.397;30193.266;  -10.511;38213.484
655.975;29561.660;  -10.371;39507.625
656.553;29223.799;  -10.051;39498.223
657.130;27983.613;  -10.061;40395.480
657.708;27346.889;   -9.561;39242.020
658.286;27452.432;  -11.511;38920.020
658.863;28606.350;  -10.261;40202.898
659.441;31823.531;   -7.531;39677.938
660.018;31820.109;   -9.501;40413.355
660.596;30429.250;  -13.301;39931.414
661.173;32057.150;  -11.211;39604.531
661.750;32602.820;   -9.951;39700.070
662.328;31631.633;   -9.390;39292.809
662.905;30591.629;  -11.330;38235.648
663.482;26258.865;   -9.050;36212.305
664.060;24266.471;   -8.240;35944.945
664.637;27123.568;  -10.050;35170.785
665.214;28562.326;  -11.760;34197.523
665.791;30155.258;  -10.530;34549.520
666.368;29472.131;   -9.690;35118.578
666.945;29892.225;   -9.320;36019.418
667.522;31362.941;  -11.860;36048.438
668.099;31165.805;  -10.770;36243.914
668.676;29799.482;   -6.260;35958.875
669.253;28503.447;   -7.000;37384.730
669.830;28766.607;  -10.190;36779.629
670.407;28749.592;   -9.550;35231.289
670.984;28657.494;   -9.260;35544.270
671.560;29456.666;   -9.280;35466.867
672.137;28817.105;  -11.810;34280.863
672.714;29935.838;  -11.490;34632.863
673.290;31198.641;   -7.740;35135.422
673.867;31040.928;  -10.660;36114.480
674.443;30836.438;  -12.230;36152.859
675.020;28827.916;  -10.450;35327.238
675.596;29882.068;   -9.260;35795.176
676.173;30639.436;  -10.780;35430.355
676.749;30159.645;  -13.690;33549.516
677.326;29785.330;  -11.980;32210.012
677.902;29631.879;   -8.630;32068.871
678.478;29032.775;  -10.730;32583.891
679.054;28186.309;  -10.520;32088.928
679.631;28661.768;  -11.920;30978.848
680.207;30131.520;   -7.490;33160.887
680.783;31616.807;   -9.860;35570.363
681.359;30740.232;  -13.380;36125.184
681.935;30548.199;  -12.480;35240.922
682.511;30389.342;   -7.900;34429.961
683.087;30636.328;   -7.710;34463.680
683.663;29881.678;  -11.480;34648.898
684.239;28445.131;  -14.090;34546.457
684.815;27718.803;   -7.560;35586.375
685.390;27711.766;   -9.910;35821.895
685.966;28245.240;  -11.159;35085.871
686.542;30860.992;  -11.169;34198.230
687.118;33338.570;   -5.959;32847.707
687.693;33780.199;  -10.329;32794.027
688.269;33513.156;  -12.059;33072.367
688.844;31758.061;  -10.909;33141.664
689.420;29784.910;   -8.019;33965.742
689.995;27991.531;   -8.399;34655.523
690.571;26642.061;  -10.949;33576.742
691.146;26596.266;   -9.619;32657.219
691.722;26372.068;   -8.999;32526.979
692.297;26096.838;  -11.589;33014.617
692.872;27404.129;  -11.739;34012.254
693.448;27170.725;  -11.059;34237.434
694.023;26148.186;  -10.139;34142.672
694.598;28172.475;   -9.029;34132.031
695.173;28964.275;  -13.319;34205.250
695.748;27988.496;  -10.169;32882.488
696.323;27857.482;   -8.339;32864.906
696.898;28001.482;   -8.169;33170.004
697.473;28087.854;  -12.309;32432.984
698.048;27324.391;  -10.989;31649.303
698.623;26968.402;   -9.329;30778.141
699.198;28439.965;   -9.849;31140.119
699.773;29884.119;  -12.329;31764.299
700.348;28756.307;  -10.389;31780.816
700.922;28729.439;   -9.269;32046.375
701.497;29728.746;   -9.329;32603.574
702.072;29865.711;  -10.789;34799.871
702.646;28470.418;  -10.839;35793.172
703.221;26356.445;   -9.099;35201.590
703.795;28255.244;  -10.939;34764.527
704.370;28776.008;  -12.859;34307.367
704.944;28907.441;  -11.559;33509.887
705.519;29510.580;   -7.939;31388.584
706.093;30750.201;  -10.499;31340.104
706.668;31247.146;  -11.289;32630.281
707.242;30244.949;  -11.509;32728.779
707.816;29022.984;   -9.639;32947.238
708.390;27506.000;  -11.429;33277.855
708.965;27827.672;  -11.869;33834.336
709.539;27793.555;  -11.689;33709.273
710.113;27906.500;  -10.478;33044.313
710.687;27427.629;  -10.228;31953.992
711.261;25934.793;  -13.698;30505.949
711.835;25908.480;  -13.378;30262.369
712.409;26332.545;   -9.698;31254.447
712.983;28358.404;  -11.898;32754.986
713.557;29718.773;  -15.138;34018.824
714.131;29543.713;  -14.098;34579.625
714.704;28398.689;   -9.958;33890.262
715.278;25876.738;  -10.028;33531.102
715.852;24693.018;  -11.148;33601.660
716.425;25832.484;   -9.068;33515.117
716.999;26962.236;  -10.038;33185.555
717.573;27762.672;   -9.798;33905.996
718.146;28678.334;  -12.378;35199.293
718.720;28845.412;  -11.918;35060.551
719.293;28731.693;   -8.088;34973.230
719.867;31600.508;  -10.888;36394.449
720.440;31433.805;  -11.938;36663.008
721.013;29601.537;  -12.818;35102.426
721.587;28035.035;  -10.298;33985.266
722.160;26841.891;  -10.048;33524.965
722.733;25832.311;  -12.108;32987.043
723.306;26153.654;  -10.818;33066.301
723.880;28279.115;   -8.908;33399.500
724.453;30531.354;   -9.878;33468.297
725.026;29805.963;  -11.188;33816.637
725.599;26998.975;  -11.678;32797.996
726.172;26894.461;   -9.618;33187.434
726.745;27854.096;   -8.258;35136.613
727.318;29065.057;  -12.978;35751.730
727.891;29822.734;  -12.148;35890.430
728.463;29385.963;   -8.968;34822.090
729.036;27989.004;  -10.188;32895.086
729.609;28515.141;  -11.788;31823.225
730.182;25782.080;  -11.788;31445.283
730.754;23487.311;  -10.268;32373.223
731.327;23881.443;   -9.998;33676.820
731.900;24271.299;  -12.228;33417.000
732.472;25033.426;  -13.848;31978.498
733.045;26602.072;   -8.698;30368.777
733.617;26572.061;  -10.607;30574.215
734.190;26824.805;  -11.507;31280.975
734.762;24541.902;  -13.647;31674.412
735.334;22596.037;   -9.767;31247.291
735.907;22912.826;   -9.897;29876.211
736.479;23158.055;  -11.637;29808.488
737.051;22920.322;   -9.567;30233.547
737.623;23479.078;   -8.187;31469.086
738.195;23799.629;  -11.187;31784.225
738.768;25925.199;  -12.337;32120.523
739.340;26898.518;  -12.227;32094.342
739.912;25995.311;  -11.057;31312.680
740.484;24502.713;  -10.207;31946.238
741.056;22921.164;  -10.047;32984.059
741.628;24157.820;  -13.627;33897.715
742.199;26327.240;   -7.177;33213.016
742.771;25015.646;  -10.797;31369.113
743.343;22956.521;  -11.997;31865.473
743.915;22021.578;  -12.867;32388.631
744.487;21980.566;   -7.617;31079.568
745.058;21977.537;   -9.557;30570.107
745.630;22568.469;   -9.877;29970.127
746.201;23923.889;  -14.177;29186.766
746.773;24884.205;   -9.237;28805.723
747.344;24674.023;   -9.847;29591.223
747.916;22758.027;  -11.657;31412.201
748.487;22593.754;  -10.587;32194.898
749.059;23889.557;   -8.707;32533.719
749.630;24704.197;  -10.537;32158.518
750.201;23905.895;  -11.687;30855.395
750.773;22176.027;  -11.647;28622.555
751.344;21804.467;   -7.147;28405.732
751.915;22731.287;   -9.757;28461.551
752.486;22907.328;  -12.427;27842.850
753.057;20858.334;  -12.227;27845.008
753.628;19620.160;  -10.417;27728.107
754.199;20499.629;  -11.767;27381.086
754.770;21520.975;  -11.187;25882.203
755.341;21689.674;  -10.507;25886.184
755.912;21948.223;   -9.387;26050.861
756.483;21648.240;  -10.647;26798.779
757.054;19885.322;  -11.837;27048.238
757.625;18372.084;  -12.716;26294.838
758.195;18092.555;   -9.666;26142.076
758.766;17799.541;   -8.656;26392.234
759.337;18362.680;  -12.856;26334.594
759.907;19773.295;  -13.366;27579.652
760.478;20687.090;   -8.576;28352.770
761.048;20233.098;  -10.526;27325.088
761.619;19263.480;  -11.116;26460.428
762.189;19358.740;  -12.136;26029.826
762.760;20346.094;   -9.456;26430.145
763.330;21477.678;   -7.136;26670.902
763.900;21124.592;  -11.786;26603.021
764.471;18709.371;  -11.546;25542.740
765.041;17216.658;   -8.096;24358.459
765.611;17012.969;   -8.876;23991.297
766.181;17345.598;  -12.196;24470.236
766.751;18569.990;  -11.636;24845.975
767.321;18373.781;  -10.156;24533.633
767.891;16232.746;  -11.766;24916.492
768.461;15568.907;  -14.936;24776.771
769.031;16088.020;  -12.356;24757.988
769.601;17826.824;   -7.526;24181.088
770.171;18040.141;  -10.766;23670.387
770.741;17183.746;  -13.176;22960.045
771.311;17207.914;  -10.616;22917.523
771.880;17776.947;   -9.576;23562.941
772.450;17748.459;  -10.336;24216.500
773.020;17716.686;  -13.516;24140.398
773.589;16825.688;  -13.466;24414.857
774.159;16078.958;   -8.686;23858.717
774.729;15698.310;   -9.476;22942.135
775.298;15365.524;  -13.666;22324.033
775.867;14923.644;  -11.716;21140.313
776.437;15085.863;   -9.906;20838.092
777.006;14881.333;  -12.166;20599.510
777.576;14521.665;  -12.356;20508.809
778.145;14427.677;  -11.646;20732.947
778.714;14451.021;   -8.226;21062.465
779.283;13990.257;   -9.556;20949.664
779.853;13460.612;  -14.116;20508.623
780.422;13885.554;  -11.506;20649.082
780.991;13467.209;   -9.556;21527.520
781.560;12136.489;   -9.095;22632.658
782.129;11889.201;  -12.135;23048.277
782.698;11908.384;  -10.865;23438.555
783.267;11505.044;   -9.335;23267.734
783.836;11423.952;  -11.045;22415.133
784.404;12430.277;  -13.865;20443.152
784.973;13136.395;  -13.095;19699.150
785.542;13192.070;  -11.575;19763.828
786.111;13000.170;   -9.705;20341.408
786.679;12508.958;  -12.105;20207.967
787.248;12251.916;  -12.455;19516.465
787.817;12057.741;  -11.535;18900.363
788.385;11690.149;   -9.765;17879.121
788.954;11138.344;  -14.005;17658.301
789.522;10530.456;  -11.955;17788.879
790.090;10940.092;  -10.135;18118.277
790.659;11546.297;  -10.975;18338.736
791.227;11150.932;  -13.375;18508.615
791.795;11500.964;  -12.375;17898.254
792.364;11821.064;  -10.725;17295.133
792.932;12198.266;   -9.715;16822.051
793.500;12504.898;  -12.675;17040.148
794.068;12773.546;  -13.495;17179.787
794.636;12963.222;  -10.885;16664.246
795.204;12233.693;  -11.045;16524.545
795.772;12195.278;  -13.175;17274.564
796.340;11730.236;  -12.445;17891.002
796.908;11475.470;   -9.735;17648.561
797.476;11325.608;   -9.815;17064.080
798.044;10870.352;  -13.985;16672.777
798.612;10139.799;  -13.115;17023.996
799.180; 9758.036;  -10.185;16561.615
799.747; 9595.626;   -9.055;15962.773
800.315; 9317.921;  -12.385;15296.992
800.883; 9124.092;  -15.035;14801.771
801.450; 9327.014;  -10.365;14534.430
802.018; 9458.369;   -9.855;14173.248
802.585; 9447.202;  -11.905;14029.547
803.153; 9410.007;  -11.585;13836.846
803.720; 9227.770;   -9.095;13567.324
804.287; 8705.513;   -9.135;13360.622
804.855; 8189.426;  -11.604;13681.981
805.422; 8090.972;  -11.794;13536.560
805.989; 8199.617;  -10.734;13355.958
806.556; 8445.920;  -10.444;13747.896
807.124; 8723.358;  -12.764;13987.376
807.691; 8685.018;  -12.964;14038.674
808.258; 8476.322;  -11.134;14120.152
808.825; 8088.229;   -9.854;13860.111
809.392; 8204.469;  -10.504;13268.790
809.959; 7787.188;  -13.054;12680.389
810.526; 7276.643;   -8.294;12427.308
811.093; 7230.128;   -8.394;12030.105
811.659; 7837.633;  -12.304;11653.664
812.226; 8397.128;  -13.944;11637.183
812.793; 8131.414;  -10.484;11611.521
813.360; 7486.638;  -10.144;11885.181
813.926; 7170.937;  -11.684;12770.539
814.493; 6998.533;  -13.644;12677.638
815.060; 6617.540;   -9.724;11974.336
815.626; 6544.978;   -9.854;11594.715
816.193; 6907.572;  -13.254;11579.474
816.759; 6950.344;  -13.204;11666.972
817.325; 6985.118;   -9.434;11325.530
817.892; 7333.326;  -10.134;11105.369
818.458; 7782.235;  -13.474;10843.928
819.024; 7433.903;  -11.854;10714.406
819.591; 7129.747;  -10.244;10469.165
820.157; 6921.944;  -10.704;10235.523
820.723; 6388.548;  -12.324;10847.563
821.289; 6065.710;   -9.444;11040.980
821.855; 5995.022;   -8.374;10357.100
822.421; 5965.171;  -10.234; 9978.918
822.987; 5936.832;  -13.294; 9754.177
823.553; 5571.183;  -10.884;10065.755
824.119; 5378.449;   -8.884;10036.294
824.685; 5540.753;   -6.784;10029.192
825.251; 5678.610;  -12.004;10199.230
825.816; 5622.774;  -11.474; 9820.189
826.382; 5332.723;   -9.174; 9297.248
826.948; 5462.375;   -9.214; 9381.347
827.513; 5875.273;  -10.774; 9450.726
828.079; 5748.456;  -11.924; 9472.444
828.645; 5140.639;  -10.543; 9292.643
829.210; 4946.260;  -10.533; 9065.341
829.776; 4911.649;  -10.753; 9132.620
830.341; 4803.806;  -10.173; 9092.878
830.906; 4959.751;  -10.743; 9078.557
831.472; 5306.055;  -11.113; 8534.535
832.037; 5134.204;  -10.603; 8677.874
832.602; 4622.135;  -13.323; 8628.692
833.167; 4364.211;  -10.823; 8879.031
833.733; 4304.910;  -10.113; 9189.790
834.298; 4435.353;  -13.583; 9052.608
834.863; 4572.868;  -12.703; 8895.087
835.428; 4602.384;  -10.523; 8824.266
835.993; 4447.713;   -6.963; 8845.385
836.558; 4244.235;  -10.763; 8888.563
837.123; 4293.519;   -9.903; 8966.582
837.688; 4534.275;   -9.913; 8617.860
838.253; 4784.878;  -10.283; 8590.699
838.817; 4971.297;  -12.963; 8443.797
839.382; 4927.107;  -14.243; 8799.356
839.947; 4641.334;  -10.733; 8810.595
840.511; 4349.260;   -9.383; 8796.394
841.076; 3960.852;  -12.563; 8347.231
841.641; 3991.638;  -12.953; 8224.330
842.205; 4078.439;   -7.043; 8223.349
842.770; 4107.230;   -8.163; 8622.107
843.334; 4249.783;  -12.503; 8410.386
843.898; 4211.200;  -11.693; 8337.465
844.463; 4207.097;  -10.203; 8506.283
845.027; 4011.173;   -9.533; 8280.962
845.591; 3832.751;  -13.443; 8231.141
846.156; 3836.854;  -13.143; 7969.179
846.720; 3753.586;   -9.433; 7768.278
847.284; 3649.446;  -11.033; 7630.957
847.848; 3505.910;  -10.403; 7472.395
848.412; 3403.370;  -11.553; 7437.394
848.976; 3443.865;   -8.393; 7674.592
849.540; 3362.660;   -8.713; 7836.011
850.104; 3403.654;  -12.463; 7913.669
850.668; 3765.600;  -12.973; 7694.508
851.232; 3938.609;  -10.793; 7756.887
851.796; 3800.324;  -10.662; 7926.545
852.359; 3480.429;  -13.082; 7827.844
852.923; 3299.183;  -12.192; 7641.163
853.487; 3155.362;  -11.912; 7342.501
854.050; 3143.938;  -10.892; 7042.820
854.614; 3290.541;  -13.992; 7151.338
855.177; 3402.243;  -11.732; 7105.077
855.741; 3437.854;   -8.962; 6989.675
856.304; 3336.688;   -9.442; 6596.634
856.868; 3320.797;  -14.192; 6356.272
857.431; 3435.104;  -12.702; 6468.571
857.995; 3559.594;   -9.942; 6373.210
858.558; 3589.007;   -9.112; 6324.448
859.121; 3322.082;  -12.932; 6408.327
859.684; 3135.923;  -13.442; 6347.886
860.247; 3229.085;  -10.632; 6321.264
860.810; 3265.056;  -11.272; 6301.903
861.374; 3024.931;   -9.832; 6607.881
861.937; 2757.443;  -11.762; 6408.200
862.500; 2751.870;   -9.722; 6572.639
863.062; 2903.984;  -10.512; 6387.297
863.625; 3043.359;  -11.232; 6190.836
864.188; 3201.323;  -14.112; 5807.254
864.751; 3287.859;  -11.302; 5682.413
865.314; 3210.704;  -10.112; 5547.492
865.876; 2983.659;  -12.182; 5500.150
866.439; 2943.530;  -10.722; 5415.909
867.002; 2906.461;   -9.252; 5501.567
867.564; 2718.747;   -9.572; 5413.946
868.127; 2501.184;  -13.142; 5160.325
868.689; 2378.460;  -12.902; 5133.183
869.252; 2266.862;   -9.732; 5252.382
869.814; 2158.167;   -9.432; 5297.141
870.377; 2162.868;  -11.552; 5390.919
870.939; 2231.905;   -9.052; 5599.898
871.501; 2312.635;  -10.982; 5248.336
872.063; 2328.797;  -12.292; 4854.235
872.626; 2261.565;  -14.912; 4817.074
873.188; 2249.971;  -13.112; 4987.732
873.750; 2225.445;  -13.442; 4868.651
874.312; 2139.304;   -9.402; 4779.330
874.874; 2054.445;  -11.062; 4866.348
875.436; 1972.008;  -13.931; 4718.887
875.998; 1964.894;   -9.561; 4660.005
876.560; 1990.196;  -11.321; 4462.964
877.122; 1931.537;  -12.221; 4145.042
877.683; 1826.586;  -12.191; 4056.481
878.245; 1751.110;  -12.101; 3950.740
878.807; 1786.093;   -8.971; 4058.958
879.369; 1812.774;  -12.071; 3954.677
879.930; 1727.310;  -14.621; 3941.495
880.492; 1657.943;  -10.311; 4067.014
881.053; 1624.607;  -10.901; 3859.633
881.615; 1522.724;  -14.411; 3776.071
882.176; 1424.360;  -13.761; 3734.750
882.738; 1373.480;   -9.181; 3678.489
883.299; 1349.036;  -11.791; 3405.407
883.860; 1334.965;  -13.121; 3351.106
884.422; 1317.764;  -11.211; 3394.044
884.983; 1277.726;  -10.091; 3166.443
885.544; 1210.031;   -8.461; 3189.802
886.105; 1135.871;  -12.361; 3160.360
886.666; 1070.277;  -14.141; 3093.059
887.227; 1007.525;  -11.361; 2941.957
887.788;  941.839;  -11.401; 2974.836
888.349;  871.699;  -13.791; 2721.214
888.910;  864.551;  -13.191; 2696.493
889.471;  865.879;   -9.881; 2560.172
890.032;  846.725;   -9.881; 2558.190
890.593;  817.688;  -10.371; 2567.669
891.153;  792.691;  -13.301; 2460.307
891.714;  748.438;  -11.431; 2372.046
892.275;  713.077;  -11.291; 2309.505
892.835;  678.897;  -11.471; 2382.543
893.396;  629.747;  -11.541; 2295.502
893.956;  570.729;  -11.181; 2162.420
894.517;  528.309;  -11.741; 2125.439
895.077;  520.518;  -11.671; 2086.978
895.638;  521.866;  -11.311; 2126.316
896.198;  495.364;   -9.831; 1838.275
896.758;  452.661;   -8.421; 1892.813
897.319;  420.260;  -12.351; 1792.232
897.879;  404.669;  -13.511; 1762.751
898.439;  380.363;  -12.001; 1661.149
898.999;  353.562;  -10.180; 1781.468
899.559;  344.548;  -12.030; 1703.347
900.119;  340.006;  -15.710; 1537.525
900.679;  336.151;   -8.900; 1638.384
901.239;  319.958;   -8.340; 1527.902
901.799;  309.413;  -13.910; 1456.441
902.359;  303.714;  -13.460; 1357.140
902.919;  296.596;  -11.490; 1331.118
903.479;  283.973;  -12.110; 1317.257
904.038;  263.855;  -11.720; 1262.595
904.598;  247.964;  -13.610; 1152.034
905.158;  243.886;  -11.040; 1240.893
905.717;  237.318;  -10.900; 1233.691
906.277;  227.346;  -15.080; 1217.330
906.836;  217.294;  -13.380; 1222.408
907.396;  208.762;  -10.780; 1193.047
907.955;  201.021;   -8.500; 1182.526
908.515;  195.130;  -12.760; 1099.364
909.074;  190.153;  -11.900; 1092.863
909.633;  183.505;   -8.950; 1069.121
910.192;  178.569;   -8.770; 1196.460
910.752;  173.335;  -12.390; 1029.960
911.311;  169.433;  -13.680; 1009.780
911.870;  166.666;  -12.370;  971.460
912.429;  167.117;  -10.900; 1094.080
912.988;  166.405;  -11.690; 1081.060
913.547;  163.018;  -13.240;  940.380
914.106;  157.950;  -11.990;  999.420
914.665;  153.476;   -9.990;  984.020
915.224;  152.383;  -12.880; 1035.760
915.782;  154.124;  -12.350;  922.560
916.341;  152.651;   -9.110; 1049.840
916.900;  147.692;   -9.270;  925.260
917.458;  146.578;  -13.240;  884.220
918.017;  146.532;  -13.550;  942.600
918.576;  145.683;  -12.320;  904.440
919.134;  144.202;  -11.490;  837.980
919.693;  142.142;  -13.670;  893.060
920.251;  141.381;  -15.470;  876.500
920.809;  139.651;  -11.290;  839.580
921.368;  138.920;  -10.210;  885.360
921.926;  138.321;  -12.140;  842.940
922.484;  137.747;  -13.080;  903.360
923.042;  137.209;  -11.720;  880.340
923.601;  139.312;   -7.480;  998.680
924.159;  138.204;  -11.570;  935.560
924.717;  134.869;  -13.840;  841.080
925.275;  134.343;  -10.640;  903.240
925.833;  133.221;  -11.540;  779.320
926.391;  135.036;  -12.960;  938.380
926.949;  133.474;  -14.130;  857.680
927.506;  133.598;  -11.750;  903.500
928.064;  134.013;  -10.250;  877.580
928.622;  133.124;  -13.030;  880.100
929.180;  132.764;  -13.400;  814.180
929.737;  133.899;  -10.700;  808.540
930.295;  136.494;  -10.070;  928.480
930.853;  138.904;  -11.960;  849.100
931.410;  140.533;  -13.120;  821.120
931.968;  138.907;  -10.770;  940.660
932.525;  138.715;  -10.680;  909.380
933.082;  139.404;  -13.130;  811.440
933.640;  141.349;  -13.210;  925.900
934.197;  138.461;  -11.060;  886.360
934.754;  139.907;   -9.580;  897.780
935.312;  143.178;  -14.000;  863.340
935.869;  147.832;  -10.710; 1012.980
936.426;  147.640;   -9.860;  872.800
936.983;  147.941;   -9.710;  889.020
937.540;  148.820;  -13.990;  838.280
938.097;  147.476;  -14.040;  940.120
938.654;  147.746;  -10.310;  898.860
939.211;  150.074;  -10.560;  952.480
939.768;  154.206;  -13.900;  915.420
940.324;  157.954;  -14.760;  904.200
940.881;  159.577;  -10.370;  878.500
941.438;  160.935;   -8.260; 1021.200
941.995;  156.635;  -12.540;  992.560
942.551;  153.683;  -14.670;  875.620
943.108;  153.983;  -10.450;  937.920
943.664;  155.223;  -10.750;  869.340
944.221;  159.100;  -11.550; 1088.140
944.777;  157.352;  -14.770;  869.680
945.334;  157.942;  -12.820;  884.840
945.890;  159.079;  -10.130;  946.480
946.446;  158.791;  -13.470;  947.020
947.003;  161.614;  -12.120;  964.940
947.559;  163.840;   -9.980; 1063.040
948.115;  163.556;   -9.080; 1026.540
948.671;  160.936;  -10.830;  967.300
949.227;  159.156;  -12.440;  859.560
949.783;  156.299;  -12.910;  858.900
950.339;  158.479;  -10.270;  991.000
950.895;  159.240;  -13.630; 1023.840
951.451;  158.593;  -15.100;  925.280
952.007;  157.769;  -11.330;  998.540
952.563;  157.275;  -10.580;  937.780
953.118;  156.050;  -13.440;  904.940
953.674;  155.854;  -12.710;  935.780
954.230;  154.782;  -10.350;  949.640
954.785;  152.541;   -9.190;  936.640
955.341;  151.399;  -11.200;  998.160
955.897;  149.205;  -16.560;  834.660
956.452;  151.894;  -12.570;  953.840
957.008;  150.440;   -7.970; 1083.640
957.563;  149.254;  -11.940; 1009.540
958.118;  144.102;  -13.450;  877.700
958.674;  144.232;  -12.030;  946.780
959.229;  145.193;   -9.410; 1013.980
959.784;  143.608;  -12.000;  832.400
960.339;  143.590;  -14.780; 1001.280
960.894;  139.325;   -9.860;  963.760
961.449;  134.671;   -9.970;  859.960
962.004;  135.706;  -10.900; 1212.840
962.559;  129.390;  -13.150;  860.140
963.114;  126.797;  -13.740;  742.480
963.669;  126.175;   -9.820;  915.500
964.224;  124.651;  -13.890;  874.340
964.779;  124.954;  -12.600;  828.420
965.334;  124.838;  -10.950; 1017.860
965.888;  124.572;  -11.170;  875.360
966.443;  127.476;  -12.540;  972.380
966.998;  127.590;  -15.780;  819.460
967.552;  126.228;   -9.760;  908.380
968.107;  123.528;   -9.060;  868.300
968.661;  124.466;  -11.950;  922.440
969.216;  126.416;  -12.800;  856.280
969.770;  125.830;  -11.210;  917.200
970.324;  124.381;  -11.610;  923.140
970.879;  121.617;  -11.370;  947.180
971.433;  118.716;  -12.540;  952.720
971.987;  112.787;  -11.320;  895.340
972.541;  108.779;  -10.720;  917.100
973.095;  107.903;   -9.680; 1009.460
973.649;  107.124;  -11.440;  809.480
974.203;  106.887;  -11.210;  829.040
974.757;  106.778;  -10.240;  855.220
975.311;  105.379;  -13.720;  872.600
975.865;   99.982;  -13.770;  881.820
976.419;   90.412;  -11.690;  857.400
976.973;   82.920;   -9.510;  849.620
977.526;   80.324;  -12.620;  949.920
978.080;   77.826;  -12.010;  796.780
978.634;   80.825;  -10.170;  921.320
979.187;   81.869;   -9.020;  905.400
979.741;   82.889;   -9.820; 1018.380
980.294;   81.477;  -14.870;  789.160
980.848;   79.269;  -12.380;  717.220
981.401;   81.953;  -10.350;  816.540
981.955;   85.325;  -13.720;  844.300
982.508;   84.884;  -11.490;  746.340
983.061;   85.680;  -10.000;  915.260
983.615;   82.075;  -11.480;  798.800
984.168;   80.425;  -13.220;  770.080
984.721;   80.259;  -13.960;  880.760
985.274;   80.378;  -10.870;  867.500
985.827;   78.934;   -9.790;  834.220
986.380;   77.183;  -13.120;  721.340
986.933;   77.142;  -12.450;  864.800
987.486;   75.612;  -10.210;  861.920
988.039;   74.724;   -8.430;  863.100
988.591;   72.395;  -10.520;  893.260
989.144;   70.812;  -14.860;  737.260
989.697;   70.125;  -13.080;  758.740
990.250;   70.239;  -10.150;  858.100
990.802;   69.942;  -13.430;  755.860
991.355;   71.520;  -12.750;  974.880
991.907;   69.012;  -12.040;  864.320
992.460;   66.505;  -11.330;  753.760
993.012;   66.479;  -13.610;  749.540
993.565;   65.787;  -13.460;  711.360
994.117;   67.479;   -9.360;  950.780
994.669;   63.720;  -11.300;  701.320
995.221;   61.428;  -13.540;  791.920
995.774;   59.295;  -13.430;  787.580
996.326;   56.868;  -12.520;  740.220
996.878;   55.996;  -10.950;  838.420
997.430;   53.646;  -14.300;  699.860
997.982;   54.798;  -13.760;  750.140
998.534;   53.991;  -11.530;  739.060
999.086;   52.801;  -10.310;  738.220
999.638;   51.947;  -12.530;  661.380
1000.190;   51.392;  -11.840;  699.320
1000.741;   50.776;  -10.260;  742.700
1001.293;   50.489;   -8.860;  686.020
1001.845;   48.070;  -13.700;  676.640
1002.396;   49.805;  -12.100;  743.400
1002.948;   49.377;  -12.760;  737.400
1003.500;   46.952;  -10.380;  723.780
1004.051;   48.118;  -11.900;  907.580
1004.603;   46.714;  -12.250;  791.820
1005.154;   42.442;  -13.210;  608.980
1005.705;   42.294;  -10.950;  723.960
1006.257;   41.537;  -13.880;  707.220
1006.808;   41.188;  -12.840;  685.460
1007.359;   40.712;  -10.570;  763.240
1007.910;   39.237;   -9.620;  646.640
1008.461;   39.497;  -13.630;  732.940
1009.013;   39.135;  -17.200;  588.340
1009.564;   39.624;  -10.200;  793.520
1010.115;   37.277;  -12.570;  597.040
1010.665;   36.838;  -15.150;  602.160
1011.216;   37.730;  -14.480;  667.920
1011.767;   36.748;  -11.340;  697.920
1012.318;   36.458;   -9.780;  736.980
1012.869;   35.436;  -12.380;  679.000
1013.419;   35.637;  -15.560;  603.120
1013.970;   35.971;  -11.010;  666.640
1014.521;   34.592;  -11.610;  620.620
1015.071;   35.287;  -13.450;  670.380
1015.622;   35.207;  -13.870;  635.460
1016.172;   34.152;  -11.610;  596.820
1016.723;   33.386;  -12.120;  614.380
1017.273;   32.865;  -13.620;  604.160
1017.823;   33.491;  -14.140;  650.340
1018.374;   32.688;  -12.800;  611.760
1018.924;   32.819;  -12.340;  716.880
1019.474;   33.123;  -11.410;  718.880
1020.024;   32.269;  -14.770;  657.580
1020.574;   32.504;   -9.780;  726.160
1021.124;   32.266;   -8.560;  673.580
1021.674;   30.946;  -15.190;  559.120
1022.224;   33.217;  -13.530;  708.940
1022.774;   32.202;  -13.280;  668.820
1023.324;   32.129;  -10.690;  753.520
1023.874;   32.816;  -10.240;  875.760
1024.423;   31.307;  -12.540;  613.700
1024.973;   31.301;  -10.010;  610.760
1025.523;   29.604;  -10.550;  620.960
1026.072;   29.408;  -13.560;  606.420
1026.622;   29.477;  -15.120;  675.740
1027.172;   30.747;  -11.260;  715.660
1027.721;   28.967;  -11.410;  601.220
1028.270;   30.029;  -13.530;  663.400
1028.820;   29.862;  -13.680;  638.080
1029.369;   28.527;  -13.520;  612.700
1029.918;   28.984;  -10.980;  649.840
1030.468;   28.265;  -13.530;  564.780
1031.017;   28.735;  -13.170;  634.800
1031.566;   28.055;  -12.200;  608.900
1032.115;   28.052;   -9.960;  694.500
1032.664;   27.188;  -13.210;  596.480
1033.213;   27.912;  -12.500;  735.420
1033.762;   28.234;  -11.910;  635.620
1034.311;   27.402;   -9.640;  677.220
1034.860;   27.521;  -13.310;  691.000
1035.408;   27.820;  -11.830;  722.720
1035.957;   27.440;  -12.000;  719.540
1036.506;   25.354;  -11.690;  530.800
1037.055;   26.851;  -10.990;  844.320
1037.603;   26.671;  -15.120;  664.000
1038.152;   25.062;  -12.450;  534.760
1038.700;   24.639;  -10.560;  585.740
1039.249;   25.088;  -11.080;  681.220
1039.797;   25.742;  -12.540;  633.360
1040.345;   25.765;  -11.920;  705.420
1040.894;   24.498;  -11.410;  625.300
1041.442;   24.115;  -14.320;  632.200
1041.990;   24.358;  -16.240;  559.160
1042.538;   24.194;  -11.680;  536.180
1043.087;   23.607;  -10.760;  570.860
1043.635;   24.982;  -11.850;  670.500
1044.183;   24.196;  -15.480;  586.400
1044.731;   23.796;  -11.770;  576.000
1045.279;   22.456;  -13.090;  674.920
1045.827;   25.195;  -12.440;  892.400
1046.374;   23.861;  -13.840;  515.420
1046.922;   22.138;  -13.220;  590.580
1047.470;   23.705;  -10.230;  691.300
1048.018;   22.975;  -14.590;  647.960
1048.565;   24.262;  -12.050;  708.600
1049.113;   22.270;  -11.650;  557.000
1049.660;   22.120;  -10.510;  629.660
1050.208;   22.219;  -13.310;  675.640
1050.755;   21.261;  -15.900;  606.580
1051.303;   22.230;  -11.430;  686.820
1051.850;   21.113;   -8.480;  635.120
1052.397;   19.789;  -15.010;  473.960
1052.945;   21.281;  -13.960;  617.760
1053.492;   22.606;  -13.150;  741.840
1054.039;   21.302;   -9.630;  720.180
1054.586;   20.179;  -13.680;  557.240
1055.133;   21.469;  -14.570;  693.140
1055.680;   21.523;  -13.820;  646.620
1056.227;   20.043;  -11.730;  542.780
1056.774;   21.492;  -12.480;  794.980
1057.321;   20.043;  -13.930;  523.260
1057.868;   19.930;  -11.690;  651.320
1058.415;   19.734;   -9.520;  651.980
1058.961;   19.199;  -13.160;  678.940
1059.508;   20.179;  -12.920;  643.820
1060.055;   19.947;  -11.920;  581.780
1060.601;   19.359;  -11.500;  624.300
1061.148;   19.514;  -14.330;  616.820
1061.694;   18.542;  -16.870;  592.580
1062.241;   18.804;  -10.330;  596.320
1062.787;   19.444;  -10.620;  663.140
1063.334;   20.077;  -10.110;  808.560
1063.880;   19.945;  -13.400;  668.360
1064.426;   18.667;  -10.680;  706.820
1064.972;   17.254;   -9.920;  601.340
1065.518;   16.900;  -10.980;  566.640
1066.065;   18.328;  -14.890;  624.460
1066.611;   18.263;  -12.870;  598.800
1067.157;   18.288;  -12.950;  641.860
1067.703;   17.958;  -13.540;  668.480
1068.249;   17.435;  -13.540;  605.220
1068.794;   18.110;  -12.600;  626.880
1069.340;   16.177;  -10.620;  578.960
1069.886;   16.842;  -12.830;  590.700
1070.432;   16.091;  -14.870;  541.720
1070.977;   16.435;  -11.980;  601.080
1071.523;   15.928;   -8.200;  573.060
1072.068;   16.134;  -12.330;  582.000
1072.614;   16.651;  -16.370;  527.760
1073.160;   17.292;  -11.100;  687.040
1073.705;   15.634;  -10.480;  572.520
1074.250;   15.406;  -14.520;  559.900
1074.796;   16.789;  -11.460;  655.160
1075.341;   17.100;  -11.950;  664.100
1075.886;   16.448;  -11.460;  594.240
1076.431;   14.616;  -13.770;  649.880
1076.976;   15.138;  -12.680;  639.220
1077.521;   14.800;  -13.170;  583.080
1078.067;   14.390;  -10.860;  579.400
1078.612;   14.820;  -13.920;  661.620
1079.156;   15.181;  -13.880;  601.540
1079.701;   15.809;  -13.120;  693.260
1080.246;   15.127;   -9.940;  696.300
1080.791;   14.695;  -14.740;  625.020
1081.336;   14.564;  -13.750;  659.320
1081.880;   15.262;  -13.400;  649.680
1082.425;   13.868;  -12.220;  573.480
1082.970;   15.159;  -11.610;  717.040
1083.514;   14.049;  -13.580;  597.000
1084.059;   13.172;  -12.810;  586.720
1084.603;   12.915;  -12.320;  565.840
1085.147;   13.033;  -13.190;  645.220
1085.692;   14.671;  -12.480;  716.800
1086.236;   12.816;  -13.020;  503.140
1086.780;   14.082;   -9.190;  751.440
1087.325;   13.757;  -12.480;  654.620
1087.869;   13.861;  -12.450;  610.700
1088.413;   13.842;  -12.240;  705.040
1088.957;   11.313;   -9.020;  543.400
1089.501;   13.139;  -10.320;  766.640
1090.045;   13.427;  -12.720;  726.480
1090.589;   10.893;  -13.690;  569.920
1091.133;   11.806;  -10.020;  673.340
1091.676;   12.458;  -12.330;  591.940
1092.220;   13.162;  -14.970;  600.920
1092.764;   13.413;  -12.430;  706.960
1093.307;   12.512;   -9.800;  673.780
1093.851;   10.424;  -14.970;  556.540
1094.395;   11.830;  -15.310;  683.140
1094.938;   11.466;  -10.370;  632.520
1095.482;   11.288;  -11.050;  559.800
1096.025;   11.911;  -11.840;  710.880
1096.568;   12.645;  -12.840;  779.280
1097.112;   10.063;  -14.700;  508.180
1097.655;   11.078;   -8.720;  603.000
1098.198;   10.134;  -13.610;  600.180
1098.741;   10.534;  -13.350;  612.860
1099.285;   11.323;  -11.230;  657.300
1099.828;    9.040;  -11.840;  439.400
1100.371;   10.083;  -10.840;  608.160
1100.914;   11.083;  -14.190;  682.660
1101.457;   10.901;  -11.240;  679.900
1101.999;    8.938;  -11.270;  584.680
1102.542;    9.981;  -11.480;  641.440
1103.085;   10.068;  -11.750;  658.500
1103.628;   10.554;  -11.400;  762.060
1104.170;    9.050;  -10.490;  588.280
1104.713;    9.080;  -10.600;  646.700
1105.256;    9.117;  -14.360;  557.440
1105.798;    8.727;  -13.210;  499.980
1106.341;   10.012;  -10.270;  728.900
1106.883;    8.659;  -12.200;  521.340
1107.425;    9.567;  -13.110;  668.180
1107.968;    8.752;  -12.840;  612.380
1108.510;    8.928;   -6.480;  684.960
1109.052;    7.388;  -13.940;  612.620
1109.594;    8.434;  -13.690;  554.440
1110.136;    9.242;  -11.880;  643.220
1110.679;    7.852;   -9.500;  633.080
1111.221;    9.276;  -14.160;  604.460
1111.763;    7.409;  -13.980;  559.220
1112.304;    7.672;  -13.880;  547.140
1112.846;    8.639;  -12.210;  666.240
1113.388;   10.244;  -11.390;  942.180
1113.930;    8.380;  -14.540;  694.200
1114.472;    7.205;  -12.640;  606.540
1115.013;    6.584;  -11.620;  551.280
1115.555;    6.555;  -13.640;  587.100
1116.097;    6.492;  -15.380;  579.480
1116.638;    7.503;  -12.640;  684.600
1117.180;    7.592;   -9.850;  667.740
1117.721;    6.670;  -13.690;  568.580
1118.262;    8.051;  -12.680;  677.960
1118.804;    7.923;  -12.530;  637.340
1119.345;    6.081;  -11.690;  578.400
1119.886;    6.969;  -13.380;  704.040
1120.427;    5.008;  -14.070;  589.020
1120.969;    5.658;  -13.500;  597.920
1121.510;    5.487;  -11.480;  563.060
1122.051;    5.419;  -12.830;  723.580
1122.592;    5.881;  -14.290;  655.420
1123.133;    4.917;  -12.400;  547.940
1123.673;    6.344;  -10.130;  706.480
1124.214;    5.541;  -12.930;  612.460
1124.755;    7.094;  -14.380;  639.460
1125.296;    6.156;  -14.000;  627.320
1125.836;    6.609;  -10.070;  691.500
1126.377;    4.425;  -12.640;  599.660
1126.918;    5.997;  -12.960;  614.980
1127.458;    5.020;  -13.350;  622.220
1127.999;    5.566;  -10.750;  656.980
1128.539;    5.368;  -12.350;  694.240
1129.079;    5.108;  -14.860;  632.720
1129.620;    4.703;  -13.840;  558.100
1130.160;    4.589;  -12.330;  539.480
1130.700;    5.246;  -14.530;  640.840
1131.240;    6.050;  -12.530;  643.700
1131.781;    5.069;  -14.450;  619.680
1132.321;    3.942;   -9.790;  599.120
1132.861;    3.422;  -14.860;  564.200
1133.401;    3.817;  -14.290;  593.940
1133.941;    4.646;  -11.750;  626.280
1134.481;    3.330;   -9.920;  597.580
1135.020;    2.755;  -12.290;  609.160
1135.560;    4.524;  -11.650;  674.940
1136.100;    3.787;  -16.270;  501.160
1136.640;    2.866;  -10.890;  510.480
1137.179;    3.345;  -14.180;  537.960
1137.719;    3.725;  -16.250;  605.400
1138.258;    3.564;  -14.230;  587.360
1138.798;    3.882;   -9.090;  663.780
1139.337;    1.718;  -15.130;  482.840
1139.877;    3.560;  -13.680;  642.360
1140.416;    5.580;  -11.320;  878.060
1140.955;    3.115;  -10.860;  535.380
1141.494;    2.238;  -12.920;  669.280
1142.034;    2.710;  -13.930;  583.520
1142.573;    3.915;  -11.440;  646.280
1143.112;    2.222;  -12.000;  553.480
1143.651;    1.915;  -13.670;  536.480
1144.190;    3.879;  -12.730;  691.640
1144.729;    2.551;  -14.560;  607.420
1145.267;    1.863;  -11.830;  584.900
1145.806;    2.815;  -12.230;  637.040
1146.345;    1.991;  -14.130;  635.020
1146.884;    2.623;  -11.590;  622.500
1147.422;    0.491;  -12.550;  533.060
1147.961;    3.376;  -11.180;  708.460
1148.500;    2.466;  -11.510;  669.720
1149.038;    3.160;  -11.640;  632.500
1149.577;    2.069;  -10.130;  698.640
1150.115;   -0.335;  -13.970;  452.280
1150.653;    2.150;  -14.520;  607.340
1151.192;    1.952;  -12.810;  552.920
1151.730;    1.433;   -9.100;  652.560
1152.268;    0.565;  -12.220;  589.520
1152.806;    0.942;  -14.140;  571.180
1153.344;    0.623;  -12.350;  577.640
1153.882;    0.993;   -8.980;  600.060
1154.421;   -0.245;  -15.190;  470.620
1154.958;    0.557;  -15.210;  595.240
1155.496;    2.268;  -12.850;  645.280
1156.034;    0.607;   -9.940;  721.880
1156.572;    1.328;  -13.570;  667.060
1157.110;    0.659;  -14.590;  473.940
1157.647;    0.929;  -13.030;  676.960
1158.185;   -0.029;  -12.140;  564.320
1158.723;   -1.573;  -14.390;  509.200
1159.260;    0.833;  -14.090;  701.700
1159.798;    1.046;  -11.920;  658.160
1160.335;    0.320;  -11.110;  631.820

