
Integration time [ms]:   3.276
Averaging Nr. [scans]: 1000
Smoothing Nr. [pixels]: 0
Data measured with spectrometer [name]: 7414430SP
Wave   ;Sample   ;Dark     ;Reference
[nm]   ;[counts] ;[counts] ;[counts] 

288.544;  149.973;    7.793;  793.890
289.143;  153.949;    7.462;  681.602
289.742;  154.514;    8.602;  828.814
290.341;  139.698;    1.321;  789.841
290.940;  129.127;   -0.709;  730.702
291.538;  129.635;    0.881;  881.108
292.137;  129.730;    0.122;  792.581
292.736;  134.910;   -1.929;  975.101
293.335;  131.302;   -8.229;  735.086
293.934;  131.348;   -5.279;  781.677
294.532;  129.395;   -1.369; 1031.958
295.131;  116.885;   -7.641;  834.394
295.730;  117.063;   -8.420;  809.588
296.328;  114.992;   -5.611;  783.442
296.927;  115.614;   -5.781;  779.652
297.525;  117.085;   -6.361;  781.236
298.124;  107.568;  -11.382;  654.009
298.722;  111.226;   -7.641;  761.933
299.321;  108.727;   -6.811;  708.597
299.919;  107.230;   -6.991;  751.918
300.518;  104.007;  -10.362;  689.338
301.116;  105.500;   -9.581;  691.381
301.715;  105.339;   -4.891;  730.222
302.313;  104.031;   -8.801;  704.943
302.911;   99.662;   -8.522;  733.830
303.509;  104.224;   -6.171;  925.627
304.108;  103.213;   -7.311;  760.383
304.706;  102.030;   -8.321;  801.664
305.304;   97.061;  -10.222;  796.707
305.902;  101.622;   -6.021;  784.484
306.500;   96.996;   -4.971;  728.200
307.098;   95.189;   -7.061;  746.560
307.696;   93.512;   -8.801;  780.432
308.294;   94.103;   -6.411;  731.359
308.892;   96.208;   -2.901;  759.769
309.490;   93.174;   -5.041;  712.161
310.088;   91.846;   -5.002;  788.444
310.686;   95.500;   -2.041;  821.749
311.284;   90.284;   -2.351;  766.040
311.882;   87.853;   -4.422;  731.225
312.480;   85.465;   -4.192;  697.167
313.078;   86.951;   -1.172;  808.331
313.675;   86.975;   -2.601;  691.600
314.273;   83.108;   -1.312;  797.837
314.871;   81.352;   -3.942;  589.829
315.468;   80.074;   -2.802;  652.090
316.066;   82.784;   -0.701;  694.427
316.664;   76.174;   -4.362;  656.351
317.261;   79.850;   -2.872;  910.128
317.859;   74.714;   -2.022;  768.735
318.456;   75.606;   -0.531;  830.096
319.054;   71.860;   -3.912;  787.828
319.651;   70.507;   -4.752;  759.928
320.249;   69.963;   -2.602;  810.188
320.846;   67.331;   -0.821;  714.286
321.443;   64.194;   -4.642;  832.135
322.041;   61.917;   -5.002;  812.315
322.638;   59.769;   -3.982;  701.456
323.235;   60.917;   -3.411;  665.683
323.833;   58.083;   -7.361;  740.354
324.430;   53.788;   -8.611;  615.900
325.027;   54.264;   -4.061;  876.855
325.624;   53.827;   -4.031;  644.532
326.221;   50.783;   -7.481;  689.717
326.818;   50.628;   -5.281;  818.332
327.415;   53.709;   -7.460;  748.828
328.012;   53.256;   -5.510;  690.585
328.609;   52.086;   -7.880;  731.389
329.206;   50.505;   -8.331;  778.621
329.803;   51.253;   -5.121;  737.841
330.400;   51.672;   -4.510;  704.260
330.997;   54.025;   -6.441;  817.147
331.594;   53.063;   -8.831;  788.185
332.191;   57.929;   -7.621;  728.722
332.787;   61.068;   -4.591;  844.463
333.384;   59.250;   -7.412;  763.093
333.981;   58.165;   -8.293;  815.687
334.578;   60.578;   -7.052;  708.378
335.174;   63.725;   -3.102;  731.469
335.771;   63.264;   -5.943;  836.456
336.367;   60.285;   -7.393;  710.631
336.964;   64.643;   -4.063;  793.266
337.561;   61.848;   -3.813;  731.112
338.157;   57.527;   -4.654;  911.916
338.754;   55.226;   -7.934;  796.589
339.350;   53.000;   -4.414;  722.493
339.946;   55.714;   -4.664;  773.135
340.543;   47.094;   -6.375;  846.136
341.139;   42.511;   -9.815;  720.836
341.735;   39.786;   -4.526;  772.593
342.332;   37.807;   -4.895;  691.472
342.928;   39.027;   -4.295;  795.394
343.524;   33.482;   -5.476;  761.684
344.120;   29.046;   -5.856;  738.562
344.716;   30.992;   -2.155;  723.717
345.313;   30.351;   -6.275;  795.342
345.909;   25.077;   -8.815;  627.336
346.505;   26.668;   -5.305;  740.247
347.101;   27.232;   -2.674;  827.864
347.697;   27.447;   -4.344;  785.398
348.293;   22.154;   -9.975;  627.244
348.889;   22.288;   -5.774;  745.914
349.485;   22.703;   -5.004;  688.205
350.081;   23.390;   -4.704;  772.592
350.676;   17.676;   -6.635;  691.606
351.272;   23.153;   -4.504;  809.530
351.868;   22.227;   -3.914;  780.497
352.464;   18.801;   -9.044;  723.932
353.059;   16.028;   -8.314;  646.017
353.655;   19.290;   -7.024;  777.063
354.251;   20.325;   -5.343;  759.845
354.846;   14.196;   -8.604;  740.646
355.442;   12.331;   -6.945;  753.071
356.038;   14.828;   -7.564;  751.708
356.633;   14.197;   -5.814;  728.594
357.229;   12.212;   -7.364;  724.757
357.824;   10.436;   -8.024;  703.600
358.420;    9.810;   -9.384;  679.726
359.015;   10.328;   -5.104;  695.357
359.610;   10.957;   -6.854;  763.920
360.206;    5.301;  -10.185;  603.240
360.801;    8.046;   -7.054;  646.503
361.396;    9.946;   -5.034;  725.975
361.992;    6.130;   -8.284;  668.220
362.587;    3.335;   -8.625;  670.160
363.182;    5.799;   -7.674;  689.631
363.777;    5.524;   -5.164;  738.242
364.372;    5.513;   -8.604;  737.314
364.967;    0.868;   -9.055;  680.744
365.563;    5.635;   -6.114;  815.567
366.158;    2.965;   -5.814;  685.161
366.753;    3.633;   -7.854;  649.263
367.348;    1.557;   -7.804;  746.056
367.942;    0.984;   -7.954;  697.298
368.537;    0.429;   -4.984;  754.245
369.132;    0.689;   -8.564;  703.428
369.727;   -2.136;   -8.855;  638.079
370.322;   -1.332;   -6.245;  580.186
370.917;   -1.887;   -6.425;  710.646
371.511;    0.914;   -6.294;  861.834
372.106;   -2.350;   -7.685;  776.964
372.701;   -5.766;   -7.335;  585.988
373.296;    0.106;   -4.564;  863.135
373.890;   -5.190;  -10.235;  647.840
374.485;   -6.966;   -7.885;  691.199
375.079;   -3.842;   -7.324;  738.685
375.674;   -2.257;   -3.494;  812.970
376.268;   -5.875;   -8.525;  691.759
376.863;  -11.602;  -10.086;  580.327
377.457;   -5.848;   -7.025;  662.490
378.052;   -7.327;   -3.585;  764.884
378.646;   -8.699;   -7.595;  741.167
379.240;   -8.246;   -8.335;  721.176
379.835;   -7.727;   -5.785;  636.978
380.429;   -9.627;   -4.335;  562.557
381.023;   -9.840;   -6.805;  779.205
381.617;  -12.540;   -9.195;  680.106
382.212;   -8.963;   -6.905;  685.303
382.806;   -8.428;   -3.745;  760.690
383.400;  -11.455;   -7.745;  672.281
383.994;  -12.612;   -9.765;  664.870
384.588;   -9.875;   -6.564;  697.701
385.182;   -7.757;   -5.344;  726.624
385.776;   -9.637;   -8.514;  706.875
386.370;  -13.184;   -9.555;  681.968
386.964;  -12.035;   -8.715;  684.155
387.558;  -10.393;   -6.174;  598.360
388.152;  -13.644;   -8.725;  681.959
388.745;  -11.380;   -7.965;  814.707
389.339;  -10.128;   -5.924;  747.642
389.933;   -9.425;   -5.524;  695.370
390.527;   -9.608;   -7.114;  859.029
391.120;  -16.286;  -10.725;  595.318
391.714;  -12.915;   -8.035;  711.633
392.308;  -10.794;   -3.574;  780.253
392.901;  -14.229;   -7.245;  642.460
393.495;  -15.427;   -9.285;  595.414
394.089;  -13.166;   -5.895;  760.452
394.682;  -14.642;   -4.295;  697.188
395.275;  -15.377;   -9.875;  719.927
395.869;  -15.633;   -8.485;  667.314
396.462;  -14.430;   -7.455;  616.609
397.056;  -11.042;   -5.424;  776.621
397.649;  -15.147;   -6.605;  731.575
398.242;  -12.525;   -8.224;  712.645
398.836;  -11.811;   -7.474;  766.408
399.429;  -13.269;   -7.094;  631.041
400.022;  -16.806;   -9.475;  665.902
400.615;  -14.180;   -7.145;  805.609
401.208;  -12.139;   -7.174;  691.451
401.802;  -14.639;   -5.515;  699.329
402.395;  -15.729;   -9.875;  683.502
402.988;  -16.140;   -8.845;  696.627
403.581;  -13.568;   -8.874;  646.878
404.174;  -10.944;   -5.324;  686.568
404.767;  -13.989;   -9.575;  638.583
405.360;  -16.459;  -10.965;  621.445
405.953;  -11.402;   -8.764;  759.034
406.545;  -10.781;   -7.514;  725.342
407.138;  -14.883;  -10.025;  618.350
407.731;  -13.569;  -10.034;  613.303
408.324;   -9.725;   -9.374;  660.554
408.917;  -10.946;   -6.534;  681.864
409.509;  -12.703;   -8.004;  740.396
410.102;  -14.549;   -9.875;  643.948
410.695;   -8.736;   -8.604;  665.758
411.287;   -9.733;   -6.794;  599.821
411.880;  -10.465;   -9.334;  585.421
412.472;  -13.693;  -10.254;  613.092
413.065;  -10.928;   -6.714;  629.408
413.657;   -8.750;   -7.234;  576.678
414.250;   -8.649;  -10.544;  646.681
414.842;  -10.250;   -9.744;  676.353
415.434;   -8.081;   -6.994;  570.463
416.027;   -4.153;   -5.893;  652.196
416.619;   -6.526;   -7.264;  713.400
417.211;   -6.696;  -10.374;  599.352
417.804;   -3.224;   -7.993;  628.499
418.396;   -7.075;   -7.234;  607.643
418.988;   -5.065;   -9.443;  659.238
419.580;   -7.802;  -10.724;  568.276
420.172;   -6.329;  -10.323;  536.196
420.764;   -1.896;   -8.793;  672.482
421.356;   -3.055;  -11.143;  636.898
421.948;   -3.766;   -8.293;  677.661
422.540;    1.025;   -7.893;  680.027
423.132;    0.312;   -7.082;  600.641
423.724;   -2.945;   -8.653;  561.267
424.316;   -0.882;  -10.213;  621.345
424.908;    3.217;   -9.762;  591.517
425.500;    2.949;   -5.572;  647.978
426.092;    4.079;   -8.422;  648.268
426.683;    2.736;   -9.283;  684.836
427.275;    4.798;   -7.852;  641.471
427.867;    7.030;   -5.272;  668.948
428.458;    6.974;   -7.682;  732.344
429.050;    6.241;  -10.612;  680.749
429.642;    8.219;   -9.882;  743.124
430.233;    8.531;   -6.962;  569.356
430.825;    9.775;   -6.842;  724.809
431.416;    7.581;   -9.672;  698.241
432.008;   11.350;   -6.552;  651.723
432.599;   11.145;   -6.891;  656.073
433.190;    8.627;  -10.912;  637.670
433.782;    7.455;  -11.172;  590.395
434.373;   15.265;   -6.061;  884.765
434.964;   14.483;   -8.251;  602.920
435.556;   11.716;   -9.722;  634.537
436.147;   13.823;   -9.082;  758.490
436.738;   13.857;   -8.041;  701.099
437.329;   19.206;   -7.341;  721.723
437.920;   12.488;   -8.162;  666.688
438.511;   13.556;  -11.802;  564.526
439.103;   19.308;  -10.191;  623.998
439.694;   20.668;   -7.601;  681.583
440.285;   21.861;   -8.541;  764.432
440.876;   19.451;   -9.751;  845.738
441.466;   19.595;   -9.401;  575.162
442.057;   24.058;   -7.760;  665.814
442.648;   22.840;   -9.971;  746.255
443.239;   21.837;  -11.001;  620.477
443.830;   26.298;   -7.990;  704.958
444.421;   28.512;   -7.910;  655.474
445.011;   24.195;   -8.131;  693.619
445.602;   25.491;   -7.111;  743.126
446.193;   26.277;  -10.920;  488.117
446.783;   30.599;   -6.500;  640.397
447.374;   26.188;   -8.671;  692.759
447.964;   27.030;  -10.781;  713.770
448.555;   35.006;   -9.650;  822.742
449.145;   31.130;   -8.660;  662.853
449.736;   32.579;   -8.990;  803.179
450.326;   32.795;   -9.500;  713.626
450.917;   37.898;   -8.680;  675.324
451.507;   37.076;   -7.520;  600.661
452.097;   37.040;   -8.590;  746.267
452.688;   38.013;  -11.340;  742.160
453.278;   37.555;  -10.100;  566.840
453.868;   41.904;   -6.019;  793.550
454.458;   39.691;   -9.440;  651.141
455.048;   40.457;  -10.560;  711.783
455.639;   41.783;  -11.799;  567.096
456.229;   44.703;   -6.899;  710.694
456.819;   47.138;   -7.389;  751.158
457.409;   47.942;  -11.119;  773.993
457.999;   50.857;   -9.289;  737.505
458.589;   50.555;   -6.139;  686.606
459.179;   50.113;   -8.729;  717.658
459.769;   49.083;   -9.789;  627.099
460.358;   53.370;  -10.259;  797.262
460.948;   52.554;   -7.299;  689.503
461.538;   54.788;  -10.289;  660.677
462.128;   52.885;  -11.269;  664.934
462.717;   59.399;   -9.368;  710.326
463.307;   61.874;   -7.908;  705.846
463.897;   57.836;   -9.599;  656.942
464.486;   57.025;   -9.769;  837.128
465.076;   62.254;   -8.048;  733.776
465.666;   65.516;   -9.358;  652.900
466.255;   62.713;   -7.919;  785.651
466.845;   62.400;  -11.689;  666.749
467.434;   65.581;   -7.818;  725.873
468.023;   66.650;   -7.678;  658.357
468.613;   63.664;  -10.939;  713.946
469.202;   68.836;  -10.118;  646.507
469.791;   72.274;   -9.108;  737.811
470.381;   73.865;   -6.058;  742.813
470.970;   74.394;  -10.428;  711.099
471.559;   73.521;  -10.268;  733.291
472.148;   76.977;   -8.448;  675.737
472.738;   78.264;   -6.917;  765.466
473.327;   78.745;  -11.978;  637.529
473.916;   79.087;  -11.888;  737.446
474.505;   81.835;   -9.437;  751.703
475.094;   85.589;   -6.747;  806.570
475.683;   84.677;   -9.367;  797.699
476.272;   85.922;  -12.637;  730.632
476.861;   88.227;  -10.027;  706.754
477.449;   94.897;   -8.716;  728.487
478.038;   88.623;   -9.577;  692.513
478.627;   90.669;   -9.718;  714.852
479.216;   97.713;   -8.947;  769.441
479.805;  100.877;   -6.256;  783.375
480.393;  100.642;   -7.937; 1008.945
480.982;   99.054;   -7.717;  874.501
481.571;  105.427;   -9.266;  858.333
482.159;  105.341;   -7.636;  705.386
482.748;  105.187;   -9.667;  821.385
483.336;  109.770;  -10.376;  858.209
483.925;  110.824;   -7.147;  774.373
484.513;  117.259;   -7.996;  758.962
485.102;  113.781;  -10.027;  810.965
485.690;  122.108;  -10.446; 1011.050
486.278;  124.606;   -8.446;  979.329
486.867;  125.294;   -6.356;  809.662
487.455;  126.786;   -9.136;  898.229
488.043;  128.082;  -10.646;  748.361
488.631;  137.614;   -7.456; 1005.079
489.220;  140.575;   -6.636;  908.626
489.808;  140.604;  -11.036;  741.415
490.396;  148.695;  -10.246;  914.645
490.984;  155.469;   -8.556;  830.161
491.572;  164.144;   -5.886;  940.315
492.160;  168.957;   -9.486;  919.081
492.748;  181.010;  -10.976;  884.341
493.336;  204.393;   -8.776; 1019.693
493.924;  229.932;   -5.465;  958.077
494.512;  256.620;   -9.986; 1066.638
495.100;  294.052;  -10.636; 1103.280
495.687;  347.056;  -10.885; 1206.373
496.275;  405.916;   -8.126; 1150.796
496.863;  472.360;  -10.586; 1281.171
497.451;  573.190;  -11.926; 1386.805
498.038;  712.089;  -10.885; 1556.729
498.626;  819.581;   -6.315; 1741.407
499.214;  950.355;   -7.326; 2016.609
499.801; 1148.604;  -11.906; 2220.633
500.389; 1397.969;  -10.466; 2312.494
500.976; 1721.609;   -5.236; 2744.849
501.564; 2129.269;   -8.936; 3148.565
502.151; 2499.187;  -13.176; 3515.999
502.738; 2969.458;  -10.646; 3971.274
503.326; 3351.396;   -9.525; 4403.796
503.913; 3730.589;  -10.856; 5161.749
504.500; 4054.657;  -11.586; 5986.420
505.088; 4496.655;  -10.336; 6381.201
505.675; 5002.458;   -6.355; 6925.547
506.262; 5636.198;   -9.046; 7619.060
506.849; 6388.956;  -10.416; 8733.969
507.436; 6844.174;  -10.305; 9790.121
508.023; 7349.637;   -5.496; 9985.472
508.610; 7614.812;   -7.856;10434.618
509.197; 8235.208;  -10.097;11198.435
509.784; 9606.693;  -10.886;12391.194
510.371;10583.354;   -9.315;13603.713
510.958;11293.841;   -9.936;14426.586
511.545;12070.488;   -9.326;15243.775
512.132;12942.555;  -10.075;15945.876
512.719;13576.716;   -7.796;16340.369
513.305;14417.888;  -10.606;18011.766
513.892;15188.337;  -11.486;19754.971
514.479;16667.223;   -9.126;20967.805
515.066;18042.174;   -6.026;22299.793
515.652;18998.387;   -8.466;22908.660
516.239;20134.910;  -10.886;23798.875
516.825;21210.619;  -11.496;25567.275
517.412;22273.191;   -5.796;28154.959
517.998;23070.801;  -10.506;28344.111
518.585;22994.857;  -10.076;27134.219
519.171;23154.854;   -8.315;27268.576
519.758;24232.865;   -8.596;28964.129
520.344;25869.277;   -8.466;30664.494
520.930;26285.010;  -11.006;32550.605
521.516;28148.846;  -10.495;35422.895
522.103;30625.320;   -5.526;38280.004
522.689;31489.502;   -8.746;37835.117
523.275;30956.305;  -11.376;37288.613
523.861;30998.830;  -11.156;37281.395
524.447;31583.582;   -8.135;37846.949
525.033;30821.912;   -7.896;38321.949
525.619;30801.432;  -12.476;38579.285
526.205;31361.434;   -9.516;40622.875
526.791;31595.895;   -6.926;42258.836
527.377;30347.586;   -8.346;42966.902
527.963;34038.383;   -8.717;42018.949
528.549;35874.242;  -11.016;42476.828
529.135;36230.660;   -8.536;41854.852
529.721;36413.844;   -9.666;41237.711
530.306;35943.863;  -10.066;41259.445
530.892;35970.781;  -11.356;41506.047
531.478;37081.676;   -6.596;43559.613
532.063;38997.969;   -8.836;47695.563
532.649;38781.754;  -10.047;50808.324
533.235;40203.742;   -9.746;51787.500
533.820;41911.902;   -6.566;52145.035
534.406;42554.309;  -10.817;51133.488
534.991;41903.613;   -9.416;49996.805
535.576;40550.863;   -9.036;48882.852
536.162;40682.988;   -6.156;46942.285
536.747;41680.551;  -11.607;45711.746
537.333;44700.953;  -11.787;48510.180
537.918;46652.922;  -12.437;50439.891
538.503;44067.176;   -7.196;50863.711
539.088;39232.027;  -10.556;50906.922
539.673;36561.957;   -8.767;52621.965
540.259;35263.063;  -10.026;52368.094
540.844;35030.102;   -7.416;50879.109
541.429;38972.566;   -9.467;52077.777
542.014;45264.598;   -9.527;52716.695
542.599;46828.039;   -9.946;52363.281
543.184;44573.012;   -7.927;53187.137
543.769;45710.082;   -9.297;54697.605
544.354;45176.941;  -10.127;53913.914
544.938;44350.883;   -9.267;49680.164
545.523;46332.629;   -6.506;47386.277
546.108;48297.422;   -9.787;49151.949
546.693;50714.145;  -11.587;51384.637
547.278;50557.961;  -10.986;51853.254
547.862;46994.668;   -8.206;51173.750
548.447;42350.711;  -10.067;51691.395
549.031;41891.199;   -9.637;52456.703
549.616;46538.828;   -9.926;52714.516
550.201;45413.609;   -6.347;52414.598
550.785;46101.699;   -7.917;52355.059
551.370;45875.242;  -10.867;54589.453
551.954;46495.434;   -9.047;58267.348
552.538;47951.961;   -7.827;59062.176
553.123;46348.758;  -10.287;58115.285
553.707;44189.090;  -12.178;56556.285
554.291;44509.059;   -8.717;56201.668
554.876;45676.852;   -7.457;55335.762
555.460;46497.500;  -10.387;54155.703
556.044;48457.953;   -9.618;53721.484
556.628;46736.938;  -11.567;53731.016
557.212;45430.039;   -8.097;54312.531
557.796;43626.918;  -11.077;53797.773
558.380;43588.203;  -11.108;56145.984
558.964;44617.277;   -9.057;57277.930
559.548;45404.441;   -6.977;56459.641
560.132;43829.691;  -11.457;54434.543
560.716;42800.891;  -11.378;54800.617
561.300;43444.492;   -9.577;57606.945
561.884;44606.934;   -7.127;58972.445
562.467;43985.063;   -7.118;57327.570
563.051;43121.477;  -13.358;54962.434
563.635;43211.250;  -10.178;52594.473
564.219;43881.945;   -7.837;50610.410
564.802;44638.105;  -11.398;49551.180
565.386;44960.805;  -12.788;48370.953
565.969;44672.719;   -9.077;48178.871
566.553;44171.621;   -6.207;49957.305
567.136;43881.766;   -8.568;50369.594
567.720;39921.727;  -11.868;49492.004
568.303;38378.539;   -8.268;50616.352
568.887;38477.602;   -8.698;50727.148
569.470;38685.230;   -6.808;51698.379
570.053;37555.137;  -13.188;52122.078
570.637;36282.758;  -12.037;52536.438
571.220;35634.582;   -8.577;51186.098
571.803;35499.625;   -8.498;51032.762
572.386;37665.160;  -10.498;49609.887
572.969;40459.508;   -9.388;48285.926
573.552;39089.102;   -8.338;47624.285
574.135;38167.977;   -8.518;45498.641
574.718;35308.254;  -13.628;41970.434
575.301;33971.535;  -10.893;41447.137
575.884;32634.816;   -8.158;40923.836
576.467;33814.168;  -10.328;45267.723
577.050;36520.719;  -13.058;48175.543
577.633;38331.723;   -9.458;47729.328
578.216;37012.875;   -8.928;47579.793
578.799;35916.785;   -9.358;47820.996
579.381;34162.102;  -11.388;48115.551
579.964;32581.215;  -11.718;47333.766
580.547;33886.051;   -8.588;46668.969
581.129;34810.473;   -8.859;44466.141
581.712;35131.727;  -10.729;44164.922
582.294;36040.836;  -11.118;46477.855
582.877;36354.531;   -5.218;48244.254
583.459;34269.203;   -8.679;47437.895
584.042;32738.227;  -10.709;46943.219
584.624;33425.996;  -11.669;46792.227
585.206;32780.508;   -8.218;46557.250
585.789;33118.480;  -10.569;45793.773
586.371;35895.707;  -11.859;43836.391
586.953;36442.402;  -10.719;42972.492
587.536;37186.805;   -7.198;42487.211
588.118;36697.871;   -8.720;42086.414
588.700;33630.715;  -10.439;43389.930
589.282;32913.711;   -9.198;43646.039
589.864;33816.570;   -9.199;43438.109
590.446;34939.594;  -11.319;43151.926
591.028;34516.250;  -11.159;42781.867
591.610;33432.727;  -11.779;42839.098
592.192;30855.545;   -7.668;42820.402
592.774;29420.041;  -11.949;40724.277
593.356;28387.725;  -12.129;39874.789
593.937;28090.434;  -10.669;39980.648
594.519;30216.064;   -6.509;42069.633
595.101;32392.432;  -10.849;42976.031
595.683;32463.350;  -11.679;44084.441
596.264;33654.359;   -9.049;43478.797
596.846;32266.949;   -8.849;43803.672
597.427;31391.252;   -9.570;42986.934
598.009;32990.043;  -12.620;42832.219
598.591;33405.160;  -10.039;42580.086
599.172;32648.537;  -10.369;43061.805
599.753;32713.627;   -9.140;41691.469
600.335;34522.375;  -11.430;40692.520
600.916;33161.512;   -9.939;39982.422
601.498;30544.383;   -8.479;40318.617
602.079;29335.236;  -10.920;40670.609
602.660;29566.371;  -11.480;41450.898
603.241;30472.705;  -11.699;41137.738
603.823;29331.314;   -9.579;38868.797
604.404;29464.949;  -10.620;38182.785
604.985;30566.592;  -10.450;38078.047
605.566;29603.156;   -9.129;38056.633
606.147;29511.418;   -7.510;37020.418
606.728;31755.037;  -10.660;37883.359
607.309;30834.178;  -11.740;38748.273
607.890;29993.121;   -9.759;38850.230
608.471;29884.619;   -8.250;37457.918
609.051;29211.727;   -9.240;36066.457
609.632;28304.396;  -12.120;35991.074
610.213;29198.590;   -9.110;37402.641
610.794;29558.031;   -8.030;38383.363
611.374;28740.855;   -8.110;40562.387
611.955;28989.293;  -13.560;38533.727
612.536;30508.818;  -11.400;36951.789
613.116;30506.781;   -8.070;37197.891
613.697;30752.375;  -10.830;38411.125
614.277;29333.334;  -11.641;38673.938
614.858;30115.521;  -13.310;37075.863
615.438;29511.871;   -7.460;35092.906
616.019;26646.906;   -7.601;33666.301
616.599;27285.480;  -12.020;34189.023
617.179;29158.443;  -11.780;36952.047
617.760;29788.418;   -8.570;39582.574
618.340;31063.908;  -11.471;38943.977
618.920;32647.791;  -11.170;37594.156
619.500;32278.631;  -11.071;37866.938
620.080;31648.271;   -7.750;37869.043
620.660;32589.281;  -12.711;36868.617
621.241;33328.922;  -10.211;36352.309
621.821;33197.914;  -10.961;35459.520
622.401;32886.250;   -7.720;35207.414
622.980;32029.590;   -8.981;35980.422
623.560;30489.195;   -9.331;37351.328
624.140;29989.803;   -9.850;34388.582
624.720;25115.059;   -7.451;32368.764
625.300;21333.709;   -9.070;32638.629
625.880;24539.881;  -12.601;34599.035
626.459;28387.189;  -11.751;36831.738
627.039;31481.469;   -9.281;38299.098
627.619;31450.656;   -8.801;38289.574
628.198;29513.957;  -12.071;37220.695
628.778;28720.564;   -9.461;37632.563
629.357;29689.977;   -8.491;38003.012
629.937;29733.920;   -9.721;38402.039
630.516;28956.715;   -9.951;37868.801
631.096;28640.061;  -11.731;35760.410
631.675;32033.809;   -8.572;35225.219
632.254;37127.281;  -11.282;35130.289
632.834;36492.711;  -13.322;35794.570
633.413;34535.828;  -10.301;35788.922
633.992;31502.096;   -8.582;34532.863
634.571;32676.383;   -8.352;33590.113
635.151;35184.543;  -11.912;34943.863
635.730;33474.641;  -10.511;35352.523
636.309;30379.734;   -7.731;35366.605
636.888;28123.471;   -9.952;36165.637
637.467;29048.354;  -11.672;37515.902
638.046;31126.928;   -8.901;39288.695
638.625;34278.098;   -7.912;38279.699
639.204;33790.781;  -10.022;37741.598
639.782;31635.072;  -12.252;38364.551
640.361;27811.574;  -10.041;36740.621
640.940;25074.811;  -11.161;34950.082
641.519;25479.701;   -9.701;34137.398
642.097;28013.311;  -11.271;35654.258
642.676;30888.979;   -8.651;35637.957
643.255;31937.609;   -8.711;36567.074
643.833;30998.205;   -9.581;37809.434
644.412;31505.656;  -13.711;37337.293
644.990;31094.150;  -11.811;37018.531
645.569;31113.023;   -9.411;36518.469
646.147;29747.568;  -10.291;36186.430
646.726;28649.250;  -12.401;36267.688
647.304;29746.588;  -10.411;36647.625
647.882;31761.740;   -9.651;39286.742
648.461;33316.285;   -9.631;39157.703
649.039;31769.213;  -11.881;35412.883
649.617;31331.320;   -9.661;34744.918
650.195;31296.268;   -9.301;35403.098
650.773;30172.559;  -10.511;35053.797
651.352;27673.467;  -11.521;33756.816
651.930;25431.123;  -12.211;31868.773
652.508;23806.262;   -9.171;33121.551
653.086;27485.098;   -9.371;33564.793
653.663;30328.221;  -13.161;34054.668
654.241;29321.814;  -13.031;35693.309
654.819;31049.309;   -9.371;36422.906
655.397;30889.742;  -10.511;38213.484
655.975;30871.686;  -10.371;39507.625
656.553;30848.971;  -10.051;39498.223
657.130;29108.404;  -10.061;40395.480
657.708;28765.893;   -9.561;39242.020
658.286;28617.373;  -11.511;38920.020
658.863;29498.715;  -10.261;40202.898
659.441;32014.609;   -7.531;39677.938
660.018;31057.816;   -9.501;40413.355
660.596;30221.559;  -13.301;39931.414
661.173;32430.297;  -11.211;39604.531
661.750;32623.207;   -9.951;39700.070
662.328;31791.281;   -9.390;39292.809
662.905;30925.955;  -11.330;38235.648
663.482;26357.494;   -9.050;36212.305
664.060;24435.291;   -8.240;35944.945
664.637;27246.445;  -10.050;35170.785
665.214;29180.760;  -11.760;34197.523
665.791;30696.453;  -10.530;34549.520
666.368;29268.875;   -9.690;35118.578
666.945;29977.223;   -9.320;36019.418
667.522;31435.078;  -11.860;36048.438
668.099;32096.777;  -10.770;36243.914
668.676;31654.734;   -6.260;35958.875
669.253;29740.602;   -7.000;37384.730
669.830;30084.789;  -10.190;36779.629
670.407;29767.477;   -9.550;35231.289
670.984;30234.016;   -9.260;35544.270
671.560;30158.779;   -9.280;35466.867
672.137;28632.789;  -11.810;34280.863
672.714;29439.717;  -11.490;34632.863
673.290;29603.840;   -7.740;35135.422
673.867;29868.250;  -10.660;36114.480
674.443;30050.184;  -12.230;36152.859
675.020;28530.158;  -10.450;35327.238
675.596;29721.117;   -9.260;35795.176
676.173;30158.439;  -10.780;35430.355
676.749;29849.230;  -13.690;33549.516
677.326;30261.311;  -11.980;32210.012
677.902;30468.393;   -8.630;32068.871
678.478;29499.732;  -10.730;32583.891
679.054;29464.666;  -10.520;32088.928
679.631;30231.533;  -11.920;30978.848
680.207;30988.885;   -7.490;33160.887
680.783;32172.096;   -9.860;35570.363
681.359;31442.445;  -13.380;36125.184
681.935;30452.730;  -12.480;35240.922
682.511;28945.135;   -7.900;34429.961
683.087;28931.861;   -7.710;34463.680
683.663;29301.527;  -11.480;34648.898
684.239;28557.705;  -14.090;34546.457
684.815;27984.572;   -7.560;35586.375
685.390;28373.898;   -9.910;35821.895
685.966;29012.775;  -11.159;35085.871
686.542;31828.477;  -11.169;34198.230
687.118;33666.016;   -5.959;32847.707
687.693;33475.750;  -10.329;32794.027
688.269;32695.664;  -12.059;33072.367
688.844;30381.260;  -10.909;33141.664
689.420;28300.836;   -8.019;33965.742
689.995;26053.395;   -8.399;34655.523
690.571;24908.480;  -10.949;33576.742
691.146;25559.764;   -9.619;32657.219
691.722;24918.016;   -8.999;32526.979
692.297;25218.736;  -11.589;33014.617
692.872;27407.266;  -11.739;34012.254
693.448;26701.604;  -11.059;34237.434
694.023;25859.391;  -10.139;34142.672
694.598;27975.986;   -9.029;34132.031
695.173;27990.059;  -13.319;34205.250
695.748;27470.492;  -10.169;32882.488
696.323;27219.426;   -8.339;32864.906
696.898;27203.773;   -8.169;33170.004
697.473;26866.637;  -12.309;32432.984
698.048;26663.742;  -10.989;31649.303
698.623;27395.543;   -9.329;30778.141
699.198;29633.516;   -9.849;31140.119
699.773;30266.846;  -12.329;31764.299
700.348;28561.896;  -10.389;31780.816
700.922;28501.863;   -9.269;32046.375
701.497;28808.281;   -9.329;32603.574
702.072;28831.053;  -10.789;34799.871
702.646;28074.145;  -10.839;35793.172
703.221;26431.152;   -9.099;35201.590
703.795;28486.939;  -10.939;34764.527
704.370;28862.738;  -12.859;34307.367
704.944;29250.000;  -11.559;33509.887
705.519;30452.014;   -7.939;31388.584
706.093;31653.609;  -10.499;31340.104
706.668;31433.346;  -11.289;32630.281
707.242;30018.238;  -11.509;32728.779
707.816;28528.467;   -9.639;32947.238
708.390;27210.957;  -11.429;33277.855
708.965;28457.719;  -11.869;33834.336
709.539;29494.258;  -11.689;33709.273
710.113;30052.664;  -10.478;33044.313
710.687;28956.719;  -10.228;31953.992
711.261;26500.955;  -13.698;30505.949
711.835;26322.680;  -13.378;30262.369
712.409;27554.637;   -9.698;31254.447
712.983;28860.813;  -11.898;32754.986
713.557;29482.967;  -15.138;34018.824
714.131;29340.564;  -14.098;34579.625
714.704;28543.342;   -9.958;33890.262
715.278;26244.701;  -10.028;33531.102
715.852;25794.619;  -11.148;33601.660
716.425;26679.797;   -9.068;33515.117
716.999;27061.148;  -10.038;33185.555
717.573;28178.654;   -9.798;33905.996
718.146;29419.693;  -12.378;35199.293
718.720;28705.553;  -11.918;35060.551
719.293;27996.174;   -8.088;34973.230
719.867;30836.221;  -10.888;36394.449
720.440;30669.777;  -11.938;36663.008
721.013;29180.482;  -12.818;35102.426
721.587;27768.654;  -10.298;33985.266
722.160;26082.662;  -10.048;33524.965
722.733;25254.930;  -12.108;32987.043
723.306;26187.143;  -10.818;33066.301
723.880;28413.979;   -8.908;33399.500
724.453;29874.555;   -9.878;33468.297
725.026;28646.998;  -11.188;33816.637
725.599;26239.871;  -11.678;32797.996
726.172;27047.967;   -9.618;33187.434
726.745;28521.121;   -8.258;35136.613
727.318;30345.787;  -12.978;35751.730
727.891;30795.234;  -12.148;35890.430
728.463;30437.221;   -8.968;34822.090
729.036;29283.510;  -10.188;32895.086
729.609;29421.566;  -11.788;31823.225
730.182;26042.955;  -11.788;31445.283
730.754;23549.740;  -10.268;32373.223
731.327;23532.814;   -9.998;33676.820
731.900;23749.020;  -12.228;33417.000
732.472;25408.674;  -13.848;31978.498
733.045;27569.447;   -8.698;30368.777
733.617;27556.514;  -10.607;30574.215
734.190;26773.027;  -11.507;31280.975
734.762;23651.441;  -13.647;31674.412
735.334;22215.938;   -9.767;31247.291
735.907;22857.426;   -9.897;29876.211
736.479;22404.949;  -11.637;29808.488
737.051;21983.896;   -9.567;30233.547
737.623;23562.479;   -8.187;31469.086
738.195;24995.781;  -11.187;31784.225
738.768;26776.869;  -12.337;32120.523
739.340;26129.465;  -12.227;32094.342
739.912;24602.014;  -11.057;31312.680
740.484;23703.613;  -10.207;31946.238
741.056;23006.393;  -10.047;32984.059
741.628;24891.920;  -13.627;33897.715
742.199;27311.785;   -7.177;33213.016
742.771;25603.189;  -10.797;31369.113
743.343;23040.322;  -11.997;31865.473
743.915;21867.201;  -12.867;32388.631
744.487;22197.178;   -7.617;31079.568
745.058;22391.143;   -9.557;30570.107
745.630;23074.563;   -9.877;29970.127
746.201;23746.080;  -14.177;29186.766
746.773;23793.150;   -9.237;28805.723
747.344;23674.859;   -9.847;29591.223
747.916;22485.436;  -11.657;31412.201
748.487;22564.389;  -10.587;32194.898
749.059;23920.176;   -8.707;32533.719
749.630;25140.305;  -10.537;32158.518
750.201;24388.930;  -11.687;30855.395
750.773;22652.459;  -11.647;28622.555
751.344;22736.717;   -7.147;28405.732
751.915;23625.170;   -9.757;28461.551
752.486;22404.943;  -12.427;27842.850
753.057;20039.758;  -12.227;27845.008
753.628;19077.910;  -10.417;27728.107
754.199;20408.174;  -11.767;27381.086
754.770;21509.150;  -11.187;25882.203
755.341;21466.133;  -10.507;25886.184
755.912;21660.703;   -9.387;26050.861
756.483;20916.268;  -10.647;26798.779
757.054;18980.588;  -11.837;27048.238
757.625;17762.928;  -12.716;26294.838
758.195;17590.352;   -9.666;26142.076
758.766;17291.865;   -8.656;26392.234
759.337;18271.408;  -12.856;26334.594
759.907;20344.369;  -13.366;27579.652
760.478;21227.547;   -8.576;28352.770
761.048;20555.318;  -10.526;27325.088
761.619;19784.586;  -11.116;26460.428
762.189;19685.840;  -12.136;26029.826
762.760;20750.625;   -9.456;26430.145
763.330;21763.266;   -7.136;26670.902
763.900;20913.912;  -11.786;26603.021
764.471;18034.328;  -11.546;25542.740
765.041;16807.686;   -8.096;24358.459
765.611;17178.682;   -8.876;23991.297
766.181;17825.533;  -12.196;24470.236
766.751;18600.316;  -11.636;24845.975
767.321;18267.264;  -10.156;24533.633
767.891;16210.024;  -11.766;24916.492
768.461;15737.163;  -14.936;24776.771
769.031;16264.454;  -12.356;24757.988
769.601;17935.555;   -7.526;24181.088
770.171;17856.322;  -10.766;23670.387
770.741;17098.350;  -13.176;22960.045
771.311;17381.986;  -10.616;22917.523
771.880;17540.723;   -9.576;23562.941
772.450;16986.023;  -10.336;24216.500
773.020;17075.848;  -13.516;24140.398
773.589;16832.949;  -13.466;24414.857
774.159;16455.660;   -8.686;23858.717
774.729;16019.043;   -9.476;22942.135
775.298;15366.867;  -13.666;22324.033
775.867;14936.712;  -11.716;21140.313
776.437;14868.351;   -9.906;20838.092
777.006;14448.832;  -12.166;20599.510
777.576;14472.738;  -12.356;20508.809
778.145;14862.214;  -11.646;20732.947
778.714;14747.212;   -8.226;21062.465
779.283;13839.656;   -9.556;20949.664
779.853;13526.946;  -14.116;20508.623
780.422;13994.578;  -11.506;20649.082
780.991;13539.993;   -9.556;21527.520
781.560;12540.046;   -9.095;22632.658
782.129;12399.675;  -12.135;23048.277
782.698;12352.272;  -10.865;23438.555
783.267;11975.887;   -9.335;23267.734
783.836;11966.108;  -11.045;22415.133
784.404;12894.790;  -13.865;20443.152
784.973;13168.948;  -13.095;19699.150
785.542;13007.024;  -11.575;19763.828
786.111;12957.880;   -9.705;20341.408
786.679;12568.348;  -12.105;20207.967
787.248;12351.140;  -12.455;19516.465
787.817;12097.830;  -11.535;18900.363
788.385;11599.401;   -9.765;17879.121
788.954;10910.617;  -14.005;17658.301
789.522;10521.496;  -11.955;17788.879
790.090;11152.873;  -10.135;18118.277
790.659;11446.231;  -10.975;18338.736
791.227;10838.508;  -13.375;18508.615
791.795;11347.020;  -12.375;17898.254
792.364;11682.275;  -10.725;17295.133
792.932;11864.503;   -9.715;16822.051
793.500;12057.039;  -12.675;17040.148
794.068;12381.463;  -13.495;17179.787
794.636;12539.443;  -10.885;16664.246
795.204;12133.006;  -11.045;16524.545
795.772;12138.957;  -13.175;17274.564
796.340;11638.778;  -12.445;17891.002
796.908;11509.618;   -9.735;17648.561
797.476;11489.234;   -9.815;17064.080
798.044;11010.422;  -13.985;16672.777
798.612;10097.671;  -13.115;17023.996
799.180; 9709.009;  -10.185;16561.615
799.747; 9592.845;   -9.055;15962.773
800.315; 9300.854;  -12.385;15296.992
800.883; 8923.474;  -15.035;14801.771
801.450; 8827.702;  -10.365;14534.430
802.018; 8835.201;   -9.855;14173.248
802.585; 8882.735;  -11.905;14029.547
803.153; 9000.873;  -11.585;13836.846
803.720; 9017.031;   -9.095;13567.324
804.287; 8709.906;   -9.135;13360.622
804.855; 8284.205;  -11.604;13681.981
805.422; 8117.073;  -11.794;13536.560
805.989; 8051.146;  -10.734;13355.958
806.556; 8237.701;  -10.444;13747.896
807.124; 8572.730;  -12.764;13987.376
807.691; 8513.505;  -12.964;14038.674
808.258; 8279.969;  -11.134;14120.152
808.825; 7917.397;   -9.854;13860.111
809.392; 7952.991;  -10.504;13268.790
809.959; 7533.675;  -13.054;12680.389
810.526; 7198.645;   -8.294;12427.308
811.093; 7270.927;   -8.394;12030.105
811.659; 7773.778;  -12.304;11653.664
812.226; 8120.324;  -13.944;11637.183
812.793; 7760.500;  -10.484;11611.521
813.360; 7144.928;  -10.144;11885.181
813.926; 6772.523;  -11.684;12770.539
814.493; 6523.929;  -13.644;12677.638
815.060; 6208.833;   -9.724;11974.336
815.626; 6324.507;   -9.854;11594.715
816.193; 6778.737;  -13.254;11579.474
816.759; 6822.917;  -13.204;11666.972
817.325; 6975.143;   -9.434;11325.530
817.892; 7348.346;  -10.134;11105.369
818.458; 7725.059;  -13.474;10843.928
819.024; 7341.212;  -11.854;10714.406
819.591; 6985.998;  -10.244;10469.165
820.157; 6735.384;  -10.704;10235.523
820.723; 6267.406;  -12.324;10847.563
821.289; 6033.895;   -9.444;11040.980
821.855; 5954.994;   -8.374;10357.100
822.421; 5930.593;  -10.234; 9978.918
822.987; 5863.432;  -13.294; 9754.177
823.553; 5573.703;  -10.884;10065.755
824.119; 5442.517;   -8.884;10036.294
824.685; 5518.270;   -6.784;10029.192
825.251; 5587.027;  -12.004;10199.230
825.816; 5552.051;  -11.474; 9820.189
826.382; 5371.667;   -9.174; 9297.248
826.948; 5629.132;   -9.214; 9381.347
827.513; 6020.211;  -10.774; 9450.726
828.079; 5803.277;  -11.924; 9472.444
828.645; 5262.072;  -10.543; 9292.643
829.210; 5223.543;  -10.533; 9065.341
829.776; 5189.625;  -10.753; 9132.620
830.341; 5050.093;  -10.173; 9092.878
830.906; 5247.027;  -10.743; 9078.557
831.472; 5593.916;  -11.113; 8534.535
832.037; 5310.603;  -10.603; 8677.874
832.602; 4727.376;  -13.323; 8628.692
833.167; 4391.897;  -10.823; 8879.031
833.733; 4314.973;  -10.113; 9189.790
834.298; 4392.341;  -13.583; 9052.608
834.863; 4371.387;  -12.703; 8895.087
835.428; 4337.970;  -10.523; 8824.266
835.993; 4300.333;   -6.963; 8845.385
836.558; 4230.395;  -10.763; 8888.563
837.123; 4375.516;   -9.903; 8966.582
837.688; 4553.643;   -9.913; 8617.860
838.253; 4722.782;  -10.283; 8590.699
838.817; 4921.506;  -12.963; 8443.797
839.382; 4844.513;  -14.243; 8799.356
839.947; 4545.639;  -10.733; 8810.595
840.511; 4225.800;   -9.383; 8796.394
841.076; 3869.287;  -12.563; 8347.231
841.641; 3938.434;  -12.953; 8224.330
842.205; 4008.201;   -7.043; 8223.349
842.770; 4149.307;   -8.163; 8622.107
843.334; 4427.439;  -12.503; 8410.386
843.898; 4454.136;  -11.693; 8337.465
844.463; 4482.037;  -10.203; 8506.283
845.027; 4193.087;   -9.533; 8280.962
845.591; 3974.627;  -13.443; 8231.141
846.156; 3960.302;  -13.143; 7969.179
846.720; 3838.981;   -9.433; 7768.278
847.284; 3702.934;  -11.033; 7630.957
847.848; 3523.179;  -10.403; 7472.395
848.412; 3421.355;  -11.553; 7437.394
848.976; 3477.588;   -8.393; 7674.592
849.540; 3445.193;   -8.713; 7836.011
850.104; 3548.848;  -12.463; 7913.669
850.668; 3876.652;  -12.973; 7694.508
851.232; 3975.690;  -10.793; 7756.887
851.796; 3803.365;  -10.662; 7926.545
852.359; 3495.065;  -13.082; 7827.844
852.923; 3348.969;  -12.192; 7641.163
853.487; 3176.604;  -11.912; 7342.501
854.050; 3100.138;  -10.892; 7042.820
854.614; 3224.281;  -13.992; 7151.338
855.177; 3339.395;  -11.732; 7105.077
855.741; 3388.589;   -8.962; 6989.675
856.304; 3284.174;   -9.442; 6596.634
856.868; 3215.393;  -14.192; 6356.272
857.431; 3340.025;  -12.702; 6468.571
857.995; 3458.091;   -9.942; 6373.210
858.558; 3466.895;   -9.112; 6324.448
859.121; 3201.168;  -12.932; 6408.327
859.684; 3094.896;  -13.442; 6347.886
860.247; 3219.786;  -10.632; 6321.264
860.810; 3179.175;  -11.272; 6301.903
861.374; 2921.299;   -9.832; 6607.881
861.937; 2667.452;  -11.762; 6408.200
862.500; 2641.694;   -9.722; 6572.639
863.062; 2799.994;  -10.512; 6387.297
863.625; 2974.580;  -11.232; 6190.836
864.188; 3131.451;  -14.112; 5807.254
864.751; 3185.022;  -11.302; 5682.413
865.314; 3072.743;  -10.112; 5547.492
865.876; 2907.556;  -12.182; 5500.150
866.439; 2936.425;  -10.722; 5415.909
867.002; 2879.555;   -9.252; 5501.567
867.564; 2639.179;   -9.572; 5413.946
868.127; 2412.048;  -13.142; 5160.325
868.689; 2333.987;  -12.902; 5133.183
869.252; 2270.003;   -9.732; 5252.382
869.814; 2185.748;   -9.432; 5297.141
870.377; 2203.664;  -11.552; 5390.919
870.939; 2284.168;   -9.052; 5599.898
871.501; 2332.476;  -10.982; 5248.336
872.063; 2326.638;  -12.292; 4854.235
872.626; 2292.998;  -14.912; 4817.074
873.188; 2311.104;  -13.112; 4987.732
873.750; 2265.140;  -13.442; 4868.651
874.312; 2176.198;   -9.402; 4779.330
874.874; 2088.091;  -11.062; 4866.348
875.436; 2010.634;  -13.931; 4718.887
875.998; 2001.966;   -9.561; 4660.005
876.560; 1999.036;  -11.321; 4462.964
877.122; 1937.266;  -12.221; 4145.042
877.683; 1869.048;  -12.191; 4056.481
878.245; 1864.623;  -12.101; 3950.740
878.807; 1995.878;   -8.971; 4058.958
879.369; 2113.240;  -12.071; 3954.677
879.930; 2008.804;  -14.621; 3941.495
880.492; 1783.093;  -10.311; 4067.014
881.053; 1441.649;  -10.901; 3859.633
881.615; 1056.456;  -14.411; 3776.071
882.176;  849.443;  -13.761; 3734.750
882.738;  833.415;   -9.181; 3678.489
883.299;  888.656;  -11.791; 3405.407
883.860;  958.492;  -13.121; 3351.106
884.422; 1017.185;  -11.211; 3394.044
884.983; 1030.416;  -10.091; 3166.443
885.544;  994.291;   -8.461; 3189.802
886.105;  961.230;  -12.361; 3160.360
886.666;  933.382;  -14.141; 3093.059
887.227;  903.044;  -11.361; 2941.957
887.788;  852.236;  -11.401; 2974.836
888.349;  805.626;  -13.791; 2721.214
888.910;  816.026;  -13.191; 2696.493
889.471;  833.809;   -9.881; 2560.172
890.032;  819.904;   -9.881; 2558.190
890.593;  800.376;  -10.371; 2567.669
891.153;  775.892;  -13.301; 2460.307
891.714;  731.463;  -11.431; 2372.046
892.275;  695.227;  -11.291; 2309.505
892.835;  656.114;  -11.471; 2382.543
893.396;  602.163;  -11.541; 2295.502
893.956;  549.725;  -11.181; 2162.420
894.517;  518.994;  -11.741; 2125.439
895.077;  515.201;  -11.671; 2086.978
895.638;  517.846;  -11.311; 2126.316
896.198;  489.450;   -9.831; 1838.275
896.758;  447.670;   -8.421; 1892.813
897.319;  417.613;  -12.351; 1792.232
897.879;  400.085;  -13.511; 1762.751
898.439;  372.704;  -12.001; 1661.149
898.999;  347.690;  -10.180; 1781.468
899.559;  339.262;  -12.030; 1703.347
900.119;  335.074;  -15.710; 1537.525
900.679;  332.475;   -8.900; 1638.384
901.239;  320.480;   -8.340; 1527.902
901.799;  310.345;  -13.910; 1456.441
902.359;  304.621;  -13.460; 1357.140
902.919;  297.734;  -11.490; 1331.118
903.479;  283.588;  -12.110; 1317.257
904.038;  261.659;  -11.720; 1262.595
904.598;  247.054;  -13.610; 1152.034
905.158;  242.784;  -11.040; 1240.893
905.717;  234.229;  -10.900; 1233.691
906.277;  223.592;  -15.080; 1217.330
906.836;  213.903;  -13.380; 1222.408
907.396;  206.470;  -10.780; 1193.047
907.955;  200.550;   -8.500; 1182.526
908.515;  194.696;  -12.760; 1099.364
909.074;  188.964;  -11.900; 1092.863
909.633;  183.113;   -8.950; 1069.121
910.192;  177.976;   -8.770; 1196.460
910.752;  172.561;  -12.390; 1029.960
911.311;  168.342;  -13.680; 1009.780
911.870;  165.234;  -12.370;  971.460
912.429;  163.357;  -10.900; 1094.080
912.988;  160.166;  -11.690; 1081.060
913.547;  154.003;  -13.240;  940.380
914.106;  150.208;  -11.990;  999.420
914.665;  147.917;   -9.990;  984.020
915.224;  148.705;  -12.880; 1035.760
915.782;  148.349;  -12.350;  922.560
916.341;  149.008;   -9.110; 1049.840
916.900;  145.162;   -9.270;  925.260
917.458;  143.593;  -13.240;  884.220
918.017;  143.355;  -13.550;  942.600
918.576;  142.619;  -12.320;  904.440
919.134;  140.824;  -11.490;  837.980
919.693;  138.930;  -13.670;  893.060
920.251;  137.143;  -15.470;  876.500
920.809;  136.160;  -11.290;  839.580
921.368;  136.111;  -10.210;  885.360
921.926;  134.642;  -12.140;  842.940
922.484;  133.703;  -13.080;  903.360
923.042;  133.507;  -11.720;  880.340
923.601;  136.434;   -7.480;  998.680
924.159;  134.878;  -11.570;  935.560
924.717;  130.782;  -13.840;  841.080
925.275;  131.506;  -10.640;  903.240
925.833;  130.659;  -11.540;  779.320
926.391;  132.891;  -12.960;  938.380
926.949;  130.893;  -14.130;  857.680
927.506;  130.240;  -11.750;  903.500
928.064;  130.529;  -10.250;  877.580
928.622;  130.189;  -13.030;  880.100
929.180;  129.445;  -13.400;  814.180
929.737;  131.342;  -10.700;  808.540
930.295;  134.539;  -10.070;  928.480
930.853;  136.339;  -11.960;  849.100
931.410;  136.075;  -13.120;  821.120
931.968;  136.753;  -10.770;  940.660
932.525;  135.720;  -10.680;  909.380
933.082;  136.480;  -13.130;  811.440
933.640;  136.287;  -13.210;  925.900
934.197;  134.917;  -11.060;  886.360
934.754;  136.569;   -9.580;  897.780
935.312;  138.652;  -14.000;  863.340
935.869;  143.360;  -10.710; 1012.980
936.426;  143.473;   -9.860;  872.800
936.983;  143.993;   -9.710;  889.020
937.540;  143.086;  -13.990;  838.280
938.097;  141.185;  -14.040;  940.120
938.654;  141.959;  -10.310;  898.860
939.211;  144.625;  -10.560;  952.480
939.768;  149.067;  -13.900;  915.420
940.324;  152.266;  -14.760;  904.200
940.881;  152.556;  -10.370;  878.500
941.438;  152.347;   -8.260; 1021.200
941.995;  148.313;  -12.540;  992.560
942.551;  145.152;  -14.670;  875.620
943.108;  146.826;  -10.450;  937.920
943.664;  148.569;  -10.750;  869.340
944.221;  152.370;  -11.550; 1088.140
944.777;  150.165;  -14.770;  869.680
945.334;  152.251;  -12.820;  884.840
945.890;  154.682;  -10.130;  946.480
946.446;  153.789;  -13.470;  947.020
947.003;  156.065;  -12.120;  964.940
947.559;  158.287;   -9.980; 1063.040
948.115;  156.765;   -9.080; 1026.540
948.671;  155.242;  -10.830;  967.300
949.227;  152.883;  -12.440;  859.560
949.783;  150.040;  -12.910;  858.900
950.339;  150.084;  -10.270;  991.000
950.895;  151.134;  -13.630; 1023.840
951.451;  151.753;  -15.100;  925.280
952.007;  152.230;  -11.330;  998.540
952.563;  153.865;  -10.580;  937.780
953.118;  153.159;  -13.440;  904.940
953.674;  152.420;  -12.710;  935.780
954.230;  152.489;  -10.350;  949.640
954.785;  148.770;   -9.190;  936.640
955.341;  146.647;  -11.200;  998.160
955.897;  145.552;  -16.560;  834.660
956.452;  146.348;  -12.570;  953.840
957.008;  144.775;   -7.970; 1083.640
957.563;  142.504;  -11.940; 1009.540
958.118;  138.512;  -13.450;  877.700
958.674;  139.802;  -12.030;  946.780
959.229;  140.664;   -9.410; 1013.980
959.784;  138.067;  -12.000;  832.400
960.339;  136.114;  -14.780; 1001.280
960.894;  133.505;   -9.860;  963.760
961.449;  129.410;   -9.970;  859.960
962.004;  129.371;  -10.900; 1212.840
962.559;  124.134;  -13.150;  860.140
963.114;  121.881;  -13.740;  742.480
963.669;  122.185;   -9.820;  915.500
964.224;  120.596;  -13.890;  874.340
964.779;  119.139;  -12.600;  828.420
965.334;  120.406;  -10.950; 1017.860
965.888;  119.728;  -11.170;  875.360
966.443;  121.972;  -12.540;  972.380
966.998;  120.817;  -15.780;  819.460
967.552;  119.641;   -9.760;  908.380
968.107;  115.577;   -9.060;  868.300
968.661;  117.484;  -11.950;  922.440
969.216;  118.016;  -12.800;  856.280
969.770;  119.290;  -11.210;  917.200
970.324;  117.948;  -11.610;  923.140
970.879;  114.193;  -11.370;  947.180
971.433;  110.988;  -12.540;  952.720
971.987;  106.415;  -11.320;  895.340
972.541;  102.840;  -10.720;  917.100
973.095;  103.359;   -9.680; 1009.460
973.649;  101.541;  -11.440;  809.480
974.203;  101.429;  -11.210;  829.040
974.757;  100.483;  -10.240;  855.220
975.311;  101.687;  -13.720;  872.600
975.865;  100.392;  -13.770;  881.820
976.419;   98.222;  -11.690;  857.400
976.973;   99.220;   -9.510;  849.620
977.526;  100.339;  -12.620;  949.920
978.080;   99.456;  -12.010;  796.780
978.634;  101.727;  -10.170;  921.320
979.187;   98.101;   -9.020;  905.400
979.741;   95.953;   -9.820; 1018.380
980.294;   91.275;  -14.870;  789.160
980.848;   89.669;  -12.380;  717.220
981.401;   91.391;  -10.350;  816.540
981.955;   93.377;  -13.720;  844.300
982.508;   91.978;  -11.490;  746.340
983.061;   92.627;  -10.000;  915.260
983.615;   88.704;  -11.480;  798.800
984.168;   85.269;  -13.220;  770.080
984.721;   84.013;  -13.960;  880.760
985.274;   84.167;  -10.870;  867.500
985.827;   83.052;   -9.790;  834.220
986.380;   80.797;  -13.120;  721.340
986.933;   80.342;  -12.450;  864.800
987.486;   77.952;  -10.210;  861.920
988.039;   76.505;   -8.430;  863.100
988.591;   75.169;  -10.520;  893.260
989.144;   72.927;  -14.860;  737.260
989.697;   72.179;  -13.080;  758.740
990.250;   72.794;  -10.150;  858.100
990.802;   71.803;  -13.430;  755.860
991.355;   73.416;  -12.750;  974.880
991.907;   70.432;  -12.040;  864.320
992.460;   67.448;  -11.330;  753.760
993.012;   67.232;  -13.610;  749.540
993.565;   66.124;  -13.460;  711.360
994.117;   67.450;   -9.360;  950.780
994.669;   64.197;  -11.300;  701.320
995.221;   61.916;  -13.540;  791.920
995.774;   60.469;  -13.430;  787.580
996.326;   59.163;  -12.520;  740.220
996.878;   59.044;  -10.950;  838.420
997.430;   56.687;  -14.300;  699.860
997.982;   55.923;  -13.760;  750.140
998.534;   55.246;  -11.530;  739.060
999.086;   53.277;  -10.310;  738.220
999.638;   52.524;  -12.530;  661.380
1000.190;   51.588;  -11.840;  699.320
1000.741;   52.111;  -10.260;  742.700
1001.293;   51.317;   -8.860;  686.020
1001.845;   49.662;  -13.700;  676.640
1002.396;   49.413;  -12.100;  743.400
1002.948;   49.490;  -12.760;  737.400
1003.500;   47.329;  -10.380;  723.780
1004.051;   48.281;  -11.900;  907.580
1004.603;   46.759;  -12.250;  791.820
1005.154;   43.532;  -13.210;  608.980
1005.705;   42.151;  -10.950;  723.960
1006.257;   41.418;  -13.880;  707.220
1006.808;   41.239;  -12.840;  685.460
1007.359;   41.022;  -10.570;  763.240
1007.910;   39.493;   -9.620;  646.640
1008.461;   38.784;  -13.630;  732.940
1009.013;   38.082;  -17.200;  588.340
1009.564;   39.880;  -10.200;  793.520
1010.115;   37.078;  -12.570;  597.040
1010.665;   37.300;  -15.150;  602.160
1011.216;   36.862;  -14.480;  667.920
1011.767;   36.709;  -11.340;  697.920
1012.318;   37.028;   -9.780;  736.980
1012.869;   35.312;  -12.380;  679.000
1013.419;   34.743;  -15.560;  603.120
1013.970;   35.722;  -11.010;  666.640
1014.521;   34.292;  -11.610;  620.620
1015.071;   35.239;  -13.450;  670.380
1015.622;   33.959;  -13.870;  635.460
1016.172;   33.916;  -11.610;  596.820
1016.723;   33.521;  -12.120;  614.380
1017.273;   32.765;  -13.620;  604.160
1017.823;   34.072;  -14.140;  650.340
1018.374;   33.749;  -12.800;  611.760
1018.924;   32.755;  -12.340;  716.880
1019.474;   33.381;  -11.410;  718.880
1020.024;   31.271;  -14.770;  657.580
1020.574;   33.023;   -9.780;  726.160
1021.124;   32.462;   -8.560;  673.580
1021.674;   30.807;  -15.190;  559.120
1022.224;   32.338;  -13.530;  708.940
1022.774;   32.490;  -13.280;  668.820
1023.324;   31.742;  -10.690;  753.520
1023.874;   33.273;  -10.240;  875.760
1024.423;   30.720;  -12.540;  613.700
1024.973;   30.220;  -10.010;  610.760
1025.523;   29.502;  -10.550;  620.960
1026.072;   29.878;  -13.560;  606.420
1026.622;   29.252;  -15.120;  675.740
1027.172;   31.002;  -11.260;  715.660
1027.721;   28.893;  -11.410;  601.220
1028.270;   29.904;  -13.530;  663.400
1028.820;   28.470;  -13.680;  638.080
1029.369;   29.116;  -13.520;  612.700
1029.918;   29.144;  -10.980;  649.840
1030.468;   28.298;  -13.530;  564.780
1031.017;   28.888;  -13.170;  634.800
1031.566;   27.749;  -12.200;  608.900
1032.115;   28.034;   -9.960;  694.500
1032.664;   27.164;  -13.210;  596.480
1033.213;   27.823;  -12.500;  735.420
1033.762;   27.618;  -11.910;  635.620
1034.311;   27.403;   -9.640;  677.220
1034.860;   28.106;  -13.310;  691.000
1035.408;   27.257;  -11.830;  722.720
1035.957;   27.501;  -12.000;  719.540
1036.506;   24.942;  -11.690;  530.800
1037.055;   28.434;  -10.990;  844.320
1037.603;   25.517;  -15.120;  664.000
1038.152;   24.668;  -12.450;  534.760
1038.700;   24.736;  -10.560;  585.740
1039.249;   24.898;  -11.080;  681.220
1039.797;   25.177;  -12.540;  633.360
1040.345;   25.700;  -11.920;  705.420
1040.894;   24.944;  -11.410;  625.300
1041.442;   25.025;  -14.320;  632.200
1041.990;   23.536;  -16.240;  559.160
1042.538;   23.194;  -11.680;  536.180
1043.087;   24.006;  -10.760;  570.860
1043.635;   24.821;  -11.850;  670.500
1044.183;   23.308;  -15.480;  586.400
1044.731;   23.156;  -11.770;  576.000
1045.279;   23.486;  -13.090;  674.920
1045.827;   25.172;  -12.440;  892.400
1046.374;   22.675;  -13.840;  515.420
1046.922;   22.183;  -13.220;  590.580
1047.470;   23.605;  -10.230;  691.300
1048.018;   22.952;  -14.590;  647.960
1048.565;   23.840;  -12.050;  708.600
1049.113;   21.277;  -11.650;  557.000
1049.660;   21.806;  -10.510;  629.660
1050.208;   22.544;  -13.310;  675.640
1050.755;   21.062;  -15.900;  606.580
1051.303;   22.595;  -11.430;  686.820
1051.850;   21.947;   -8.480;  635.120
1052.397;   20.504;  -15.010;  473.960
1052.945;   20.146;  -13.960;  617.760
1053.492;   22.456;  -13.150;  741.840
1054.039;   22.014;   -9.630;  720.180
1054.586;   20.414;  -13.680;  557.240
1055.133;   21.195;  -14.570;  693.140
1055.680;   21.431;  -13.820;  646.620
1056.227;   20.150;  -11.730;  542.780
1056.774;   21.500;  -12.480;  794.980
1057.321;   19.789;  -13.930;  523.260
1057.868;   19.746;  -11.690;  651.320
1058.415;   19.413;   -9.520;  651.980
1058.961;   20.007;  -13.160;  678.940
1059.508;   19.259;  -12.920;  643.820
1060.055;   20.085;  -11.920;  581.780
1060.601;   19.555;  -11.500;  624.300
1061.148;   19.562;  -14.330;  616.820
1061.694;   18.242;  -16.870;  592.580
1062.241;   19.204;  -10.330;  596.320
1062.787;   19.009;  -10.620;  663.140
1063.334;   20.315;  -10.110;  808.560
1063.880;   19.541;  -13.400;  668.360
1064.426;   19.190;  -10.680;  706.820
1064.972;   17.309;   -9.920;  601.340
1065.518;   16.535;  -10.980;  566.640
1066.065;   17.786;  -14.890;  624.460
1066.611;   17.076;  -12.870;  598.800
1067.157;   18.105;  -12.950;  641.860
1067.703;   17.475;  -13.540;  668.480
1068.249;   17.754;  -13.540;  605.220
1068.794;   17.773;  -12.600;  626.880
1069.340;   16.264;  -10.620;  578.960
1069.886;   16.920;  -12.830;  590.700
1070.432;   16.669;  -14.870;  541.720
1070.977;   16.756;  -11.980;  601.080
1071.523;   16.215;   -8.200;  573.060
1072.068;   16.098;  -12.330;  582.000
1072.614;   16.082;  -16.370;  527.760
1073.160;   17.475;  -11.100;  687.040
1073.705;   15.517;  -10.480;  572.520
1074.250;   15.337;  -14.520;  559.900
1074.796;   16.443;  -11.460;  655.160
1075.341;   16.791;  -11.950;  664.100
1075.886;   15.701;  -11.460;  594.240
1076.431;   15.103;  -13.770;  649.880
1076.976;   14.760;  -12.680;  639.220
1077.521;   15.202;  -13.170;  583.080
1078.067;   14.328;  -10.860;  579.400
1078.612;   15.011;  -13.920;  661.620
1079.156;   14.108;  -13.880;  601.540
1079.701;   15.779;  -13.120;  693.260
1080.246;   15.192;   -9.940;  696.300
1080.791;   15.130;  -14.740;  625.020
1081.336;   14.203;  -13.750;  659.320
1081.880;   14.598;  -13.400;  649.680
1082.425;   14.020;  -12.220;  573.480
1082.970;   14.384;  -11.610;  717.040
1083.514;   13.223;  -13.580;  597.000
1084.059;   13.125;  -12.810;  586.720
1084.603;   12.668;  -12.320;  565.840
1085.147;   12.954;  -13.190;  645.220
1085.692;   14.069;  -12.480;  716.800
1086.236;   12.261;  -13.020;  503.140
1086.780;   13.720;   -9.190;  751.440
1087.325;   13.458;  -12.480;  654.620
1087.869;   13.176;  -12.450;  610.700
1088.413;   13.464;  -12.240;  705.040
1088.957;   11.889;   -9.020;  543.400
1089.501;   13.497;  -10.320;  766.640
1090.045;   13.223;  -12.720;  726.480
1090.589;   11.309;  -13.690;  569.920
1091.133;   12.486;  -10.020;  673.340
1091.676;   12.533;  -12.330;  591.940
1092.220;   12.031;  -14.970;  600.920
1092.764;   13.374;  -12.430;  706.960
1093.307;   12.244;   -9.800;  673.780
1093.851;   11.166;  -14.970;  556.540
1094.395;   12.164;  -15.310;  683.140
1094.938;   11.573;  -10.370;  632.520
1095.482;   10.795;  -11.050;  559.800
1096.025;   11.169;  -11.840;  710.880
1096.568;   11.886;  -12.840;  779.280
1097.112;   10.041;  -14.700;  508.180
1097.655;   11.406;   -8.720;  603.000
1098.198;   10.125;  -13.610;  600.180
1098.741;   10.022;  -13.350;  612.860
1099.285;   11.739;  -11.230;  657.300
1099.828;    9.003;  -11.840;  439.400
1100.371;   10.658;  -10.840;  608.160
1100.914;    9.775;  -14.190;  682.660
1101.457;   10.473;  -11.240;  679.900
1101.999;    8.823;  -11.270;  584.680
1102.542;    9.978;  -11.480;  641.440
1103.085;    9.381;  -11.750;  658.500
1103.628;   10.450;  -11.400;  762.060
1104.170;    8.866;  -10.490;  588.280
1104.713;    9.782;  -10.600;  646.700
1105.256;    8.399;  -14.360;  557.440
1105.798;    8.311;  -13.210;  499.980
1106.341;   10.470;  -10.270;  728.900
1106.883;    9.181;  -12.200;  521.340
1107.425;    8.691;  -13.110;  668.180
1107.968;    8.249;  -12.840;  612.380
1108.510;    8.441;   -6.480;  684.960
1109.052;    7.712;  -13.940;  612.620
1109.594;    7.885;  -13.690;  554.440
1110.136;    8.981;  -11.880;  643.220
1110.679;    8.163;   -9.500;  633.080
1111.221;    8.357;  -14.160;  604.460
1111.763;    7.590;  -13.980;  559.220
1112.304;    7.074;  -13.880;  547.140
1112.846;    8.274;  -12.210;  666.240
1113.388;   10.898;  -11.390;  942.180
1113.930;    8.143;  -14.540;  694.200
1114.472;    7.297;  -12.640;  606.540
1115.013;    6.072;  -11.620;  551.280
1115.555;    6.613;  -13.640;  587.100
1116.097;    5.564;  -15.380;  579.480
1116.638;    7.061;  -12.640;  684.600
1117.180;    7.289;   -9.850;  667.740
1117.721;    6.833;  -13.690;  568.580
1118.262;    7.420;  -12.680;  677.960
1118.804;    7.764;  -12.530;  637.340
1119.345;    5.560;  -11.690;  578.400
1119.886;    7.929;  -13.380;  704.040
1120.427;    5.726;  -14.070;  589.020
1120.969;    6.185;  -13.500;  597.920
1121.510;    5.318;  -11.480;  563.060
1122.051;    6.544;  -12.830;  723.580
1122.592;    4.907;  -14.290;  655.420
1123.133;    5.382;  -12.400;  547.940
1123.673;    6.837;  -10.130;  706.480
1124.214;    6.007;  -12.930;  612.460
1124.755;    5.829;  -14.380;  639.460
1125.296;    5.922;  -14.000;  627.320
1125.836;    6.149;  -10.070;  691.500
1126.377;    5.185;  -12.640;  599.660
1126.918;    5.778;  -12.960;  614.980
1127.458;    5.028;  -13.350;  622.220
1127.999;    5.711;  -10.750;  656.980
1128.539;    5.583;  -12.350;  694.240
1129.079;    4.522;  -14.860;  632.720
1129.620;    5.025;  -13.840;  558.100
1130.160;    3.595;  -12.330;  539.480
1130.700;    5.527;  -14.530;  640.840
1131.240;    5.341;  -12.530;  643.700
1131.781;    5.113;  -14.450;  619.680
1132.321;    4.230;   -9.790;  599.120
1132.861;    3.659;  -14.860;  564.200
1133.401;    2.801;  -14.290;  593.940
1133.941;    4.442;  -11.750;  626.280
1134.481;    3.406;   -9.920;  597.580
1135.020;    3.528;  -12.290;  609.160
1135.560;    4.199;  -11.650;  674.940
1136.100;    3.390;  -16.270;  501.160
1136.640;    3.429;  -10.890;  510.480
1137.179;    3.151;  -14.180;  537.960
1137.719;    3.692;  -16.250;  605.400
1138.258;    3.642;  -14.230;  587.360
1138.798;    3.708;   -9.090;  663.780
1139.337;    2.047;  -15.130;  482.840
1139.877;    3.224;  -13.680;  642.360
1140.416;    5.545;  -11.320;  878.060
1140.955;    2.702;  -10.860;  535.380
1141.494;    2.756;  -12.920;  669.280
1142.034;    2.548;  -13.930;  583.520
1142.573;    3.779;  -11.440;  646.280
1143.112;    2.600;  -12.000;  553.480
1143.651;    3.288;  -13.670;  536.480
1144.190;    2.805;  -12.730;  691.640
1144.729;    2.520;  -14.560;  607.420
1145.267;    2.032;  -11.830;  584.900
1145.806;    3.724;  -12.230;  637.040
1146.345;    1.647;  -14.130;  635.020
1146.884;    1.991;  -11.590;  622.500
1147.422;    1.559;  -12.550;  533.060
1147.961;    2.890;  -11.180;  708.460
1148.500;    2.005;  -11.510;  669.720
1149.038;    2.832;  -11.640;  632.500
1149.577;    1.906;  -10.130;  698.640
1150.115;   -0.127;  -13.970;  452.280
1150.653;    2.057;  -14.520;  607.340
1151.192;    1.459;  -12.810;  552.920
1151.730;    2.282;   -9.100;  652.560
1152.268;    1.215;  -12.220;  589.520
1152.806;    0.887;  -14.140;  571.180
1153.344;    0.062;  -12.350;  577.640
1153.882;    0.903;   -8.980;  600.060
1154.421;   -0.627;  -15.190;  470.620
1154.958;   -0.028;  -15.210;  595.240
1155.496;    2.568;  -12.850;  645.280
1156.034;    1.432;   -9.940;  721.880
1156.572;    1.882;  -13.570;  667.060
1157.110;   -0.134;  -14.590;  473.940
1157.647;    1.777;  -13.030;  676.960
1158.185;    0.517;  -12.140;  564.320
1158.723;   -1.161;  -14.390;  509.200
1159.260;    0.661;  -14.090;  701.700
1159.798;    1.589;  -11.920;  658.160
1160.335;   -0.238;  -11.110;  631.820

