
Integration time [ms]:   3.276
Averaging Nr. [scans]: 1000
Smoothing Nr. [pixels]: 0
Data measured with spectrometer [name]: 7414430SP
Wave   ;Sample   ;Dark     ;Reference
[nm]   ;[counts] ;[counts] ;[counts] 

288.544;  150.370;    7.793;  793.890
289.143;  155.121;    7.462;  681.602
289.742;  155.491;    8.602;  828.814
290.341;  141.476;    1.321;  789.841
290.940;  129.804;   -0.709;  730.702
291.538;  130.962;    0.881;  881.108
292.137;  130.996;    0.122;  792.581
292.736;  135.529;   -1.929;  975.101
293.335;  132.199;   -8.229;  735.086
293.934;  132.207;   -5.279;  781.677
294.532;  131.870;   -1.369; 1031.958
295.131;  117.004;   -7.641;  834.394
295.730;  116.835;   -8.420;  809.588
296.328;  116.311;   -5.611;  783.442
296.927;  117.098;   -5.781;  779.652
297.525;  118.157;   -6.361;  781.236
298.124;  107.842;  -11.382;  654.009
298.722;  111.804;   -7.641;  761.933
299.321;  109.393;   -6.811;  708.597
299.919;  108.391;   -6.991;  751.918
300.518;  105.001;  -10.362;  689.338
301.116;  105.839;   -9.581;  691.381
301.715;  107.484;   -4.891;  730.222
302.313;  104.966;   -8.801;  704.943
302.911;  101.349;   -8.522;  733.830
303.509;  105.497;   -6.171;  925.627
304.108;  104.170;   -7.311;  760.383
304.706;  103.014;   -8.321;  801.664
305.304;   97.179;  -10.222;  796.707
305.902;  102.137;   -6.021;  784.484
306.500;   97.555;   -4.971;  728.200
307.098;   97.068;   -7.061;  746.560
307.696;   94.808;   -8.801;  780.432
308.294;   94.205;   -6.411;  731.359
308.892;   97.526;   -2.901;  759.769
309.490;   93.420;   -5.041;  712.161
310.088;   91.298;   -5.002;  788.444
310.686;   95.046;   -2.041;  821.749
311.284;   91.834;   -2.351;  766.040
311.882;   88.905;   -4.422;  731.225
312.480;   85.666;   -4.192;  697.167
313.078;   87.599;   -1.172;  808.331
313.675;   89.647;   -2.601;  691.600
314.273;   84.135;   -1.312;  797.837
314.871;   82.860;   -3.942;  589.829
315.468;   80.969;   -2.802;  652.090
316.066;   84.135;   -0.701;  694.427
316.664;   76.920;   -4.362;  656.351
317.261;   80.423;   -2.872;  910.128
317.859;   75.928;   -2.022;  768.735
318.456;   76.319;   -0.531;  830.096
319.054;   72.137;   -3.912;  787.828
319.651;   71.246;   -4.752;  759.928
320.249;   70.049;   -2.602;  810.188
320.846;   68.062;   -0.821;  714.286
321.443;   64.903;   -4.642;  832.135
322.041;   61.979;   -5.002;  812.315
322.638;   59.872;   -3.982;  701.456
323.235;   62.056;   -3.411;  665.683
323.833;   58.726;   -7.361;  740.354
324.430;   53.667;   -8.611;  615.900
325.027;   55.144;   -4.061;  876.855
325.624;   55.832;   -4.031;  644.532
326.221;   51.322;   -7.481;  689.717
326.818;   50.971;   -5.281;  818.332
327.415;   53.817;   -7.460;  748.828
328.012;   53.612;   -5.510;  690.585
328.609;   52.677;   -7.880;  731.389
329.206;   49.927;   -8.331;  778.621
329.803;   50.152;   -5.121;  737.841
330.400;   53.173;   -4.510;  704.260
330.997;   54.446;   -6.441;  817.147
331.594;   53.711;   -8.831;  788.185
332.191;   58.091;   -7.621;  728.722
332.787;   61.410;   -4.591;  844.463
333.384;   60.049;   -7.412;  763.093
333.981;   58.183;   -8.293;  815.687
334.578;   61.413;   -7.052;  708.378
335.174;   65.192;   -3.102;  731.469
335.771;   64.337;   -5.943;  836.456
336.367;   61.406;   -7.393;  710.631
336.964;   64.437;   -4.063;  793.266
337.561;   63.072;   -3.813;  731.112
338.157;   58.369;   -4.654;  911.916
338.754;   56.276;   -7.934;  796.589
339.350;   54.056;   -4.414;  722.493
339.946;   56.250;   -4.664;  773.135
340.543;   48.394;   -6.375;  846.136
341.139;   42.035;   -9.815;  720.836
341.735;   39.934;   -4.526;  772.593
342.332;   39.265;   -4.895;  691.472
342.928;   39.390;   -4.295;  795.394
343.524;   33.891;   -5.476;  761.684
344.120;   30.018;   -5.856;  738.562
344.716;   33.276;   -2.155;  723.717
345.313;   31.207;   -6.275;  795.342
345.909;   25.438;   -8.815;  627.336
346.505;   26.484;   -5.305;  740.247
347.101;   28.209;   -2.674;  827.864
347.697;   27.953;   -4.344;  785.398
348.293;   22.426;   -9.975;  627.244
348.889;   23.353;   -5.774;  745.914
349.485;   23.016;   -5.004;  688.205
350.081;   23.950;   -4.704;  772.592
350.676;   17.908;   -6.635;  691.606
351.272;   22.556;   -4.504;  809.530
351.868;   22.694;   -3.914;  780.497
352.464;   20.105;   -9.044;  723.932
353.059;   16.194;   -8.314;  646.017
353.655;   18.459;   -7.024;  777.063
354.251;   20.700;   -5.343;  759.845
354.846;   15.257;   -8.604;  740.646
355.442;   12.651;   -6.945;  753.071
356.038;   14.187;   -7.564;  751.708
356.633;   14.707;   -5.814;  728.594
357.229;   13.144;   -7.364;  724.757
357.824;   10.424;   -8.024;  703.600
358.420;    9.534;   -9.384;  679.726
359.015;   11.049;   -5.104;  695.357
359.610;   11.768;   -6.854;  763.920
360.206;    5.164;  -10.185;  603.240
360.801;    7.872;   -7.054;  646.503
361.396;   10.950;   -5.034;  725.975
361.992;    6.084;   -8.284;  668.220
362.587;    3.353;   -8.625;  670.160
363.182;    5.616;   -7.674;  689.631
363.777;    6.266;   -5.164;  738.242
364.372;    6.185;   -8.604;  737.314
364.967;    1.667;   -9.055;  680.744
365.563;    5.888;   -6.114;  815.567
366.158;    3.131;   -5.814;  685.161
366.753;    3.532;   -7.854;  649.263
367.348;    1.597;   -7.804;  746.056
367.942;    2.322;   -7.954;  697.298
368.537;    1.693;   -4.984;  754.245
369.132;    1.353;   -8.564;  703.428
369.727;   -3.083;   -8.855;  638.079
370.322;   -1.502;   -6.245;  580.186
370.917;   -1.882;   -6.425;  710.646
371.511;    1.050;   -6.294;  861.834
372.106;   -2.625;   -7.685;  776.964
372.701;   -5.954;   -7.335;  585.988
373.296;    0.069;   -4.564;  863.135
373.890;   -4.641;  -10.235;  647.840
374.485;   -7.001;   -7.885;  691.199
375.079;   -3.015;   -7.324;  738.685
375.674;   -1.813;   -3.494;  812.970
376.268;   -5.916;   -8.525;  691.759
376.863;  -12.069;  -10.086;  580.327
377.457;   -6.010;   -7.025;  662.490
378.052;   -7.777;   -3.585;  764.884
378.646;   -8.576;   -7.595;  741.167
379.240;   -8.552;   -8.335;  721.176
379.835;   -8.115;   -5.785;  636.978
380.429;   -9.144;   -4.335;  562.557
381.023;  -10.090;   -6.805;  779.205
381.617;  -12.652;   -9.195;  680.106
382.212;   -8.716;   -6.905;  685.303
382.806;   -8.205;   -3.745;  760.690
383.400;  -11.883;   -7.745;  672.281
383.994;  -13.330;   -9.765;  664.870
384.588;   -9.589;   -6.564;  697.701
385.182;   -7.615;   -5.344;  726.624
385.776;   -9.067;   -8.514;  706.875
386.370;  -13.234;   -9.555;  681.968
386.964;  -12.063;   -8.715;  684.155
387.558;   -9.693;   -6.174;  598.360
388.152;  -13.011;   -8.725;  681.959
388.745;  -12.338;   -7.965;  814.707
389.339;  -10.117;   -5.924;  747.642
389.933;   -8.892;   -5.524;  695.370
390.527;  -10.152;   -7.114;  859.029
391.120;  -16.347;  -10.725;  595.318
391.714;  -13.792;   -8.035;  711.633
392.308;   -9.970;   -3.574;  780.253
392.901;  -13.341;   -7.245;  642.460
393.495;  -16.242;   -9.285;  595.414
394.089;  -14.504;   -5.895;  760.452
394.682;  -14.056;   -4.295;  697.188
395.275;  -14.996;   -9.875;  719.927
395.869;  -16.075;   -8.485;  667.314
396.462;  -15.087;   -7.455;  616.609
397.056;  -10.399;   -5.424;  776.621
397.649;  -14.799;   -6.605;  731.575
398.242;  -12.678;   -8.224;  712.645
398.836;  -12.532;   -7.474;  766.408
399.429;  -12.686;   -7.094;  631.041
400.022;  -16.340;   -9.475;  665.902
400.615;  -14.282;   -7.145;  805.609
401.208;  -12.741;   -7.174;  691.451
401.802;  -14.784;   -5.515;  699.329
402.395;  -15.272;   -9.875;  683.502
402.988;  -16.652;   -8.845;  696.627
403.581;  -13.823;   -8.874;  646.878
404.174;  -10.576;   -5.324;  686.568
404.767;  -14.348;   -9.575;  638.583
405.360;  -16.670;  -10.965;  621.445
405.953;  -11.506;   -8.764;  759.034
406.545;  -11.037;   -7.514;  725.342
407.138;  -14.508;  -10.025;  618.350
407.731;  -14.121;  -10.034;  613.303
408.324;   -9.820;   -9.374;  660.554
408.917;  -10.862;   -6.534;  681.864
409.509;  -11.797;   -8.004;  740.396
410.102;  -14.487;   -9.875;  643.948
410.695;   -8.976;   -8.604;  665.758
411.287;   -9.770;   -6.794;  599.821
411.880;  -10.824;   -9.334;  585.421
412.472;  -13.904;  -10.254;  613.092
413.065;  -10.704;   -6.714;  629.408
413.657;   -8.522;   -7.234;  576.678
414.250;   -8.336;  -10.544;  646.681
414.842;  -11.095;   -9.744;  676.353
415.434;   -8.004;   -6.994;  570.463
416.027;   -3.624;   -5.893;  652.196
416.619;   -5.708;   -7.264;  713.400
417.211;   -7.050;  -10.374;  599.352
417.804;   -4.157;   -7.993;  628.499
418.396;   -7.325;   -7.234;  607.643
418.988;   -4.435;   -9.443;  659.238
419.580;   -8.395;  -10.724;  568.276
420.172;   -6.652;  -10.323;  536.196
420.764;   -1.197;   -8.793;  672.482
421.356;   -2.704;  -11.143;  636.898
421.948;   -4.139;   -8.293;  677.661
422.540;    0.951;   -7.893;  680.027
423.132;    0.078;   -7.082;  600.641
423.724;   -2.807;   -8.653;  561.267
424.316;   -0.346;  -10.213;  621.345
424.908;    2.397;   -9.762;  591.517
425.500;    3.712;   -5.572;  647.978
426.092;    3.982;   -8.422;  648.268
426.683;    2.083;   -9.283;  684.836
427.275;    5.390;   -7.852;  641.471
427.867;    7.045;   -5.272;  668.948
428.458;    7.962;   -7.682;  732.344
429.050;    5.973;  -10.612;  680.749
429.642;    8.044;   -9.882;  743.124
430.233;    8.709;   -6.962;  569.356
430.825;    9.546;   -6.842;  724.809
431.416;    7.342;   -9.672;  698.241
432.008;   10.437;   -6.552;  651.723
432.599;   12.027;   -6.891;  656.073
433.190;    8.666;  -10.912;  637.670
433.782;    7.327;  -11.172;  590.395
434.373;   15.305;   -6.061;  884.765
434.964;   14.059;   -8.251;  602.920
435.556;   12.007;   -9.722;  634.537
436.147;   14.407;   -9.082;  758.490
436.738;   14.780;   -8.041;  701.099
437.329;   19.712;   -7.341;  721.723
437.920;   12.786;   -8.162;  666.688
438.511;   12.639;  -11.802;  564.526
439.103;   19.243;  -10.191;  623.998
439.694;   20.767;   -7.601;  681.583
440.285;   22.074;   -8.541;  764.432
440.876;   19.667;   -9.751;  845.738
441.466;   18.730;   -9.401;  575.162
442.057;   24.887;   -7.760;  665.814
442.648;   23.683;   -9.971;  746.255
443.239;   21.813;  -11.001;  620.477
443.830;   26.427;   -7.990;  704.958
444.421;   27.974;   -7.910;  655.474
445.011;   24.939;   -8.131;  693.619
445.602;   24.666;   -7.111;  743.126
446.193;   25.914;  -10.920;  488.117
446.783;   30.829;   -6.500;  640.397
447.374;   26.340;   -8.671;  692.759
447.964;   26.360;  -10.781;  713.770
448.555;   35.114;   -9.650;  822.742
449.145;   32.322;   -8.660;  662.853
449.736;   32.300;   -8.990;  803.179
450.326;   31.506;   -9.500;  713.626
450.917;   37.139;   -8.680;  675.324
451.507;   36.444;   -7.520;  600.661
452.097;   37.562;   -8.590;  746.267
452.688;   37.942;  -11.340;  742.160
453.278;   37.111;  -10.100;  566.840
453.868;   42.803;   -6.019;  793.550
454.458;   40.777;   -9.440;  651.141
455.048;   40.607;  -10.560;  711.783
455.639;   42.300;  -11.799;  567.096
456.229;   46.714;   -6.899;  710.694
456.819;   48.420;   -7.389;  751.158
457.409;   47.829;  -11.119;  773.993
457.999;   49.712;   -9.289;  737.505
458.589;   50.170;   -6.139;  686.606
459.179;   51.090;   -8.729;  717.658
459.769;   48.628;   -9.789;  627.099
460.358;   53.574;  -10.259;  797.262
460.948;   53.746;   -7.299;  689.503
461.538;   54.672;  -10.289;  660.677
462.128;   52.464;  -11.269;  664.934
462.717;   59.637;   -9.368;  710.326
463.307;   63.591;   -7.908;  705.846
463.897;   58.409;   -9.599;  656.942
464.486;   56.564;   -9.769;  837.128
465.076;   62.154;   -8.048;  733.776
465.666;   65.078;   -9.358;  652.900
466.255;   63.972;   -7.919;  785.651
466.845;   61.578;  -11.689;  666.749
467.434;   65.094;   -7.818;  725.873
468.023;   66.663;   -7.678;  658.357
468.613;   64.328;  -10.939;  713.946
469.202;   68.213;  -10.118;  646.507
469.791;   72.780;   -9.108;  737.811
470.381;   74.056;   -6.058;  742.813
470.970;   74.041;  -10.428;  711.099
471.559;   74.043;  -10.268;  733.291
472.148;   76.916;   -8.448;  675.737
472.738;   79.998;   -6.917;  765.466
473.327;   78.954;  -11.978;  637.529
473.916;   78.057;  -11.888;  737.446
474.505;   82.685;   -9.437;  751.703
475.094;   85.646;   -6.747;  806.570
475.683;   85.337;   -9.367;  797.699
476.272;   86.579;  -12.637;  730.632
476.861;   88.812;  -10.027;  706.754
477.449;   95.504;   -8.716;  728.487
478.038;   89.919;   -9.577;  692.513
478.627;   90.406;   -9.718;  714.852
479.216;   97.228;   -8.947;  769.441
479.805;  100.085;   -6.256;  783.375
480.393;  100.605;   -7.937; 1008.945
480.982;   98.881;   -7.717;  874.501
481.571;  105.311;   -9.266;  858.333
482.159;  106.234;   -7.636;  705.386
482.748;  105.995;   -9.667;  821.385
483.336;  109.602;  -10.376;  858.209
483.925;  110.786;   -7.147;  774.373
484.513;  118.284;   -7.996;  758.962
485.102;  114.606;  -10.027;  810.965
485.690;  121.796;  -10.446; 1011.050
486.278;  124.694;   -8.446;  979.329
486.867;  125.716;   -6.356;  809.662
487.455;  126.994;   -9.136;  898.229
488.043;  127.631;  -10.646;  748.361
488.631;  136.276;   -7.456; 1005.079
489.220;  141.464;   -6.636;  908.626
489.808;  140.834;  -11.036;  741.415
490.396;  148.825;  -10.246;  914.645
490.984;  154.542;   -8.556;  830.161
491.572;  163.903;   -5.886;  940.315
492.160;  169.386;   -9.486;  919.081
492.748;  180.642;  -10.976;  884.341
493.336;  202.530;   -8.776; 1019.693
493.924;  228.378;   -5.465;  958.077
494.512;  255.515;   -9.986; 1066.638
495.100;  289.260;  -10.636; 1103.280
495.687;  341.479;  -10.885; 1206.373
496.275;  400.141;   -8.126; 1150.796
496.863;  467.763;  -10.586; 1281.171
497.451;  563.299;  -11.926; 1386.805
498.038;  696.624;  -10.885; 1556.729
498.626;  806.642;   -6.315; 1741.407
499.214;  946.480;   -7.326; 2016.609
499.801; 1133.018;  -11.906; 2220.633
500.389; 1380.502;  -10.466; 2312.494
500.976; 1689.821;   -5.236; 2744.849
501.564; 2099.706;   -8.936; 3148.565
502.151; 2449.788;  -13.176; 3515.999
502.738; 2902.704;  -10.646; 3971.274
503.326; 3301.750;   -9.525; 4403.796
503.913; 3687.697;  -10.856; 5161.749
504.500; 3999.212;  -11.586; 5986.420
505.088; 4460.144;  -10.336; 6381.201
505.675; 4993.956;   -6.355; 6925.547
506.262; 5616.264;   -9.046; 7619.060
506.849; 6351.664;  -10.416; 8733.969
507.436; 6812.496;  -10.305; 9790.121
508.023; 7324.352;   -5.496; 9985.472
508.610; 7583.091;   -7.856;10434.618
509.197; 8199.954;  -10.097;11198.435
509.784; 9563.353;  -10.886;12391.194
510.371;10590.862;   -9.315;13603.713
510.958;11334.956;   -9.936;14426.586
511.545;12089.313;   -9.326;15243.775
512.132;12827.688;  -10.075;15945.876
512.719;13378.659;   -7.796;16340.369
513.305;14316.068;  -10.606;18011.766
513.892;15113.986;  -11.486;19754.971
514.479;16571.648;   -9.126;20967.805
515.066;18094.533;   -6.026;22299.793
515.652;19251.846;   -8.466;22908.660
516.239;20259.635;  -10.886;23798.875
516.825;21158.498;  -11.496;25567.275
517.412;22140.273;   -5.796;28154.959
517.998;23013.711;  -10.506;28344.111
518.585;23143.320;  -10.076;27134.219
519.171;23350.846;   -8.315;27268.576
519.758;24469.119;   -8.596;28964.129
520.344;26415.510;   -8.466;30664.494
520.930;26691.035;  -11.006;32550.605
521.516;28151.396;  -10.495;35422.895
522.103;30635.473;   -5.526;38280.004
522.689;31458.566;   -8.746;37835.117
523.275;31247.926;  -11.376;37288.613
523.861;32002.525;  -11.156;37281.395
524.447;32979.152;   -8.135;37846.949
525.033;32631.861;   -7.896;38321.949
525.619;32992.863;  -12.476;38579.285
526.205;34530.371;   -9.516;40622.875
526.791;37208.367;   -6.926;42258.836
527.377;37254.832;   -8.346;42966.902
527.963;39046.711;   -8.717;42018.949
528.549;37914.012;  -11.016;42476.828
529.135;36282.227;   -8.536;41854.852
529.721;35588.715;   -9.666;41237.711
530.306;34866.406;  -10.066;41259.445
530.892;35068.688;  -11.356;41506.047
531.478;36490.531;   -6.596;43559.613
532.063;38773.555;   -8.836;47695.563
532.649;39012.457;  -10.047;50808.324
533.235;40156.137;   -9.746;51787.500
533.820;41479.793;   -6.566;52145.035
534.406;42181.660;  -10.817;51133.488
534.991;41613.008;   -9.416;49996.805
535.576;40493.695;   -9.036;48882.852
536.162;41038.648;   -6.156;46942.285
536.747;42181.477;  -11.607;45711.746
537.333;45430.500;  -11.787;48510.180
537.918;48585.383;  -12.437;50439.891
538.503;47581.258;   -7.196;50863.711
539.088;44439.336;  -10.556;50906.922
539.673;44145.664;   -8.767;52621.965
540.259;43946.074;  -10.026;52368.094
540.844;41579.863;   -7.416;50879.109
541.429;42303.566;   -9.467;52077.777
542.014;45561.109;   -9.527;52716.695
542.599;45628.078;   -9.946;52363.281
543.184;42667.152;   -7.927;53187.137
543.769;43296.492;   -9.297;54697.605
544.354;43214.105;  -10.127;53913.914
544.938;42524.344;   -9.267;49680.164
545.523;44566.840;   -6.506;47386.277
546.108;47004.590;   -9.787;49151.949
546.693;49116.953;  -11.587;51384.637
547.278;48850.109;  -10.986;51853.254
547.862;45660.387;   -8.206;51173.750
548.447;41365.848;  -10.067;51691.395
549.031;40844.129;   -9.637;52456.703
549.616;45312.012;   -9.926;52714.516
550.201;44716.465;   -6.347;52414.598
550.785;45297.652;   -7.917;52355.059
551.370;44875.672;  -10.867;54589.453
551.954;44870.098;   -9.047;58267.348
552.538;46320.711;   -7.827;59062.176
553.123;44864.848;  -10.287;58115.285
553.707;42405.195;  -12.178;56556.285
554.291;43078.563;   -8.717;56201.668
554.876;44713.469;   -7.457;55335.762
555.460;45353.184;  -10.387;54155.703
556.044;47175.270;   -9.618;53721.484
556.628;45550.086;  -11.567;53731.016
557.212;44395.203;   -8.097;54312.531
557.796;42504.406;  -11.077;53797.773
558.380;42815.684;  -11.108;56145.984
558.964;44113.059;   -9.057;57277.930
559.548;45180.348;   -6.977;56459.641
560.132;43078.844;  -11.457;54434.543
560.716;41735.352;  -11.378;54800.617
561.300;42255.734;   -9.577;57606.945
561.884;43405.117;   -7.127;58972.445
562.467;42349.109;   -7.118;57327.570
563.051;41780.801;  -13.358;54962.434
563.635;42137.859;  -10.178;52594.473
564.219;42605.305;   -7.837;50610.410
564.802;43457.203;  -11.398;49551.180
565.386;43625.586;  -12.788;48370.953
565.969;43156.688;   -9.077;48178.871
566.553;42093.465;   -6.207;49957.305
567.136;42342.922;   -8.568;50369.594
567.720;38940.980;  -11.868;49492.004
568.303;37337.293;   -8.268;50616.352
568.887;37208.273;   -8.698;50727.148
569.470;37463.488;   -6.808;51698.379
570.053;36368.434;  -13.188;52122.078
570.637;35083.039;  -12.037;52536.438
571.220;34681.570;   -8.577;51186.098
571.803;34736.637;   -8.498;51032.762
572.386;36410.605;  -10.498;49609.887
572.969;39084.645;   -9.388;48285.926
573.552;37956.352;   -8.338;47624.285
574.135;36722.410;   -8.518;45498.641
574.718;33750.664;  -13.628;41970.434
575.301;31957.098;  -10.893;41447.137
575.884;30163.531;   -8.158;40923.836
576.467;31115.391;  -10.328;45267.723
577.050;34013.652;  -13.058;48175.543
577.633;36712.898;   -9.458;47729.328
578.216;36422.535;   -8.928;47579.793
578.799;35629.266;   -9.358;47820.996
579.381;34211.582;  -11.388;48115.551
579.964;32412.004;  -11.718;47333.766
580.547;33707.254;   -8.588;46668.969
581.129;34350.820;   -8.859;44466.141
581.712;34819.023;  -10.729;44164.922
582.294;35669.363;  -11.118;46477.855
582.877;35992.207;   -5.218;48244.254
583.459;34160.113;   -8.679;47437.895
584.042;32427.637;  -10.709;46943.219
584.624;32673.707;  -11.669;46792.227
585.206;32092.633;   -8.218;46557.250
585.789;32113.512;  -10.569;45793.773
586.371;34853.098;  -11.859;43836.391
586.953;35670.902;  -10.719;42972.492
587.536;36426.605;   -7.198;42487.211
588.118;36599.969;   -8.720;42086.414
588.700;32759.482;  -10.439;43389.930
589.282;31463.178;   -9.198;43646.039
589.864;31911.113;   -9.199;43438.109
590.446;32307.428;  -11.319;43151.926
591.028;30669.605;  -11.159;42781.867
591.610;28209.420;  -11.779;42839.098
592.192;25830.471;   -7.668;42820.402
592.774;26343.887;  -11.949;40724.277
593.356;27032.908;  -12.129;39874.789
593.937;27390.518;  -10.669;39980.648
594.519;29619.564;   -6.509;42069.633
595.101;32017.355;  -10.849;42976.031
595.683;32411.043;  -11.679;44084.441
596.264;33444.008;   -9.049;43478.797
596.846;32307.941;   -8.849;43803.672
597.427;31636.859;   -9.570;42986.934
598.009;33336.598;  -12.620;42832.219
598.591;33859.070;  -10.039;42580.086
599.172;33315.918;  -10.369;43061.805
599.753;33325.719;   -9.140;41691.469
600.335;34958.020;  -11.430;40692.520
600.916;33402.824;   -9.939;39982.422
601.498;30731.516;   -8.479;40318.617
602.079;29344.361;  -10.920;40670.609
602.660;29226.742;  -11.480;41450.898
603.241;30311.326;  -11.699;41137.738
603.823;29281.559;   -9.579;38868.797
604.404;29026.730;  -10.620;38182.785
604.985;30458.912;  -10.450;38078.047
605.566;29805.465;   -9.129;38056.633
606.147;29677.459;   -7.510;37020.418
606.728;31752.258;  -10.660;37883.359
607.309;30781.943;  -11.740;38748.273
607.890;30120.170;   -9.759;38850.230
608.471;29853.324;   -8.250;37457.918
609.051;29219.223;   -9.240;36066.457
609.632;28233.287;  -12.120;35991.074
610.213;28988.924;   -9.110;37402.641
610.794;29640.014;   -8.030;38383.363
611.374;28893.879;   -8.110;40562.387
611.955;29296.463;  -13.560;38533.727
612.536;30932.219;  -11.400;36951.789
613.116;30475.234;   -8.070;37197.891
613.697;30761.273;  -10.830;38411.125
614.277;29126.207;  -11.641;38673.938
614.858;30019.051;  -13.310;37075.863
615.438;29572.742;   -7.460;35092.906
616.019;26895.861;   -7.601;33666.301
616.599;27405.441;  -12.020;34189.023
617.179;29488.846;  -11.780;36952.047
617.760;30433.164;   -8.570;39582.574
618.340;31661.939;  -11.471;38943.977
618.920;33106.422;  -11.170;37594.156
619.500;32570.705;  -11.071;37866.938
620.080;31724.045;   -7.750;37869.043
620.660;32608.814;  -12.711;36868.617
621.241;33281.102;  -10.211;36352.309
621.821;33279.781;  -10.961;35459.520
622.401;33078.273;   -7.720;35207.414
622.980;32262.059;   -8.981;35980.422
623.560;30655.549;   -9.331;37351.328
624.140;29754.473;   -9.850;34388.582
624.720;25132.422;   -7.451;32368.764
625.300;21456.508;   -9.070;32638.629
625.880;24560.426;  -12.601;34599.035
626.459;28251.396;  -11.751;36831.738
627.039;31261.820;   -9.281;38299.098
627.619;31247.396;   -8.801;38289.574
628.198;29601.695;  -12.071;37220.695
628.778;28970.375;   -9.461;37632.563
629.357;29782.264;   -8.491;38003.012
629.937;29607.090;   -9.721;38402.039
630.516;28937.742;   -9.951;37868.801
631.096;28957.533;  -11.731;35760.410
631.675;31782.389;   -8.572;35225.219
632.254;36847.941;  -11.282;35130.289
632.834;36157.164;  -13.322;35794.570
633.413;34351.777;  -10.301;35788.922
633.992;31628.467;   -8.582;34532.863
634.571;32837.551;   -8.352;33590.113
635.151;35692.387;  -11.912;34943.863
635.730;33936.563;  -10.511;35352.523
636.309;30410.986;   -7.731;35366.605
636.888;27784.852;   -9.952;36165.637
637.467;28257.246;  -11.672;37515.902
638.046;30384.355;   -8.901;39288.695
638.625;33622.219;   -7.912;38279.699
639.204;33425.594;  -10.022;37741.598
639.782;31524.871;  -12.252;38364.551
640.361;27963.389;  -10.041;36740.621
640.940;25133.457;  -11.161;34950.082
641.519;25496.904;   -9.701;34137.398
642.097;27870.975;  -11.271;35654.258
642.676;30862.939;   -8.651;35637.957
643.255;32222.658;   -8.711;36567.074
643.833;31298.834;   -9.581;37809.434
644.412;31536.500;  -13.711;37337.293
644.990;30745.754;  -11.811;37018.531
645.569;30318.918;   -9.411;36518.469
646.147;29298.291;  -10.291;36186.430
646.726;28902.979;  -12.401;36267.688
647.304;30396.094;  -10.411;36647.625
647.882;32114.980;   -9.651;39286.742
648.461;33428.188;   -9.631;39157.703
649.039;32147.730;  -11.881;35412.883
649.617;31725.613;   -9.661;34744.918
650.195;31625.859;   -9.301;35403.098
650.773;30567.576;  -10.511;35053.797
651.352;27766.178;  -11.521;33756.816
651.930;25278.525;  -12.211;31868.773
652.508;23729.650;   -9.171;33121.551
653.086;27482.146;   -9.371;33564.793
653.663;30745.461;  -13.161;34054.668
654.241;29328.004;  -13.031;35693.309
654.819;30891.664;   -9.371;36422.906
655.397;30931.773;  -10.511;38213.484
655.975;30563.500;  -10.371;39507.625
656.553;30702.018;  -10.051;39498.223
657.130;29072.869;  -10.061;40395.480
657.708;28448.223;   -9.561;39242.020
658.286;28393.352;  -11.511;38920.020
658.863;29544.023;  -10.261;40202.898
659.441;32150.127;   -7.531;39677.938
660.018;31389.297;   -9.501;40413.355
660.596;30348.725;  -13.301;39931.414
661.173;32411.766;  -11.211;39604.531
661.750;32510.385;   -9.951;39700.070
662.328;31320.768;   -9.390;39292.809
662.905;30619.463;  -11.330;38235.648
663.482;26588.174;   -9.050;36212.305
664.060;24676.510;   -8.240;35944.945
664.637;27324.619;  -10.050;35170.785
665.214;29173.244;  -11.760;34197.523
665.791;31095.410;  -10.530;34549.520
666.368;29752.584;   -9.690;35118.578
666.945;29975.053;   -9.320;36019.418
667.522;31437.285;  -11.860;36048.438
668.099;31867.252;  -10.770;36243.914
668.676;31351.635;   -6.260;35958.875
669.253;29720.975;   -7.000;37384.730
669.830;29984.787;  -10.190;36779.629
670.407;29597.496;   -9.550;35231.289
670.984;29795.516;   -9.260;35544.270
671.560;30062.307;   -9.280;35466.867
672.137;28839.066;  -11.810;34280.863
672.714;29563.623;  -11.490;34632.863
673.290;29869.875;   -7.740;35135.422
673.867;29974.209;  -10.660;36114.480
674.443;30483.578;  -12.230;36152.859
675.020;28835.455;  -10.450;35327.238
675.596;29827.674;   -9.260;35795.176
676.173;30298.193;  -10.780;35430.355
676.749;29839.650;  -13.690;33549.516
677.326;30116.824;  -11.980;32210.012
677.902;30470.215;   -8.630;32068.871
678.478;29667.299;  -10.730;32583.891
679.054;29314.654;  -10.520;32088.928
679.631;30157.445;  -11.920;30978.848
680.207;30952.809;   -7.490;33160.887
680.783;32097.246;   -9.860;35570.363
681.359;31294.979;  -13.380;36125.184
681.935;30396.018;  -12.480;35240.922
682.511;29291.168;   -7.900;34429.961
683.087;29226.328;   -7.710;34463.680
683.663;29279.000;  -11.480;34648.898
684.239;28595.000;  -14.090;34546.457
684.815;28097.324;   -7.560;35586.375
685.390;28502.592;   -9.910;35821.895
685.966;29106.742;  -11.159;35085.871
686.542;31698.328;  -11.169;34198.230
687.118;33812.613;   -5.959;32847.707
687.693;33913.418;  -10.329;32794.027
688.269;33093.691;  -12.059;33072.367
688.844;30849.033;  -10.909;33141.664
689.420;28860.930;   -8.019;33965.742
689.995;26780.604;   -8.399;34655.523
690.571;25600.420;  -10.949;33576.742
691.146;26099.412;   -9.619;32657.219
691.722;25464.771;   -8.999;32526.979
692.297;25099.477;  -11.589;33014.617
692.872;27106.289;  -11.739;34012.254
693.448;26789.010;  -11.059;34237.434
694.023;25898.105;  -10.139;34142.672
694.598;27927.475;   -9.029;34132.031
695.173;28107.855;  -13.319;34205.250
695.748;27566.082;  -10.169;32882.488
696.323;27516.740;   -8.339;32864.906
696.898;27447.746;   -8.169;33170.004
697.473;27292.826;  -12.309;32432.984
698.048;27108.928;  -10.989;31649.303
698.623;27505.877;   -9.329;30778.141
699.198;29445.580;   -9.849;31140.119
699.773;30373.264;  -12.329;31764.299
700.348;28753.791;  -10.389;31780.816
700.922;28896.928;   -9.269;32046.375
701.497;29480.613;   -9.329;32603.574
702.072;29686.000;  -10.789;34799.871
702.646;28820.867;  -10.839;35793.172
703.221;26745.170;   -9.099;35201.590
703.795;28771.289;  -10.939;34764.527
704.370;29306.383;  -12.859;34307.367
704.944;29656.854;  -11.559;33509.887
705.519;30729.100;   -7.939;31388.584
706.093;31697.455;  -10.499;31340.104
706.668;31777.863;  -11.289;32630.281
707.242;30360.283;  -11.509;32728.779
707.816;28806.164;   -9.639;32947.238
708.390;27447.137;  -11.429;33277.855
708.965;28332.045;  -11.869;33834.336
709.539;28962.547;  -11.689;33709.273
710.113;29489.352;  -10.478;33044.313
710.687;28843.090;  -10.228;31953.992
711.261;26626.930;  -13.698;30505.949
711.835;26235.738;  -13.378;30262.369
712.409;27196.410;   -9.698;31254.447
712.983;28826.682;  -11.898;32754.986
713.557;29767.820;  -15.138;34018.824
714.131;29522.875;  -14.098;34579.625
714.704;28634.494;   -9.958;33890.262
715.278;26181.662;  -10.028;33531.102
715.852;25464.928;  -11.148;33601.660
716.425;26243.199;   -9.068;33515.117
716.999;26676.430;  -10.038;33185.555
717.573;27788.758;   -9.798;33905.996
718.146;29149.436;  -12.378;35199.293
718.720;28853.252;  -11.918;35060.551
719.293;28209.596;   -8.088;34973.230
719.867;31058.430;  -10.888;36394.449
720.440;31190.545;  -11.938;36663.008
721.013;29881.904;  -12.818;35102.426
721.587;28457.299;  -10.298;33985.266
722.160;26599.766;  -10.048;33524.965
722.733;25692.984;  -12.108;32987.043
723.306;26495.496;  -10.818;33066.301
723.880;28646.420;   -8.908;33399.500
724.453;30569.041;   -9.878;33468.297
725.026;29567.637;  -11.188;33816.637
725.599;26667.979;  -11.678;32797.996
726.172;26828.072;   -9.618;33187.434
726.745;28145.764;   -8.258;35136.613
727.318;29823.945;  -12.978;35751.730
727.891;30696.123;  -12.148;35890.430
728.463;30546.922;   -8.968;34822.090
729.036;29275.092;  -10.188;32895.086
729.609;29471.963;  -11.788;31823.225
730.182;26054.387;  -11.788;31445.283
730.754;23540.557;  -10.268;32373.223
731.327;23767.779;   -9.998;33676.820
731.900;23862.570;  -12.228;33417.000
732.472;25250.852;  -13.848;31978.498
733.045;27598.977;   -8.698;30368.777
733.617;27585.512;  -10.607;30574.215
734.190;27057.297;  -11.507;31280.975
734.762;24205.029;  -13.647;31674.412
735.334;22479.277;   -9.767;31247.291
735.907;22879.039;   -9.897;29876.211
736.479;22616.742;  -11.637;29808.488
737.051;22379.555;   -9.567;30233.547
737.623;23998.164;   -8.187;31469.086
738.195;25063.322;  -11.187;31784.225
738.768;26524.320;  -12.337;32120.523
739.340;26464.740;  -12.227;32094.342
739.912;25329.418;  -11.057;31312.680
740.484;24210.799;  -10.207;31946.238
741.056;23086.324;  -10.047;32984.059
741.628;24795.910;  -13.627;33897.715
742.199;27207.242;   -7.177;33213.016
742.771;25552.250;  -10.797;31369.113
743.343;23046.131;  -11.997;31865.473
743.915;21772.859;  -12.867;32388.631
744.487;21964.732;   -7.617;31079.568
745.058;22289.178;   -9.557;30570.107
745.630;22977.455;   -9.877;29970.127
746.201;23999.449;  -14.177;29186.766
746.773;24455.285;   -9.237;28805.723
747.344;24342.826;   -9.847;29591.223
747.916;22848.418;  -11.657;31412.201
748.487;22556.678;  -10.587;32194.898
749.059;23829.615;   -8.707;32533.719
749.630;25030.586;  -10.537;32158.518
750.201;24102.471;  -11.687;30855.395
750.773;22341.102;  -11.647;28622.555
751.344;22425.721;   -7.147;28405.732
751.915;23509.852;   -9.757;28461.551
752.486;22767.570;  -12.427;27842.850
753.057;20392.979;  -12.227;27845.008
753.628;19266.346;  -10.417;27728.107
754.199;20431.729;  -11.767;27381.086
754.770;21544.416;  -11.187;25882.203
755.341;21508.031;  -10.507;25886.184
755.912;21862.703;   -9.387;26050.861
756.483;21239.980;  -10.647;26798.779
757.054;19340.896;  -11.837;27048.238
757.625;18029.801;  -12.716;26294.838
758.195;17670.895;   -9.666;26142.076
758.766;17333.305;   -8.656;26392.234
759.337;18294.518;  -12.856;26334.594
759.907;20232.910;  -13.366;27579.652
760.478;21203.760;   -8.576;28352.770
761.048;20745.771;  -10.526;27325.088
761.619;20004.719;  -11.116;26460.428
762.189;19810.580;  -12.136;26029.826
762.760;20584.668;   -9.456;26430.145
763.330;21778.037;   -7.136;26670.902
763.900;21185.383;  -11.786;26603.021
764.471;18360.146;  -11.546;25542.740
765.041;17085.328;   -8.096;24358.459
765.611;17429.324;   -8.876;23991.297
766.181;18006.432;  -12.196;24470.236
766.751;18720.377;  -11.636;24845.975
767.321;18540.508;  -10.156;24533.633
767.891;16659.301;  -11.766;24916.492
768.461;16071.855;  -14.936;24776.771
769.031;16512.377;  -12.356;24757.988
769.601;18318.037;   -7.526;24181.088
770.171;18371.100;  -10.766;23670.387
770.741;17403.492;  -13.176;22960.045
771.311;17485.248;  -10.616;22917.523
771.880;17801.189;   -9.576;23562.941
772.450;17227.018;  -10.336;24216.500
773.020;17073.322;  -13.516;24140.398
773.589;16687.986;  -13.466;24414.857
774.159;16286.788;   -8.686;23858.717
774.729;15952.737;   -9.476;22942.135
775.298;15451.375;  -13.666;22324.033
775.867;15003.688;  -11.716;21140.313
776.437;15012.815;   -9.906;20838.092
777.006;14693.764;  -12.166;20599.510
777.576;14664.047;  -12.356;20508.809
778.145;14899.689;  -11.646;20732.947
778.714;14835.671;   -8.226;21062.465
779.283;13970.070;   -9.556;20949.664
779.853;13555.661;  -14.116;20508.623
780.422;14055.034;  -11.506;20649.082
780.991;13584.093;   -9.556;21527.520
781.560;12547.688;   -9.095;22632.658
782.129;12423.634;  -12.135;23048.277
782.698;12352.439;  -10.865;23438.555
783.267;11960.222;   -9.335;23267.734
783.836;11883.192;  -11.045;22415.133
784.404;12811.013;  -13.865;20443.152
784.973;13216.778;  -13.095;19699.150
785.542;13062.433;  -11.575;19763.828
786.111;12939.448;   -9.705;20341.408
786.679;12601.322;  -12.105;20207.967
787.248;12400.760;  -12.455;19516.465
787.817;12127.498;  -11.535;18900.363
788.385;11672.538;   -9.765;17879.121
788.954;11023.049;  -14.005;17658.301
789.522;10584.263;  -11.955;17788.879
790.090;11199.771;  -10.135;18118.277
790.659;11583.924;  -10.975;18338.736
791.227;10985.361;  -13.375;18508.615
791.795;11469.259;  -12.375;17898.254
792.364;11918.809;  -10.725;17295.133
792.932;12222.421;   -9.715;16822.051
793.500;12343.277;  -12.675;17040.148
794.068;12568.440;  -13.495;17179.787
794.636;12738.166;  -10.885;16664.246
795.204;12178.805;  -11.045;16524.545
795.772;12154.058;  -13.175;17274.564
796.340;11654.195;  -12.445;17891.002
796.908;11506.814;   -9.735;17648.561
797.476;11538.528;   -9.815;17064.080
798.044;11114.336;  -13.985;16672.777
798.612;10220.601;  -13.115;17023.996
799.180; 9844.176;  -10.185;16561.615
799.747; 9732.803;   -9.055;15962.773
800.315; 9401.817;  -12.385;15296.992
800.883; 9090.206;  -15.035;14801.771
801.450; 9089.757;  -10.365;14534.430
802.018; 9095.953;   -9.855;14173.248
802.585; 9079.291;  -11.905;14029.547
803.153; 9118.135;  -11.585;13836.846
803.720; 9088.870;   -9.095;13567.324
804.287; 8775.532;   -9.135;13360.622
804.855; 8319.587;  -11.604;13681.981
805.422; 8175.734;  -11.794;13536.560
805.989; 8136.886;  -10.734;13355.958
806.556; 8275.758;  -10.444;13747.896
807.124; 8570.821;  -12.764;13987.376
807.691; 8507.662;  -12.964;14038.674
808.258; 8333.311;  -11.134;14120.152
808.825; 8041.275;   -9.854;13860.111
809.392; 8099.432;  -10.504;13268.790
809.959; 7609.698;  -13.054;12680.389
810.526; 7146.333;   -8.294;12427.308
811.093; 7144.246;   -8.394;12030.105
811.659; 7748.962;  -12.304;11653.664
812.226; 8243.356;  -13.944;11637.183
812.793; 7992.711;  -10.484;11611.521
813.360; 7385.346;  -10.144;11885.181
813.926; 6952.390;  -11.684;12770.539
814.493; 6652.983;  -13.644;12677.638
815.060; 6282.031;   -9.724;11974.336
815.626; 6348.310;   -9.854;11594.715
816.193; 6806.073;  -13.254;11579.474
816.759; 6871.985;  -13.204;11666.972
817.325; 7019.862;   -9.434;11325.530
817.892; 7385.954;  -10.134;11105.369
818.458; 7774.442;  -13.474;10843.928
819.024; 7440.659;  -11.854;10714.406
819.591; 7111.577;  -10.244;10469.165
820.157; 6829.410;  -10.704;10235.523
820.723; 6278.893;  -12.324;10847.563
821.289; 6019.956;   -9.444;11040.980
821.855; 6006.672;   -8.374;10357.100
822.421; 6078.919;  -10.234; 9978.918
822.987; 6058.400;  -13.294; 9754.177
823.553; 5709.014;  -10.884;10065.755
824.119; 5518.450;   -8.884;10036.294
824.685; 5611.584;   -6.784;10029.192
825.251; 5705.161;  -12.004;10199.230
825.816; 5669.638;  -11.474; 9820.189
826.382; 5461.629;   -9.174; 9297.248
826.948; 5662.744;   -9.214; 9381.347
827.513; 6095.693;  -10.774; 9450.726
828.079; 5920.502;  -11.924; 9472.444
828.645; 5312.116;  -10.543; 9292.643
829.210; 5195.628;  -10.533; 9065.341
829.776; 5164.408;  -10.753; 9132.620
830.341; 5033.141;  -10.173; 9092.878
830.906; 5222.201;  -10.743; 9078.557
831.472; 5626.389;  -11.113; 8534.535
832.037; 5438.947;  -10.603; 8677.874
832.602; 4868.588;  -13.323; 8628.692
833.167; 4495.032;  -10.823; 8879.031
833.733; 4402.659;  -10.113; 9189.790
834.298; 4514.792;  -13.583; 9052.608
834.863; 4539.018;  -12.703; 8895.087
835.428; 4501.572;  -10.523; 8824.266
835.993; 4407.692;   -6.963; 8845.385
836.558; 4282.973;  -10.763; 8888.563
837.123; 4391.004;   -9.903; 8966.582
837.688; 4584.511;   -9.913; 8617.860
838.253; 4806.790;  -10.283; 8590.699
838.817; 5019.715;  -12.963; 8443.797
839.382; 4953.433;  -14.243; 8799.356
839.947; 4643.263;  -10.733; 8810.595
840.511; 4330.687;   -9.383; 8796.394
841.076; 3954.812;  -12.563; 8347.231
841.641; 3987.601;  -12.953; 8224.330
842.205; 4051.844;   -7.043; 8223.349
842.770; 4151.095;   -8.163; 8622.107
843.334; 4395.937;  -12.503; 8410.386
843.898; 4392.837;  -11.693; 8337.465
844.463; 4417.582;  -10.203; 8506.283
845.027; 4157.895;   -9.533; 8280.962
845.591; 3931.931;  -13.443; 8231.141
846.156; 3948.856;  -13.143; 7969.179
846.720; 3826.016;   -9.433; 7768.278
847.284; 3695.530;  -11.033; 7630.957
847.848; 3512.781;  -10.403; 7472.395
848.412; 3424.434;  -11.553; 7437.394
848.976; 3491.199;   -8.393; 7674.592
849.540; 3443.260;   -8.713; 7836.011
850.104; 3525.237;  -12.463; 7913.669
850.668; 3881.727;  -12.973; 7694.508
851.232; 4011.555;  -10.793; 7756.887
851.796; 3835.834;  -10.662; 7926.545
852.359; 3513.479;  -13.082; 7827.844
852.923; 3347.824;  -12.192; 7641.163
853.487; 3175.263;  -11.912; 7342.501
854.050; 3112.028;  -10.892; 7042.820
854.614; 3255.565;  -13.992; 7151.338
855.177; 3372.059;  -11.732; 7105.077
855.741; 3423.566;   -8.962; 6989.675
856.304; 3302.535;   -9.442; 6596.634
856.868; 3233.279;  -14.192; 6356.272
857.431; 3343.686;  -12.702; 6468.571
857.995; 3445.582;   -9.942; 6373.210
858.558; 3458.834;   -9.112; 6324.448
859.121; 3206.753;  -12.932; 6408.327
859.684; 3093.215;  -13.442; 6347.886
860.247; 3233.561;  -10.632; 6321.264
860.810; 3220.476;  -11.272; 6301.903
861.374; 2968.109;   -9.832; 6607.881
861.937; 2698.329;  -11.762; 6408.200
862.500; 2650.911;   -9.722; 6572.639
863.062; 2793.184;  -10.512; 6387.297
863.625; 2974.327;  -11.232; 6190.836
864.188; 3139.013;  -14.112; 5807.254
864.751; 3189.734;  -11.302; 5682.413
865.314; 3074.969;  -10.112; 5547.492
865.876; 2887.325;  -12.182; 5500.150
866.439; 2895.055;  -10.722; 5415.909
867.002; 2849.155;   -9.252; 5501.567
867.564; 2630.728;   -9.572; 5413.946
868.127; 2420.576;  -13.142; 5160.325
868.689; 2337.644;  -12.902; 5133.183
869.252; 2273.718;   -9.732; 5252.382
869.814; 2190.150;   -9.432; 5297.141
870.377; 2194.111;  -11.552; 5390.919
870.939; 2262.311;   -9.052; 5599.898
871.501; 2315.931;  -10.982; 5248.336
872.063; 2318.499;  -12.292; 4854.235
872.626; 2280.845;  -14.912; 4817.074
873.188; 2287.633;  -13.112; 4987.732
873.750; 2239.740;  -13.442; 4868.651
874.312; 2132.284;   -9.402; 4779.330
874.874; 2042.927;  -11.062; 4866.348
875.436; 1969.051;  -13.931; 4718.887
875.998; 1966.080;   -9.561; 4660.005
876.560; 1978.288;  -11.321; 4462.964
877.122; 1919.974;  -12.221; 4145.042
877.683; 1820.092;  -12.191; 4056.481
878.245; 1741.510;  -12.101; 3950.740
878.807; 1766.433;   -8.971; 4058.958
879.369; 1775.932;  -12.071; 3954.677
879.930; 1677.695;  -14.621; 3941.495
880.492; 1623.077;  -10.311; 4067.014
881.053; 1598.459;  -10.901; 3859.633
881.615; 1488.292;  -14.411; 3776.071
882.176; 1401.972;  -13.761; 3734.750
882.738; 1371.135;   -9.181; 3678.489
883.299; 1347.469;  -11.791; 3405.407
883.860; 1340.897;  -13.121; 3351.106
884.422; 1351.160;  -11.211; 3394.044
884.983; 1311.990;  -10.091; 3166.443
885.544; 1217.088;   -8.461; 3189.802
886.105; 1136.265;  -12.361; 3160.360
886.666; 1071.727;  -14.141; 3093.059
887.227; 1015.064;  -11.361; 2941.957
887.788;  946.343;  -11.401; 2974.836
888.349;  885.110;  -13.791; 2721.214
888.910;  887.451;  -13.191; 2696.493
889.471;  897.571;   -9.881; 2560.172
890.032;  882.734;   -9.881; 2558.190
890.593;  856.260;  -10.371; 2567.669
891.153;  826.147;  -13.301; 2460.307
891.714;  776.914;  -11.431; 2372.046
892.275;  740.383;  -11.291; 2309.505
892.835;  701.782;  -11.471; 2382.543
893.396;  642.427;  -11.541; 2295.502
893.956;  586.677;  -11.181; 2162.420
894.517;  550.139;  -11.741; 2125.439
895.077;  541.790;  -11.671; 2086.978
895.638;  542.303;  -11.311; 2126.316
896.198;  512.871;   -9.831; 1838.275
896.758;  468.719;   -8.421; 1892.813
897.319;  432.129;  -12.351; 1792.232
897.879;  414.175;  -13.511; 1762.751
898.439;  387.371;  -12.001; 1661.149
898.999;  363.891;  -10.180; 1781.468
899.559;  353.216;  -12.030; 1703.347
900.119;  349.742;  -15.710; 1537.525
900.679;  345.707;   -8.900; 1638.384
901.239;  332.565;   -8.340; 1527.902
901.799;  321.994;  -13.910; 1456.441
902.359;  313.648;  -13.460; 1357.140
902.919;  306.091;  -11.490; 1331.118
903.479;  292.926;  -12.110; 1317.257
904.038;  270.264;  -11.720; 1262.595
904.598;  252.667;  -13.610; 1152.034
905.158;  248.369;  -11.040; 1240.893
905.717;  240.733;  -10.900; 1233.691
906.277;  229.416;  -15.080; 1217.330
906.836;  219.505;  -13.380; 1222.408
907.396;  211.553;  -10.780; 1193.047
907.955;  206.322;   -8.500; 1182.526
908.515;  199.080;  -12.760; 1099.364
909.074;  192.245;  -11.900; 1092.863
909.633;  185.646;   -8.950; 1069.121
910.192;  182.026;   -8.770; 1196.460
910.752;  176.694;  -12.390; 1029.960
911.311;  170.998;  -13.680; 1009.780
911.870;  169.033;  -12.370;  971.460
912.429;  170.195;  -10.900; 1094.080
912.988;  168.316;  -11.690; 1081.060
913.547;  163.479;  -13.240;  940.380
914.106;  158.278;  -11.990;  999.420
914.665;  155.287;   -9.990;  984.020
915.224;  153.768;  -12.880; 1035.760
915.782;  153.744;  -12.350;  922.560
916.341;  153.718;   -9.110; 1049.840
916.900;  149.962;   -9.270;  925.260
917.458;  147.793;  -13.240;  884.220
918.017;  147.019;  -13.550;  942.600
918.576;  146.217;  -12.320;  904.440
919.134;  144.470;  -11.490;  837.980
919.693;  142.704;  -13.670;  893.060
920.251;  140.174;  -15.470;  876.500
920.809;  139.217;  -11.290;  839.580
921.368;  139.008;  -10.210;  885.360
921.926;  138.234;  -12.140;  842.940
922.484;  136.494;  -13.080;  903.360
923.042;  136.259;  -11.720;  880.340
923.601;  139.002;   -7.480;  998.680
924.159;  136.671;  -11.570;  935.560
924.717;  134.447;  -13.840;  841.080
925.275;  133.744;  -10.640;  903.240
925.833;  134.084;  -11.540;  779.320
926.391;  135.655;  -12.960;  938.380
926.949;  133.237;  -14.130;  857.680
927.506;  132.833;  -11.750;  903.500
928.064;  133.630;  -10.250;  877.580
928.622;  132.845;  -13.030;  880.100
929.180;  132.240;  -13.400;  814.180
929.737;  133.669;  -10.700;  808.540
930.295;  137.999;  -10.070;  928.480
930.853;  139.449;  -11.960;  849.100
931.410;  140.227;  -13.120;  821.120
931.968;  138.695;  -10.770;  940.660
932.525;  138.855;  -10.680;  909.380
933.082;  139.041;  -13.130;  811.440
933.640;  139.778;  -13.210;  925.900
934.197;  137.740;  -11.060;  886.360
934.754;  139.567;   -9.580;  897.780
935.312;  142.597;  -14.000;  863.340
935.869;  146.156;  -10.710; 1012.980
936.426;  146.947;   -9.860;  872.800
936.983;  148.362;   -9.710;  889.020
937.540;  147.140;  -13.990;  838.280
938.097;  146.409;  -14.040;  940.120
938.654;  146.732;  -10.310;  898.860
939.211;  149.085;  -10.560;  952.480
939.768;  153.587;  -13.900;  915.420
940.324;  156.683;  -14.760;  904.200
940.881;  157.844;  -10.370;  878.500
941.438;  158.613;   -8.260; 1021.200
941.995;  154.865;  -12.540;  992.560
942.551;  151.788;  -14.670;  875.620
943.108;  151.671;  -10.450;  937.920
943.664;  154.166;  -10.750;  869.340
944.221;  157.884;  -11.550; 1088.140
944.777;  155.900;  -14.770;  869.680
945.334;  156.646;  -12.820;  884.840
945.890;  160.623;  -10.130;  946.480
946.446;  160.481;  -13.470;  947.020
947.003;  162.184;  -12.120;  964.940
947.559;  163.771;   -9.980; 1063.040
948.115;  163.632;   -9.080; 1026.540
948.671;  160.884;  -10.830;  967.300
949.227;  157.175;  -12.440;  859.560
949.783;  155.118;  -12.910;  858.900
950.339;  155.866;  -10.270;  991.000
950.895;  156.964;  -13.630; 1023.840
951.451;  155.483;  -15.100;  925.280
952.007;  158.606;  -11.330;  998.540
952.563;  160.537;  -10.580;  937.780
953.118;  160.569;  -13.440;  904.940
953.674;  158.162;  -12.710;  935.780
954.230;  158.042;  -10.350;  949.640
954.785;  155.990;   -9.190;  936.640
955.341;  153.274;  -11.200;  998.160
955.897;  151.325;  -16.560;  834.660
956.452;  153.288;  -12.570;  953.840
957.008;  151.689;   -7.970; 1083.640
957.563;  148.798;  -11.940; 1009.540
958.118;  144.291;  -13.450;  877.700
958.674;  144.921;  -12.030;  946.780
959.229;  147.520;   -9.410; 1013.980
959.784;  145.742;  -12.000;  832.400
960.339;  143.683;  -14.780; 1001.280
960.894;  140.434;   -9.860;  963.760
961.449;  136.486;   -9.970;  859.960
962.004;  136.586;  -10.900; 1212.840
962.559;  131.374;  -13.150;  860.140
963.114;  129.019;  -13.740;  742.480
963.669;  129.237;   -9.820;  915.500
964.224;  127.146;  -13.890;  874.340
964.779;  125.563;  -12.600;  828.420
965.334;  127.882;  -10.950; 1017.860
965.888;  128.446;  -11.170;  875.360
966.443;  133.881;  -12.540;  972.380
966.998;  134.989;  -15.780;  819.460
967.552;  132.132;   -9.760;  908.380
968.107;  123.577;   -9.060;  868.300
968.661;  115.156;  -11.950;  922.440
969.216;  105.345;  -12.800;  856.280
969.770;   97.237;  -11.210;  917.200
970.324;   91.741;  -11.610;  923.140
970.879;   89.930;  -11.370;  947.180
971.433;   90.498;  -12.540;  952.720
971.987;   91.477;  -11.320;  895.340
972.541;   91.828;  -10.720;  917.100
973.095;   94.204;   -9.680; 1009.460
973.649;   93.220;  -11.440;  809.480
974.203;   93.991;  -11.210;  829.040
974.757;   95.906;  -10.240;  855.220
975.311;   96.071;  -13.720;  872.600
975.865;   95.519;  -13.770;  881.820
976.419;   94.200;  -11.690;  857.400
976.973;   95.818;   -9.510;  849.620
977.526;   97.687;  -12.620;  949.920
978.080;   96.932;  -12.010;  796.780
978.634;   98.830;  -10.170;  921.320
979.187;   96.965;   -9.020;  905.400
979.741;   94.494;   -9.820; 1018.380
980.294;   89.474;  -14.870;  789.160
980.848;   88.139;  -12.380;  717.220
981.401;   91.095;  -10.350;  816.540
981.955;   93.664;  -13.720;  844.300
982.508;   91.163;  -11.490;  746.340
983.061;   91.769;  -10.000;  915.260
983.615;   88.357;  -11.480;  798.800
984.168;   86.426;  -13.220;  770.080
984.721;   84.780;  -13.960;  880.760
985.274;   83.224;  -10.870;  867.500
985.827;   83.423;   -9.790;  834.220
986.380;   81.337;  -13.120;  721.340
986.933;   79.624;  -12.450;  864.800
987.486;   78.779;  -10.210;  861.920
988.039;   78.128;   -8.430;  863.100
988.591;   75.586;  -10.520;  893.260
989.144;   73.249;  -14.860;  737.260
989.697;   72.756;  -13.080;  758.740
990.250;   73.412;  -10.150;  858.100
990.802;   72.766;  -13.430;  755.860
991.355;   73.446;  -12.750;  974.880
991.907;   71.158;  -12.040;  864.320
992.460;   68.870;  -11.330;  753.760
993.012;   68.226;  -13.610;  749.540
993.565;   66.789;  -13.460;  711.360
994.117;   68.666;   -9.360;  950.780
994.669;   65.888;  -11.300;  701.320
995.221;   64.062;  -13.540;  791.920
995.774;   61.033;  -13.430;  787.580
996.326;   60.267;  -12.520;  740.220
996.878;   59.727;  -10.950;  838.420
997.430;   57.719;  -14.300;  699.860
997.982;   56.533;  -13.760;  750.140
998.534;   55.949;  -11.530;  739.060
999.086;   55.262;  -10.310;  738.220
999.638;   54.760;  -12.530;  661.380
1000.190;   53.313;  -11.840;  699.320
1000.741;   53.106;  -10.260;  742.700
1001.293;   53.520;   -8.860;  686.020
1001.845;   51.190;  -13.700;  676.640
1002.396;   49.894;  -12.100;  743.400
1002.948;   48.397;  -12.760;  737.400
1003.500;   45.944;  -10.380;  723.780
1004.051;   47.616;  -11.900;  907.580
1004.603;   45.342;  -12.250;  791.820
1005.154;   42.824;  -13.210;  608.980
1005.705;   42.547;  -10.950;  723.960
1006.257;   42.418;  -13.880;  707.220
1006.808;   41.238;  -12.840;  685.460
1007.359;   40.783;  -10.570;  763.240
1007.910;   40.007;   -9.620;  646.640
1008.461;   40.065;  -13.630;  732.940
1009.013;   38.763;  -17.200;  588.340
1009.564;   40.548;  -10.200;  793.520
1010.115;   38.442;  -12.570;  597.040
1010.665;   38.176;  -15.150;  602.160
1011.216;   37.815;  -14.480;  667.920
1011.767;   37.379;  -11.340;  697.920
1012.318;   37.218;   -9.780;  736.980
1012.869;   36.124;  -12.380;  679.000
1013.419;   35.956;  -15.560;  603.120
1013.970;   36.049;  -11.010;  666.640
1014.521;   35.512;  -11.610;  620.620
1015.071;   35.989;  -13.450;  670.380
1015.622;   35.128;  -13.870;  635.460
1016.172;   34.380;  -11.610;  596.820
1016.723;   34.771;  -12.120;  614.380
1017.273;   34.070;  -13.620;  604.160
1017.823;   33.815;  -14.140;  650.340
1018.374;   32.980;  -12.800;  611.760
1018.924;   33.038;  -12.340;  716.880
1019.474;   33.920;  -11.410;  718.880
1020.024;   31.843;  -14.770;  657.580
1020.574;   33.147;   -9.780;  726.160
1021.124;   33.754;   -8.560;  673.580
1021.674;   32.271;  -15.190;  559.120
1022.224;   33.195;  -13.530;  708.940
1022.774;   31.991;  -13.280;  668.820
1023.324;   32.729;  -10.690;  753.520
1023.874;   33.627;  -10.240;  875.760
1024.423;   31.058;  -12.540;  613.700
1024.973;   31.073;  -10.010;  610.760
1025.523;   30.231;  -10.550;  620.960
1026.072;   30.505;  -13.560;  606.420
1026.622;   29.852;  -15.120;  675.740
1027.172;   31.059;  -11.260;  715.660
1027.721;   29.773;  -11.410;  601.220
1028.270;   30.340;  -13.530;  663.400
1028.820;   30.210;  -13.680;  638.080
1029.369;   29.878;  -13.520;  612.700
1029.918;   30.053;  -10.980;  649.840
1030.468;   29.615;  -13.530;  564.780
1031.017;   28.796;  -13.170;  634.800
1031.566;   28.489;  -12.200;  608.900
1032.115;   28.657;   -9.960;  694.500
1032.664;   27.991;  -13.210;  596.480
1033.213;   28.112;  -12.500;  735.420
1033.762;   28.564;  -11.910;  635.620
1034.311;   28.120;   -9.640;  677.220
1034.860;   28.327;  -13.310;  691.000
1035.408;   28.400;  -11.830;  722.720
1035.957;   27.758;  -12.000;  719.540
1036.506;   26.549;  -11.690;  530.800
1037.055;   28.276;  -10.990;  844.320
1037.603;   26.702;  -15.120;  664.000
1038.152;   24.929;  -12.450;  534.760
1038.700;   25.911;  -10.560;  585.740
1039.249;   25.668;  -11.080;  681.220
1039.797;   26.444;  -12.540;  633.360
1040.345;   25.892;  -11.920;  705.420
1040.894;   25.737;  -11.410;  625.300
1041.442;   25.883;  -14.320;  632.200
1041.990;   23.565;  -16.240;  559.160
1042.538;   24.447;  -11.680;  536.180
1043.087;   23.720;  -10.760;  570.860
1043.635;   25.708;  -11.850;  670.500
1044.183;   24.760;  -15.480;  586.400
1044.731;   23.715;  -11.770;  576.000
1045.279;   23.553;  -13.090;  674.920
1045.827;   25.741;  -12.440;  892.400
1046.374;   22.543;  -13.840;  515.420
1046.922;   21.877;  -13.220;  590.580
1047.470;   24.026;  -10.230;  691.300
1048.018;   24.144;  -14.590;  647.960
1048.565;   24.084;  -12.050;  708.600
1049.113;   22.152;  -11.650;  557.000
1049.660;   22.520;  -10.510;  629.660
1050.208;   23.654;  -13.310;  675.640
1050.755;   21.757;  -15.900;  606.580
1051.303;   22.350;  -11.430;  686.820
1051.850;   21.853;   -8.480;  635.120
1052.397;   20.463;  -15.010;  473.960
1052.945;   21.175;  -13.960;  617.760
1053.492;   22.555;  -13.150;  741.840
1054.039;   22.145;   -9.630;  720.180
1054.586;   21.388;  -13.680;  557.240
1055.133;   21.371;  -14.570;  693.140
1055.680;   21.589;  -13.820;  646.620
1056.227;   20.787;  -11.730;  542.780
1056.774;   22.925;  -12.480;  794.980
1057.321;   20.031;  -13.930;  523.260
1057.868;   20.633;  -11.690;  651.320
1058.415;   20.730;   -9.520;  651.980
1058.961;   20.854;  -13.160;  678.940
1059.508;   19.959;  -12.920;  643.820
1060.055;   20.187;  -11.920;  581.780
1060.601;   20.057;  -11.500;  624.300
1061.148;   20.284;  -14.330;  616.820
1061.694;   18.956;  -16.870;  592.580
1062.241;   19.434;  -10.330;  596.320
1062.787;   19.103;  -10.620;  663.140
1063.334;   21.386;  -10.110;  808.560
1063.880;   18.907;  -13.400;  668.360
1064.426;   19.114;  -10.680;  706.820
1064.972;   18.631;   -9.920;  601.340
1065.518;   17.418;  -10.980;  566.640
1066.065;   18.394;  -14.890;  624.460
1066.611;   17.311;  -12.870;  598.800
1067.157;   18.632;  -12.950;  641.860
1067.703;   18.740;  -13.540;  668.480
1068.249;   17.611;  -13.540;  605.220
1068.794;   17.812;  -12.600;  626.880
1069.340;   17.040;  -10.620;  578.960
1069.886;   17.404;  -12.830;  590.700
1070.432;   15.575;  -14.870;  541.720
1070.977;   16.725;  -11.980;  601.080
1071.523;   16.894;   -8.200;  573.060
1072.068;   17.593;  -12.330;  582.000
1072.614;   16.165;  -16.370;  527.760
1073.160;   17.497;  -11.100;  687.040
1073.705;   16.413;  -10.480;  572.520
1074.250;   16.657;  -14.520;  559.900
1074.796;   16.761;  -11.460;  655.160
1075.341;   17.280;  -11.950;  664.100
1075.886;   16.659;  -11.460;  594.240
1076.431;   15.985;  -13.770;  649.880
1076.976;   15.759;  -12.680;  639.220
1077.521;   15.019;  -13.170;  583.080
1078.067;   14.868;  -10.860;  579.400
1078.612;   16.242;  -13.920;  661.620
1079.156;   14.616;  -13.880;  601.540
1079.701;   15.646;  -13.120;  693.260
1080.246;   15.772;   -9.940;  696.300
1080.791;   15.634;  -14.740;  625.020
1081.336;   15.012;  -13.750;  659.320
1081.880;   14.975;  -13.400;  649.680
1082.425;   14.585;  -12.220;  573.480
1082.970;   16.469;  -11.610;  717.040
1083.514;   14.420;  -13.580;  597.000
1084.059;   13.234;  -12.810;  586.720
1084.603;   14.134;  -12.320;  565.840
1085.147;   14.209;  -13.190;  645.220
1085.692;   14.284;  -12.480;  716.800
1086.236;   13.106;  -13.020;  503.140
1086.780;   14.866;   -9.190;  751.440
1087.325;   13.967;  -12.480;  654.620
1087.869;   13.286;  -12.450;  610.700
1088.413;   14.886;  -12.240;  705.040
1088.957;   12.249;   -9.020;  543.400
1089.501;   14.998;  -10.320;  766.640
1090.045;   13.137;  -12.720;  726.480
1090.589;   12.137;  -13.690;  569.920
1091.133;   12.929;  -10.020;  673.340
1091.676;   12.998;  -12.330;  591.940
1092.220;   12.298;  -14.970;  600.920
1092.764;   12.894;  -12.430;  706.960
1093.307;   13.176;   -9.800;  673.780
1093.851;   11.415;  -14.970;  556.540
1094.395;   12.399;  -15.310;  683.140
1094.938;   11.293;  -10.370;  632.520
1095.482;   11.847;  -11.050;  559.800
1096.025;   12.693;  -11.840;  710.880
1096.568;   12.783;  -12.840;  779.280
1097.112;   10.057;  -14.700;  508.180
1097.655;   12.272;   -8.720;  603.000
1098.198;   10.712;  -13.610;  600.180
1098.741;    9.795;  -13.350;  612.860
1099.285;   11.171;  -11.230;  657.300
1099.828;    9.496;  -11.840;  439.400
1100.371;   11.234;  -10.840;  608.160
1100.914;   10.706;  -14.190;  682.660
1101.457;   10.834;  -11.240;  679.900
1101.999;    9.755;  -11.270;  584.680
1102.542;   10.986;  -11.480;  641.440
1103.085;    9.761;  -11.750;  658.500
1103.628;   10.753;  -11.400;  762.060
1104.170;    9.789;  -10.490;  588.280
1104.713;   10.935;  -10.600;  646.700
1105.256;    9.436;  -14.360;  557.440
1105.798;    8.635;  -13.210;  499.980
1106.341;   10.419;  -10.270;  728.900
1106.883;    9.645;  -12.200;  521.340
1107.425;    9.308;  -13.110;  668.180
1107.968;    9.738;  -12.840;  612.380
1108.510;    9.902;   -6.480;  684.960
1109.052;    8.406;  -13.940;  612.620
1109.594;    8.297;  -13.690;  554.440
1110.136;    9.363;  -11.880;  643.220
1110.679;    9.020;   -9.500;  633.080
1111.221;    9.297;  -14.160;  604.460
1111.763;    8.106;  -13.980;  559.220
1112.304;    7.623;  -13.880;  547.140
1112.846;    8.621;  -12.210;  666.240
1113.388;   11.326;  -11.390;  942.180
1113.930;    8.343;  -14.540;  694.200
1114.472;    7.586;  -12.640;  606.540
1115.013;    6.773;  -11.620;  551.280
1115.555;    7.420;  -13.640;  587.100
1116.097;    6.241;  -15.380;  579.480
1116.638;    7.100;  -12.640;  684.600
1117.180;    7.993;   -9.850;  667.740
1117.721;    7.938;  -13.690;  568.580
1118.262;    6.814;  -12.680;  677.960
1118.804;    7.727;  -12.530;  637.340
1119.345;    6.977;  -11.690;  578.400
1119.886;    8.345;  -13.380;  704.040
1120.427;    7.029;  -14.070;  589.020
1120.969;    6.644;  -13.500;  597.920
1121.510;    6.241;  -11.480;  563.060
1122.051;    6.937;  -12.830;  723.580
1122.592;    4.980;  -14.290;  655.420
1123.133;    4.776;  -12.400;  547.940
1123.673;    6.935;  -10.130;  706.480
1124.214;    6.505;  -12.930;  612.460
1124.755;    6.744;  -14.380;  639.460
1125.296;    5.848;  -14.000;  627.320
1125.836;    6.828;  -10.070;  691.500
1126.377;    5.899;  -12.640;  599.660
1126.918;    6.455;  -12.960;  614.980
1127.458;    4.695;  -13.350;  622.220
1127.999;    6.335;  -10.750;  656.980
1128.539;    6.009;  -12.350;  694.240
1129.079;    5.301;  -14.860;  632.720
1129.620;    4.869;  -13.840;  558.100
1130.160;    4.234;  -12.330;  539.480
1130.700;    6.238;  -14.530;  640.840
1131.240;    5.997;  -12.530;  643.700
1131.781;    4.483;  -14.450;  619.680
1132.321;    5.052;   -9.790;  599.120
1132.861;    3.749;  -14.860;  564.200
1133.401;    3.452;  -14.290;  593.940
1133.941;    4.268;  -11.750;  626.280
1134.481;    3.696;   -9.920;  597.580
1135.020;    4.015;  -12.290;  609.160
1135.560;    4.366;  -11.650;  674.940
1136.100;    3.423;  -16.270;  501.160
1136.640;    3.758;  -10.890;  510.480
1137.179;    4.451;  -14.180;  537.960
1137.719;    4.125;  -16.250;  605.400
1138.258;    4.119;  -14.230;  587.360
1138.798;    4.381;   -9.090;  663.780
1139.337;    2.931;  -15.130;  482.840
1139.877;    3.378;  -13.680;  642.360
1140.416;    5.506;  -11.320;  878.060
1140.955;    2.532;  -10.860;  535.380
1141.494;    4.222;  -12.920;  669.280
1142.034;    2.931;  -13.930;  583.520
1142.573;    3.671;  -11.440;  646.280
1143.112;    2.938;  -12.000;  553.480
1143.651;    3.311;  -13.670;  536.480
1144.190;    3.020;  -12.730;  691.640
1144.729;    2.562;  -14.560;  607.420
1145.267;    2.297;  -11.830;  584.900
1145.806;    3.776;  -12.230;  637.040
1146.345;    2.037;  -14.130;  635.020
1146.884;    2.735;  -11.590;  622.500
1147.422;    1.246;  -12.550;  533.060
1147.961;    4.105;  -11.180;  708.460
1148.500;    3.207;  -11.510;  669.720
1149.038;    2.525;  -11.640;  632.500
1149.577;    3.186;  -10.130;  698.640
1150.115;    0.479;  -13.970;  452.280
1150.653;    2.220;  -14.520;  607.340
1151.192;    1.944;  -12.810;  552.920
1151.730;    2.183;   -9.100;  652.560
1152.268;    2.349;  -12.220;  589.520
1152.806;    1.283;  -14.140;  571.180
1153.344;    0.044;  -12.350;  577.640
1153.882;    1.761;   -8.980;  600.060
1154.421;    0.681;  -15.190;  470.620
1154.958;    0.238;  -15.210;  595.240
1155.496;    1.966;  -12.850;  645.280
1156.034;    1.905;   -9.940;  721.880
1156.572;    3.396;  -13.570;  667.060
1157.110;    0.122;  -14.590;  473.940
1157.647;    1.618;  -13.030;  676.960
1158.185;    0.577;  -12.140;  564.320
1158.723;    0.628;  -14.390;  509.200
1159.260;    0.852;  -14.090;  701.700
1159.798;    0.858;  -11.920;  658.160
1160.335;    0.734;  -11.110;  631.820

