
Integration time [ms]:   3.276
Averaging Nr. [scans]: 1000
Smoothing Nr. [pixels]: 0
Data measured with spectrometer [name]: 7414430SP
Wave   ;Sample   ;Dark     ;Reference
[nm]   ;[counts] ;[counts] ;[counts] 

288.544;  149.916;    7.793;  793.890
289.143;  153.927;    7.462;  681.602
289.742;  154.395;    8.602;  828.814
290.341;  140.611;    1.321;  789.841
290.940;  129.180;   -0.709;  730.702
291.538;  129.888;    0.881;  881.108
292.137;  130.324;    0.122;  792.581
292.736;  135.063;   -1.929;  975.101
293.335;  131.301;   -8.229;  735.086
293.934;  132.024;   -5.279;  781.677
294.532;  129.822;   -1.369; 1031.958
295.131;  116.395;   -7.641;  834.394
295.730;  116.829;   -8.420;  809.588
296.328;  115.034;   -5.611;  783.442
296.927;  115.486;   -5.781;  779.652
297.525;  117.523;   -6.361;  781.236
298.124;  108.513;  -11.382;  654.009
298.722;  111.258;   -7.641;  761.933
299.321;  108.817;   -6.811;  708.597
299.919;  106.825;   -6.991;  751.918
300.518;  104.328;  -10.362;  689.338
301.116;  105.609;   -9.581;  691.381
301.715;  104.952;   -4.891;  730.222
302.313;  104.301;   -8.801;  704.943
302.911;  100.719;   -8.522;  733.830
303.509;  105.373;   -6.171;  925.627
304.108;  103.061;   -7.311;  760.383
304.706;  102.297;   -8.321;  801.664
305.304;   96.922;  -10.222;  796.707
305.902;  100.892;   -6.021;  784.484
306.500;   96.873;   -4.971;  728.200
307.098;   96.258;   -7.061;  746.560
307.696;   94.182;   -8.801;  780.432
308.294;   93.627;   -6.411;  731.359
308.892;   96.599;   -2.901;  759.769
309.490;   93.010;   -5.041;  712.161
310.088;   90.907;   -5.002;  788.444
310.686;   95.122;   -2.041;  821.749
311.284;   90.510;   -2.351;  766.040
311.882;   88.201;   -4.422;  731.225
312.480;   85.993;   -4.192;  697.167
313.078;   86.892;   -1.172;  808.331
313.675;   88.020;   -2.601;  691.600
314.273;   83.087;   -1.312;  797.837
314.871;   82.950;   -3.942;  589.829
315.468;   80.200;   -2.802;  652.090
316.066;   83.023;   -0.701;  694.427
316.664;   76.253;   -4.362;  656.351
317.261;   80.456;   -2.872;  910.128
317.859;   75.812;   -2.022;  768.735
318.456;   76.170;   -0.531;  830.096
319.054;   72.084;   -3.912;  787.828
319.651;   70.650;   -4.752;  759.928
320.249;   69.940;   -2.602;  810.188
320.846;   67.806;   -0.821;  714.286
321.443;   65.156;   -4.642;  832.135
322.041;   61.934;   -5.002;  812.315
322.638;   60.154;   -3.982;  701.456
323.235;   61.011;   -3.411;  665.683
323.833;   58.154;   -7.361;  740.354
324.430;   54.491;   -8.611;  615.900
325.027;   54.645;   -4.061;  876.855
325.624;   53.998;   -4.031;  644.532
326.221;   51.857;   -7.481;  689.717
326.818;   51.611;   -5.281;  818.332
327.415;   53.993;   -7.460;  748.828
328.012;   54.137;   -5.510;  690.585
328.609;   51.988;   -7.880;  731.389
329.206;   49.839;   -8.331;  778.621
329.803;   50.747;   -5.121;  737.841
330.400;   52.455;   -4.510;  704.260
330.997;   54.106;   -6.441;  817.147
331.594;   53.496;   -8.831;  788.185
332.191;   57.276;   -7.621;  728.722
332.787;   61.003;   -4.591;  844.463
333.384;   59.344;   -7.412;  763.093
333.981;   58.556;   -8.293;  815.687
334.578;   61.078;   -7.052;  708.378
335.174;   63.850;   -3.102;  731.469
335.771;   64.359;   -5.943;  836.456
336.367;   60.749;   -7.393;  710.631
336.964;   64.411;   -4.063;  793.266
337.561;   62.709;   -3.813;  731.112
338.157;   58.402;   -4.654;  911.916
338.754;   55.634;   -7.934;  796.589
339.350;   53.394;   -4.414;  722.493
339.946;   55.366;   -4.664;  773.135
340.543;   47.989;   -6.375;  846.136
341.139;   42.690;   -9.815;  720.836
341.735;   39.922;   -4.526;  772.593
342.332;   38.801;   -4.895;  691.472
342.928;   39.715;   -4.295;  795.394
343.524;   33.265;   -5.476;  761.684
344.120;   29.261;   -5.856;  738.562
344.716;   32.833;   -2.155;  723.717
345.313;   30.616;   -6.275;  795.342
345.909;   25.069;   -8.815;  627.336
346.505;   26.709;   -5.305;  740.247
347.101;   27.619;   -2.674;  827.864
347.697;   27.812;   -4.344;  785.398
348.293;   22.858;   -9.975;  627.244
348.889;   23.771;   -5.774;  745.914
349.485;   22.178;   -5.004;  688.205
350.081;   24.071;   -4.704;  772.592
350.676;   18.039;   -6.635;  691.606
351.272;   22.357;   -4.504;  809.530
351.868;   22.426;   -3.914;  780.497
352.464;   20.428;   -9.044;  723.932
353.059;   16.330;   -8.314;  646.017
353.655;   20.216;   -7.024;  777.063
354.251;   20.251;   -5.343;  759.845
354.846;   14.851;   -8.604;  740.646
355.442;   12.657;   -6.945;  753.071
356.038;   14.564;   -7.564;  751.708
356.633;   14.847;   -5.814;  728.594
357.229;   12.525;   -7.364;  724.757
357.824;   10.855;   -8.024;  703.600
358.420;   10.051;   -9.384;  679.726
359.015;   10.421;   -5.104;  695.357
359.610;   12.287;   -6.854;  763.920
360.206;    5.757;  -10.185;  603.240
360.801;    8.366;   -7.054;  646.503
361.396;   10.646;   -5.034;  725.975
361.992;    5.705;   -8.284;  668.220
362.587;    3.562;   -8.625;  670.160
363.182;    4.942;   -7.674;  689.631
363.777;    6.029;   -5.164;  738.242
364.372;    5.352;   -8.604;  737.314
364.967;    2.778;   -9.055;  680.744
365.563;    6.101;   -6.114;  815.567
366.158;    3.474;   -5.814;  685.161
366.753;    3.115;   -7.854;  649.263
367.348;    2.557;   -7.804;  746.056
367.942;    2.044;   -7.954;  697.298
368.537;    0.569;   -4.984;  754.245
369.132;    1.383;   -8.564;  703.428
369.727;   -2.358;   -8.855;  638.079
370.322;   -1.243;   -6.245;  580.186
370.917;   -1.909;   -6.425;  710.646
371.511;    0.650;   -6.294;  861.834
372.106;   -1.925;   -7.685;  776.964
372.701;   -5.935;   -7.335;  585.988
373.296;    0.121;   -4.564;  863.135
373.890;   -5.029;  -10.235;  647.840
374.485;   -7.133;   -7.885;  691.199
375.079;   -3.414;   -7.324;  738.685
375.674;   -1.775;   -3.494;  812.970
376.268;   -5.827;   -8.525;  691.759
376.863;  -11.355;  -10.086;  580.327
377.457;   -6.036;   -7.025;  662.490
378.052;   -8.046;   -3.585;  764.884
378.646;   -8.821;   -7.595;  741.167
379.240;   -8.667;   -8.335;  721.176
379.835;   -7.208;   -5.785;  636.978
380.429;  -10.310;   -4.335;  562.557
381.023;  -10.643;   -6.805;  779.205
381.617;  -12.147;   -9.195;  680.106
382.212;   -8.858;   -6.905;  685.303
382.806;   -8.391;   -3.745;  760.690
383.400;  -11.663;   -7.745;  672.281
383.994;  -13.275;   -9.765;  664.870
384.588;   -9.650;   -6.564;  697.701
385.182;   -7.818;   -5.344;  726.624
385.776;   -9.637;   -8.514;  706.875
386.370;  -11.777;   -9.555;  681.968
386.964;  -11.538;   -8.715;  684.155
387.558;   -9.154;   -6.174;  598.360
388.152;  -12.814;   -8.725;  681.959
388.745;  -11.560;   -7.965;  814.707
389.339;   -9.355;   -5.924;  747.642
389.933;   -9.121;   -5.524;  695.370
390.527;   -9.684;   -7.114;  859.029
391.120;  -15.352;  -10.725;  595.318
391.714;  -13.530;   -8.035;  711.633
392.308;  -10.659;   -3.574;  780.253
392.901;  -13.689;   -7.245;  642.460
393.495;  -15.412;   -9.285;  595.414
394.089;  -13.101;   -5.895;  760.452
394.682;  -14.027;   -4.295;  697.188
395.275;  -14.777;   -9.875;  719.927
395.869;  -15.499;   -8.485;  667.314
396.462;  -14.516;   -7.455;  616.609
397.056;   -9.807;   -5.424;  776.621
397.649;  -14.682;   -6.605;  731.575
398.242;  -12.887;   -8.224;  712.645
398.836;  -11.355;   -7.474;  766.408
399.429;  -13.144;   -7.094;  631.041
400.022;  -16.087;   -9.475;  665.902
400.615;  -14.009;   -7.145;  805.609
401.208;  -12.518;   -7.174;  691.451
401.802;  -14.413;   -5.515;  699.329
402.395;  -15.500;   -9.875;  683.502
402.988;  -15.954;   -8.845;  696.627
403.581;  -13.308;   -8.874;  646.878
404.174;  -10.597;   -5.324;  686.568
404.767;  -13.646;   -9.575;  638.583
405.360;  -17.029;  -10.965;  621.445
405.953;  -10.836;   -8.764;  759.034
406.545;  -10.651;   -7.514;  725.342
407.138;  -14.463;  -10.025;  618.350
407.731;  -12.951;  -10.034;  613.303
408.324;   -9.254;   -9.374;  660.554
408.917;  -10.342;   -6.534;  681.864
409.509;  -12.360;   -8.004;  740.396
410.102;  -14.235;   -9.875;  643.948
410.695;   -8.554;   -8.604;  665.758
411.287;   -9.247;   -6.794;  599.821
411.880;  -10.781;   -9.334;  585.421
412.472;  -13.171;  -10.254;  613.092
413.065;  -10.586;   -6.714;  629.408
413.657;   -8.198;   -7.234;  576.678
414.250;   -7.710;  -10.544;  646.681
414.842;  -10.478;   -9.744;  676.353
415.434;   -8.094;   -6.994;  570.463
416.027;   -4.287;   -5.893;  652.196
416.619;   -5.676;   -7.264;  713.400
417.211;   -5.910;  -10.374;  599.352
417.804;   -3.008;   -7.993;  628.499
418.396;   -7.076;   -7.234;  607.643
418.988;   -5.211;   -9.443;  659.238
419.580;   -8.347;  -10.724;  568.276
420.172;   -6.095;  -10.323;  536.196
420.764;   -1.670;   -8.793;  672.482
421.356;   -2.562;  -11.143;  636.898
421.948;   -3.251;   -8.293;  677.661
422.540;    1.567;   -7.893;  680.027
423.132;    0.575;   -7.082;  600.641
423.724;   -2.207;   -8.653;  561.267
424.316;   -1.075;  -10.213;  621.345
424.908;    2.324;   -9.762;  591.517
425.500;    3.716;   -5.572;  647.978
426.092;    4.027;   -8.422;  648.268
426.683;    2.730;   -9.283;  684.836
427.275;    5.161;   -7.852;  641.471
427.867;    7.181;   -5.272;  668.948
428.458;    7.703;   -7.682;  732.344
429.050;    6.227;  -10.612;  680.749
429.642;    7.688;   -9.882;  743.124
430.233;    8.389;   -6.962;  569.356
430.825;    9.980;   -6.842;  724.809
431.416;    7.322;   -9.672;  698.241
432.008;   11.421;   -6.552;  651.723
432.599;   11.490;   -6.891;  656.073
433.190;    8.891;  -10.912;  637.670
433.782;    8.604;  -11.172;  590.395
434.373;   15.382;   -6.061;  884.765
434.964;   13.488;   -8.251;  602.920
435.556;   11.352;   -9.722;  634.537
436.147;   15.329;   -9.082;  758.490
436.738;   14.971;   -8.041;  701.099
437.329;   20.412;   -7.341;  721.723
437.920;   13.154;   -8.162;  666.688
438.511;   12.950;  -11.802;  564.526
439.103;   19.131;  -10.191;  623.998
439.694;   20.775;   -7.601;  681.583
440.285;   21.582;   -8.541;  764.432
440.876;   20.047;   -9.751;  845.738
441.466;   19.194;   -9.401;  575.162
442.057;   24.554;   -7.760;  665.814
442.648;   23.458;   -9.971;  746.255
443.239;   22.219;  -11.001;  620.477
443.830;   27.267;   -7.990;  704.958
444.421;   28.604;   -7.910;  655.474
445.011;   24.805;   -8.131;  693.619
445.602;   24.480;   -7.111;  743.126
446.193;   27.041;  -10.920;  488.117
446.783;   31.113;   -6.500;  640.397
447.374;   27.136;   -8.671;  692.759
447.964;   27.523;  -10.781;  713.770
448.555;   34.987;   -9.650;  822.742
449.145;   32.139;   -8.660;  662.853
449.736;   33.165;   -8.990;  803.179
450.326;   32.857;   -9.500;  713.626
450.917;   37.387;   -8.680;  675.324
451.507;   36.491;   -7.520;  600.661
452.097;   37.334;   -8.590;  746.267
452.688;   38.469;  -11.340;  742.160
453.278;   38.691;  -10.100;  566.840
453.868;   42.766;   -6.019;  793.550
454.458;   40.917;   -9.440;  651.141
455.048;   40.847;  -10.560;  711.783
455.639;   41.681;  -11.799;  567.096
456.229;   45.496;   -6.899;  710.694
456.819;   46.777;   -7.389;  751.158
457.409;   48.731;  -11.119;  773.993
457.999;   50.671;   -9.289;  737.505
458.589;   50.549;   -6.139;  686.606
459.179;   49.843;   -8.729;  717.658
459.769;   48.615;   -9.789;  627.099
460.358;   53.706;  -10.259;  797.262
460.948;   52.581;   -7.299;  689.503
461.538;   54.724;  -10.289;  660.677
462.128;   52.949;  -11.269;  664.934
462.717;   59.766;   -9.368;  710.326
463.307;   61.728;   -7.908;  705.846
463.897;   57.799;   -9.599;  656.942
464.486;   56.884;   -9.769;  837.128
465.076;   62.142;   -8.048;  733.776
465.666;   64.687;   -9.358;  652.900
466.255;   62.997;   -7.919;  785.651
466.845;   62.516;  -11.689;  666.749
467.434;   65.652;   -7.818;  725.873
468.023;   66.592;   -7.678;  658.357
468.613;   64.133;  -10.939;  713.946
469.202;   68.169;  -10.118;  646.507
469.791;   72.150;   -9.108;  737.811
470.381;   74.836;   -6.058;  742.813
470.970;   74.520;  -10.428;  711.099
471.559;   74.029;  -10.268;  733.291
472.148;   76.886;   -8.448;  675.737
472.738;   78.238;   -6.917;  765.466
473.327;   78.554;  -11.978;  637.529
473.916;   78.266;  -11.888;  737.446
474.505;   82.539;   -9.437;  751.703
475.094;   85.780;   -6.747;  806.570
475.683;   84.351;   -9.367;  797.699
476.272;   86.236;  -12.637;  730.632
476.861;   88.378;  -10.027;  706.754
477.449;   94.796;   -8.716;  728.487
478.038;   90.289;   -9.577;  692.513
478.627;   90.431;   -9.718;  714.852
479.216;   97.667;   -8.947;  769.441
479.805;   99.657;   -6.256;  783.375
480.393;  100.302;   -7.937; 1008.945
480.982;   98.767;   -7.717;  874.501
481.571;  105.194;   -9.266;  858.333
482.159;  105.849;   -7.636;  705.386
482.748;  105.553;   -9.667;  821.385
483.336;  109.629;  -10.376;  858.209
483.925;  110.235;   -7.147;  774.373
484.513;  117.790;   -7.996;  758.962
485.102;  114.831;  -10.027;  810.965
485.690;  122.720;  -10.446; 1011.050
486.278;  124.339;   -8.446;  979.329
486.867;  124.646;   -6.356;  809.662
487.455;  126.875;   -9.136;  898.229
488.043;  128.338;  -10.646;  748.361
488.631;  136.473;   -7.456; 1005.079
489.220;  140.751;   -6.636;  908.626
489.808;  141.281;  -11.036;  741.415
490.396;  149.845;  -10.246;  914.645
490.984;  154.958;   -8.556;  830.161
491.572;  164.752;   -5.886;  940.315
492.160;  171.156;   -9.486;  919.081
492.748;  183.267;  -10.976;  884.341
493.336;  206.484;   -8.776; 1019.693
493.924;  232.957;   -5.465;  958.077
494.512;  260.762;   -9.986; 1066.638
495.100;  298.891;  -10.636; 1103.280
495.687;  352.139;  -10.885; 1206.373
496.275;  412.456;   -8.126; 1150.796
496.863;  480.455;  -10.586; 1281.171
497.451;  579.439;  -11.926; 1386.805
498.038;  712.452;  -10.885; 1556.729
498.626;  821.575;   -6.315; 1741.407
499.214;  960.336;   -7.326; 2016.609
499.801; 1145.747;  -11.906; 2220.633
500.389; 1395.156;  -10.466; 2312.494
500.976; 1705.128;   -5.236; 2744.849
501.564; 2107.341;   -8.936; 3148.565
502.151; 2461.333;  -13.176; 3515.999
502.738; 2911.146;  -10.646; 3971.274
503.326; 3309.169;   -9.525; 4403.796
503.913; 3681.762;  -10.856; 5161.749
504.500; 3971.909;  -11.586; 5986.420
505.088; 4414.481;  -10.336; 6381.201
505.675; 4946.961;   -6.355; 6925.547
506.262; 5593.503;   -9.046; 7619.060
506.849; 6308.314;  -10.416; 8733.969
507.436; 6762.519;  -10.305; 9790.121
508.023; 7303.446;   -5.496; 9985.472
508.610; 7541.486;   -7.856;10434.618
509.197; 8173.121;  -10.097;11198.435
509.784; 9538.494;  -10.886;12391.194
510.371;10488.784;   -9.315;13603.713
510.958;11212.273;   -9.936;14426.586
511.545;12014.373;   -9.326;15243.775
512.132;12877.056;  -10.075;15945.876
512.719;13420.205;   -7.796;16340.369
513.305;14252.715;  -10.606;18011.766
513.892;15008.249;  -11.486;19754.971
514.479;16445.529;   -9.126;20967.805
515.066;17946.605;   -6.026;22299.793
515.652;19084.506;   -8.466;22908.660
516.239;20174.246;  -10.886;23798.875
516.825;21155.445;  -11.496;25567.275
517.412;22096.732;   -5.796;28154.959
517.998;22914.320;  -10.506;28344.111
518.585;22996.264;  -10.076;27134.219
519.171;23224.891;   -8.315;27268.576
519.758;24262.596;   -8.596;28964.129
520.344;26090.459;   -8.466;30664.494
520.930;26452.754;  -11.006;32550.605
521.516;27817.732;  -10.495;35422.895
522.103;30300.467;   -5.526;38280.004
522.689;31137.258;   -8.746;37835.117
523.275;30820.051;  -11.376;37288.613
523.861;31503.539;  -11.156;37281.395
524.447;32325.623;   -8.135;37846.949
525.033;31618.068;   -7.896;38321.949
525.619;31591.881;  -12.476;38579.285
526.205;32684.152;   -9.516;40622.875
526.791;33847.867;   -6.926;42258.836
527.377;31611.531;   -8.346;42966.902
527.963;32537.313;   -8.717;42018.949
528.549;33854.992;  -11.016;42476.828
529.135;35210.590;   -8.536;41854.852
529.721;36183.590;   -9.666;41237.711
530.306;35979.340;  -10.066;41259.445
530.892;36124.203;  -11.356;41506.047
531.478;37461.285;   -6.596;43559.613
532.063;39748.004;   -8.836;47695.563
532.649;39940.746;  -10.047;50808.324
533.235;40926.059;   -9.746;51787.500
533.820;41949.488;   -6.566;52145.035
534.406;42673.859;  -10.817;51133.488
534.991;42112.828;   -9.416;49996.805
535.576;40850.824;   -9.036;48882.852
536.162;40921.996;   -6.156;46942.285
536.747;41315.559;  -11.607;45711.746
537.333;43703.578;  -11.787;48510.180
537.918;45543.379;  -12.437;50439.891
538.503;42331.461;   -7.196;50863.711
539.088;37240.633;  -10.556;50906.922
539.673;36437.887;   -8.767;52621.965
540.259;38062.207;  -10.026;52368.094
540.844;38646.063;   -7.416;50879.109
541.429;41819.000;   -9.467;52077.777
542.014;46785.953;   -9.527;52716.695
542.599;47709.039;   -9.946;52363.281
543.184;44985.156;   -7.927;53187.137
543.769;45753.598;   -9.297;54697.605
544.354;45487.023;  -10.127;53913.914
544.938;44753.344;   -9.267;49680.164
545.523;46866.391;   -6.506;47386.277
546.108;49035.211;   -9.787;49151.949
546.693;51127.008;  -11.587;51384.637
547.278;50969.617;  -10.986;51853.254
547.862;47727.055;   -8.206;51173.750
548.447;43232.504;  -10.067;51691.395
549.031;42523.410;   -9.637;52456.703
549.616;46939.293;   -9.926;52714.516
550.201;46086.512;   -6.347;52414.598
550.785;46598.457;   -7.917;52355.059
551.370;46163.516;  -10.867;54589.453
551.954;46338.320;   -9.047;58267.348
552.538;47993.117;   -7.827;59062.176
553.123;46543.082;  -10.287;58115.285
553.707;43874.477;  -12.178;56556.285
554.291;44315.078;   -8.717;56201.668
554.876;46083.918;   -7.457;55335.762
555.460;46754.934;  -10.387;54155.703
556.044;48493.598;   -9.618;53721.484
556.628;46684.855;  -11.567;53731.016
557.212;45372.570;   -8.097;54312.531
557.796;43587.035;  -11.077;53797.773
558.380;43684.902;  -11.108;56145.984
558.964;44573.242;   -9.057;57277.930
559.548;45705.863;   -6.977;56459.641
560.132;43651.766;  -11.457;54434.543
560.716;42409.293;  -11.378;54800.617
561.300;43155.789;   -9.577;57606.945
561.884;44279.625;   -7.127;58972.445
562.467;43120.988;   -7.118;57327.570
563.051;42618.699;  -13.358;54962.434
563.635;42999.809;  -10.178;52594.473
564.219;43229.496;   -7.837;50610.410
564.802;44008.258;  -11.398;49551.180
565.386;44249.449;  -12.788;48370.953
565.969;43934.824;   -9.077;48178.871
566.553;42830.211;   -6.207;49957.305
567.136;43036.793;   -8.568;50369.594
567.720;39397.773;  -11.868;49492.004
568.303;37724.184;   -8.268;50616.352
568.887;37782.020;   -8.698;50727.148
569.470;38082.922;   -6.808;51698.379
570.053;37032.855;  -13.188;52122.078
570.637;35687.305;  -12.037;52536.438
571.220;35285.168;   -8.577;51186.098
571.803;35405.523;   -8.498;51032.762
572.386;37108.723;  -10.498;49609.887
572.969;39713.234;   -9.388;48285.926
573.552;38520.496;   -8.338;47624.285
574.135;37604.941;   -8.518;45498.641
574.718;35068.105;  -13.628;41970.434
575.301;33782.496;  -10.893;41447.137
575.884;32496.887;   -8.158;40923.836
576.467;33537.977;  -10.328;45267.723
577.050;35733.258;  -13.058;48175.543
577.633;37485.309;   -9.458;47729.328
578.216;36475.445;   -8.928;47579.793
578.799;35397.578;   -9.358;47820.996
579.381;33981.691;  -11.388;48115.551
579.964;32230.666;  -11.718;47333.766
580.547;33760.707;   -8.588;46668.969
581.129;34596.664;   -8.859;44466.141
581.712;35049.367;  -10.729;44164.922
582.294;35885.238;  -11.118;46477.855
582.877;36095.707;   -5.218;48244.254
583.459;33952.156;   -8.679;47437.895
584.042;32212.334;  -10.709;46943.219
584.624;32770.789;  -11.669;46792.227
585.206;32258.193;   -8.218;46557.250
585.789;32231.975;  -10.569;45793.773
586.371;35081.242;  -11.859;43836.391
586.953;35994.359;  -10.719;42972.492
587.536;36961.766;   -7.198;42487.211
588.118;37003.559;   -8.720;42086.414
588.700;33241.969;  -10.439;43389.930
589.282;32206.125;   -9.198;43646.039
589.864;33101.809;   -9.199;43438.109
590.446;34433.656;  -11.319;43151.926
591.028;34325.051;  -11.159;42781.867
591.610;33298.863;  -11.779;42839.098
592.192;30411.998;   -7.668;42820.402
592.774;28866.883;  -11.949;40724.277
593.356;27839.537;  -12.129;39874.789
593.937;27193.154;  -10.669;39980.648
594.519;29147.563;   -6.509;42069.633
595.101;31555.457;  -10.849;42976.031
595.683;31875.223;  -11.679;44084.441
596.264;32820.984;   -9.049;43478.797
596.846;31779.857;   -8.849;43803.672
597.427;31167.322;   -9.570;42986.934
598.009;32960.938;  -12.620;42832.219
598.591;33344.195;  -10.039;42580.086
599.172;32475.256;  -10.369;43061.805
599.753;32531.457;   -9.140;41691.469
600.335;34263.691;  -11.430;40692.520
600.916;32991.168;   -9.939;39982.422
601.498;30445.486;   -8.479;40318.617
602.079;29006.791;  -10.920;40670.609
602.660;28855.830;  -11.480;41450.898
603.241;30045.500;  -11.699;41137.738
603.823;28944.682;   -9.579;38868.797
604.404;28656.635;  -10.620;38182.785
604.985;30032.580;  -10.450;38078.047
605.566;29476.178;   -9.129;38056.633
606.147;29475.686;   -7.510;37020.418
606.728;31693.342;  -10.660;37883.359
607.309;30864.773;  -11.740;38748.273
607.890;30176.160;   -9.759;38850.230
608.471;29685.877;   -8.250;37457.918
609.051;28910.264;   -9.240;36066.457
609.632;27856.727;  -12.120;35991.074
610.213;28713.461;   -9.110;37402.641
610.794;29402.322;   -8.030;38383.363
611.374;28648.344;   -8.110;40562.387
611.955;29075.990;  -13.560;38533.727
612.536;30686.842;  -11.400;36951.789
613.116;30229.031;   -8.070;37197.891
613.697;30541.629;  -10.830;38411.125
614.277;28948.852;  -11.641;38673.938
614.858;29815.299;  -13.310;37075.863
615.438;29366.139;   -7.460;35092.906
616.019;26707.697;   -7.601;33666.301
616.599;27191.227;  -12.020;34189.023
617.179;29177.297;  -11.780;36952.047
617.760;29977.449;   -8.570;39582.574
618.340;31080.904;  -11.471;38943.977
618.920;32612.324;  -11.170;37594.156
619.500;32209.342;  -11.071;37866.938
620.080;31290.301;   -7.750;37869.043
620.660;32267.266;  -12.711;36868.617
621.241;33136.707;  -10.211;36352.309
621.821;33175.914;  -10.961;35459.520
622.401;32733.605;   -7.720;35207.414
622.980;31889.563;   -8.981;35980.422
623.560;30450.600;   -9.331;37351.328
624.140;29639.555;   -9.850;34388.582
624.720;24943.531;   -7.451;32368.764
625.300;21340.268;   -9.070;32638.629
625.880;24565.338;  -12.601;34599.035
626.459;28331.967;  -11.751;36831.738
627.039;31263.469;   -9.281;38299.098
627.619;31251.883;   -8.801;38289.574
628.198;29653.436;  -12.071;37220.695
628.778;28911.947;   -9.461;37632.563
629.357;29686.285;   -8.491;38003.012
629.937;29634.906;   -9.721;38402.039
630.516;29029.055;   -9.951;37868.801
631.096;28975.051;  -11.731;35760.410
631.675;31617.609;   -8.572;35225.219
632.254;36735.508;  -11.282;35130.289
632.834;36131.605;  -13.322;35794.570
633.413;34311.262;  -10.301;35788.922
633.992;31481.377;   -8.582;34532.863
634.571;32625.385;   -8.352;33590.113
635.151;35446.313;  -11.912;34943.863
635.730;33867.156;  -10.511;35352.523
636.309;30313.406;   -7.731;35366.605
636.888;27687.703;   -9.952;36165.637
637.467;28269.707;  -11.672;37515.902
638.046;30322.992;   -8.901;39288.695
638.625;33613.352;   -7.912;38279.699
639.204;33324.332;  -10.022;37741.598
639.782;31313.900;  -12.252;38364.551
640.361;27745.367;  -10.041;36740.621
640.940;24875.475;  -11.161;34950.082
641.519;25199.316;   -9.701;34137.398
642.097;27772.568;  -11.271;35654.258
642.676;30807.371;   -8.651;35637.957
643.255;31939.342;   -8.711;36567.074
643.833;31009.488;   -9.581;37809.434
644.412;31377.021;  -13.711;37337.293
644.990;30657.719;  -11.811;37018.531
645.569;30330.180;   -9.411;36518.469
646.147;29214.830;  -10.291;36186.430
646.726;28583.398;  -12.401;36267.688
647.304;29912.988;  -10.411;36647.625
647.882;31814.707;   -9.651;39286.742
648.461;33385.035;   -9.631;39157.703
649.039;32019.084;  -11.881;35412.883
649.617;31413.551;   -9.661;34744.918
650.195;31103.275;   -9.301;35403.098
650.773;30014.281;  -10.511;35053.797
651.352;27494.803;  -11.521;33756.816
651.930;25137.770;  -12.211;31868.773
652.508;23576.230;   -9.171;33121.551
653.086;27389.553;   -9.371;33564.793
653.663;30456.463;  -13.161;34054.668
654.241;29179.689;  -13.031;35693.309
654.819;30623.119;   -9.371;36422.906
655.397;30529.195;  -10.511;38213.484
655.975;30344.318;  -10.371;39507.625
656.553;30546.605;  -10.051;39498.223
657.130;28825.346;  -10.061;40395.480
657.708;28097.289;   -9.561;39242.020
658.286;28116.627;  -11.511;38920.020
658.863;29377.273;  -10.261;40202.898
659.441;32044.178;   -7.531;39677.938
660.018;31270.598;   -9.501;40413.355
660.596;30294.082;  -13.301;39931.414
661.173;32266.826;  -11.211;39604.531
661.750;32358.738;   -9.951;39700.070
662.328;31190.760;   -9.390;39292.809
662.905;30429.313;  -11.330;38235.648
663.482;26282.365;   -9.050;36212.305
664.060;24344.492;   -8.240;35944.945
664.637;26984.762;  -10.050;35170.785
665.214;28943.857;  -11.760;34197.523
665.791;30814.889;  -10.530;34549.520
666.368;29422.908;   -9.690;35118.578
666.945;29827.803;   -9.320;36019.418
667.522;31416.416;  -11.860;36048.438
668.099;31630.549;  -10.770;36243.914
668.676;30933.455;   -6.260;35958.875
669.253;29353.605;   -7.000;37384.730
669.830;29693.100;  -10.190;36779.629
670.407;29388.645;   -9.550;35231.289
670.984;29477.449;   -9.260;35544.270
671.560;29760.297;   -9.280;35466.867
672.137;28529.063;  -11.810;34280.863
672.714;29306.402;  -11.490;34632.863
673.290;29591.363;   -7.740;35135.422
673.867;29692.480;  -10.660;36114.480
674.443;30170.053;  -12.230;36152.859
675.020;28669.541;  -10.450;35327.238
675.596;29524.111;   -9.260;35795.176
676.173;29913.777;  -10.780;35430.355
676.749;29525.908;  -13.690;33549.516
677.326;29748.893;  -11.980;32210.012
677.902;29887.293;   -8.630;32068.871
678.478;29210.756;  -10.730;32583.891
679.054;28948.352;  -10.520;32088.928
679.631;29724.174;  -11.920;30978.848
680.207;30657.920;   -7.490;33160.887
680.783;31968.072;   -9.860;35570.363
681.359;31213.699;  -13.380;36125.184
681.935;30390.615;  -12.480;35240.922
682.511;29256.293;   -7.900;34429.961
683.087;29114.160;   -7.710;34463.680
683.663;28988.980;  -11.480;34648.898
684.239;28254.451;  -14.090;34546.457
684.815;27974.602;   -7.560;35586.375
685.390;28283.230;   -9.910;35821.895
685.966;28646.609;  -11.159;35085.871
686.542;31263.961;  -11.169;34198.230
687.118;33478.594;   -5.959;32847.707
687.693;33815.473;  -10.329;32794.027
688.269;33060.172;  -12.059;33072.367
688.844;30806.113;  -10.909;33141.664
689.420;28686.695;   -8.019;33965.742
689.995;26555.523;   -8.399;34655.523
690.571;25394.441;  -10.949;33576.742
691.146;25971.230;   -9.619;32657.219
691.722;25328.266;   -8.999;32526.979
692.297;24996.936;  -11.589;33014.617
692.872;26930.865;  -11.739;34012.254
693.448;26506.398;  -11.059;34237.434
694.023;25738.145;  -10.139;34142.672
694.598;27855.061;   -9.029;34132.031
695.173;28143.758;  -13.319;34205.250
695.748;27568.148;  -10.169;32882.488
696.323;27458.744;   -8.339;32864.906
696.898;27398.840;   -8.169;33170.004
697.473;27150.691;  -12.309;32432.984
698.048;26954.029;  -10.989;31649.303
698.623;27299.033;   -9.329;30778.141
699.198;29223.660;   -9.849;31140.119
699.773;30161.793;  -12.329;31764.299
700.348;28581.680;  -10.389;31780.816
700.922;28656.281;   -9.269;32046.375
701.497;29232.623;   -9.329;32603.574
702.072;29376.826;  -10.789;34799.871
702.646;28413.994;  -10.839;35793.172
703.221;26242.090;   -9.099;35201.590
703.795;28374.516;  -10.939;34764.527
704.370;28982.773;  -12.859;34307.367
704.944;29314.201;  -11.559;33509.887
705.519;30458.664;   -7.939;31388.584
706.093;31572.133;  -10.499;31340.104
706.668;31737.631;  -11.289;32630.281
707.242;30334.381;  -11.509;32728.779
707.816;28697.064;   -9.639;32947.238
708.390;27282.424;  -11.429;33277.855
708.965;28203.531;  -11.869;33834.336
709.539;28736.816;  -11.689;33709.273
710.113;29263.020;  -10.478;33044.313
710.687;28644.516;  -10.228;31953.992
711.261;26445.971;  -13.698;30505.949
711.835;26055.184;  -13.378;30262.369
712.409;26947.154;   -9.698;31254.447
712.983;28661.133;  -11.898;32754.986
713.557;29603.141;  -15.138;34018.824
714.131;29351.234;  -14.098;34579.625
714.704;28636.838;   -9.958;33890.262
715.278;26239.609;  -10.028;33531.102
715.852;25442.684;  -11.148;33601.660
716.425;26235.496;   -9.068;33515.117
716.999;26658.504;  -10.038;33185.555
717.573;27638.371;   -9.798;33905.996
718.146;28959.164;  -12.378;35199.293
718.720;28561.793;  -11.918;35060.551
719.293;27855.535;   -8.088;34973.230
719.867;30799.072;  -10.888;36394.449
720.440;30936.328;  -11.938;36663.008
721.013;29599.059;  -12.818;35102.426
721.587;28240.018;  -10.298;33985.266
722.160;26557.740;  -10.048;33524.965
722.733;25433.805;  -12.108;32987.043
723.306;25952.865;  -10.818;33066.301
723.880;28078.588;   -8.908;33399.500
724.453;29973.238;   -9.878;33468.297
725.026;29042.563;  -11.188;33816.637
725.599;26420.467;  -11.678;32797.996
726.172;26751.822;   -9.618;33187.434
726.745;28096.514;   -8.258;35136.613
727.318;29743.797;  -12.978;35751.730
727.891;30528.014;  -12.148;35890.430
728.463;30371.516;   -8.968;34822.090
729.036;29242.262;  -10.188;32895.086
729.609;29347.627;  -11.788;31823.225
730.182;25934.373;  -11.788;31445.283
730.754;23512.723;  -10.268;32373.223
731.327;23723.592;   -9.998;33676.820
731.900;23797.818;  -12.228;33417.000
732.472;25096.133;  -13.848;31978.498
733.045;27261.361;   -8.698;30368.777
733.617;27261.900;  -10.607;30574.215
734.190;26741.715;  -11.507;31280.975
734.762;23928.713;  -13.647;31674.412
735.334;22357.010;   -9.767;31247.291
735.907;22851.049;   -9.897;29876.211
736.479;22608.682;  -11.637;29808.488
737.051;22218.973;   -9.567;30233.547
737.623;23672.820;   -8.187;31469.086
738.195;24768.975;  -11.187;31784.225
738.768;26410.379;  -12.337;32120.523
739.340;26361.938;  -12.227;32094.342
739.912;25102.807;  -11.057;31312.680
740.484;23953.205;  -10.207;31946.238
741.056;22911.617;  -10.047;32984.059
741.628;24617.996;  -13.627;33897.715
742.199;26956.428;   -7.177;33213.016
742.771;25334.803;  -10.797;31369.113
743.343;22907.789;  -11.997;31865.473
743.915;21701.885;  -12.867;32388.631
744.487;21885.604;   -7.617;31079.568
745.058;22224.186;   -9.557;30570.107
745.630;22961.729;   -9.877;29970.127
746.201;23937.150;  -14.177;29186.766
746.773;24213.789;   -9.237;28805.723
747.344;24013.615;   -9.847;29591.223
747.916;22622.984;  -11.657;31412.201
748.487;22532.531;  -10.587;32194.898
749.059;23772.676;   -8.707;32533.719
749.630;24776.414;  -10.537;32158.518
750.201;23813.756;  -11.687;30855.395
750.773;21966.695;  -11.647;28622.555
751.344;21913.020;   -7.147;28405.732
751.915;22970.873;   -9.757;28461.551
752.486;22356.834;  -12.427;27842.850
753.057;19998.320;  -12.227;27845.008
753.628;18834.813;  -10.417;27728.107
754.199;20116.848;  -11.767;27381.086
754.770;21370.441;  -11.187;25882.203
755.341;21364.828;  -10.507;25886.184
755.912;21552.301;   -9.387;26050.861
756.483;20852.146;  -10.647;26798.779
757.054;19023.225;  -11.837;27048.238
757.625;17829.850;  -12.716;26294.838
758.195;17598.512;   -9.666;26142.076
758.766;17221.414;   -8.656;26392.234
759.337;18114.492;  -12.856;26334.594
759.907;20045.643;  -13.366;27579.652
760.478;20925.783;   -8.576;28352.770
761.048;20372.414;  -10.526;27325.088
761.619;19621.803;  -11.116;26460.428
762.189;19521.559;  -12.136;26029.826
762.760;20484.090;   -9.456;26430.145
763.330;21685.479;   -7.136;26670.902
763.900;21048.889;  -11.786;26603.021
764.471;18272.160;  -11.546;25542.740
765.041;17049.277;   -8.096;24358.459
765.611;17278.020;   -8.876;23991.297
766.181;17730.924;  -12.196;24470.236
766.751;18520.625;  -11.636;24845.975
767.321;18487.416;  -10.156;24533.633
767.891;16563.199;  -11.766;24916.492
768.461;15838.735;  -14.936;24776.771
769.031;16156.409;  -12.356;24757.988
769.601;17834.045;   -7.526;24181.088
770.171;17883.629;  -10.766;23670.387
770.741;17012.246;  -13.176;22960.045
771.311;17224.709;  -10.616;22917.523
771.880;17631.777;   -9.576;23562.941
772.450;17108.633;  -10.336;24216.500
773.020;17011.691;  -13.516;24140.398
773.589;16634.473;  -13.466;24414.857
774.159;16146.749;   -8.686;23858.717
774.729;15682.458;   -9.476;22942.135
775.298;15179.721;  -13.666;22324.033
775.867;14820.158;  -11.716;21140.313
776.437;14844.579;   -9.906;20838.092
777.006;14489.565;  -12.166;20599.510
777.576;14492.725;  -12.356;20508.809
778.145;14751.492;  -11.646;20732.947
778.714;14661.681;   -8.226;21062.465
779.283;13854.688;   -9.556;20949.664
779.853;13478.804;  -14.116;20508.623
780.422;13925.771;  -11.506;20649.082
780.991;13398.266;   -9.556;21527.520
781.560;12298.611;   -9.095;22632.658
782.129;12099.987;  -12.135;23048.277
782.698;12088.472;  -10.865;23438.555
783.267;11790.788;   -9.335;23267.734
783.836;11763.063;  -11.045;22415.133
784.404;12735.467;  -13.865;20443.152
784.973;13157.364;  -13.095;19699.150
785.542;12971.039;  -11.575;19763.828
786.111;12831.306;   -9.705;20341.408
786.679;12485.205;  -12.105;20207.967
787.248;12280.248;  -12.455;19516.465
787.817;12030.731;  -11.535;18900.363
788.385;11591.025;   -9.765;17879.121
788.954;10978.162;  -14.005;17658.301
789.522;10520.724;  -11.955;17788.879
790.090;11109.869;  -10.135;18118.277
790.659;11515.986;  -10.975;18338.736
791.227;10958.203;  -13.375;18508.615
791.795;11437.398;  -12.375;17898.254
792.364;11852.201;  -10.725;17295.133
792.932;12156.579;   -9.715;16822.051
793.500;12300.726;  -12.675;17040.148
794.068;12489.420;  -13.495;17179.787
794.636;12623.549;  -10.885;16664.246
795.204;12092.159;  -11.045;16524.545
795.772;12096.809;  -13.175;17274.564
796.340;11618.215;  -12.445;17891.002
796.908;11452.821;   -9.735;17648.561
797.476;11449.650;   -9.815;17064.080
798.044;10998.435;  -13.985;16672.777
798.612;10135.972;  -13.115;17023.996
799.180; 9817.350;  -10.185;16561.615
799.747; 9747.697;   -9.055;15962.773
800.315; 9433.582;  -12.385;15296.992
800.883; 9103.846;  -15.035;14801.771
801.450; 9077.114;  -10.365;14534.430
802.018; 9090.119;   -9.855;14173.248
802.585; 9123.996;  -11.905;14029.547
803.153; 9170.692;  -11.585;13836.846
803.720; 9129.387;   -9.095;13567.324
804.287; 8832.697;   -9.135;13360.622
804.855; 8394.843;  -11.604;13681.981
805.422; 8247.440;  -11.794;13536.560
805.989; 8226.967;  -10.734;13355.958
806.556; 8357.981;  -10.444;13747.896
807.124; 8633.737;  -12.764;13987.376
807.691; 8566.065;  -12.964;14038.674
808.258; 8380.909;  -11.134;14120.152
808.825; 8090.286;   -9.854;13860.111
809.392; 8137.084;  -10.504;13268.790
809.959; 7649.312;  -13.054;12680.389
810.526; 7245.305;   -8.294;12427.308
811.093; 7316.329;   -8.394;12030.105
811.659; 7947.128;  -12.304;11653.664
812.226; 8396.336;  -13.944;11637.183
812.793; 8026.631;  -10.484;11611.521
813.360; 7353.171;  -10.144;11885.181
813.926; 6936.660;  -11.684;12770.539
814.493; 6671.820;  -13.644;12677.638
815.060; 6311.675;   -9.724;11974.336
815.626; 6358.469;   -9.854;11594.715
816.193; 6801.370;  -13.254;11579.474
816.759; 6872.198;  -13.204;11666.972
817.325; 6983.033;   -9.434;11325.530
817.892; 7326.663;  -10.134;11105.369
818.458; 7732.681;  -13.474;10843.928
819.024; 7408.687;  -11.854;10714.406
819.591; 7058.037;  -10.244;10469.165
820.157; 6789.275;  -10.704;10235.523
820.723; 6256.071;  -12.324;10847.563
821.289; 5944.165;   -9.444;11040.980
821.855; 5884.910;   -8.374;10357.100
822.421; 5929.032;  -10.234; 9978.918
822.987; 5897.107;  -13.294; 9754.177
823.553; 5556.146;  -10.884;10065.755
824.119; 5370.309;   -8.884;10036.294
824.685; 5462.256;   -6.784;10029.192
825.251; 5545.105;  -12.004;10199.230
825.816; 5489.212;  -11.474; 9820.189
826.382; 5280.184;   -9.174; 9297.248
826.948; 5486.437;   -9.214; 9381.347
827.513; 5887.449;  -10.774; 9450.726
828.079; 5697.563;  -11.924; 9472.444
828.645; 5119.587;  -10.543; 9292.643
829.210; 5030.662;  -10.533; 9065.341
829.776; 5017.804;  -10.753; 9132.620
830.341; 4870.639;  -10.173; 9092.878
830.906; 5021.481;  -10.743; 9078.557
831.472; 5384.575;  -11.113; 8534.535
832.037; 5172.033;  -10.603; 8677.874
832.602; 4629.166;  -13.323; 8628.692
833.167; 4319.874;  -10.823; 8879.031
833.733; 4261.488;  -10.113; 9189.790
834.298; 4380.493;  -13.583; 9052.608
834.863; 4400.071;  -12.703; 8895.087
835.428; 4349.932;  -10.523; 8824.266
835.993; 4244.277;   -6.963; 8845.385
836.558; 4121.481;  -10.763; 8888.563
837.123; 4247.144;   -9.903; 8966.582
837.688; 4451.774;   -9.913; 8617.860
838.253; 4658.844;  -10.283; 8590.699
838.817; 4877.722;  -12.963; 8443.797
839.382; 4826.751;  -14.243; 8799.356
839.947; 4518.413;  -10.733; 8810.595
840.511; 4213.926;   -9.383; 8796.394
841.076; 3846.703;  -12.563; 8347.231
841.641; 3880.144;  -12.953; 8224.330
842.205; 3958.091;   -7.043; 8223.349
842.770; 4069.905;   -8.163; 8622.107
843.334; 4315.292;  -12.503; 8410.386
843.898; 4317.529;  -11.693; 8337.465
844.463; 4348.416;  -10.203; 8506.283
845.027; 4089.530;   -9.533; 8280.962
845.591; 3866.144;  -13.443; 8231.141
846.156; 3884.702;  -13.143; 7969.179
846.720; 3771.863;   -9.433; 7768.278
847.284; 3642.026;  -11.033; 7630.957
847.848; 3480.838;  -10.403; 7472.395
848.412; 3387.420;  -11.553; 7437.394
848.976; 3439.637;   -8.393; 7674.592
849.540; 3384.723;   -8.713; 7836.011
850.104; 3457.678;  -12.463; 7913.669
850.668; 3806.005;  -12.973; 7694.508
851.232; 3932.864;  -10.793; 7756.887
851.796; 3751.708;  -10.662; 7926.545
852.359; 3434.485;  -13.082; 7827.844
852.923; 3283.018;  -12.192; 7641.163
853.487; 3121.144;  -11.912; 7342.501
854.050; 3051.289;  -10.892; 7042.820
854.614; 3182.790;  -13.992; 7151.338
855.177; 3300.963;  -11.732; 7105.077
855.741; 3358.738;   -8.962; 6989.675
856.304; 3258.219;   -9.442; 6596.634
856.868; 3186.293;  -14.192; 6356.272
857.431; 3296.104;  -12.702; 6468.571
857.995; 3408.877;   -9.942; 6373.210
858.558; 3420.540;   -9.112; 6324.448
859.121; 3158.856;  -12.932; 6408.327
859.684; 3047.341;  -13.442; 6347.886
860.247; 3186.803;  -10.632; 6321.264
860.810; 3173.136;  -11.272; 6301.903
861.374; 2923.537;   -9.832; 6607.881
861.937; 2663.344;  -11.762; 6408.200
862.500; 2629.886;   -9.722; 6572.639
863.062; 2782.186;  -10.512; 6387.297
863.625; 2962.624;  -11.232; 6190.836
864.188; 3132.535;  -14.112; 5807.254
864.751; 3196.787;  -11.302; 5682.413
865.314; 3088.051;  -10.112; 5547.492
865.876; 2901.572;  -12.182; 5500.150
866.439; 2899.158;  -10.722; 5415.909
867.002; 2859.752;   -9.252; 5501.567
867.564; 2647.971;   -9.572; 5413.946
868.127; 2431.970;  -13.142; 5160.325
868.689; 2343.038;  -12.902; 5133.183
869.252; 2276.349;   -9.732; 5252.382
869.814; 2195.974;   -9.432; 5297.141
870.377; 2209.804;  -11.552; 5390.919
870.939; 2281.822;   -9.052; 5599.898
871.501; 2340.013;  -10.982; 5248.336
872.063; 2352.756;  -12.292; 4854.235
872.626; 2319.860;  -14.912; 4817.074
873.188; 2329.097;  -13.112; 4987.732
873.750; 2282.339;  -13.442; 4868.651
874.312; 2180.833;   -9.402; 4779.330
874.874; 2092.512;  -11.062; 4866.348
875.436; 2016.567;  -13.931; 4718.887
875.998; 2013.245;   -9.561; 4660.005
876.560; 2027.627;  -11.321; 4462.964
877.122; 1968.036;  -12.221; 4145.042
877.683; 1865.644;  -12.191; 4056.481
878.245; 1783.080;  -12.101; 3950.740
878.807; 1837.068;   -8.971; 4058.958
879.369; 1933.385;  -12.071; 3954.677
879.930; 1945.441;  -14.621; 3941.495
880.492; 1955.046;  -10.311; 4067.014
881.053; 1865.476;  -10.901; 3859.633
881.615; 1511.869;  -14.411; 3776.071
882.176; 1128.771;  -13.761; 3734.750
882.738;  891.607;   -9.181; 3678.489
883.299;  816.119;  -11.791; 3405.407
883.860;  845.557;  -13.121; 3351.106
884.422;  906.500;  -11.211; 3394.044
884.983;  938.735;  -10.091; 3166.443
885.544;  927.266;   -8.461; 3189.802
886.105;  912.998;  -12.361; 3160.360
886.666;  893.212;  -14.141; 3093.059
887.227;  865.652;  -11.361; 2941.957
887.788;  828.123;  -11.401; 2974.836
888.349;  784.712;  -13.791; 2721.214
888.910;  794.441;  -13.191; 2696.493
889.471;  814.689;   -9.881; 2560.172
890.032;  806.429;   -9.881; 2558.190
890.593;  788.072;  -10.371; 2567.669
891.153;  761.753;  -13.301; 2460.307
891.714;  718.432;  -11.431; 2372.046
892.275;  685.864;  -11.291; 2309.505
892.835;  653.458;  -11.471; 2382.543
893.396;  601.631;  -11.541; 2295.502
893.956;  549.144;  -11.181; 2162.420
894.517;  514.225;  -11.741; 2125.439
895.077;  509.434;  -11.671; 2086.978
895.638;  509.671;  -11.311; 2126.316
896.198;  481.785;   -9.831; 1838.275
896.758;  441.200;   -8.421; 1892.813
897.319;  410.378;  -12.351; 1792.232
897.879;  394.279;  -13.511; 1762.751
898.439;  369.714;  -12.001; 1661.149
898.999;  346.709;  -10.180; 1781.468
899.559;  337.959;  -12.030; 1703.347
900.119;  334.480;  -15.710; 1537.525
900.679;  331.347;   -8.900; 1638.384
901.239;  319.602;   -8.340; 1527.902
901.799;  309.296;  -13.910; 1456.441
902.359;  303.567;  -13.460; 1357.140
902.919;  296.463;  -11.490; 1331.118
903.479;  283.788;  -12.110; 1317.257
904.038;  261.634;  -11.720; 1262.595
904.598;  244.899;  -13.610; 1152.034
905.158;  240.508;  -11.040; 1240.893
905.717;  233.160;  -10.900; 1233.691
906.277;  222.134;  -15.080; 1217.330
906.836;  213.529;  -13.380; 1222.408
907.396;  207.685;  -10.780; 1193.047
907.955;  201.237;   -8.500; 1182.526
908.515;  194.745;  -12.760; 1099.364
909.074;  188.156;  -11.900; 1092.863
909.633;  181.714;   -8.950; 1069.121
910.192;  176.351;   -8.770; 1196.460
910.752;  170.511;  -12.390; 1029.960
911.311;  165.514;  -13.680; 1009.780
911.870;  160.952;  -12.370;  971.460
912.429;  160.289;  -10.900; 1094.080
912.988;  159.125;  -11.690; 1081.060
913.547;  155.504;  -13.240;  940.380
914.106;  151.814;  -11.990;  999.420
914.665;  149.057;   -9.990;  984.020
915.224;  148.876;  -12.880; 1035.760
915.782;  149.033;  -12.350;  922.560
916.341;  148.415;   -9.110; 1049.840
916.900;  145.041;   -9.270;  925.260
917.458;  142.747;  -13.240;  884.220
918.017;  142.649;  -13.550;  942.600
918.576;  142.089;  -12.320;  904.440
919.134;  140.636;  -11.490;  837.980
919.693;  138.608;  -13.670;  893.060
920.251;  137.880;  -15.470;  876.500
920.809;  135.674;  -11.290;  839.580
921.368;  136.047;  -10.210;  885.360
921.926;  135.556;  -12.140;  842.940
922.484;  133.491;  -13.080;  903.360
923.042;  132.475;  -11.720;  880.340
923.601;  135.734;   -7.480;  998.680
924.159;  134.684;  -11.570;  935.560
924.717;  131.333;  -13.840;  841.080
925.275;  130.884;  -10.640;  903.240
925.833;  130.699;  -11.540;  779.320
926.391;  132.440;  -12.960;  938.380
926.949;  129.517;  -14.130;  857.680
927.506;  129.829;  -11.750;  903.500
928.064;  130.164;  -10.250;  877.580
928.622;  130.059;  -13.030;  880.100
929.180;  129.386;  -13.400;  814.180
929.737;  130.129;  -10.700;  808.540
930.295;  133.837;  -10.070;  928.480
930.853;  135.413;  -11.960;  849.100
931.410;  135.780;  -13.120;  821.120
931.968;  135.160;  -10.770;  940.660
932.525;  135.904;  -10.680;  909.380
933.082;  136.185;  -13.130;  811.440
933.640;  136.660;  -13.210;  925.900
934.197;  134.583;  -11.060;  886.360
934.754;  135.676;   -9.580;  897.780
935.312;  138.545;  -14.000;  863.340
935.869;  142.399;  -10.710; 1012.980
936.426;  142.014;   -9.860;  872.800
936.983;  143.235;   -9.710;  889.020
937.540;  143.501;  -13.990;  838.280
938.097;  141.432;  -14.040;  940.120
938.654;  142.396;  -10.310;  898.860
939.211;  145.334;  -10.560;  952.480
939.768;  149.195;  -13.900;  915.420
940.324;  151.395;  -14.760;  904.200
940.881;  151.815;  -10.370;  878.500
941.438;  153.080;   -8.260; 1021.200
941.995;  149.724;  -12.540;  992.560
942.551;  146.873;  -14.670;  875.620
943.108;  147.176;  -10.450;  937.920
943.664;  148.832;  -10.750;  869.340
944.221;  152.244;  -11.550; 1088.140
944.777;  149.342;  -14.770;  869.680
945.334;  151.314;  -12.820;  884.840
945.890;  153.723;  -10.130;  946.480
946.446;  154.616;  -13.470;  947.020
947.003;  156.150;  -12.120;  964.940
947.559;  157.518;   -9.980; 1063.040
948.115;  156.485;   -9.080; 1026.540
948.671;  154.083;  -10.830;  967.300
949.227;  151.445;  -12.440;  859.560
949.783;  148.367;  -12.910;  858.900
950.339;  150.387;  -10.270;  991.000
950.895;  151.172;  -13.630; 1023.840
951.451;  150.210;  -15.100;  925.280
952.007;  151.510;  -11.330;  998.540
952.563;  153.254;  -10.580;  937.780
953.118;  152.066;  -13.440;  904.940
953.674;  151.676;  -12.710;  935.780
954.230;  151.260;  -10.350;  949.640
954.785;  149.207;   -9.190;  936.640
955.341;  146.939;  -11.200;  998.160
955.897;  145.425;  -16.560;  834.660
956.452;  146.118;  -12.570;  953.840
957.008;  145.211;   -7.970; 1083.640
957.563;  141.243;  -11.940; 1009.540
958.118;  138.278;  -13.450;  877.700
958.674;  137.881;  -12.030;  946.780
959.229;  139.629;   -9.410; 1013.980
959.784;  137.604;  -12.000;  832.400
960.339;  135.550;  -14.780; 1001.280
960.894;  132.158;   -9.860;  963.760
961.449;  128.058;   -9.970;  859.960
962.004;  129.707;  -10.900; 1212.840
962.559;  123.503;  -13.150;  860.140
963.114;  121.348;  -13.740;  742.480
963.669;  121.408;   -9.820;  915.500
964.224;  120.104;  -13.890;  874.340
964.779;  119.851;  -12.600;  828.420
965.334;  120.993;  -10.950; 1017.860
965.888;  119.925;  -11.170;  875.360
966.443;  122.547;  -12.540;  972.380
966.998;  121.174;  -15.780;  819.460
967.552;  119.974;   -9.760;  908.380
968.107;  116.056;   -9.060;  868.300
968.661;  117.614;  -11.950;  922.440
969.216;  118.327;  -12.800;  856.280
969.770;  117.871;  -11.210;  917.200
970.324;  117.557;  -11.610;  923.140
970.879;  114.621;  -11.370;  947.180
971.433;  110.651;  -12.540;  952.720
971.987;  106.003;  -11.320;  895.340
972.541;  102.930;  -10.720;  917.100
973.095;  102.612;   -9.680; 1009.460
973.649;  101.653;  -11.440;  809.480
974.203;  100.886;  -11.210;  829.040
974.757;  100.700;  -10.240;  855.220
975.311;  100.605;  -13.720;  872.600
975.865;  100.532;  -13.770;  881.820
976.419;   97.954;  -11.690;  857.400
976.973;   98.018;   -9.510;  849.620
977.526;  101.010;  -12.620;  949.920
978.080;   99.464;  -12.010;  796.780
978.634;  100.519;  -10.170;  921.320
979.187;   98.120;   -9.020;  905.400
979.741;   96.060;   -9.820; 1018.380
980.294;   91.802;  -14.870;  789.160
980.848;   88.807;  -12.380;  717.220
981.401;   91.076;  -10.350;  816.540
981.955;   93.948;  -13.720;  844.300
982.508;   92.716;  -11.490;  746.340
983.061;   91.919;  -10.000;  915.260
983.615;   88.723;  -11.480;  798.800
984.168;   85.217;  -13.220;  770.080
984.721;   85.550;  -13.960;  880.760
985.274;   83.442;  -10.870;  867.500
985.827;   83.405;   -9.790;  834.220
986.380;   81.783;  -13.120;  721.340
986.933;   79.857;  -12.450;  864.800
987.486;   77.905;  -10.210;  861.920
988.039;   77.225;   -8.430;  863.100
988.591;   75.393;  -10.520;  893.260
989.144;   73.008;  -14.860;  737.260
989.697;   71.271;  -13.080;  758.740
990.250;   72.363;  -10.150;  858.100
990.802;   71.592;  -13.430;  755.860
991.355;   71.823;  -12.750;  974.880
991.907;   69.983;  -12.040;  864.320
992.460;   68.144;  -11.330;  753.760
993.012;   66.856;  -13.610;  749.540
993.565;   65.977;  -13.460;  711.360
994.117;   66.851;   -9.360;  950.780
994.669;   63.964;  -11.300;  701.320
995.221;   62.000;  -13.540;  791.920
995.774;   59.562;  -13.430;  787.580
996.326;   58.292;  -12.520;  740.220
996.878;   58.136;  -10.950;  838.420
997.430;   56.590;  -14.300;  699.860
997.982;   56.635;  -13.760;  750.140
998.534;   55.144;  -11.530;  739.060
999.086;   53.088;  -10.310;  738.220
999.638;   52.475;  -12.530;  661.380
1000.190;   52.391;  -11.840;  699.320
1000.741;   52.039;  -10.260;  742.700
1001.293;   51.050;   -8.860;  686.020
1001.845;   50.515;  -13.700;  676.640
1002.396;   50.657;  -12.100;  743.400
1002.948;   49.019;  -12.760;  737.400
1003.500;   47.549;  -10.380;  723.780
1004.051;   48.619;  -11.900;  907.580
1004.603;   47.133;  -12.250;  791.820
1005.154;   42.890;  -13.210;  608.980
1005.705;   42.123;  -10.950;  723.960
1006.257;   41.546;  -13.880;  707.220
1006.808;   40.893;  -12.840;  685.460
1007.359;   40.404;  -10.570;  763.240
1007.910;   39.890;   -9.620;  646.640
1008.461;   39.495;  -13.630;  732.940
1009.013;   38.023;  -17.200;  588.340
1009.564;   39.857;  -10.200;  793.520
1010.115;   36.642;  -12.570;  597.040
1010.665;   37.567;  -15.150;  602.160
1011.216;   37.131;  -14.480;  667.920
1011.767;   36.547;  -11.340;  697.920
1012.318;   36.218;   -9.780;  736.980
1012.869;   35.494;  -12.380;  679.000
1013.419;   35.624;  -15.560;  603.120
1013.970;   35.157;  -11.010;  666.640
1014.521;   35.025;  -11.610;  620.620
1015.071;   35.050;  -13.450;  670.380
1015.622;   34.779;  -13.870;  635.460
1016.172;   33.787;  -11.610;  596.820
1016.723;   33.537;  -12.120;  614.380
1017.273;   33.376;  -13.620;  604.160
1017.823;   34.455;  -14.140;  650.340
1018.374;   32.240;  -12.800;  611.760
1018.924;   32.172;  -12.340;  716.880
1019.474;   33.910;  -11.410;  718.880
1020.024;   31.985;  -14.770;  657.580
1020.574;   32.093;   -9.780;  726.160
1021.124;   32.306;   -8.560;  673.580
1021.674;   31.486;  -15.190;  559.120
1022.224;   32.866;  -13.530;  708.940
1022.774;   32.021;  -13.280;  668.820
1023.324;   32.193;  -10.690;  753.520
1023.874;   33.378;  -10.240;  875.760
1024.423;   30.998;  -12.540;  613.700
1024.973;   30.226;  -10.010;  610.760
1025.523;   29.986;  -10.550;  620.960
1026.072;   29.542;  -13.560;  606.420
1026.622;   29.388;  -15.120;  675.740
1027.172;   30.419;  -11.260;  715.660
1027.721;   29.441;  -11.410;  601.220
1028.270;   30.177;  -13.530;  663.400
1028.820;   29.610;  -13.680;  638.080
1029.369;   28.928;  -13.520;  612.700
1029.918;   29.163;  -10.980;  649.840
1030.468;   28.974;  -13.530;  564.780
1031.017;   29.119;  -13.170;  634.800
1031.566;   27.528;  -12.200;  608.900
1032.115;   28.818;   -9.960;  694.500
1032.664;   26.690;  -13.210;  596.480
1033.213;   28.181;  -12.500;  735.420
1033.762;   27.172;  -11.910;  635.620
1034.311;   26.924;   -9.640;  677.220
1034.860;   28.064;  -13.310;  691.000
1035.408;   26.868;  -11.830;  722.720
1035.957;   27.273;  -12.000;  719.540
1036.506;   25.422;  -11.690;  530.800
1037.055;   27.788;  -10.990;  844.320
1037.603;   26.833;  -15.120;  664.000
1038.152;   24.333;  -12.450;  534.760
1038.700;   25.359;  -10.560;  585.740
1039.249;   25.682;  -11.080;  681.220
1039.797;   25.490;  -12.540;  633.360
1040.345;   24.608;  -11.920;  705.420
1040.894;   24.790;  -11.410;  625.300
1041.442;   25.138;  -14.320;  632.200
1041.990;   24.187;  -16.240;  559.160
1042.538;   23.189;  -11.680;  536.180
1043.087;   23.408;  -10.760;  570.860
1043.635;   24.486;  -11.850;  670.500
1044.183;   24.185;  -15.480;  586.400
1044.731;   22.924;  -11.770;  576.000
1045.279;   23.186;  -13.090;  674.920
1045.827;   25.593;  -12.440;  892.400
1046.374;   22.683;  -13.840;  515.420
1046.922;   22.252;  -13.220;  590.580
1047.470;   23.471;  -10.230;  691.300
1048.018;   23.094;  -14.590;  647.960
1048.565;   24.373;  -12.050;  708.600
1049.113;   22.125;  -11.650;  557.000
1049.660;   22.303;  -10.510;  629.660
1050.208;   22.342;  -13.310;  675.640
1050.755;   21.910;  -15.900;  606.580
1051.303;   21.822;  -11.430;  686.820
1051.850;   21.466;   -8.480;  635.120
1052.397;   19.696;  -15.010;  473.960
1052.945;   21.127;  -13.960;  617.760
1053.492;   22.505;  -13.150;  741.840
1054.039;   21.688;   -9.630;  720.180
1054.586;   20.824;  -13.680;  557.240
1055.133;   21.495;  -14.570;  693.140
1055.680;   21.540;  -13.820;  646.620
1056.227;   20.055;  -11.730;  542.780
1056.774;   21.757;  -12.480;  794.980
1057.321;   20.383;  -13.930;  523.260
1057.868;   19.529;  -11.690;  651.320
1058.415;   20.032;   -9.520;  651.980
1058.961;   20.083;  -13.160;  678.940
1059.508;   20.111;  -12.920;  643.820
1060.055;   19.596;  -11.920;  581.780
1060.601;   19.760;  -11.500;  624.300
1061.148;   19.869;  -14.330;  616.820
1061.694;   18.726;  -16.870;  592.580
1062.241;   19.406;  -10.330;  596.320
1062.787;   18.900;  -10.620;  663.140
1063.334;   21.034;  -10.110;  808.560
1063.880;   19.019;  -13.400;  668.360
1064.426;   18.471;  -10.680;  706.820
1064.972;   17.920;   -9.920;  601.340
1065.518;   17.300;  -10.980;  566.640
1066.065;   18.537;  -14.890;  624.460
1066.611;   17.014;  -12.870;  598.800
1067.157;   18.411;  -12.950;  641.860
1067.703;   18.403;  -13.540;  668.480
1068.249;   17.938;  -13.540;  605.220
1068.794;   16.875;  -12.600;  626.880
1069.340;   16.708;  -10.620;  578.960
1069.886;   17.185;  -12.830;  590.700
1070.432;   16.702;  -14.870;  541.720
1070.977;   16.495;  -11.980;  601.080
1071.523;   16.111;   -8.200;  573.060
1072.068;   16.275;  -12.330;  582.000
1072.614;   15.756;  -16.370;  527.760
1073.160;   17.303;  -11.100;  687.040
1073.705;   15.187;  -10.480;  572.520
1074.250;   16.023;  -14.520;  559.900
1074.796;   18.082;  -11.460;  655.160
1075.341;   16.671;  -11.950;  664.100
1075.886;   15.734;  -11.460;  594.240
1076.431;   15.240;  -13.770;  649.880
1076.976;   15.647;  -12.680;  639.220
1077.521;   14.316;  -13.170;  583.080
1078.067;   14.307;  -10.860;  579.400
1078.612;   15.035;  -13.920;  661.620
1079.156;   15.786;  -13.880;  601.540
1079.701;   15.375;  -13.120;  693.260
1080.246;   15.585;   -9.940;  696.300
1080.791;   15.399;  -14.740;  625.020
1081.336;   14.976;  -13.750;  659.320
1081.880;   15.220;  -13.400;  649.680
1082.425;   14.052;  -12.220;  573.480
1082.970;   15.422;  -11.610;  717.040
1083.514;   14.095;  -13.580;  597.000
1084.059;   12.368;  -12.810;  586.720
1084.603;   13.010;  -12.320;  565.840
1085.147;   13.759;  -13.190;  645.220
1085.692;   14.657;  -12.480;  716.800
1086.236;   12.368;  -13.020;  503.140
1086.780;   15.176;   -9.190;  751.440
1087.325;   13.661;  -12.480;  654.620
1087.869;   13.728;  -12.450;  610.700
1088.413;   13.401;  -12.240;  705.040
1088.957;   11.483;   -9.020;  543.400
1089.501;   13.731;  -10.320;  766.640
1090.045;   13.166;  -12.720;  726.480
1090.589;   11.413;  -13.690;  569.920
1091.133;   12.193;  -10.020;  673.340
1091.676;   12.649;  -12.330;  591.940
1092.220;   12.581;  -14.970;  600.920
1092.764;   12.874;  -12.430;  706.960
1093.307;   12.264;   -9.800;  673.780
1093.851;   10.774;  -14.970;  556.540
1094.395;   12.370;  -15.310;  683.140
1094.938;   11.115;  -10.370;  632.520
1095.482;   11.530;  -11.050;  559.800
1096.025;   12.257;  -11.840;  710.880
1096.568;   12.983;  -12.840;  779.280
1097.112;    9.357;  -14.700;  508.180
1097.655;   11.152;   -8.720;  603.000
1098.198;   10.367;  -13.610;  600.180
1098.741;   10.508;  -13.350;  612.860
1099.285;   11.629;  -11.230;  657.300
1099.828;    9.147;  -11.840;  439.400
1100.371;   10.186;  -10.840;  608.160
1100.914;   10.677;  -14.190;  682.660
1101.457;   10.908;  -11.240;  679.900
1101.999;    9.058;  -11.270;  584.680
1102.542;   10.767;  -11.480;  641.440
1103.085;    9.645;  -11.750;  658.500
1103.628;   10.472;  -11.400;  762.060
1104.170;    9.457;  -10.490;  588.280
1104.713;   10.000;  -10.600;  646.700
1105.256;   10.320;  -14.360;  557.440
1105.798;    7.764;  -13.210;  499.980
1106.341;    9.947;  -10.270;  728.900
1106.883;    8.810;  -12.200;  521.340
1107.425;    9.571;  -13.110;  668.180
1107.968;    8.454;  -12.840;  612.380
1108.510;    9.013;   -6.480;  684.960
1109.052;    7.722;  -13.940;  612.620
1109.594;    8.454;  -13.690;  554.440
1110.136;    8.727;  -11.880;  643.220
1110.679;    7.598;   -9.500;  633.080
1111.221;    8.978;  -14.160;  604.460
1111.763;    8.933;  -13.980;  559.220
1112.304;    7.819;  -13.880;  547.140
1112.846;    8.085;  -12.210;  666.240
1113.388;   10.756;  -11.390;  942.180
1113.930;    8.107;  -14.540;  694.200
1114.472;    6.913;  -12.640;  606.540
1115.013;    6.230;  -11.620;  551.280
1115.555;    6.539;  -13.640;  587.100
1116.097;    6.619;  -15.380;  579.480
1116.638;    7.330;  -12.640;  684.600
1117.180;    7.507;   -9.850;  667.740
1117.721;    7.106;  -13.690;  568.580
1118.262;    7.994;  -12.680;  677.960
1118.804;    7.771;  -12.530;  637.340
1119.345;    5.816;  -11.690;  578.400
1119.886;    7.946;  -13.380;  704.040
1120.427;    6.240;  -14.070;  589.020
1120.969;    5.866;  -13.500;  597.920
1121.510;    5.335;  -11.480;  563.060
1122.051;    6.143;  -12.830;  723.580
1122.592;    6.697;  -14.290;  655.420
1123.133;    4.267;  -12.400;  547.940
1123.673;    7.385;  -10.130;  706.480
1124.214;    5.688;  -12.930;  612.460
1124.755;    7.440;  -14.380;  639.460
1125.296;    6.096;  -14.000;  627.320
1125.836;    6.153;  -10.070;  691.500
1126.377;    5.375;  -12.640;  599.660
1126.918;    6.193;  -12.960;  614.980
1127.458;    4.699;  -13.350;  622.220
1127.999;    5.841;  -10.750;  656.980
1128.539;    6.015;  -12.350;  694.240
1129.079;    5.475;  -14.860;  632.720
1129.620;    4.000;  -13.840;  558.100
1130.160;    5.089;  -12.330;  539.480
1130.700;    5.173;  -14.530;  640.840
1131.240;    5.977;  -12.530;  643.700
1131.781;    4.707;  -14.450;  619.680
1132.321;    4.706;   -9.790;  599.120
1132.861;    3.285;  -14.860;  564.200
1133.401;    3.896;  -14.290;  593.940
1133.941;    4.704;  -11.750;  626.280
1134.481;    3.342;   -9.920;  597.580
1135.020;    3.281;  -12.290;  609.160
1135.560;    4.125;  -11.650;  674.940
1136.100;    3.464;  -16.270;  501.160
1136.640;    3.778;  -10.890;  510.480
1137.179;    3.084;  -14.180;  537.960
1137.719;    4.006;  -16.250;  605.400
1138.258;    3.138;  -14.230;  587.360
1138.798;    4.018;   -9.090;  663.780
1139.337;    2.051;  -15.130;  482.840
1139.877;    3.765;  -13.680;  642.360
1140.416;    4.759;  -11.320;  878.060
1140.955;    2.471;  -10.860;  535.380
1141.494;    3.418;  -12.920;  669.280
1142.034;    3.339;  -13.930;  583.520
1142.573;    3.657;  -11.440;  646.280
1143.112;    1.520;  -12.000;  553.480
1143.651;    2.769;  -13.670;  536.480
1144.190;    3.820;  -12.730;  691.640
1144.729;    2.821;  -14.560;  607.420
1145.267;    2.748;  -11.830;  584.900
1145.806;    3.189;  -12.230;  637.040
1146.345;    2.502;  -14.130;  635.020
1146.884;    2.092;  -11.590;  622.500
1147.422;    1.016;  -12.550;  533.060
1147.961;    2.985;  -11.180;  708.460
1148.500;    2.654;  -11.510;  669.720
1149.038;    2.052;  -11.640;  632.500
1149.577;    2.277;  -10.130;  698.640
1150.115;    0.283;  -13.970;  452.280
1150.653;    2.409;  -14.520;  607.340
1151.192;    1.874;  -12.810;  552.920
1151.730;    2.492;   -9.100;  652.560
1152.268;    1.506;  -12.220;  589.520
1152.806;    1.601;  -14.140;  571.180
1153.344;    0.256;  -12.350;  577.640
1153.882;    0.403;   -8.980;  600.060
1154.421;    0.047;  -15.190;  470.620
1154.958;    0.627;  -15.210;  595.240
1155.496;    2.117;  -12.850;  645.280
1156.034;    1.670;   -9.940;  721.880
1156.572;    2.156;  -13.570;  667.060
1157.110;    0.412;  -14.590;  473.940
1157.647;    1.256;  -13.030;  676.960
1158.185;    0.602;  -12.140;  564.320
1158.723;   -0.655;  -14.390;  509.200
1159.260;    1.586;  -14.090;  701.700
1159.798;    1.662;  -11.920;  658.160
1160.335;    0.353;  -11.110;  631.820

