
Integration time [ms]:   3.276
Averaging Nr. [scans]: 1000
Smoothing Nr. [pixels]: 0
Data measured with spectrometer [name]: 7414430SP
Wave   ;Sample   ;Dark     ;Reference
[nm]   ;[counts] ;[counts] ;[counts] 

288.544;  149.370;    7.793;  793.890
289.143;  154.035;    7.462;  681.602
289.742;  154.765;    8.602;  828.814
290.341;  138.283;    1.321;  789.841
290.940;  128.444;   -0.709;  730.702
291.538;  130.056;    0.881;  881.108
292.137;  129.722;    0.122;  792.581
292.736;  133.458;   -1.929;  975.101
293.335;  131.973;   -8.229;  735.086
293.934;  130.804;   -5.279;  781.677
294.532;  130.433;   -1.369; 1031.958
295.131;  114.759;   -7.641;  834.394
295.730;  115.379;   -8.420;  809.588
296.328;  115.068;   -5.611;  783.442
296.927;  115.723;   -5.781;  779.652
297.525;  116.538;   -6.361;  781.236
298.124;  106.085;  -11.382;  654.009
298.722;  109.579;   -7.641;  761.933
299.321;  108.066;   -6.811;  708.597
299.919;  105.558;   -6.991;  751.918
300.518;  103.280;  -10.362;  689.338
301.116;  104.554;   -9.581;  691.381
301.715;  104.594;   -4.891;  730.222
302.313;  103.000;   -8.801;  704.943
302.911;   98.355;   -8.522;  733.830
303.509;  105.016;   -6.171;  925.627
304.108;  102.526;   -7.311;  760.383
304.706;  101.105;   -8.321;  801.664
305.304;   95.964;  -10.222;  796.707
305.902;  100.853;   -6.021;  784.484
306.500;   97.143;   -4.971;  728.200
307.098;   95.131;   -7.061;  746.560
307.696;   94.098;   -8.801;  780.432
308.294;   93.455;   -6.411;  731.359
308.892;   95.683;   -2.901;  759.769
309.490;   91.951;   -5.041;  712.161
310.088;   90.739;   -5.002;  788.444
310.686;   93.980;   -2.041;  821.749
311.284;   90.905;   -2.351;  766.040
311.882;   87.872;   -4.422;  731.225
312.480;   84.656;   -4.192;  697.167
313.078;   86.103;   -1.172;  808.331
313.675;   87.059;   -2.601;  691.600
314.273;   81.579;   -1.312;  797.837
314.871;   81.182;   -3.942;  589.829
315.468;   78.849;   -2.802;  652.090
316.066;   83.001;   -0.701;  694.427
316.664;   75.594;   -4.362;  656.351
317.261;   78.962;   -2.872;  910.128
317.859;   75.309;   -2.022;  768.735
318.456;   75.315;   -0.531;  830.096
319.054;   70.881;   -3.912;  787.828
319.651;   69.852;   -4.752;  759.928
320.249;   69.335;   -2.602;  810.188
320.846;   67.154;   -0.821;  714.286
321.443;   64.360;   -4.642;  832.135
322.041;   60.911;   -5.002;  812.315
322.638;   58.734;   -3.982;  701.456
323.235;   60.507;   -3.411;  665.683
323.833;   57.819;   -7.361;  740.354
324.430;   53.152;   -8.611;  615.900
325.027;   53.784;   -4.061;  876.855
325.624;   53.679;   -4.031;  644.532
326.221;   51.146;   -7.481;  689.717
326.818;   49.587;   -5.281;  818.332
327.415;   52.843;   -7.460;  748.828
328.012;   52.803;   -5.510;  690.585
328.609;   50.871;   -7.880;  731.389
329.206;   49.810;   -8.331;  778.621
329.803;   49.925;   -5.121;  737.841
330.400;   52.269;   -4.510;  704.260
330.997;   52.878;   -6.441;  817.147
331.594;   51.824;   -8.831;  788.185
332.191;   57.245;   -7.621;  728.722
332.787;   60.621;   -4.591;  844.463
333.384;   58.167;   -7.412;  763.093
333.981;   57.425;   -8.293;  815.687
334.578;   60.527;   -7.052;  708.378
335.174;   63.515;   -3.102;  731.469
335.771;   62.998;   -5.943;  836.456
336.367;   59.555;   -7.393;  710.631
336.964;   63.169;   -4.063;  793.266
337.561;   61.813;   -3.813;  731.112
338.157;   57.047;   -4.654;  911.916
338.754;   54.478;   -7.934;  796.589
339.350;   52.401;   -4.414;  722.493
339.946;   55.117;   -4.664;  773.135
340.543;   46.901;   -6.375;  846.136
341.139;   41.233;   -9.815;  720.836
341.735;   39.163;   -4.526;  772.593
342.332;   37.995;   -4.895;  691.472
342.928;   37.919;   -4.295;  795.394
343.524;   32.732;   -5.476;  761.684
344.120;   28.891;   -5.856;  738.562
344.716;   32.518;   -2.155;  723.717
345.313;   29.368;   -6.275;  795.342
345.909;   23.959;   -8.815;  627.336
346.505;   26.083;   -5.305;  740.247
347.101;   27.196;   -2.674;  827.864
347.697;   26.324;   -4.344;  785.398
348.293;   21.485;   -9.975;  627.244
348.889;   22.674;   -5.774;  745.914
349.485;   21.998;   -5.004;  688.205
350.081;   22.325;   -4.704;  772.592
350.676;   17.412;   -6.635;  691.606
351.272;   22.347;   -4.504;  809.530
351.868;   22.177;   -3.914;  780.497
352.464;   19.521;   -9.044;  723.932
353.059;   14.309;   -8.314;  646.017
353.655;   18.972;   -7.024;  777.063
354.251;   19.604;   -5.343;  759.845
354.846;   13.725;   -8.604;  740.646
355.442;   11.075;   -6.945;  753.071
356.038;   14.243;   -7.564;  751.708
356.633;   14.081;   -5.814;  728.594
357.229;   11.918;   -7.364;  724.757
357.824;   10.114;   -8.024;  703.600
358.420;    9.397;   -9.384;  679.726
359.015;    9.687;   -5.104;  695.357
359.610;   10.148;   -6.854;  763.920
360.206;    4.310;  -10.185;  603.240
360.801;    8.041;   -7.054;  646.503
361.396;    9.827;   -5.034;  725.975
361.992;    5.407;   -8.284;  668.220
362.587;    2.239;   -8.625;  670.160
363.182;    4.540;   -7.674;  689.631
363.777;    5.758;   -5.164;  738.242
364.372;    5.465;   -8.604;  737.314
364.967;    1.083;   -9.055;  680.744
365.563;    5.303;   -6.114;  815.567
366.158;    1.969;   -5.814;  685.161
366.753;    2.440;   -7.854;  649.263
367.348;    1.196;   -7.804;  746.056
367.942;    1.235;   -7.954;  697.298
368.537;    0.292;   -4.984;  754.245
369.132;    0.009;   -8.564;  703.428
369.727;   -3.055;   -8.855;  638.079
370.322;   -1.963;   -6.245;  580.186
370.917;   -2.249;   -6.425;  710.646
371.511;   -0.058;   -6.294;  861.834
372.106;   -3.572;   -7.685;  776.964
372.701;   -6.687;   -7.335;  585.988
373.296;   -0.367;   -4.564;  863.135
373.890;   -5.496;  -10.235;  647.840
374.485;   -7.931;   -7.885;  691.199
375.079;   -4.863;   -7.324;  738.685
375.674;   -2.383;   -3.494;  812.970
376.268;   -7.021;   -8.525;  691.759
376.863;  -12.343;  -10.086;  580.327
377.457;   -6.649;   -7.025;  662.490
378.052;   -8.324;   -3.585;  764.884
378.646;   -8.703;   -7.595;  741.167
379.240;   -9.350;   -8.335;  721.176
379.835;   -8.367;   -5.785;  636.978
380.429;  -10.362;   -4.335;  562.557
381.023;  -10.707;   -6.805;  779.205
381.617;  -13.472;   -9.195;  680.106
382.212;   -8.915;   -6.905;  685.303
382.806;   -8.429;   -3.745;  760.690
383.400;  -12.671;   -7.745;  672.281
383.994;  -14.388;   -9.765;  664.870
384.588;  -10.265;   -6.564;  697.701
385.182;   -8.470;   -5.344;  726.624
385.776;  -10.645;   -8.514;  706.875
386.370;  -13.734;   -9.555;  681.968
386.964;  -12.135;   -8.715;  684.155
387.558;  -10.654;   -6.174;  598.360
388.152;  -14.475;   -8.725;  681.959
388.745;  -13.157;   -7.965;  814.707
389.339;   -9.977;   -5.924;  747.642
389.933;   -9.701;   -5.524;  695.370
390.527;  -10.912;   -7.114;  859.029
391.120;  -16.804;  -10.725;  595.318
391.714;  -13.726;   -8.035;  711.633
392.308;  -10.712;   -3.574;  780.253
392.901;  -14.817;   -7.245;  642.460
393.495;  -16.361;   -9.285;  595.414
394.089;  -14.129;   -5.895;  760.452
394.682;  -14.890;   -4.295;  697.188
395.275;  -15.578;   -9.875;  719.927
395.869;  -17.166;   -8.485;  667.314
396.462;  -15.168;   -7.455;  616.609
397.056;  -11.190;   -5.424;  776.621
397.649;  -16.284;   -6.605;  731.575
398.242;  -13.878;   -8.224;  712.645
398.836;  -12.805;   -7.474;  766.408
399.429;  -13.422;   -7.094;  631.041
400.022;  -17.416;   -9.475;  665.902
400.615;  -14.715;   -7.145;  805.609
401.208;  -13.093;   -7.174;  691.451
401.802;  -15.001;   -5.515;  699.329
402.395;  -16.443;   -9.875;  683.502
402.988;  -17.496;   -8.845;  696.627
403.581;  -13.774;   -8.874;  646.878
404.174;  -11.606;   -5.324;  686.568
404.767;  -14.517;   -9.575;  638.583
405.360;  -17.176;  -10.965;  621.445
405.953;  -11.575;   -8.764;  759.034
406.545;  -11.451;   -7.514;  725.342
407.138;  -15.397;  -10.025;  618.350
407.731;  -14.489;  -10.034;  613.303
408.324;   -9.929;   -9.374;  660.554
408.917;  -10.753;   -6.534;  681.864
409.509;  -12.763;   -8.004;  740.396
410.102;  -15.497;   -9.875;  643.948
410.695;   -9.440;   -8.604;  665.758
411.287;   -9.805;   -6.794;  599.821
411.880;  -11.032;   -9.334;  585.421
412.472;  -14.243;  -10.254;  613.092
413.065;  -11.540;   -6.714;  629.408
413.657;   -8.956;   -7.234;  576.678
414.250;   -9.511;  -10.544;  646.681
414.842;  -10.538;   -9.744;  676.353
415.434;   -8.546;   -6.994;  570.463
416.027;   -4.488;   -5.893;  652.196
416.619;   -7.084;   -7.264;  713.400
417.211;   -7.111;  -10.374;  599.352
417.804;   -3.136;   -7.993;  628.499
418.396;   -7.092;   -7.234;  607.643
418.988;   -5.389;   -9.443;  659.238
419.580;   -8.806;  -10.724;  568.276
420.172;   -7.445;  -10.323;  536.196
420.764;   -2.089;   -8.793;  672.482
421.356;   -3.612;  -11.143;  636.898
421.948;   -4.835;   -8.293;  677.661
422.540;    0.812;   -7.893;  680.027
423.132;   -0.060;   -7.082;  600.641
423.724;   -3.217;   -8.653;  561.267
424.316;   -1.194;  -10.213;  621.345
424.908;    2.298;   -9.762;  591.517
425.500;    2.862;   -5.572;  647.978
426.092;    2.357;   -8.422;  648.268
426.683;    2.257;   -9.283;  684.836
427.275;    4.737;   -7.852;  641.471
427.867;    6.214;   -5.272;  668.948
428.458;    6.475;   -7.682;  732.344
429.050;    4.923;  -10.612;  680.749
429.642;    6.848;   -9.882;  743.124
430.233;    7.949;   -6.962;  569.356
430.825;    9.131;   -6.842;  724.809
431.416;    6.239;   -9.672;  698.241
432.008;   11.110;   -6.552;  651.723
432.599;   11.055;   -6.891;  656.073
433.190;    7.751;  -10.912;  637.670
433.782;    7.564;  -11.172;  590.395
434.373;   14.729;   -6.061;  884.765
434.964;   13.873;   -8.251;  602.920
435.556;   10.293;   -9.722;  634.537
436.147;   13.441;   -9.082;  758.490
436.738;   13.728;   -8.041;  701.099
437.329;   18.606;   -7.341;  721.723
437.920;   11.919;   -8.162;  666.688
438.511;   11.765;  -11.802;  564.526
439.103;   18.696;  -10.191;  623.998
439.694;   20.210;   -7.601;  681.583
440.285;   20.994;   -8.541;  764.432
440.876;   19.183;   -9.751;  845.738
441.466;   19.020;   -9.401;  575.162
442.057;   23.898;   -7.760;  665.814
442.648;   22.637;   -9.971;  746.255
443.239;   20.131;  -11.001;  620.477
443.830;   26.255;   -7.990;  704.958
444.421;   28.187;   -7.910;  655.474
445.011;   24.365;   -8.131;  693.619
445.602;   23.592;   -7.111;  743.126
446.193;   25.596;  -10.920;  488.117
446.783;   30.422;   -6.500;  640.397
447.374;   25.498;   -8.671;  692.759
447.964;   25.159;  -10.781;  713.770
448.555;   34.768;   -9.650;  822.742
449.145;   31.946;   -8.660;  662.853
449.736;   31.485;   -8.990;  803.179
450.326;   31.859;   -9.500;  713.626
450.917;   36.706;   -8.680;  675.324
451.507;   35.852;   -7.520;  600.661
452.097;   36.801;   -8.590;  746.267
452.688;   37.870;  -11.340;  742.160
453.278;   37.459;  -10.100;  566.840
453.868;   42.535;   -6.019;  793.550
454.458;   40.418;   -9.440;  651.141
455.048;   39.749;  -10.560;  711.783
455.639;   41.394;  -11.799;  567.096
456.229;   44.460;   -6.899;  710.694
456.819;   46.819;   -7.389;  751.158
457.409;   46.858;  -11.119;  773.993
457.999;   49.371;   -9.289;  737.505
458.589;   49.504;   -6.139;  686.606
459.179;   49.563;   -8.729;  717.658
459.769;   47.147;   -9.789;  627.099
460.358;   52.555;  -10.259;  797.262
460.948;   52.701;   -7.299;  689.503
461.538;   54.572;  -10.289;  660.677
462.128;   51.545;  -11.269;  664.934
462.717;   58.698;   -9.368;  710.326
463.307;   61.971;   -7.908;  705.846
463.897;   56.724;   -9.599;  656.942
464.486;   56.389;   -9.769;  837.128
465.076;   61.712;   -8.048;  733.776
465.666;   64.452;   -9.358;  652.900
466.255;   62.976;   -7.919;  785.651
466.845;   61.345;  -11.689;  666.749
467.434;   64.479;   -7.818;  725.873
468.023;   65.846;   -7.678;  658.357
468.613;   62.825;  -10.939;  713.946
469.202;   67.163;  -10.118;  646.507
469.791;   71.266;   -9.108;  737.811
470.381;   73.280;   -6.058;  742.813
470.970;   73.580;  -10.428;  711.099
471.559;   72.901;  -10.268;  733.291
472.148;   75.520;   -8.448;  675.737
472.738;   78.157;   -6.917;  765.466
473.327;   77.667;  -11.978;  637.529
473.916;   78.070;  -11.888;  737.446
474.505;   81.863;   -9.437;  751.703
475.094;   85.192;   -6.747;  806.570
475.683;   83.946;   -9.367;  797.699
476.272;   84.850;  -12.637;  730.632
476.861;   87.832;  -10.027;  706.754
477.449;   94.745;   -8.716;  728.487
478.038;   87.876;   -9.577;  692.513
478.627;   89.849;   -9.718;  714.852
479.216;   96.536;   -8.947;  769.441
479.805;   99.305;   -6.256;  783.375
480.393;   99.188;   -7.937; 1008.945
480.982;   98.124;   -7.717;  874.501
481.571;  104.213;   -9.266;  858.333
482.159;  104.280;   -7.636;  705.386
482.748;  104.560;   -9.667;  821.385
483.336;  108.951;  -10.376;  858.209
483.925;  109.841;   -7.147;  774.373
484.513;  116.132;   -7.996;  758.962
485.102;  112.280;  -10.027;  810.965
485.690;  121.676;  -10.446; 1011.050
486.278;  124.264;   -8.446;  979.329
486.867;  124.449;   -6.356;  809.662
487.455;  126.600;   -9.136;  898.229
488.043;  127.184;  -10.646;  748.361
488.631;  136.141;   -7.456; 1005.079
489.220;  139.070;   -6.636;  908.626
489.808;  139.697;  -11.036;  741.415
490.396;  146.834;  -10.246;  914.645
490.984;  153.862;   -8.556;  830.161
491.572;  163.002;   -5.886;  940.315
492.160;  168.514;   -9.486;  919.081
492.748;  179.491;  -10.976;  884.341
493.336;  202.077;   -8.776; 1019.693
493.924;  227.760;   -5.465;  958.077
494.512;  253.329;   -9.986; 1066.638
495.100;  289.833;  -10.636; 1103.280
495.687;  341.753;  -10.885; 1206.373
496.275;  402.139;   -8.126; 1150.796
496.863;  469.563;  -10.586; 1281.171
497.451;  568.625;  -11.926; 1386.805
498.038;  692.203;  -10.885; 1556.729
498.626;  794.032;   -6.315; 1741.407
499.214;  931.298;   -7.326; 2016.609
499.801; 1123.164;  -11.906; 2220.633
500.389; 1358.745;  -10.466; 2312.494
500.976; 1657.446;   -5.236; 2744.849
501.564; 2070.127;   -8.936; 3148.565
502.151; 2431.648;  -13.176; 3515.999
502.738; 2873.725;  -10.646; 3971.274
503.326; 3236.593;   -9.525; 4403.796
503.913; 3597.055;  -10.856; 5161.749
504.500; 3943.015;  -11.586; 5986.420
505.088; 4349.523;  -10.336; 6381.201
505.675; 4860.791;   -6.355; 6925.547
506.262; 5556.708;   -9.046; 7619.060
506.849; 6229.021;  -10.416; 8733.969
507.436; 6681.624;  -10.305; 9790.121
508.023; 7258.958;   -5.496; 9985.472
508.610; 7506.021;   -7.856;10434.618
509.197; 8098.035;  -10.097;11198.435
509.784; 9433.188;  -10.886;12391.194
510.371;10396.280;   -9.315;13603.713
510.958;11094.354;   -9.936;14426.586
511.545;11869.401;   -9.326;15243.775
512.132;12784.140;  -10.075;15945.876
512.719;13413.536;   -7.796;16340.369
513.305;14281.729;  -10.606;18011.766
513.892;15045.151;  -11.486;19754.971
514.479;16372.120;   -9.126;20967.805
515.066;17734.408;   -6.026;22299.793
515.652;18901.477;   -8.466;22908.660
516.239;20243.127;  -10.886;23798.875
516.825;21387.688;  -11.496;25567.275
517.412;22491.594;   -5.796;28154.959
517.998;23076.600;  -10.506;28344.111
518.585;23043.152;  -10.076;27134.219
519.171;23598.568;   -8.315;27268.576
519.758;25053.725;   -8.596;28964.129
520.344;26734.197;   -8.466;30664.494
520.930;26724.934;  -11.006;32550.605
521.516;28336.986;  -10.495;35422.895
522.103;30711.768;   -5.526;38280.004
522.689;31393.020;   -8.746;37835.117
523.275;30747.686;  -11.376;37288.613
523.861;31655.580;  -11.156;37281.395
524.447;32983.316;   -8.135;37846.949
525.033;32812.977;   -7.896;38321.949
525.619;33061.141;  -12.476;38579.285
526.205;34777.641;   -9.516;40622.875
526.791;37062.855;   -6.926;42258.836
527.377;37163.051;   -8.346;42966.902
527.963;38806.355;   -8.717;42018.949
528.549;37226.598;  -11.016;42476.828
529.135;36009.211;   -8.536;41854.852
529.721;35513.867;   -9.666;41237.711
530.306;34915.691;  -10.066;41259.445
530.892;34724.586;  -11.356;41506.047
531.478;36157.141;   -6.596;43559.613
532.063;39055.266;   -8.836;47695.563
532.649;39278.113;  -10.047;50808.324
533.235;40255.750;   -9.746;51787.500
533.820;41176.156;   -6.566;52145.035
534.406;42576.133;  -10.817;51133.488
534.991;42382.023;   -9.416;49996.805
535.576;41079.020;   -9.036;48882.852
536.162;41490.445;   -6.156;46942.285
536.747;42475.648;  -11.607;45711.746
537.333;46241.566;  -11.787;48510.180
537.918;48915.691;  -12.437;50439.891
538.503;47425.512;   -7.196;50863.711
539.088;44409.391;  -10.556;50906.922
539.673;44417.883;   -8.767;52621.965
540.259;44330.527;  -10.026;52368.094
540.844;41641.770;   -7.416;50879.109
541.429;42762.125;   -9.467;52077.777
542.014;45685.051;   -9.527;52716.695
542.599;45119.668;   -9.946;52363.281
543.184;42988.512;   -7.927;53187.137
543.769;44528.160;   -9.297;54697.605
544.354;43789.043;  -10.127;53913.914
544.938;42571.320;   -9.267;49680.164
545.523;44413.789;   -6.506;47386.277
546.108;46789.254;   -9.787;49151.949
546.693;48847.008;  -11.587;51384.637
547.278;48750.230;  -10.986;51853.254
547.862;45828.645;   -8.206;51173.750
548.447;41325.379;  -10.067;51691.395
549.031;40986.750;   -9.637;52456.703
549.616;45807.977;   -9.926;52714.516
550.201;44824.570;   -6.347;52414.598
550.785;46021.809;   -7.917;52355.059
551.370;45315.703;  -10.867;54589.453
551.954;45286.301;   -9.047;58267.348
552.538;45953.520;   -7.827;59062.176
553.123;44324.656;  -10.287;58115.285
553.707;42515.469;  -12.178;56556.285
554.291;43760.074;   -8.717;56201.668
554.876;45793.121;   -7.457;55335.762
555.460;46056.199;  -10.387;54155.703
556.044;47157.621;   -9.618;53721.484
556.628;45738.250;  -11.567;53731.016
557.212;44346.238;   -8.097;54312.531
557.796;42867.207;  -11.077;53797.773
558.380;42625.535;  -11.108;56145.984
558.964;42982.492;   -9.057;57277.930
559.548;43995.211;   -6.977;56459.641
560.132;42595.645;  -11.457;54434.543
560.716;41458.188;  -11.378;54800.617
561.300;42685.500;   -9.577;57606.945
561.884;43763.969;   -7.127;58972.445
562.467;42311.961;   -7.118;57327.570
563.051;41500.129;  -13.358;54962.434
563.635;42289.793;  -10.178;52594.473
564.219;42708.922;   -7.837;50610.410
564.802;43605.992;  -11.398;49551.180
565.386;43648.699;  -12.788;48370.953
565.969;43078.461;   -9.077;48178.871
566.553;42661.387;   -6.207;49957.305
567.136;42973.352;   -8.568;50369.594
567.720;39138.074;  -11.868;49492.004
568.303;37257.711;   -8.268;50616.352
568.887;37409.238;   -8.698;50727.148
569.470;37516.863;   -6.808;51698.379
570.053;36085.832;  -13.188;52122.078
570.637;34569.887;  -12.037;52536.438
571.220;34333.117;   -8.577;51186.098
571.803;34781.398;   -8.498;51032.762
572.386;37049.242;  -10.498;49609.887
572.969;39345.488;   -9.388;48285.926
573.552;37402.734;   -8.338;47624.285
574.135;36181.539;   -8.518;45498.641
574.718;33911.797;  -13.628;41970.434
575.301;32680.385;  -10.893;41447.137
575.884;31448.971;   -8.158;40923.836
576.467;32656.842;  -10.328;45267.723
577.050;34703.789;  -13.058;48175.543
577.633;35732.094;   -9.458;47729.328
578.216;34173.168;   -8.928;47579.793
578.799;32747.848;   -9.358;47820.996
579.381;31485.035;  -11.388;48115.551
579.964;30613.311;  -11.718;47333.766
580.547;32871.895;   -8.588;46668.969
581.129;34437.316;   -8.859;44466.141
581.712;35199.461;  -10.729;44164.922
582.294;35732.531;  -11.118;46477.855
582.877;35531.805;   -5.218;48244.254
583.459;33041.777;   -8.679;47437.895
584.042;31245.084;  -10.709;46943.219
584.624;32001.686;  -11.669;46792.227
585.206;31392.051;   -8.218;46557.250
585.789;31342.801;  -10.569;45793.773
586.371;33699.789;  -11.859;43836.391
586.953;33544.168;  -10.719;42972.492
587.536;33756.277;   -7.198;42487.211
588.118;31853.336;   -8.720;42086.414
588.700;26982.168;  -10.439;43389.930
589.282;25959.182;   -9.198;43646.039
589.864;29012.477;   -9.199;43438.109
590.446;32467.574;  -11.319;43151.926
591.028;33681.074;  -11.159;42781.867
591.610;33279.547;  -11.779;42839.098
592.192;31038.906;   -7.668;42820.402
592.774;29606.098;  -11.949;40724.277
593.356;28373.861;  -12.129;39874.789
593.937;27428.570;  -10.669;39980.648
594.519;29618.115;   -6.509;42069.633
595.101;31696.531;  -10.849;42976.031
595.683;31725.938;  -11.679;44084.441
596.264;32847.266;   -9.049;43478.797
596.846;32067.533;   -8.849;43803.672
597.427;31801.406;   -9.570;42986.934
598.009;33459.309;  -12.620;42832.219
598.591;33760.480;  -10.039;42580.086
599.172;32734.814;  -10.369;43061.805
599.753;32796.758;   -9.140;41691.469
600.335;34432.387;  -11.430;40692.520
600.916;32903.824;   -9.939;39982.422
601.498;30399.551;   -8.479;40318.617
602.079;28959.287;  -10.920;40670.609
602.660;29098.258;  -11.480;41450.898
603.241;30606.822;  -11.699;41137.738
603.823;29414.080;   -9.579;38868.797
604.404;29267.811;  -10.620;38182.785
604.985;30653.943;  -10.450;38078.047
605.566;30164.670;   -9.129;38056.633
606.147;30321.789;   -7.510;37020.418
606.728;32043.691;  -10.660;37883.359
607.309;30790.883;  -11.740;38748.273
607.890;30175.471;   -9.759;38850.230
608.471;29713.725;   -8.250;37457.918
609.051;28803.123;   -9.240;36066.457
609.632;27793.844;  -12.120;35991.074
610.213;28663.410;   -9.110;37402.641
610.794;29242.629;   -8.030;38383.363
611.374;28798.207;   -8.110;40562.387
611.955;29208.111;  -13.560;38533.727
612.536;30445.311;  -11.400;36951.789
613.116;30466.955;   -8.070;37197.891
613.697;30668.064;  -10.830;38411.125
614.277;29250.879;  -11.641;38673.938
614.858;30146.176;  -13.310;37075.863
615.438;29237.154;   -7.460;35092.906
616.019;26452.527;   -7.601;33666.301
616.599;27134.699;  -12.020;34189.023
617.179;28952.582;  -11.780;36952.047
617.760;29869.154;   -8.570;39582.574
618.340;30912.994;  -11.471;38943.977
618.920;32218.967;  -11.170;37594.156
619.500;32100.629;  -11.071;37866.938
620.080;31308.807;   -7.750;37869.043
620.660;32442.166;  -12.711;36868.617
621.241;33819.875;  -10.211;36352.309
621.821;33988.109;  -10.961;35459.520
622.401;32956.570;   -7.720;35207.414
622.980;32200.486;   -8.981;35980.422
623.560;30770.178;   -9.331;37351.328
624.140;29689.250;   -9.850;34388.582
624.720;24528.869;   -7.451;32368.764
625.300;21097.820;   -9.070;32638.629
625.880;24520.039;  -12.601;34599.035
626.459;28511.551;  -11.751;36831.738
627.039;31626.422;   -9.281;38299.098
627.619;31546.789;   -8.801;38289.574
628.198;29897.850;  -12.071;37220.695
628.778;28993.252;   -9.461;37632.563
629.357;29688.336;   -8.491;38003.012
629.937;29793.311;   -9.721;38402.039
630.516;29298.986;   -9.951;37868.801
631.096;28947.813;  -11.731;35760.410
631.675;31852.102;   -8.572;35225.219
632.254;36772.066;  -11.282;35130.289
632.834;36100.195;  -13.322;35794.570
633.413;34148.254;  -10.301;35788.922
633.992;31190.482;   -8.582;34532.863
634.571;32093.414;   -8.352;33590.113
635.151;34893.070;  -11.912;34943.863
635.730;33312.961;  -10.511;35352.523
636.309;30041.406;   -7.731;35366.605
636.888;27801.211;   -9.952;36165.637
637.467;28829.318;  -11.672;37515.902
638.046;30446.420;   -8.901;39288.695
638.625;33489.738;   -7.912;38279.699
639.204;33092.676;  -10.022;37741.598
639.782;31473.373;  -12.252;38364.551
640.361;27743.873;  -10.041;36740.621
640.940;24918.818;  -11.161;34950.082
641.519;25590.895;   -9.701;34137.398
642.097;28669.576;  -11.271;35654.258
642.676;31415.338;   -8.651;35637.957
643.255;31870.990;   -8.711;36567.074
643.833;31044.443;   -9.581;37809.434
644.412;31279.846;  -13.711;37337.293
644.990;30548.504;  -11.811;37018.531
645.569;30799.365;   -9.411;36518.469
646.147;29571.049;  -10.291;36186.430
646.726;28906.627;  -12.401;36267.688
647.304;29960.363;  -10.411;36647.625
647.882;31976.496;   -9.651;39286.742
648.461;33708.922;   -9.631;39157.703
649.039;31909.688;  -11.881;35412.883
649.617;31248.947;   -9.661;34744.918
650.195;30935.926;   -9.301;35403.098
650.773;29407.713;  -10.511;35053.797
651.352;27114.516;  -11.521;33756.816
651.930;24920.506;  -12.211;31868.773
652.508;23392.736;   -9.171;33121.551
653.086;27360.672;   -9.371;33564.793
653.663;30021.650;  -13.161;34054.668
654.241;29042.500;  -13.031;35693.309
654.819;30764.055;   -9.371;36422.906
655.397;30859.400;  -10.511;38213.484
655.975;30662.660;  -10.371;39507.625
656.553;30284.420;  -10.051;39498.223
657.130;28629.510;  -10.061;40395.480
657.708;28044.551;   -9.561;39242.020
658.286;28031.299;  -11.511;38920.020
658.863;29223.504;  -10.261;40202.898
659.441;32344.090;   -7.531;39677.938
660.018;31778.861;   -9.501;40413.355
660.596;30702.740;  -13.301;39931.414
661.173;32688.639;  -11.211;39604.531
661.750;32785.719;   -9.951;39700.070
662.328;31730.791;   -9.390;39292.809
662.905;30738.324;  -11.330;38235.648
663.482;26213.750;   -9.050;36212.305
664.060;24424.412;   -8.240;35944.945
664.637;27348.848;  -10.050;35170.785
665.214;29347.047;  -11.760;34197.523
665.791;30694.902;  -10.530;34549.520
666.368;29282.758;   -9.690;35118.578
666.945;30160.301;   -9.320;36019.418
667.522;31784.758;  -11.860;36048.438
668.099;31627.473;  -10.770;36243.914
668.676;30505.988;   -6.260;35958.875
669.253;29089.717;   -7.000;37384.730
669.830;29772.781;  -10.190;36779.629
670.407;29492.549;   -9.550;35231.289
670.984;29604.959;   -9.260;35544.270
671.560;29987.350;   -9.280;35466.867
672.137;28988.229;  -11.810;34280.863
672.714;29794.313;  -11.490;34632.863
673.290;30269.307;   -7.740;35135.422
673.867;30660.703;  -10.660;36114.480
674.443;30377.563;  -12.230;36152.859
675.020;28647.613;  -10.450;35327.238
675.596;29800.291;   -9.260;35795.176
676.173;30251.818;  -10.780;35430.355
676.749;30147.385;  -13.690;33549.516
677.326;30205.104;  -11.980;32210.012
677.902;30163.287;   -8.630;32068.871
678.478;29469.916;  -10.730;32583.891
679.054;29017.066;  -10.520;32088.928
679.631;29236.713;  -11.920;30978.848
680.207;30773.979;   -7.490;33160.887
680.783;32398.797;   -9.860;35570.363
681.359;31495.426;  -13.380;36125.184
681.935;30875.592;  -12.480;35240.922
682.511;29952.656;   -7.900;34429.961
683.087;30073.555;   -7.710;34463.680
683.663;29740.363;  -11.480;34648.898
684.239;28433.592;  -14.090;34546.457
684.815;28114.693;   -7.560;35586.375
685.390;28503.855;   -9.910;35821.895
685.966;28894.859;  -11.159;35085.871
686.542;31402.141;  -11.169;34198.230
687.118;33450.172;   -5.959;32847.707
687.693;33540.426;  -10.329;32794.027
688.269;33217.316;  -12.059;33072.367
688.844;31307.316;  -10.909;33141.664
689.420;28997.881;   -8.019;33965.742
689.995;26649.518;   -8.399;34655.523
690.571;25399.709;  -10.949;33576.742
691.146;25998.031;   -9.619;32657.219
691.722;25477.098;   -8.999;32526.979
692.297;25638.938;  -11.589;33014.617
692.872;27525.035;  -11.739;34012.254
693.448;26913.854;  -11.059;34237.434
694.023;26209.236;  -10.139;34142.672
694.598;28297.387;   -9.029;34132.031
695.173;28481.240;  -13.319;34205.250
695.748;27705.580;  -10.169;32882.488
696.323;27635.973;   -8.339;32864.906
696.898;27917.633;   -8.169;33170.004
697.473;27783.471;  -12.309;32432.984
698.048;27277.846;  -10.989;31649.303
698.623;27381.023;   -9.329;30778.141
699.198;29484.354;   -9.849;31140.119
699.773;30260.561;  -12.329;31764.299
700.348;28510.813;  -10.389;31780.816
700.922;28427.566;   -9.269;32046.375
701.497;29095.293;   -9.329;32603.574
702.072;29184.281;  -10.789;34799.871
702.646;27975.668;  -10.839;35793.172
703.221;26129.803;   -9.099;35201.590
703.795;28137.867;  -10.939;34764.527
704.370;28439.848;  -12.859;34307.367
704.944;28976.084;  -11.559;33509.887
705.519;29952.102;   -7.939;31388.584
706.093;31443.617;  -10.499;31340.104
706.668;31588.006;  -11.289;32630.281
707.242;30520.553;  -11.509;32728.779
707.816;28936.242;   -9.639;32947.238
708.390;27359.152;  -11.429;33277.855
708.965;28061.617;  -11.869;33834.336
709.539;28400.625;  -11.689;33709.273
710.113;28917.189;  -10.478;33044.313
710.687;28114.441;  -10.228;31953.992
711.261;26280.721;  -13.698;30505.949
711.835;26204.477;  -13.378;30262.369
712.409;27164.750;   -9.698;31254.447
712.983;28994.195;  -11.898;32754.986
713.557;29811.412;  -15.138;34018.824
714.131;29468.609;  -14.098;34579.625
714.704;28613.330;   -9.958;33890.262
715.278;26367.367;  -10.028;33531.102
715.852;25529.871;  -11.148;33601.660
716.425;26441.896;   -9.068;33515.117
716.999;27101.375;  -10.038;33185.555
717.573;28108.350;   -9.798;33905.996
718.146;29154.918;  -12.378;35199.293
718.720;28916.932;  -11.918;35060.551
719.293;28341.658;   -8.088;34973.230
719.867;31238.971;  -10.888;36394.449
720.440;30754.984;  -11.938;36663.008
721.013;29002.473;  -12.818;35102.426
721.587;27719.943;  -10.298;33985.266
722.160;26894.561;  -10.048;33524.965
722.733;25921.035;  -12.108;32987.043
723.306;26253.137;  -10.818;33066.301
723.880;28549.305;   -8.908;33399.500
724.453;30162.055;   -9.878;33468.297
725.026;29128.268;  -11.188;33816.637
725.599;26722.789;  -11.678;32797.996
726.172;27412.465;   -9.618;33187.434
726.745;28584.918;   -8.258;35136.613
727.318;29987.049;  -12.978;35751.730
727.891;30254.438;  -12.148;35890.430
728.463;29832.746;   -8.968;34822.090
729.036;28912.354;  -10.188;32895.086
729.609;29316.275;  -11.788;31823.225
730.182;26228.502;  -11.788;31445.283
730.754;23734.109;  -10.268;32373.223
731.327;23740.156;   -9.998;33676.820
731.900;24166.813;  -12.228;33417.000
732.472;25593.551;  -13.848;31978.498
733.045;27409.301;   -8.698;30368.777
733.617;27494.652;  -10.607;30574.215
734.190;26987.330;  -11.507;31280.975
734.762;23905.324;  -13.647;31674.412
735.334;22325.377;   -9.767;31247.291
735.907;23157.283;   -9.897;29876.211
736.479;23165.740;  -11.637;29808.488
737.051;22745.957;   -9.567;30233.547
737.623;23709.326;   -8.187;31469.086
738.195;24710.078;  -11.187;31784.225
738.768;26783.119;  -12.337;32120.523
739.340;26715.027;  -12.227;32094.342
739.912;25321.074;  -11.057;31312.680
740.484;23878.436;  -10.207;31946.238
741.056;22930.602;  -10.047;32984.059
741.628;24821.666;  -13.627;33897.715
742.199;27086.283;   -7.177;33213.016
742.771;25386.742;  -10.797;31369.113
743.343;23033.094;  -11.997;31865.473
743.915;22067.322;  -12.867;32388.631
744.487;22212.855;   -7.617;31079.568
745.058;22361.150;   -9.557;30570.107
745.630;22806.871;   -9.877;29970.127
746.201;23479.178;  -14.177;29186.766
746.773;23740.330;   -9.237;28805.723
747.344;23622.652;   -9.847;29591.223
747.916;22454.617;  -11.657;31412.201
748.487;22829.822;  -10.587;32194.898
749.059;23970.268;   -8.707;32533.719
749.630;24586.898;  -10.537;32158.518
750.201;23705.490;  -11.687;30855.395
750.773;21965.125;  -11.647;28622.555
751.344;21961.063;   -7.147;28405.732
751.915;23161.053;   -9.757;28461.551
752.486;22841.018;  -12.427;27842.850
753.057;20598.525;  -12.227;27845.008
753.628;19477.199;  -10.417;27728.107
754.199;20683.846;  -11.767;27381.086
754.770;21658.014;  -11.187;25882.203
755.341;21608.002;  -10.507;25886.184
755.912;21546.521;   -9.387;26050.861
756.483;20983.006;  -10.647;26798.779
757.054;19169.287;  -11.837;27048.238
757.625;17946.348;  -12.716;26294.838
758.195;17799.223;   -9.666;26142.076
758.766;17565.723;   -8.656;26392.234
759.337;18386.156;  -12.856;26334.594
759.907;20177.234;  -13.366;27579.652
760.478;21036.633;   -8.576;28352.770
761.048;20310.043;  -10.526;27325.088
761.619;19467.141;  -11.116;26460.428
762.189;19569.961;  -12.136;26029.826
762.760;20817.506;   -9.456;26430.145
763.330;21806.447;   -7.136;26670.902
763.900;21100.184;  -11.786;26603.021
764.471;18469.211;  -11.546;25542.740
765.041;17227.287;   -8.096;24358.459
765.611;17318.139;   -8.876;23991.297
766.181;17763.445;  -12.196;24470.236
766.751;18737.875;  -11.636;24845.975
767.321;18425.813;  -10.156;24533.633
767.891;16371.035;  -11.766;24916.492
768.461;15863.548;  -14.936;24776.771
769.031;16427.408;  -12.356;24757.988
769.601;17946.223;   -7.526;24181.088
770.171;17752.148;  -10.766;23670.387
770.741;17121.211;  -13.176;22960.045
771.311;17423.201;  -10.616;22917.523
771.880;17724.982;   -9.576;23562.941
772.450;17382.480;  -10.336;24216.500
773.020;17463.748;  -13.516;24140.398
773.589;16837.127;  -13.466;24414.857
774.159;16181.195;   -8.686;23858.717
774.729;15775.766;   -9.476;22942.135
775.298;15264.749;  -13.666;22324.033
775.867;14887.832;  -11.716;21140.313
776.437;14900.169;   -9.906;20838.092
777.006;14631.499;  -12.166;20599.510
777.576;14554.715;  -12.356;20508.809
778.145;14764.208;  -11.646;20732.947
778.714;14635.398;   -8.226;21062.465
779.283;13860.937;   -9.556;20949.664
779.853;13429.499;  -14.116;20508.623
780.422;13924.571;  -11.506;20649.082
780.991;13495.702;   -9.556;21527.520
781.560;12318.874;   -9.095;22632.658
782.129;12134.765;  -12.135;23048.277
782.698;12155.315;  -10.865;23438.555
783.267;11764.937;   -9.335;23267.734
783.836;11751.602;  -11.045;22415.133
784.404;12827.257;  -13.865;20443.152
784.973;13384.522;  -13.095;19699.150
785.542;13326.941;  -11.575;19763.828
786.111;13187.287;   -9.705;20341.408
786.679;12619.328;  -12.105;20207.967
787.248;12326.424;  -12.455;19516.465
787.817;12134.444;  -11.535;18900.363
788.385;11721.236;   -9.765;17879.121
788.954;11134.579;  -14.005;17658.301
789.522;10638.554;  -11.955;17788.879
790.090;11219.587;  -10.135;18118.277
790.659;11572.912;  -10.975;18338.736
791.227;11069.873;  -13.375;18508.615
791.795;11560.627;  -12.375;17898.254
792.364;11894.693;  -10.725;17295.133
792.932;12127.875;   -9.715;16822.051
793.500;12315.775;  -12.675;17040.148
794.068;12588.064;  -13.495;17179.787
794.636;12709.601;  -10.885;16664.246
795.204;12190.562;  -11.045;16524.545
795.772;12267.095;  -13.175;17274.564
796.340;11763.844;  -12.445;17891.002
796.908;11583.358;   -9.735;17648.561
797.476;11484.280;   -9.815;17064.080
798.044;11049.896;  -13.985;16672.777
798.612;10223.416;  -13.115;17023.996
799.180; 9820.467;  -10.185;16561.615
799.747; 9737.633;   -9.055;15962.773
800.315; 9486.307;  -12.385;15296.992
800.883; 9119.000;  -15.035;14801.771
801.450; 9087.645;  -10.365;14534.430
802.018; 9142.320;   -9.855;14173.248
802.585; 9297.982;  -11.905;14029.547
803.153; 9384.318;  -11.585;13836.846
803.720; 9219.303;   -9.095;13567.324
804.287; 8764.824;   -9.135;13360.622
804.855; 8343.538;  -11.604;13681.981
805.422; 8223.591;  -11.794;13536.560
805.989; 8227.346;  -10.734;13355.958
806.556; 8421.057;  -10.444;13747.896
807.124; 8683.813;  -12.764;13987.376
807.691; 8644.162;  -12.964;14038.674
808.258; 8419.515;  -11.134;14120.152
808.825; 8062.665;   -9.854;13860.111
809.392; 8112.697;  -10.504;13268.790
809.959; 7644.837;  -13.054;12680.389
810.526; 7233.015;   -8.294;12427.308
811.093; 7297.269;   -8.394;12030.105
811.659; 7883.563;  -12.304;11653.664
812.226; 8334.588;  -13.944;11637.183
812.793; 7991.096;  -10.484;11611.521
813.360; 7353.327;  -10.144;11885.181
813.926; 7060.136;  -11.684;12770.539
814.493; 6861.313;  -13.644;12677.638
815.060; 6492.856;   -9.724;11974.336
815.626; 6525.625;   -9.854;11594.715
816.193; 6935.057;  -13.254;11579.474
816.759; 6946.262;  -13.204;11666.972
817.325; 7014.727;   -9.434;11325.530
817.892; 7374.444;  -10.134;11105.369
818.458; 7771.288;  -13.474;10843.928
819.024; 7339.121;  -11.854;10714.406
819.591; 7003.875;  -10.244;10469.165
820.157; 6808.584;  -10.704;10235.523
820.723; 6344.755;  -12.324;10847.563
821.289; 6060.023;   -9.444;11040.980
821.855; 5947.712;   -8.374;10357.100
822.421; 5878.108;  -10.234; 9978.918
822.987; 5847.558;  -13.294; 9754.177
823.553; 5555.926;  -10.884;10065.755
824.119; 5399.410;   -8.884;10036.294
824.685; 5467.968;   -6.784;10029.192
825.251; 5547.139;  -12.004;10199.230
825.816; 5523.356;  -11.474; 9820.189
826.382; 5322.993;   -9.174; 9297.248
826.948; 5562.631;   -9.214; 9381.347
827.513; 5927.875;  -10.774; 9450.726
828.079; 5706.761;  -11.924; 9472.444
828.645; 5141.025;  -10.543; 9292.643
829.210; 5094.609;  -10.533; 9065.341
829.776; 5074.038;  -10.753; 9132.620
830.341; 4943.989;  -10.173; 9092.878
830.906; 5136.073;  -10.743; 9078.557
831.472; 5456.713;  -11.113; 8534.535
832.037; 5152.010;  -10.603; 8677.874
832.602; 4584.892;  -13.323; 8628.692
833.167; 4340.323;  -10.823; 8879.031
833.733; 4293.968;  -10.113; 9189.790
834.298; 4422.692;  -13.583; 9052.608
834.863; 4475.748;  -12.703; 8895.087
835.428; 4450.095;  -10.523; 8824.266
835.993; 4334.441;   -6.963; 8845.385
836.558; 4202.581;  -10.763; 8888.563
837.123; 4356.706;   -9.903; 8966.582
837.688; 4585.829;   -9.913; 8617.860
838.253; 4791.650;  -10.283; 8590.699
838.817; 4974.008;  -12.963; 8443.797
839.382; 4854.007;  -14.243; 8799.356
839.947; 4522.347;  -10.733; 8810.595
840.511; 4219.887;   -9.383; 8796.394
841.076; 3858.022;  -12.563; 8347.231
841.641; 3946.332;  -12.953; 8224.330
842.205; 4065.155;   -7.043; 8223.349
842.770; 4201.352;   -8.163; 8622.107
843.334; 4391.369;  -12.503; 8410.386
843.898; 4347.911;  -11.693; 8337.465
844.463; 4358.457;  -10.203; 8506.283
845.027; 4119.439;   -9.533; 8280.962
845.591; 3942.975;  -13.443; 8231.141
846.156; 3908.770;  -13.143; 7969.179
846.720; 3789.504;   -9.433; 7768.278
847.284; 3661.285;  -11.033; 7630.957
847.848; 3525.312;  -10.403; 7472.395
848.412; 3429.417;  -11.553; 7437.394
848.976; 3471.906;   -8.393; 7674.592
849.540; 3422.539;   -8.713; 7836.011
850.104; 3557.179;  -12.463; 7913.669
850.668; 3908.419;  -12.973; 7694.508
851.232; 3992.443;  -10.793; 7756.887
851.796; 3820.941;  -10.662; 7926.545
852.359; 3524.172;  -13.082; 7827.844
852.923; 3372.652;  -12.192; 7641.163
853.487; 3200.375;  -11.912; 7342.501
854.050; 3149.699;  -10.892; 7042.820
854.614; 3274.566;  -13.992; 7151.338
855.177; 3390.297;  -11.732; 7105.077
855.741; 3430.039;   -8.962; 6989.675
856.304; 3326.114;   -9.442; 6596.634
856.868; 3274.208;  -14.192; 6356.272
857.431; 3378.284;  -12.702; 6468.571
857.995; 3503.346;   -9.942; 6373.210
858.558; 3512.409;   -9.112; 6324.448
859.121; 3240.999;  -12.932; 6408.327
859.684; 3128.863;  -13.442; 6347.886
860.247; 3229.940;  -10.632; 6321.264
860.810; 3208.733;  -11.272; 6301.903
861.374; 2944.970;   -9.832; 6607.881
861.937; 2692.712;  -11.762; 6408.200
862.500; 2694.226;   -9.722; 6572.639
863.062; 2880.485;  -10.512; 6387.297
863.625; 3056.567;  -11.232; 6190.836
864.188; 3220.667;  -14.112; 5807.254
864.751; 3285.201;  -11.302; 5682.413
865.314; 3169.667;  -10.112; 5547.492
865.876; 2965.091;  -12.182; 5500.150
866.439; 2955.566;  -10.722; 5415.909
867.002; 2896.068;   -9.252; 5501.567
867.564; 2678.208;   -9.572; 5413.946
868.127; 2446.202;  -13.142; 5160.325
868.689; 2334.701;  -12.902; 5133.183
869.252; 2233.068;   -9.732; 5252.382
869.814; 2139.183;   -9.432; 5297.141
870.377; 2158.452;  -11.552; 5390.919
870.939; 2234.052;   -9.052; 5599.898
871.501; 2295.410;  -10.982; 5248.336
872.063; 2290.235;  -12.292; 4854.235
872.626; 2252.497;  -14.912; 4817.074
873.188; 2283.913;  -13.112; 4987.732
873.750; 2248.050;  -13.442; 4868.651
874.312; 2150.746;   -9.402; 4779.330
874.874; 2055.121;  -11.062; 4866.348
875.436; 1961.864;  -13.931; 4718.887
875.998; 1950.890;   -9.561; 4660.005
876.560; 1971.989;  -11.321; 4462.964
877.122; 1914.804;  -12.221; 4145.042
877.683; 1827.605;  -12.191; 4056.481
878.245; 1758.297;  -12.101; 3950.740
878.807; 1797.533;   -8.971; 4058.958
879.369; 1822.137;  -12.071; 3954.677
879.930; 1723.778;  -14.621; 3941.495
880.492; 1661.245;  -10.311; 4067.014
881.053; 1615.991;  -10.901; 3859.633
881.615; 1496.089;  -14.411; 3776.071
882.176; 1400.541;  -13.761; 3734.750
882.738; 1355.162;   -9.181; 3678.489
883.299; 1332.323;  -11.791; 3405.407
883.860; 1339.313;  -13.121; 3351.106
884.422; 1341.823;  -11.211; 3394.044
884.983; 1291.036;  -10.091; 3166.443
885.544; 1206.656;   -8.461; 3189.802
886.105; 1125.281;  -12.361; 3160.360
886.666; 1057.743;  -14.141; 3093.059
887.227; 1001.569;  -11.361; 2941.957
887.788;  939.215;  -11.401; 2974.836
888.349;  877.168;  -13.791; 2721.214
888.910;  876.456;  -13.191; 2696.493
889.471;  885.795;   -9.881; 2560.172
890.032;  864.932;   -9.881; 2558.190
890.593;  842.430;  -10.371; 2567.669
891.153;  815.111;  -13.301; 2460.307
891.714;  762.869;  -11.431; 2372.046
892.275;  722.036;  -11.291; 2309.505
892.835;  679.646;  -11.471; 2382.543
893.396;  623.304;  -11.541; 2295.502
893.956;  565.881;  -11.181; 2162.420
894.517;  528.257;  -11.741; 2125.439
895.077;  524.605;  -11.671; 2086.978
895.638;  524.691;  -11.311; 2126.316
896.198;  496.652;   -9.831; 1838.275
896.758;  454.115;   -8.421; 1892.813
897.319;  422.474;  -12.351; 1792.232
897.879;  404.827;  -13.511; 1762.751
898.439;  379.942;  -12.001; 1661.149
898.999;  354.728;  -10.180; 1781.468
899.559;  346.032;  -12.030; 1703.347
900.119;  340.996;  -15.710; 1537.525
900.679;  336.761;   -8.900; 1638.384
901.239;  321.476;   -8.340; 1527.902
901.799;  311.393;  -13.910; 1456.441
902.359;  305.430;  -13.460; 1357.140
902.919;  299.492;  -11.490; 1331.118
903.479;  286.919;  -12.110; 1317.257
904.038;  264.500;  -11.720; 1262.595
904.598;  249.608;  -13.610; 1152.034
905.158;  246.177;  -11.040; 1240.893
905.717;  238.230;  -10.900; 1233.691
906.277;  227.238;  -15.080; 1217.330
906.836;  216.005;  -13.380; 1222.408
907.396;  208.599;  -10.780; 1193.047
907.955;  201.555;   -8.500; 1182.526
908.515;  195.412;  -12.760; 1099.364
909.074;  189.217;  -11.900; 1092.863
909.633;  183.597;   -8.950; 1069.121
910.192;  178.891;   -8.770; 1196.460
910.752;  173.496;  -12.390; 1029.960
911.311;  168.894;  -13.680; 1009.780
911.870;  167.204;  -12.370;  971.460
912.429;  169.130;  -10.900; 1094.080
912.988;  167.160;  -11.690; 1081.060
913.547;  161.952;  -13.240;  940.380
914.106;  157.346;  -11.990;  999.420
914.665;  154.579;   -9.990;  984.020
915.224;  153.045;  -12.880; 1035.760
915.782;  153.230;  -12.350;  922.560
916.341;  152.783;   -9.110; 1049.840
916.900;  148.978;   -9.270;  925.260
917.458;  147.187;  -13.240;  884.220
918.017;  147.264;  -13.550;  942.600
918.576;  146.327;  -12.320;  904.440
919.134;  144.192;  -11.490;  837.980
919.693;  142.294;  -13.670;  893.060
920.251;  140.781;  -15.470;  876.500
920.809;  139.412;  -11.290;  839.580
921.368;  138.988;  -10.210;  885.360
921.926;  138.107;  -12.140;  842.940
922.484;  136.731;  -13.080;  903.360
923.042;  135.927;  -11.720;  880.340
923.601;  139.318;   -7.480;  998.680
924.159;  137.078;  -11.570;  935.560
924.717;  133.775;  -13.840;  841.080
925.275;  134.389;  -10.640;  903.240
925.833;  133.727;  -11.540;  779.320
926.391;  135.069;  -12.960;  938.380
926.949;  132.782;  -14.130;  857.680
927.506;  133.616;  -11.750;  903.500
928.064;  133.407;  -10.250;  877.580
928.622;  133.201;  -13.030;  880.100
929.180;  132.462;  -13.400;  814.180
929.737;  134.688;  -10.700;  808.540
930.295;  137.540;  -10.070;  928.480
930.853;  139.274;  -11.960;  849.100
931.410;  139.890;  -13.120;  821.120
931.968;  139.709;  -10.770;  940.660
932.525;  139.805;  -10.680;  909.380
933.082;  139.943;  -13.130;  811.440
933.640;  140.701;  -13.210;  925.900
934.197;  139.135;  -11.060;  886.360
934.754;  140.760;   -9.580;  897.780
935.312;  143.058;  -14.000;  863.340
935.869;  147.696;  -10.710; 1012.980
936.426;  147.854;   -9.860;  872.800
936.983;  148.977;   -9.710;  889.020
937.540;  148.442;  -13.990;  838.280
938.097;  146.444;  -14.040;  940.120
938.654;  147.473;  -10.310;  898.860
939.211;  150.416;  -10.560;  952.480
939.768;  154.202;  -13.900;  915.420
940.324;  156.787;  -14.760;  904.200
940.881;  158.810;  -10.370;  878.500
941.438;  159.359;   -8.260; 1021.200
941.995;  154.364;  -12.540;  992.560
942.551;  151.876;  -14.670;  875.620
943.108;  152.877;  -10.450;  937.920
943.664;  155.539;  -10.750;  869.340
944.221;  159.612;  -11.550; 1088.140
944.777;  156.492;  -14.770;  869.680
945.334;  158.458;  -12.820;  884.840
945.890;  159.479;  -10.130;  946.480
946.446;  158.627;  -13.470;  947.020
947.003;  160.622;  -12.120;  964.940
947.559;  164.716;   -9.980; 1063.040
948.115;  163.096;   -9.080; 1026.540
948.671;  161.675;  -10.830;  967.300
949.227;  158.650;  -12.440;  859.560
949.783;  156.831;  -12.910;  858.900
950.339;  158.069;  -10.270;  991.000
950.895;  157.425;  -13.630; 1023.840
951.451;  158.001;  -15.100;  925.280
952.007;  158.349;  -11.330;  998.540
952.563;  159.345;  -10.580;  937.780
953.118;  157.825;  -13.440;  904.940
953.674;  157.168;  -12.710;  935.780
954.230;  157.666;  -10.350;  949.640
954.785;  155.505;   -9.190;  936.640
955.341;  152.811;  -11.200;  998.160
955.897;  150.742;  -16.560;  834.660
956.452;  152.343;  -12.570;  953.840
957.008;  151.798;   -7.970; 1083.640
957.563;  148.994;  -11.940; 1009.540
958.118;  144.084;  -13.450;  877.700
958.674;  145.254;  -12.030;  946.780
959.229;  147.299;   -9.410; 1013.980
959.784;  145.442;  -12.000;  832.400
960.339;  144.004;  -14.780; 1001.280
960.894;  139.566;   -9.860;  963.760
961.449;  136.425;   -9.970;  859.960
962.004;  135.546;  -10.900; 1212.840
962.559;  131.297;  -13.150;  860.140
963.114;  128.082;  -13.740;  742.480
963.669;  128.485;   -9.820;  915.500
964.224;  126.401;  -13.890;  874.340
964.779;  126.091;  -12.600;  828.420
965.334;  127.145;  -10.950; 1017.860
965.888;  126.956;  -11.170;  875.360
966.443;  129.804;  -12.540;  972.380
966.998;  128.497;  -15.780;  819.460
967.552;  128.028;   -9.760;  908.380
968.107;  124.277;   -9.060;  868.300
968.661;  124.595;  -11.950;  922.440
969.216;  125.802;  -12.800;  856.280
969.770;  125.945;  -11.210;  917.200
970.324;  125.390;  -11.610;  923.140
970.879;  121.583;  -11.370;  947.180
971.433;  118.938;  -12.540;  952.720
971.987;  114.283;  -11.320;  895.340
972.541;  112.183;  -10.720;  917.100
973.095;  112.282;   -9.680; 1009.460
973.649;  108.968;  -11.440;  809.480
974.203;  103.237;  -11.210;  829.040
974.757;   94.894;  -10.240;  855.220
975.311;   87.690;  -13.720;  872.600
975.865;   81.376;  -13.770;  881.820
976.419;   79.119;  -11.690;  857.400
976.973;   80.224;   -9.510;  849.620
977.526;   83.905;  -12.620;  949.920
978.080;   84.374;  -12.010;  796.780
978.634;   87.928;  -10.170;  921.320
979.187;   87.219;   -9.020;  905.400
979.741;   86.009;   -9.820; 1018.380
980.294;   83.000;  -14.870;  789.160
980.848;   82.477;  -12.380;  717.220
981.401;   85.097;  -10.350;  816.540
981.955;   87.539;  -13.720;  844.300
982.508;   86.572;  -11.490;  746.340
983.061;   87.088;  -10.000;  915.260
983.615;   84.086;  -11.480;  798.800
984.168;   81.162;  -13.220;  770.080
984.721;   81.811;  -13.960;  880.760
985.274;   80.745;  -10.870;  867.500
985.827;   80.430;   -9.790;  834.220
986.380;   78.065;  -13.120;  721.340
986.933;   77.987;  -12.450;  864.800
987.486;   75.993;  -10.210;  861.920
988.039;   75.166;   -8.430;  863.100
988.591;   73.088;  -10.520;  893.260
989.144;   70.669;  -14.860;  737.260
989.697;   69.962;  -13.080;  758.740
990.250;   70.876;  -10.150;  858.100
990.802;   70.489;  -13.430;  755.860
991.355;   71.285;  -12.750;  974.880
991.907;   68.998;  -12.040;  864.320
992.460;   66.711;  -11.330;  753.760
993.012;   66.523;  -13.610;  749.540
993.565;   65.601;  -13.460;  711.360
994.117;   67.522;   -9.360;  950.780
994.669;   63.272;  -11.300;  701.320
995.221;   62.018;  -13.540;  791.920
995.774;   59.750;  -13.430;  787.580
996.326;   58.927;  -12.520;  740.220
996.878;   57.578;  -10.950;  838.420
997.430;   54.362;  -14.300;  699.860
997.982;   52.291;  -13.760;  750.140
998.534;   52.763;  -11.530;  739.060
999.086;   50.945;  -10.310;  738.220
999.638;   50.772;  -12.530;  661.380
1000.190;   49.952;  -11.840;  699.320
1000.741;   50.610;  -10.260;  742.700
1001.293;   50.337;   -8.860;  686.020
1001.845;   48.383;  -13.700;  676.640
1002.396;   49.053;  -12.100;  743.400
1002.948;   48.203;  -12.760;  737.400
1003.500;   47.382;  -10.380;  723.780
1004.051;   48.069;  -11.900;  907.580
1004.603;   45.833;  -12.250;  791.820
1005.154;   42.971;  -13.210;  608.980
1005.705;   41.938;  -10.950;  723.960
1006.257;   41.540;  -13.880;  707.220
1006.808;   40.834;  -12.840;  685.460
1007.359;   40.206;  -10.570;  763.240
1007.910;   39.751;   -9.620;  646.640
1008.461;   39.374;  -13.630;  732.940
1009.013;   38.199;  -17.200;  588.340
1009.564;   39.319;  -10.200;  793.520
1010.115;   37.719;  -12.570;  597.040
1010.665;   37.138;  -15.150;  602.160
1011.216;   37.018;  -14.480;  667.920
1011.767;   36.920;  -11.340;  697.920
1012.318;   36.428;   -9.780;  736.980
1012.869;   35.404;  -12.380;  679.000
1013.419;   35.106;  -15.560;  603.120
1013.970;   35.364;  -11.010;  666.640
1014.521;   34.574;  -11.610;  620.620
1015.071;   34.805;  -13.450;  670.380
1015.622;   34.428;  -13.870;  635.460
1016.172;   33.521;  -11.610;  596.820
1016.723;   34.057;  -12.120;  614.380
1017.273;   32.936;  -13.620;  604.160
1017.823;   33.098;  -14.140;  650.340
1018.374;   31.840;  -12.800;  611.760
1018.924;   32.740;  -12.340;  716.880
1019.474;   33.167;  -11.410;  718.880
1020.024;   31.220;  -14.770;  657.580
1020.574;   32.229;   -9.780;  726.160
1021.124;   32.582;   -8.560;  673.580
1021.674;   30.821;  -15.190;  559.120
1022.224;   32.558;  -13.530;  708.940
1022.774;   32.388;  -13.280;  668.820
1023.324;   31.898;  -10.690;  753.520
1023.874;   32.672;  -10.240;  875.760
1024.423;   31.165;  -12.540;  613.700
1024.973;   30.623;  -10.010;  610.760
1025.523;   30.283;  -10.550;  620.960
1026.072;   29.329;  -13.560;  606.420
1026.622;   29.013;  -15.120;  675.740
1027.172;   30.218;  -11.260;  715.660
1027.721;   28.953;  -11.410;  601.220
1028.270;   30.168;  -13.530;  663.400
1028.820;   29.029;  -13.680;  638.080
1029.369;   28.801;  -13.520;  612.700
1029.918;   29.048;  -10.980;  649.840
1030.468;   28.674;  -13.530;  564.780
1031.017;   28.353;  -13.170;  634.800
1031.566;   27.662;  -12.200;  608.900
1032.115;   28.055;   -9.960;  694.500
1032.664;   26.938;  -13.210;  596.480
1033.213;   27.750;  -12.500;  735.420
1033.762;   27.234;  -11.910;  635.620
1034.311;   26.998;   -9.640;  677.220
1034.860;   27.697;  -13.310;  691.000
1035.408;   27.250;  -11.830;  722.720
1035.957;   27.437;  -12.000;  719.540
1036.506;   25.234;  -11.690;  530.800
1037.055;   27.792;  -10.990;  844.320
1037.603;   26.038;  -15.120;  664.000
1038.152;   23.729;  -12.450;  534.760
1038.700;   25.259;  -10.560;  585.740
1039.249;   25.160;  -11.080;  681.220
1039.797;   25.311;  -12.540;  633.360
1040.345;   25.344;  -11.920;  705.420
1040.894;   25.042;  -11.410;  625.300
1041.442;   24.203;  -14.320;  632.200
1041.990;   23.707;  -16.240;  559.160
1042.538;   23.290;  -11.680;  536.180
1043.087;   23.211;  -10.760;  570.860
1043.635;   24.889;  -11.850;  670.500
1044.183;   23.040;  -15.480;  586.400
1044.731;   23.218;  -11.770;  576.000
1045.279;   22.721;  -13.090;  674.920
1045.827;   24.912;  -12.440;  892.400
1046.374;   22.663;  -13.840;  515.420
1046.922;   21.746;  -13.220;  590.580
1047.470;   23.875;  -10.230;  691.300
1048.018;   22.380;  -14.590;  647.960
1048.565;   23.018;  -12.050;  708.600
1049.113;   22.053;  -11.650;  557.000
1049.660;   21.584;  -10.510;  629.660
1050.208;   22.372;  -13.310;  675.640
1050.755;   21.632;  -15.900;  606.580
1051.303;   21.563;  -11.430;  686.820
1051.850;   21.233;   -8.480;  635.120
1052.397;   19.198;  -15.010;  473.960
1052.945;   20.297;  -13.960;  617.760
1053.492;   21.447;  -13.150;  741.840
1054.039;   22.126;   -9.630;  720.180
1054.586;   19.839;  -13.680;  557.240
1055.133;   21.375;  -14.570;  693.140
1055.680;   22.035;  -13.820;  646.620
1056.227;   20.083;  -11.730;  542.780
1056.774;   21.250;  -12.480;  794.980
1057.321;   20.255;  -13.930;  523.260
1057.868;   19.513;  -11.690;  651.320
1058.415;   19.698;   -9.520;  651.980
1058.961;   19.660;  -13.160;  678.940
1059.508;   19.130;  -12.920;  643.820
1060.055;   18.640;  -11.920;  581.780
1060.601;   19.897;  -11.500;  624.300
1061.148;   19.061;  -14.330;  616.820
1061.694;   18.369;  -16.870;  592.580
1062.241;   18.321;  -10.330;  596.320
1062.787;   19.180;  -10.620;  663.140
1063.334;   20.478;  -10.110;  808.560
1063.880;   18.912;  -13.400;  668.360
1064.426;   18.397;  -10.680;  706.820
1064.972;   17.623;   -9.920;  601.340
1065.518;   16.483;  -10.980;  566.640
1066.065;   18.737;  -14.890;  624.460
1066.611;   17.093;  -12.870;  598.800
1067.157;   17.877;  -12.950;  641.860
1067.703;   17.360;  -13.540;  668.480
1068.249;   17.033;  -13.540;  605.220
1068.794;   17.724;  -12.600;  626.880
1069.340;   16.713;  -10.620;  578.960
1069.886;   17.507;  -12.830;  590.700
1070.432;   15.855;  -14.870;  541.720
1070.977;   16.094;  -11.980;  601.080
1071.523;   15.928;   -8.200;  573.060
1072.068;   16.451;  -12.330;  582.000
1072.614;   15.792;  -16.370;  527.760
1073.160;   16.270;  -11.100;  687.040
1073.705;   15.908;  -10.480;  572.520
1074.250;   14.769;  -14.520;  559.900
1074.796;   15.828;  -11.460;  655.160
1075.341;   16.292;  -11.950;  664.100
1075.886;   15.502;  -11.460;  594.240
1076.431;   14.750;  -13.770;  649.880
1076.976;   15.254;  -12.680;  639.220
1077.521;   14.930;  -13.170;  583.080
1078.067;   13.977;  -10.860;  579.400
1078.612;   14.953;  -13.920;  661.620
1079.156;   14.439;  -13.880;  601.540
1079.701;   14.404;  -13.120;  693.260
1080.246;   15.639;   -9.940;  696.300
1080.791;   14.076;  -14.740;  625.020
1081.336;   14.144;  -13.750;  659.320
1081.880;   13.723;  -13.400;  649.680
1082.425;   13.584;  -12.220;  573.480
1082.970;   15.292;  -11.610;  717.040
1083.514;   13.660;  -13.580;  597.000
1084.059;   12.953;  -12.810;  586.720
1084.603;   12.869;  -12.320;  565.840
1085.147;   13.835;  -13.190;  645.220
1085.692;   13.664;  -12.480;  716.800
1086.236;   12.198;  -13.020;  503.140
1086.780;   13.929;   -9.190;  751.440
1087.325;   13.041;  -12.480;  654.620
1087.869;   13.224;  -12.450;  610.700
1088.413;   13.153;  -12.240;  705.040
1088.957;   10.941;   -9.020;  543.400
1089.501;   14.033;  -10.320;  766.640
1090.045;   12.774;  -12.720;  726.480
1090.589;   11.076;  -13.690;  569.920
1091.133;   12.640;  -10.020;  673.340
1091.676;   12.248;  -12.330;  591.940
1092.220;   11.557;  -14.970;  600.920
1092.764;   13.350;  -12.430;  706.960
1093.307;   12.585;   -9.800;  673.780
1093.851;   10.799;  -14.970;  556.540
1094.395;   11.365;  -15.310;  683.140
1094.938;   10.817;  -10.370;  632.520
1095.482;   11.118;  -11.050;  559.800
1096.025;   12.676;  -11.840;  710.880
1096.568;   12.396;  -12.840;  779.280
1097.112;    9.870;  -14.700;  508.180
1097.655;   11.480;   -8.720;  603.000
1098.198;    9.786;  -13.610;  600.180
1098.741;    9.737;  -13.350;  612.860
1099.285;   11.054;  -11.230;  657.300
1099.828;    8.601;  -11.840;  439.400
1100.371;    9.933;  -10.840;  608.160
1100.914;   10.397;  -14.190;  682.660
1101.457;   10.208;  -11.240;  679.900
1101.999;    8.366;  -11.270;  584.680
1102.542;    9.680;  -11.480;  641.440
1103.085;    9.050;  -11.750;  658.500
1103.628;    9.933;  -11.400;  762.060
1104.170;    9.150;  -10.490;  588.280
1104.713;    9.937;  -10.600;  646.700
1105.256;    9.184;  -14.360;  557.440
1105.798;    8.089;  -13.210;  499.980
1106.341;    9.836;  -10.270;  728.900
1106.883;    8.551;  -12.200;  521.340
1107.425;    8.250;  -13.110;  668.180
1107.968;    8.332;  -12.840;  612.380
1108.510;    9.084;   -6.480;  684.960
1109.052;    7.669;  -13.940;  612.620
1109.594;    8.411;  -13.690;  554.440
1110.136;    8.637;  -11.880;  643.220
1110.679;    8.162;   -9.500;  633.080
1111.221;    8.575;  -14.160;  604.460
1111.763;    8.286;  -13.980;  559.220
1112.304;    6.885;  -13.880;  547.140
1112.846;    8.554;  -12.210;  666.240
1113.388;   10.444;  -11.390;  942.180
1113.930;    7.166;  -14.540;  694.200
1114.472;    7.516;  -12.640;  606.540
1115.013;    6.009;  -11.620;  551.280
1115.555;    5.752;  -13.640;  587.100
1116.097;    5.605;  -15.380;  579.480
1116.638;    7.206;  -12.640;  684.600
1117.180;    7.494;   -9.850;  667.740
1117.721;    6.338;  -13.690;  568.580
1118.262;    7.026;  -12.680;  677.960
1118.804;    7.322;  -12.530;  637.340
1119.345;    6.070;  -11.690;  578.400
1119.886;    6.745;  -13.380;  704.040
1120.427;    5.642;  -14.070;  589.020
1120.969;    5.960;  -13.500;  597.920
1121.510;    5.300;  -11.480;  563.060
1122.051;    5.704;  -12.830;  723.580
1122.592;    6.062;  -14.290;  655.420
1123.133;    4.835;  -12.400;  547.940
1123.673;    6.580;  -10.130;  706.480
1124.214;    5.488;  -12.930;  612.460
1124.755;    5.706;  -14.380;  639.460
1125.296;    5.745;  -14.000;  627.320
1125.836;    5.614;  -10.070;  691.500
1126.377;    4.813;  -12.640;  599.660
1126.918;    4.826;  -12.960;  614.980
1127.458;    4.137;  -13.350;  622.220
1127.999;    5.058;  -10.750;  656.980
1128.539;    6.022;  -12.350;  694.240
1129.079;    4.149;  -14.860;  632.720
1129.620;    4.012;  -13.840;  558.100
1130.160;    4.389;  -12.330;  539.480
1130.700;    4.723;  -14.530;  640.840
1131.240;    5.049;  -12.530;  643.700
1131.781;    3.738;  -14.450;  619.680
1132.321;    4.181;   -9.790;  599.120
1132.861;    2.287;  -14.860;  564.200
1133.401;    3.052;  -14.290;  593.940
1133.941;    3.807;  -11.750;  626.280
1134.481;    3.547;   -9.920;  597.580
1135.020;    2.498;  -12.290;  609.160
1135.560;    3.483;  -11.650;  674.940
1136.100;    2.861;  -16.270;  501.160
1136.640;    3.128;  -10.890;  510.480
1137.179;    2.988;  -14.180;  537.960
1137.719;    2.917;  -16.250;  605.400
1138.258;    3.234;  -14.230;  587.360
1138.798;    2.880;   -9.090;  663.780
1139.337;    2.318;  -15.130;  482.840
1139.877;    3.316;  -13.680;  642.360
1140.416;    5.401;  -11.320;  878.060
1140.955;    2.443;  -10.860;  535.380
1141.494;    2.711;  -12.920;  669.280
1142.034;    2.578;  -13.930;  583.520
1142.573;    3.359;  -11.440;  646.280
1143.112;    1.962;  -12.000;  553.480
1143.651;    2.436;  -13.670;  536.480
1144.190;    3.061;  -12.730;  691.640
1144.729;    1.853;  -14.560;  607.420
1145.267;    1.853;  -11.830;  584.900
1145.806;    3.401;  -12.230;  637.040
1146.345;    1.899;  -14.130;  635.020
1146.884;    1.601;  -11.590;  622.500
1147.422;    1.199;  -12.550;  533.060
1147.961;    3.249;  -11.180;  708.460
1148.500;    1.883;  -11.510;  669.720
1149.038;    2.196;  -11.640;  632.500
1149.577;    2.503;  -10.130;  698.640
1150.115;    0.153;  -13.970;  452.280
1150.653;    1.721;  -14.520;  607.340
1151.192;    1.408;  -12.810;  552.920
1151.730;    1.433;   -9.100;  652.560
1152.268;    1.344;  -12.220;  589.520
1152.806;    1.048;  -14.140;  571.180
1153.344;   -0.088;  -12.350;  577.640
1153.882;    1.324;   -8.980;  600.060
1154.421;   -0.497;  -15.190;  470.620
1154.958;   -0.258;  -15.210;  595.240
1155.496;    0.969;  -12.850;  645.280
1156.034;    1.245;   -9.940;  721.880
1156.572;    1.858;  -13.570;  667.060
1157.110;   -0.340;  -14.590;  473.940
1157.647;    1.403;  -13.030;  676.960
1158.185;    0.333;  -12.140;  564.320
1158.723;   -1.269;  -14.390;  509.200
1159.260;    0.033;  -14.090;  701.700
1159.798;    0.249;  -11.920;  658.160
1160.335;   -0.807;  -11.110;  631.820

