
Integration time [ms]:   3.276
Averaging Nr. [scans]: 1000
Smoothing Nr. [pixels]: 0
Data measured with spectrometer [name]: 7414430SP
Wave   ;Sample   ;Dark     ;Reference
[nm]   ;[counts] ;[counts] ;[counts] 

288.544;  151.456;    7.793;  793.890
289.143;  154.635;    7.462;  681.602
289.742;  155.198;    8.602;  828.814
290.341;  141.453;    1.321;  789.841
290.940;  130.307;   -0.709;  730.702
291.538;  130.368;    0.881;  881.108
292.137;  131.071;    0.122;  792.581
292.736;  136.274;   -1.929;  975.101
293.335;  132.500;   -8.229;  735.086
293.934;  131.545;   -5.279;  781.677
294.532;  130.448;   -1.369; 1031.958
295.131;  116.647;   -7.641;  834.394
295.730;  116.856;   -8.420;  809.588
296.328;  114.711;   -5.611;  783.442
296.927;  116.509;   -5.781;  779.652
297.525;  117.613;   -6.361;  781.236
298.124;  107.656;  -11.382;  654.009
298.722;  112.188;   -7.641;  761.933
299.321;  108.843;   -6.811;  708.597
299.919;  106.891;   -6.991;  751.918
300.518;  104.252;  -10.362;  689.338
301.116;  106.280;   -9.581;  691.381
301.715;  105.263;   -4.891;  730.222
302.313;  104.871;   -8.801;  704.943
302.911;  100.905;   -8.522;  733.830
303.509;  105.312;   -6.171;  925.627
304.108;  103.283;   -7.311;  760.383
304.706;  101.907;   -8.321;  801.664
305.304;   97.285;  -10.222;  796.707
305.902;  101.468;   -6.021;  784.484
306.500;   97.859;   -4.971;  728.200
307.098;   96.865;   -7.061;  746.560
307.696;   94.290;   -8.801;  780.432
308.294;   94.112;   -6.411;  731.359
308.892;   96.346;   -2.901;  759.769
309.490;   93.779;   -5.041;  712.161
310.088;   91.739;   -5.002;  788.444
310.686;   95.832;   -2.041;  821.749
311.284;   90.788;   -2.351;  766.040
311.882;   89.843;   -4.422;  731.225
312.480;   86.736;   -4.192;  697.167
313.078;   86.574;   -1.172;  808.331
313.675;   88.103;   -2.601;  691.600
314.273;   83.077;   -1.312;  797.837
314.871;   83.261;   -3.942;  589.829
315.468;   80.290;   -2.802;  652.090
316.066;   82.754;   -0.701;  694.427
316.664;   76.663;   -4.362;  656.351
317.261;   80.160;   -2.872;  910.128
317.859;   75.507;   -2.022;  768.735
318.456;   76.751;   -0.531;  830.096
319.054;   72.581;   -3.912;  787.828
319.651;   71.196;   -4.752;  759.928
320.249;   70.063;   -2.602;  810.188
320.846;   67.683;   -0.821;  714.286
321.443;   65.612;   -4.642;  832.135
322.041;   61.762;   -5.002;  812.315
322.638;   60.305;   -3.982;  701.456
323.235;   61.963;   -3.411;  665.683
323.833;   58.830;   -7.361;  740.354
324.430;   53.980;   -8.611;  615.900
325.027;   55.021;   -4.061;  876.855
325.624;   53.559;   -4.031;  644.532
326.221;   51.588;   -7.481;  689.717
326.818;   51.301;   -5.281;  818.332
327.415;   54.375;   -7.460;  748.828
328.012;   53.370;   -5.510;  690.585
328.609;   52.382;   -7.880;  731.389
329.206;   50.625;   -8.331;  778.621
329.803;   50.540;   -5.121;  737.841
330.400;   52.787;   -4.510;  704.260
330.997;   54.771;   -6.441;  817.147
331.594;   53.009;   -8.831;  788.185
332.191;   58.698;   -7.621;  728.722
332.787;   61.470;   -4.591;  844.463
333.384;   60.335;   -7.412;  763.093
333.981;   58.148;   -8.293;  815.687
334.578;   61.143;   -7.052;  708.378
335.174;   64.110;   -3.102;  731.469
335.771;   64.430;   -5.943;  836.456
336.367;   61.356;   -7.393;  710.631
336.964;   63.866;   -4.063;  793.266
337.561;   63.037;   -3.813;  731.112
338.157;   58.527;   -4.654;  911.916
338.754;   55.802;   -7.934;  796.589
339.350;   53.308;   -4.414;  722.493
339.946;   55.674;   -4.664;  773.135
340.543;   47.668;   -6.375;  846.136
341.139;   42.284;   -9.815;  720.836
341.735;   40.013;   -4.526;  772.593
342.332;   39.414;   -4.895;  691.472
342.928;   39.121;   -4.295;  795.394
343.524;   33.310;   -5.476;  761.684
344.120;   29.027;   -5.856;  738.562
344.716;   33.072;   -2.155;  723.717
345.313;   30.583;   -6.275;  795.342
345.909;   25.116;   -8.815;  627.336
346.505;   26.559;   -5.305;  740.247
347.101;   26.745;   -2.674;  827.864
347.697;   28.312;   -4.344;  785.398
348.293;   22.239;   -9.975;  627.244
348.889;   22.813;   -5.774;  745.914
349.485;   22.334;   -5.004;  688.205
350.081;   22.869;   -4.704;  772.592
350.676;   18.521;   -6.635;  691.606
351.272;   22.644;   -4.504;  809.530
351.868;   22.182;   -3.914;  780.497
352.464;   19.609;   -9.044;  723.932
353.059;   16.169;   -8.314;  646.017
353.655;   19.255;   -7.024;  777.063
354.251;   20.056;   -5.343;  759.845
354.846;   15.054;   -8.604;  740.646
355.442;   13.179;   -6.945;  753.071
356.038;   13.986;   -7.564;  751.708
356.633;   14.669;   -5.814;  728.594
357.229;   12.745;   -7.364;  724.757
357.824;   11.156;   -8.024;  703.600
358.420;    9.284;   -9.384;  679.726
359.015;   10.354;   -5.104;  695.357
359.610;   11.735;   -6.854;  763.920
360.206;    5.678;  -10.185;  603.240
360.801;    8.622;   -7.054;  646.503
361.396;   10.692;   -5.034;  725.975
361.992;    6.245;   -8.284;  668.220
362.587;    3.084;   -8.625;  670.160
363.182;    4.836;   -7.674;  689.631
363.777;    6.624;   -5.164;  738.242
364.372;    5.806;   -8.604;  737.314
364.967;    2.136;   -9.055;  680.744
365.563;    6.091;   -6.114;  815.567
366.158;    3.808;   -5.814;  685.161
366.753;    3.429;   -7.854;  649.263
367.348;    2.338;   -7.804;  746.056
367.942;    1.826;   -7.954;  697.298
368.537;    1.312;   -4.984;  754.245
369.132;    1.839;   -8.564;  703.428
369.727;   -1.873;   -8.855;  638.079
370.322;   -1.267;   -6.245;  580.186
370.917;   -1.993;   -6.425;  710.646
371.511;    1.013;   -6.294;  861.834
372.106;   -2.534;   -7.685;  776.964
372.701;   -5.896;   -7.335;  585.988
373.296;    0.085;   -4.564;  863.135
373.890;   -4.338;  -10.235;  647.840
374.485;   -6.699;   -7.885;  691.199
375.079;   -3.518;   -7.324;  738.685
375.674;   -2.118;   -3.494;  812.970
376.268;   -6.135;   -8.525;  691.759
376.863;  -11.627;  -10.086;  580.327
377.457;   -5.759;   -7.025;  662.490
378.052;   -8.357;   -3.585;  764.884
378.646;   -8.086;   -7.595;  741.167
379.240;   -8.793;   -8.335;  721.176
379.835;   -7.723;   -5.785;  636.978
380.429;   -9.924;   -4.335;  562.557
381.023;   -9.795;   -6.805;  779.205
381.617;  -11.738;   -9.195;  680.106
382.212;   -8.252;   -6.905;  685.303
382.806;   -7.992;   -3.745;  760.690
383.400;  -11.613;   -7.745;  672.281
383.994;  -13.755;   -9.765;  664.870
384.588;   -9.469;   -6.564;  697.701
385.182;   -7.504;   -5.344;  726.624
385.776;   -9.217;   -8.514;  706.875
386.370;  -12.748;   -9.555;  681.968
386.964;  -11.874;   -8.715;  684.155
387.558;   -9.772;   -6.174;  598.360
388.152;  -13.174;   -8.725;  681.959
388.745;  -11.934;   -7.965;  814.707
389.339;   -9.644;   -5.924;  747.642
389.933;   -8.636;   -5.524;  695.370
390.527;   -9.719;   -7.114;  859.029
391.120;  -15.569;  -10.725;  595.318
391.714;  -13.281;   -8.035;  711.633
392.308;  -10.588;   -3.574;  780.253
392.901;  -13.812;   -7.245;  642.460
393.495;  -15.421;   -9.285;  595.414
394.089;  -13.577;   -5.895;  760.452
394.682;  -13.865;   -4.295;  697.188
395.275;  -13.969;   -9.875;  719.927
395.869;  -15.914;   -8.485;  667.314
396.462;  -14.439;   -7.455;  616.609
397.056;  -10.522;   -5.424;  776.621
397.649;  -15.085;   -6.605;  731.575
398.242;  -12.463;   -8.224;  712.645
398.836;  -12.062;   -7.474;  766.408
399.429;  -13.043;   -7.094;  631.041
400.022;  -16.305;   -9.475;  665.902
400.615;  -14.139;   -7.145;  805.609
401.208;  -11.333;   -7.174;  691.451
401.802;  -14.195;   -5.515;  699.329
402.395;  -15.331;   -9.875;  683.502
402.988;  -16.135;   -8.845;  696.627
403.581;  -13.281;   -8.874;  646.878
404.174;  -11.085;   -5.324;  686.568
404.767;  -13.414;   -9.575;  638.583
405.360;  -16.108;  -10.965;  621.445
405.953;  -10.880;   -8.764;  759.034
406.545;  -10.591;   -7.514;  725.342
407.138;  -14.305;  -10.025;  618.350
407.731;  -13.311;  -10.034;  613.303
408.324;   -9.719;   -9.374;  660.554
408.917;  -10.330;   -6.534;  681.864
409.509;  -12.125;   -8.004;  740.396
410.102;  -13.780;   -9.875;  643.948
410.695;   -8.510;   -8.604;  665.758
411.287;   -9.387;   -6.794;  599.821
411.880;  -10.685;   -9.334;  585.421
412.472;  -13.671;  -10.254;  613.092
413.065;  -10.142;   -6.714;  629.408
413.657;   -8.134;   -7.234;  576.678
414.250;   -8.377;  -10.544;  646.681
414.842;  -10.062;   -9.744;  676.353
415.434;   -7.660;   -6.994;  570.463
416.027;   -4.056;   -5.893;  652.196
416.619;   -5.738;   -7.264;  713.400
417.211;   -6.393;  -10.374;  599.352
417.804;   -2.176;   -7.993;  628.499
418.396;   -6.309;   -7.234;  607.643
418.988;   -4.889;   -9.443;  659.238
419.580;   -7.859;  -10.724;  568.276
420.172;   -5.881;  -10.323;  536.196
420.764;   -1.686;   -8.793;  672.482
421.356;   -2.147;  -11.143;  636.898
421.948;   -3.021;   -8.293;  677.661
422.540;    2.317;   -7.893;  680.027
423.132;    0.926;   -7.082;  600.641
423.724;   -2.241;   -8.653;  561.267
424.316;   -0.905;  -10.213;  621.345
424.908;    3.463;   -9.762;  591.517
425.500;    3.689;   -5.572;  647.978
426.092;    4.066;   -8.422;  648.268
426.683;    3.295;   -9.283;  684.836
427.275;    5.396;   -7.852;  641.471
427.867;    7.423;   -5.272;  668.948
428.458;    7.657;   -7.682;  732.344
429.050;    6.700;  -10.612;  680.749
429.642;    9.039;   -9.882;  743.124
430.233;    8.991;   -6.962;  569.356
430.825;   10.353;   -6.842;  724.809
431.416;    8.109;   -9.672;  698.241
432.008;   11.473;   -6.552;  651.723
432.599;   11.714;   -6.891;  656.073
433.190;    9.293;  -10.912;  637.670
433.782;    8.660;  -11.172;  590.395
434.373;   15.917;   -6.061;  884.765
434.964;   14.647;   -8.251;  602.920
435.556;   11.693;   -9.722;  634.537
436.147;   15.544;   -9.082;  758.490
436.738;   14.487;   -8.041;  701.099
437.329;   20.406;   -7.341;  721.723
437.920;   12.920;   -8.162;  666.688
438.511;   13.338;  -11.802;  564.526
439.103;   19.616;  -10.191;  623.998
439.694;   21.690;   -7.601;  681.583
440.285;   22.969;   -8.541;  764.432
440.876;   20.310;   -9.751;  845.738
441.466;   19.934;   -9.401;  575.162
442.057;   24.668;   -7.760;  665.814
442.648;   24.503;   -9.971;  746.255
443.239;   22.553;  -11.001;  620.477
443.830;   26.753;   -7.990;  704.958
444.421;   28.447;   -7.910;  655.474
445.011;   25.498;   -8.131;  693.619
445.602;   24.899;   -7.111;  743.126
446.193;   26.857;  -10.920;  488.117
446.783;   31.174;   -6.500;  640.397
447.374;   26.937;   -8.671;  692.759
447.964;   27.435;  -10.781;  713.770
448.555;   35.740;   -9.650;  822.742
449.145;   32.807;   -8.660;  662.853
449.736;   32.863;   -8.990;  803.179
450.326;   33.472;   -9.500;  713.626
450.917;   37.264;   -8.680;  675.324
451.507;   37.227;   -7.520;  600.661
452.097;   38.371;   -8.590;  746.267
452.688;   39.314;  -11.340;  742.160
453.278;   38.229;  -10.100;  566.840
453.868;   43.012;   -6.019;  793.550
454.458;   41.058;   -9.440;  651.141
455.048;   41.330;  -10.560;  711.783
455.639;   43.176;  -11.799;  567.096
456.229;   46.367;   -6.899;  710.694
456.819;   48.486;   -7.389;  751.158
457.409;   48.440;  -11.119;  773.993
457.999;   52.123;   -9.289;  737.505
458.589;   51.532;   -6.139;  686.606
459.179;   51.334;   -8.729;  717.658
459.769;   49.199;   -9.789;  627.099
460.358;   53.616;  -10.259;  797.262
460.948;   54.027;   -7.299;  689.503
461.538;   56.041;  -10.289;  660.677
462.128;   53.793;  -11.269;  664.934
462.717;   60.748;   -9.368;  710.326
463.307;   63.401;   -7.908;  705.846
463.897;   58.892;   -9.599;  656.942
464.486;   58.321;   -9.769;  837.128
465.076;   63.779;   -8.048;  733.776
465.666;   66.996;   -9.358;  652.900
466.255;   64.452;   -7.919;  785.651
466.845;   63.491;  -11.689;  666.749
467.434;   66.415;   -7.818;  725.873
468.023;   67.655;   -7.678;  658.357
468.613;   65.622;  -10.939;  713.946
469.202;   69.691;  -10.118;  646.507
469.791;   73.269;   -9.108;  737.811
470.381;   75.559;   -6.058;  742.813
470.970;   74.983;  -10.428;  711.099
471.559;   74.859;  -10.268;  733.291
472.148;   77.499;   -8.448;  675.737
472.738;   80.341;   -6.917;  765.466
473.327;   80.083;  -11.978;  637.529
473.916;   78.841;  -11.888;  737.446
474.505;   83.870;   -9.437;  751.703
475.094;   87.224;   -6.747;  806.570
475.683;   86.702;   -9.367;  797.699
476.272;   87.146;  -12.637;  730.632
476.861;   89.928;  -10.027;  706.754
477.449;   97.049;   -8.716;  728.487
478.038;   90.578;   -9.577;  692.513
478.627;   92.418;   -9.718;  714.852
479.216;   98.711;   -8.947;  769.441
479.805;  101.609;   -6.256;  783.375
480.393;  101.753;   -7.937; 1008.945
480.982;  100.312;   -7.717;  874.501
481.571;  106.478;   -9.266;  858.333
482.159;  106.794;   -7.636;  705.386
482.748;  107.601;   -9.667;  821.385
483.336;  111.950;  -10.376;  858.209
483.925;  112.041;   -7.147;  774.373
484.513;  119.511;   -7.996;  758.962
485.102;  115.660;  -10.027;  810.965
485.690;  125.056;  -10.446; 1011.050
486.278;  127.190;   -8.446;  979.329
486.867;  126.744;   -6.356;  809.662
487.455;  128.963;   -9.136;  898.229
488.043;  130.505;  -10.646;  748.361
488.631;  139.397;   -7.456; 1005.079
489.220;  143.105;   -6.636;  908.626
489.808;  142.730;  -11.036;  741.415
490.396;  151.768;  -10.246;  914.645
490.984;  156.330;   -8.556;  830.161
491.572;  166.398;   -5.886;  940.315
492.160;  171.535;   -9.486;  919.081
492.748;  184.237;  -10.976;  884.341
493.336;  206.660;   -8.776; 1019.693
493.924;  232.778;   -5.465;  958.077
494.512;  260.250;   -9.986; 1066.638
495.100;  298.955;  -10.636; 1103.280
495.687;  354.267;  -10.885; 1206.373
496.275;  414.793;   -8.126; 1150.796
496.863;  486.058;  -10.586; 1281.171
497.451;  588.461;  -11.926; 1386.805
498.038;  716.447;  -10.885; 1556.729
498.626;  819.082;   -6.315; 1741.407
499.214;  962.668;   -7.326; 2016.609
499.801; 1163.437;  -11.906; 2220.633
500.389; 1402.874;  -10.466; 2312.494
500.976; 1716.940;   -5.236; 2744.849
501.564; 2139.456;   -8.936; 3148.565
502.151; 2521.285;  -13.176; 3515.999
502.738; 2982.034;  -10.646; 3971.274
503.326; 3360.492;   -9.525; 4403.796
503.913; 3742.759;  -10.856; 5161.749
504.500; 4104.178;  -11.586; 5986.420
505.088; 4521.028;  -10.336; 6381.201
505.675; 5044.349;   -6.355; 6925.547
506.262; 5759.390;   -9.046; 7619.060
506.849; 6435.108;  -10.416; 8733.969
507.436; 6897.547;  -10.305; 9790.121
508.023; 7496.591;   -5.496; 9985.472
508.610; 7739.540;   -7.856;10434.618
509.197; 8350.553;  -10.097;11198.435
509.784; 9697.703;  -10.886;12391.194
510.371;10674.957;   -9.315;13603.713
510.958;11369.771;   -9.936;14426.586
511.545;12157.717;   -9.326;15243.775
512.132;13119.630;  -10.075;15945.876
512.719;13826.256;   -7.796;16340.369
513.305;14730.258;  -10.606;18011.766
513.892;15586.529;  -11.486;19754.971
514.479;16916.734;   -9.126;20967.805
515.066;18131.836;   -6.026;22299.793
515.652;19253.363;   -8.466;22908.660
516.239;20659.539;  -10.886;23798.875
516.825;21847.742;  -11.496;25567.275
517.412;23103.920;   -5.796;28154.959
517.998;23664.291;  -10.506;28344.111
518.585;23469.924;  -10.076;27134.219
519.171;23925.656;   -8.315;27268.576
519.758;25558.670;   -8.596;28964.129
520.344;27234.113;   -8.466;30664.494
520.930;27095.104;  -11.006;32550.605
521.516;28786.242;  -10.495;35422.895
522.103;31201.674;   -5.526;38280.004
522.689;31869.947;   -8.746;37835.117
523.275;31068.455;  -11.376;37288.613
523.861;31782.045;  -11.156;37281.395
524.447;33048.902;   -8.135;37846.949
525.033;32829.465;   -7.896;38321.949
525.619;33018.055;  -12.476;38579.285
526.205;34563.984;   -9.516;40622.875
526.791;36548.480;   -6.926;42258.836
527.377;36270.770;   -8.346;42966.902
527.963;37477.707;   -8.717;42018.949
528.549;34880.477;  -11.016;42476.828
529.135;31442.924;   -8.536;41854.852
529.721;29296.619;   -9.666;41237.711
530.306;30189.219;  -10.066;41259.445
530.892;33084.691;  -11.356;41506.047
531.478;36351.039;   -6.596;43559.613
532.063;39757.238;   -8.836;47695.563
532.649;39801.016;  -10.047;50808.324
533.235;40599.773;   -9.746;51787.500
533.820;41409.887;   -6.566;52145.035
534.406;42272.656;  -10.817;51133.488
534.991;41374.047;   -9.416;49996.805
535.576;39021.996;   -9.036;48882.852
536.162;37506.207;   -6.156;46942.285
536.747;35334.242;  -11.607;45711.746
537.333;35323.965;  -11.787;48510.180
537.918;37769.758;  -12.437;50439.891
538.503;41757.344;   -7.196;50863.711
539.088;44485.363;  -10.556;50906.922
539.673;47025.906;   -8.767;52621.965
540.259;47410.813;  -10.026;52368.094
540.844;44445.379;   -7.416;50879.109
541.429;45437.305;   -9.467;52077.777
542.014;48577.258;   -9.527;52716.695
542.599;47811.551;   -9.946;52363.281
543.184;45385.574;   -7.927;53187.137
543.769;47071.848;   -9.297;54697.605
544.354;46232.543;  -10.127;53913.914
544.938;44909.141;   -9.267;49680.164
545.523;46653.926;   -6.506;47386.277
546.108;48841.559;   -9.787;49151.949
546.693;51046.563;  -11.587;51384.637
547.278;51136.273;  -10.986;51853.254
547.862;47890.039;   -8.206;51173.750
548.447;43096.262;  -10.067;51691.395
549.031;42876.273;   -9.637;52456.703
549.616;48002.906;   -9.926;52714.516
550.201;46675.422;   -6.347;52414.598
550.785;47773.809;   -7.917;52355.059
551.370;47180.371;  -10.867;54589.453
551.954;47445.961;   -9.047;58267.348
552.538;48063.789;   -7.827;59062.176
553.123;46353.121;  -10.287;58115.285
553.707;44624.746;  -12.178;56556.285
554.291;45852.410;   -8.717;56201.668
554.876;47798.211;   -7.457;55335.762
555.460;48099.945;  -10.387;54155.703
556.044;49258.559;   -9.618;53721.484
556.628;47711.305;  -11.567;53731.016
557.212;46226.918;   -8.097;54312.531
557.796;44702.242;  -11.077;53797.773
558.380;44352.621;  -11.108;56145.984
558.964;44811.289;   -9.057;57277.930
559.548;45702.000;   -6.977;56459.641
560.132;44291.418;  -11.457;54434.543
560.716;43227.848;  -11.378;54800.617
561.300;44530.184;   -9.577;57606.945
561.884;45654.949;   -7.127;58972.445
562.467;44163.883;   -7.118;57327.570
563.051;43074.469;  -13.358;54962.434
563.635;43740.059;  -10.178;52594.473
564.219;44469.688;   -7.837;50610.410
564.802;45386.188;  -11.398;49551.180
565.386;45341.367;  -12.788;48370.953
565.969;44776.828;   -9.077;48178.871
566.553;44588.352;   -6.207;49957.305
567.136;44694.754;   -8.568;50369.594
567.720;40603.926;  -11.868;49492.004
568.303;38771.004;   -8.268;50616.352
568.887;38996.824;   -8.698;50727.148
569.470;39069.047;   -6.808;51698.379
570.053;37565.266;  -13.188;52122.078
570.637;35985.137;  -12.037;52536.438
571.220;35673.418;   -8.577;51186.098
571.803;36008.629;   -8.498;51032.762
572.386;38473.363;  -10.498;49609.887
572.969;40887.375;   -9.388;48285.926
573.552;38903.453;   -8.338;47624.285
574.135;37758.797;   -8.518;45498.641
574.718;35350.508;  -13.628;41970.434
575.301;33968.168;  -10.893;41447.137
575.884;32585.824;   -8.158;40923.836
576.467;34080.680;  -10.328;45267.723
577.050;36654.188;  -13.058;48175.543
577.633;37963.273;   -9.458;47729.328
578.216;36670.293;   -8.928;47579.793
578.799;35690.754;   -9.358;47820.996
579.381;34241.410;  -11.388;48115.551
579.964;32784.449;  -11.718;47333.766
580.547;34493.172;   -8.588;46668.969
581.129;35777.145;   -8.859;44466.141
581.712;36393.223;  -10.729;44164.922
582.294;36948.387;  -11.118;46477.855
582.877;36713.371;   -5.218;48244.254
583.459;34200.543;   -8.679;47437.895
584.042;32475.682;  -10.709;46943.219
584.624;33530.863;  -11.669;46792.227
585.206;33090.402;   -8.218;46557.250
585.789;33370.313;  -10.569;45793.773
586.371;36106.770;  -11.859;43836.391
586.953;36327.445;  -10.719;42972.492
587.536;37517.070;   -7.198;42487.211
588.118;36952.750;   -8.720;42086.414
588.700;33792.484;  -10.439;43389.930
589.282;33199.164;   -9.198;43646.039
589.864;34154.449;   -9.199;43438.109
590.446;34852.285;  -11.319;43151.926
591.028;34450.398;  -11.159;42781.867
591.610;33594.168;  -11.779;42839.098
592.192;31370.143;   -7.668;42820.402
592.774;29963.008;  -11.949;40724.277
593.356;28785.830;  -12.129;39874.789
593.937;27938.180;  -10.669;39980.648
594.519;30243.383;   -6.509;42069.633
595.101;32224.461;  -10.849;42976.031
595.683;32257.988;  -11.679;44084.441
596.264;33458.527;   -9.049;43478.797
596.846;32512.838;   -8.849;43803.672
597.427;32114.475;   -9.570;42986.934
598.009;33724.969;  -12.620;42832.219
598.591;33893.445;  -10.039;42580.086
599.172;32752.314;  -10.369;43061.805
599.753;32805.855;   -9.140;41691.469
600.335;34566.426;  -11.430;40692.520
600.916;33198.484;   -9.939;39982.422
601.498;30787.295;   -8.479;40318.617
602.079;29400.096;  -10.920;40670.609
602.660;29687.973;  -11.480;41450.898
603.241;31128.527;  -11.699;41137.738
603.823;29848.689;   -9.579;38868.797
604.404;29922.691;  -10.620;38182.785
604.985;31198.279;  -10.450;38078.047
605.566;30553.443;   -9.129;38056.633
606.147;30752.221;   -7.510;37020.418
606.728;32543.166;  -10.660;37883.359
607.309;31186.250;  -11.740;38748.273
607.890;30495.561;   -9.759;38850.230
608.471;30114.785;   -8.250;37457.918
609.051;29204.615;   -9.240;36066.457
609.632;28279.293;  -12.120;35991.074
610.213;29223.813;   -9.110;37402.641
610.794;29727.209;   -8.030;38383.363
611.374;29285.701;   -8.110;40562.387
611.955;29657.594;  -13.560;38533.727
612.536;30830.963;  -11.400;36951.789
613.116;30941.395;   -8.070;37197.891
613.697;31141.918;  -10.830;38411.125
614.277;29860.193;  -11.641;38673.938
614.858;30820.199;  -13.310;37075.863
615.438;29776.949;   -7.460;35092.906
616.019;26755.521;   -7.601;33666.301
616.599;27471.207;  -12.020;34189.023
617.179;29362.613;  -11.780;36952.047
617.760;30174.992;   -8.570;39582.574
618.340;31192.461;  -11.471;38943.977
618.920;32501.721;  -11.170;37594.156
619.500;32482.607;  -11.071;37866.938
620.080;31770.934;   -7.750;37869.043
620.660;32978.809;  -12.711;36868.617
621.241;34395.945;  -10.211;36352.309
621.821;34467.805;  -10.961;35459.520
622.401;33361.789;   -7.720;35207.414
622.980;32558.414;   -8.981;35980.422
623.560;31152.045;   -9.331;37351.328
624.140;30255.303;   -9.850;34388.582
624.720;24970.557;   -7.451;32368.764
625.300;21458.389;   -9.070;32638.629
625.880;24838.037;  -12.601;34599.035
626.459;28923.512;  -11.751;36831.738
627.039;32157.398;   -9.281;38299.098
627.619;32050.957;   -8.801;38289.574
628.198;30295.256;  -12.071;37220.695
628.778;29282.246;   -9.461;37632.563
629.357;30004.537;   -8.491;38003.012
629.937;30146.852;   -9.721;38402.039
630.516;29626.385;   -9.951;37868.801
631.096;29183.146;  -11.731;35760.410
631.675;32396.740;   -8.572;35225.219
632.254;37382.277;  -11.282;35130.289
632.834;36678.648;  -13.322;35794.570
633.413;34572.102;  -10.301;35788.922
633.992;31338.174;   -8.582;34532.863
634.571;32369.402;   -8.352;33590.113
635.151;35138.391;  -11.912;34943.863
635.730;33522.047;  -10.511;35352.523
636.309;30330.760;   -7.731;35366.605
636.888;28273.051;   -9.952;36165.637
637.467;29414.566;  -11.672;37515.902
638.046;31093.266;   -8.901;39288.695
638.625;34201.758;   -7.912;38279.699
639.204;33758.094;  -10.022;37741.598
639.782;32019.549;  -12.252;38364.551
640.361;28049.021;  -10.041;36740.621
640.940;25198.590;  -11.161;34950.082
641.519;25923.242;   -9.701;34137.398
642.097;29073.109;  -11.271;35654.258
642.676;31804.650;   -8.651;35637.957
643.255;32208.645;   -8.711;36567.074
643.833;31370.289;   -9.581;37809.434
644.412;31630.623;  -13.711;37337.293
644.990;30957.449;  -11.811;37018.531
645.569;31433.990;   -9.411;36518.469
646.147;30189.504;  -10.291;36186.430
646.726;29303.869;  -12.401;36267.688
647.304;30207.803;  -10.411;36647.625
647.882;32356.146;   -9.651;39286.742
648.461;34130.637;   -9.631;39157.703
649.039;32134.363;  -11.881;35412.883
649.617;31427.277;   -9.661;34744.918
650.195;31251.744;   -9.301;35403.098
650.773;29758.035;  -10.511;35053.797
651.352;27514.404;  -11.521;33756.816
651.930;25383.547;  -12.211;31868.773
652.508;23798.924;   -9.171;33121.551
653.086;27787.369;   -9.371;33564.793
653.663;30356.988;  -13.161;34054.668
654.241;29573.506;  -13.031;35693.309
654.819;31340.592;   -9.371;36422.906
655.397;31296.934;  -10.511;38213.484
655.975;31169.520;  -10.371;39507.625
656.553;30661.443;  -10.051;39498.223
657.130;28940.771;  -10.061;40395.480
657.708;28473.344;   -9.561;39242.020
658.286;28405.385;  -11.511;38920.020
658.863;29527.707;  -10.261;40202.898
659.441;32747.973;   -7.531;39677.938
660.018;32145.066;   -9.501;40413.355
660.596;31053.424;  -13.301;39931.414
661.173;33125.270;  -11.211;39604.531
661.750;33253.234;   -9.951;39700.070
662.328;32405.410;   -9.390;39292.809
662.905;31405.098;  -11.330;38235.648
663.482;26562.201;   -9.050;36212.305
664.060;24762.822;   -8.240;35944.945
664.637;27832.814;  -10.050;35170.785
665.214;29836.561;  -11.760;34197.523
665.791;31137.875;  -10.530;34549.520
666.368;29678.908;   -9.690;35118.578
666.945;30707.688;   -9.320;36019.418
667.522;32288.309;  -11.860;36048.438
668.099;32171.605;  -10.770;36243.914
668.676;31023.932;   -6.260;35958.875
669.253;29456.602;   -7.000;37384.730
669.830;30121.168;  -10.190;36779.629
670.407;29881.686;   -9.550;35231.289
670.984;30110.223;   -9.260;35544.270
671.560;30351.822;   -9.280;35466.867
672.137;29216.125;  -11.810;34280.863
672.714;30047.281;  -11.490;34632.863
673.290;30467.736;   -7.740;35135.422
673.867;30994.033;  -10.660;36114.480
674.443;30562.668;  -12.230;36152.859
675.020;28737.133;  -10.450;35327.238
675.596;30012.262;   -9.260;35795.176
676.173;30568.131;  -10.780;35430.355
676.749;30532.463;  -13.690;33549.516
677.326;30678.059;  -11.980;32210.012
677.902;30637.236;   -8.630;32068.871
678.478;29842.023;  -10.730;32583.891
679.054;29381.072;  -10.520;32088.928
679.631;29605.582;  -11.920;30978.848
680.207;31126.561;   -7.490;33160.887
680.783;32696.211;   -9.860;35570.363
681.359;31739.568;  -13.380;36125.184
681.935;31063.912;  -12.480;35240.922
682.511;30075.123;   -7.900;34429.961
683.087;30267.525;   -7.710;34463.680
683.663;30115.287;  -11.480;34648.898
684.239;28783.889;  -14.090;34546.457
684.815;28370.117;   -7.560;35586.375
685.390;28802.850;   -9.910;35821.895
685.966;29196.336;  -11.159;35085.871
686.542;31690.098;  -11.169;34198.230
687.118;33732.500;   -5.959;32847.707
687.693;33719.121;  -10.329;32794.027
688.269;33326.113;  -12.059;33072.367
688.844;31289.758;  -10.909;33141.664
689.420;28914.666;   -8.019;33965.742
689.995;26600.725;   -8.399;34655.523
690.571;25455.572;  -10.949;33576.742
691.146;26065.320;   -9.619;32657.219
691.722;25523.838;   -8.999;32526.979
692.297;25947.521;  -11.589;33014.617
692.872;27893.656;  -11.739;34012.254
693.448;27197.324;  -11.059;34237.434
694.023;26449.971;  -10.139;34142.672
694.598;28490.779;   -9.029;34132.031
695.173;28600.281;  -13.319;34205.250
695.748;27884.076;  -10.169;32882.488
696.323;27678.525;   -8.339;32864.906
696.898;27919.877;   -8.169;33170.004
697.473;27846.631;  -12.309;32432.984
698.048;27372.881;  -10.989;31649.303
698.623;27596.293;   -9.329;30778.141
699.198;29784.098;   -9.849;31140.119
699.773;30497.086;  -12.329;31764.299
700.348;28787.939;  -10.389;31780.816
700.922;28682.574;   -9.269;32046.375
701.497;29223.059;   -9.329;32603.574
702.072;29206.434;  -10.789;34799.871
702.646;28085.314;  -10.839;35793.172
703.221;26427.322;   -9.099;35201.590
703.795;28340.328;  -10.939;34764.527
704.370;28548.732;  -12.859;34307.367
704.944;29155.020;  -11.559;33509.887
705.519;30235.625;   -7.939;31388.584
706.093;31721.824;  -10.499;31340.104
706.668;31642.850;  -11.289;32630.281
707.242;30585.969;  -11.509;32728.779
707.816;29082.379;   -9.639;32947.238
708.390;27509.879;  -11.429;33277.855
708.965;28365.918;  -11.869;33834.336
709.539;28942.521;  -11.689;33709.273
710.113;29370.453;  -10.478;33044.313
710.687;28388.467;  -10.228;31953.992
711.261;26455.021;  -13.698;30505.949
711.835;26455.895;  -13.378;30262.369
712.409;27542.805;   -9.698;31254.447
712.983;29294.178;  -11.898;32754.986
713.557;29974.094;  -15.138;34018.824
714.131;29669.213;  -14.098;34579.625
714.704;28907.982;   -9.958;33890.262
715.278;26733.645;  -10.028;33531.102
715.852;25927.379;  -11.148;33601.660
716.425;26747.752;   -9.068;33515.117
716.999;27375.086;  -10.038;33185.555
717.573;28453.941;   -9.798;33905.996
718.146;29525.703;  -12.378;35199.293
718.720;29164.283;  -11.918;35060.551
719.293;28553.654;   -8.088;34973.230
719.867;31441.080;  -10.888;36394.449
720.440;30790.172;  -11.938;36663.008
721.013;28994.025;  -12.818;35102.426
721.587;27813.912;  -10.298;33985.266
722.160;27031.375;  -10.048;33524.965
722.733;26083.641;  -12.108;32987.043
723.306;26452.695;  -10.818;33066.301
723.880;28642.848;   -8.908;33399.500
724.453;29989.322;   -9.878;33468.297
725.026;28920.639;  -11.188;33816.637
725.599;26768.166;  -11.678;32797.996
726.172;27701.838;   -9.618;33187.434
726.745;28908.971;   -8.258;35136.613
727.318;30267.443;  -12.978;35751.730
727.891;30136.059;  -12.148;35890.430
728.463;29440.607;   -8.968;34822.090
729.036;28597.537;  -10.188;32895.086
729.609;29139.656;  -11.788;31823.225
730.182;26174.598;  -11.788;31445.283
730.754;23827.238;  -10.268;32373.223
731.327;23928.994;   -9.998;33676.820
731.900;24440.631;  -12.228;33417.000
732.472;25895.836;  -13.848;31978.498
733.045;27622.537;   -8.698;30368.777
733.617;27698.150;  -10.607;30574.215
734.190;27074.645;  -11.507;31280.975
734.762;23817.998;  -13.647;31674.412
735.334;22331.234;   -9.767;31247.291
735.907;23290.557;   -9.897;29876.211
736.479;23255.766;  -11.637;29808.488
737.051;22823.252;   -9.567;30233.547
737.623;23825.738;   -8.187;31469.086
738.195;24920.914;  -11.187;31784.225
738.768;27004.457;  -12.337;32120.523
739.340;26677.699;  -12.227;32094.342
739.912;25222.586;  -11.057;31312.680
740.484;23927.766;  -10.207;31946.238
741.056;23106.717;  -10.047;32984.059
741.628;25013.855;  -13.627;33897.715
742.199;27361.527;   -7.177;33213.016
742.771;25609.379;  -10.797;31369.113
743.343;23109.064;  -11.997;31865.473
743.915;22150.445;  -12.867;32388.631
744.487;22353.438;   -7.617;31079.568
745.058;22430.592;   -9.557;30570.107
745.630;22715.924;   -9.877;29970.127
746.201;23139.961;  -14.177;29186.766
746.773;23238.447;   -9.237;28805.723
747.344;23228.516;   -9.847;29591.223
747.916;22256.395;  -11.657;31412.201
748.487;22794.473;  -10.587;32194.898
749.059;24002.799;   -8.707;32533.719
749.630;24705.430;  -10.537;32158.518
750.201;23921.598;  -11.687;30855.395
750.773;22196.086;  -11.647;28622.555
751.344;22218.174;   -7.147;28405.732
751.915;23386.629;   -9.757;28461.551
752.486;22876.762;  -12.427;27842.850
753.057;20666.309;  -12.227;27845.008
753.628;19640.240;  -10.417;27728.107
754.199;20916.002;  -11.767;27381.086
754.770;21859.145;  -11.187;25882.203
755.341;21770.627;  -10.507;25886.184
755.912;21638.654;   -9.387;26050.861
756.483;21081.783;  -10.647;26798.779
757.054;19239.543;  -11.837;27048.238
757.625;17982.850;  -12.716;26294.838
758.195;17897.990;   -9.666;26142.076
758.766;17731.025;   -8.656;26392.234
759.337;18555.672;  -12.856;26334.594
759.907;20371.033;  -13.366;27579.652
760.478;21196.336;   -8.576;28352.770
761.048;20348.035;  -10.526;27325.088
761.619;19463.547;  -11.116;26460.428
762.189;19638.502;  -12.136;26029.826
762.760;21020.949;   -9.456;26430.145
763.330;21943.586;   -7.136;26670.902
763.900;21159.273;  -11.786;26603.021
764.471;18458.037;  -11.546;25542.740
765.041;17154.645;   -8.096;24358.459
765.611;17250.506;   -8.876;23991.297
766.181;17752.611;  -12.196;24470.236
766.751;18749.010;  -11.636;24845.975
767.321;18352.082;  -10.156;24533.633
767.891;16224.794;  -11.766;24916.492
768.461;15753.767;  -14.936;24776.771
769.031;16346.386;  -12.356;24757.988
769.601;17833.068;   -7.526;24181.088
770.171;17633.516;  -10.766;23670.387
770.741;17119.910;  -13.176;22960.045
771.311;17491.090;  -10.616;22917.523
771.880;17725.814;   -9.576;23562.941
772.450;17351.547;  -10.336;24216.500
773.020;17481.053;  -13.516;24140.398
773.589;16863.121;  -13.466;24414.857
774.159;16221.459;   -8.686;23858.717
774.729;15816.796;   -9.476;22942.135
775.298;15289.438;  -13.666;22324.033
775.867;14874.568;  -11.716;21140.313
776.437;14830.870;   -9.906;20838.092
777.006;14550.390;  -12.166;20599.510
777.576;14506.384;  -12.356;20508.809
778.145;14772.141;  -11.646;20732.947
778.714;14658.651;   -8.226;21062.465
779.283;13910.349;   -9.556;20949.664
779.853;13503.379;  -14.116;20508.623
780.422;13985.935;  -11.506;20649.082
780.991;13556.326;   -9.556;21527.520
781.560;12402.437;   -9.095;22632.658
782.129;12207.565;  -12.135;23048.277
782.698;12199.132;  -10.865;23438.555
783.267;11798.607;   -9.335;23267.734
783.836;11836.559;  -11.045;22415.133
784.404;12911.182;  -13.865;20443.152
784.973;13407.775;  -13.095;19699.150
785.542;13356.465;  -11.575;19763.828
786.111;13279.686;   -9.705;20341.408
786.679;12718.138;  -12.105;20207.967
787.248;12445.193;  -12.455;19516.465
787.817;12212.520;  -11.535;18900.363
788.385;11719.941;   -9.765;17879.121
788.954;11096.795;  -14.005;17658.301
789.522;10628.599;  -11.955;17788.879
790.090;11205.813;  -10.135;18118.277
790.659;11537.721;  -10.975;18338.736
791.227;11022.510;  -13.375;18508.615
791.795;11528.548;  -12.375;17898.254
792.364;11823.309;  -10.725;17295.133
792.932;12022.229;   -9.715;16822.051
793.500;12247.937;  -12.675;17040.148
794.068;12567.915;  -13.495;17179.787
794.636;12656.886;  -10.885;16664.246
795.204;12142.068;  -11.045;16524.545
795.772;12201.046;  -13.175;17274.564
796.340;11701.038;  -12.445;17891.002
796.908;11548.826;   -9.735;17648.561
797.476;11438.666;   -9.815;17064.080
798.044;10994.018;  -13.985;16672.777
798.612;10181.040;  -13.115;17023.996
799.180; 9786.104;  -10.185;16561.615
799.747; 9711.895;   -9.055;15962.773
800.315; 9431.920;  -12.385;15296.992
800.883; 9045.177;  -15.035;14801.771
801.450; 9011.783;  -10.365;14534.430
802.018; 9065.688;   -9.855;14173.248
802.585; 9233.839;  -11.905;14029.547
803.153; 9337.747;  -11.585;13836.846
803.720; 9189.450;   -9.095;13567.324
804.287; 8736.327;   -9.135;13360.622
804.855; 8319.302;  -11.604;13681.981
805.422; 8192.696;  -11.794;13536.560
805.989; 8170.359;  -10.734;13355.958
806.556; 8393.596;  -10.444;13747.896
807.124; 8701.206;  -12.764;13987.376
807.691; 8668.242;  -12.964;14038.674
808.258; 8409.869;  -11.134;14120.152
808.825; 8005.999;   -9.854;13860.111
809.392; 8051.127;  -10.504;13268.790
809.959; 7627.899;  -13.054;12680.389
810.526; 7254.355;   -8.294;12427.308
811.093; 7315.689;   -8.394;12030.105
811.659; 7849.784;  -12.304;11653.664
812.226; 8264.436;  -13.944;11637.183
812.793; 7894.768;  -10.484;11611.521
813.360; 7251.496;  -10.144;11885.181
813.926; 6963.503;  -11.684;12770.539
814.493; 6775.660;  -13.644;12677.638
815.060; 6421.142;   -9.724;11974.336
815.626; 6480.928;   -9.854;11594.715
816.193; 6898.771;  -13.254;11579.474
816.759; 6908.939;  -13.204;11666.972
817.325; 7008.903;   -9.434;11325.530
817.892; 7411.560;  -10.134;11105.369
818.458; 7824.969;  -13.474;10843.928
819.024; 7385.851;  -11.854;10714.406
819.591; 7063.251;  -10.244;10469.165
820.157; 6867.426;  -10.704;10235.523
820.723; 6379.583;  -12.324;10847.563
821.289; 6071.840;   -9.444;11040.980
821.855; 5929.455;   -8.374;10357.100
822.421; 5821.440;  -10.234; 9978.918
822.987; 5776.855;  -13.294; 9754.177
823.553; 5512.121;  -10.884;10065.755
824.119; 5382.229;   -8.884;10036.294
824.685; 5457.483;   -6.784;10029.192
825.251; 5535.849;  -12.004;10199.230
825.816; 5516.728;  -11.474; 9820.189
826.382; 5323.456;   -9.174; 9297.248
826.948; 5577.896;   -9.214; 9381.347
827.513; 5921.511;  -10.774; 9450.726
828.079; 5688.864;  -11.924; 9472.444
828.645; 5143.816;  -10.543; 9292.643
829.210; 5119.284;  -10.533; 9065.341
829.776; 5096.362;  -10.753; 9132.620
830.341; 4960.260;  -10.173; 9092.878
830.906; 5157.520;  -10.743; 9078.557
831.472; 5476.175;  -11.113; 8534.535
832.037; 5155.413;  -10.603; 8677.874
832.602; 4573.388;  -13.323; 8628.692
833.167; 4322.755;  -10.823; 8879.031
833.733; 4272.267;  -10.113; 9189.790
834.298; 4393.463;  -13.583; 9052.608
834.863; 4434.390;  -12.703; 8895.087
835.428; 4423.160;  -10.523; 8824.266
835.993; 4322.820;   -6.963; 8845.385
836.558; 4198.309;  -10.763; 8888.563
837.123; 4359.209;   -9.903; 8966.582
837.688; 4578.220;   -9.913; 8617.860
838.253; 4781.396;  -10.283; 8590.699
838.817; 4986.454;  -12.963; 8443.797
839.382; 4902.811;  -14.243; 8799.356
839.947; 4590.300;  -10.733; 8810.595
840.511; 4276.162;   -9.383; 8796.394
841.076; 3904.117;  -12.563; 8347.231
841.641; 3986.980;  -12.953; 8224.330
842.205; 4078.410;   -7.043; 8223.349
842.770; 4214.946;   -8.163; 8622.107
843.334; 4418.412;  -12.503; 8410.386
843.898; 4393.619;  -11.693; 8337.465
844.463; 4411.699;  -10.203; 8506.283
845.027; 4167.606;   -9.533; 8280.962
845.591; 3974.259;  -13.443; 8231.141
846.156; 3928.183;  -13.143; 7969.179
846.720; 3814.188;   -9.433; 7768.278
847.284; 3678.318;  -11.033; 7630.957
847.848; 3543.172;  -10.403; 7472.395
848.412; 3439.326;  -11.553; 7437.394
848.976; 3474.164;   -8.393; 7674.592
849.540; 3435.639;   -8.713; 7836.011
850.104; 3580.972;  -12.463; 7913.669
850.668; 3921.967;  -12.973; 7694.508
851.232; 3996.726;  -10.793; 7756.887
851.796; 3830.527;  -10.662; 7926.545
852.359; 3539.942;  -13.082; 7827.844
852.923; 3393.636;  -12.192; 7641.163
853.487; 3225.150;  -11.912; 7342.501
854.050; 3171.217;  -10.892; 7042.820
854.614; 3284.897;  -13.992; 7151.338
855.177; 3389.276;  -11.732; 7105.077
855.741; 3418.432;   -8.962; 6989.675
856.304; 3321.828;   -9.442; 6596.634
856.868; 3274.040;  -14.192; 6356.272
857.431; 3386.883;  -12.702; 6468.571
857.995; 3514.001;   -9.942; 6373.210
858.558; 3520.011;   -9.112; 6324.448
859.121; 3248.877;  -12.932; 6408.327
859.684; 3136.193;  -13.442; 6347.886
860.247; 3238.675;  -10.632; 6321.264
860.810; 3210.176;  -11.272; 6301.903
861.374; 2945.484;   -9.832; 6607.881
861.937; 2692.375;  -11.762; 6408.200
862.500; 2697.656;   -9.722; 6572.639
863.062; 2892.203;  -10.512; 6387.297
863.625; 3068.029;  -11.232; 6190.836
864.188; 3235.306;  -14.112; 5807.254
864.751; 3302.092;  -11.302; 5682.413
865.314; 3181.106;  -10.112; 5547.492
865.876; 2980.957;  -12.182; 5500.150
866.439; 2980.824;  -10.722; 5415.909
867.002; 2916.972;   -9.252; 5501.567
867.564; 2693.075;   -9.572; 5413.946
868.127; 2454.596;  -13.142; 5160.325
868.689; 2350.049;  -12.902; 5133.183
869.252; 2243.794;   -9.732; 5252.382
869.814; 2149.015;   -9.432; 5297.141
870.377; 2172.563;  -11.552; 5390.919
870.939; 2254.879;   -9.052; 5599.898
871.501; 2316.538;  -10.982; 5248.336
872.063; 2314.548;  -12.292; 4854.235
872.626; 2279.930;  -14.912; 4817.074
873.188; 2320.793;  -13.112; 4987.732
873.750; 2288.248;  -13.442; 4868.651
874.312; 2201.423;   -9.402; 4779.330
874.874; 2107.713;  -11.062; 4866.348
875.436; 2011.232;  -13.931; 4718.887
875.998; 2003.719;   -9.561; 4660.005
876.560; 2028.705;  -11.321; 4462.964
877.122; 1978.306;  -12.221; 4145.042
877.683; 1896.901;  -12.191; 4056.481
878.245; 1827.736;  -12.101; 3950.740
878.807; 1867.702;   -8.971; 4058.958
879.369; 1892.195;  -12.071; 3954.677
879.930; 1794.769;  -14.621; 3941.495
880.492; 1736.774;  -10.311; 4067.014
881.053; 1691.901;  -10.901; 3859.633
881.615; 1583.651;  -14.411; 3776.071
882.176; 1532.021;  -13.761; 3734.750
882.738; 1560.269;   -9.181; 3678.489
883.299; 1607.042;  -11.791; 3405.407
883.860; 1621.888;  -13.121; 3351.106
884.422; 1482.856;  -11.211; 3394.044
884.983; 1159.364;  -10.091; 3166.443
885.544;  824.514;   -8.461; 3189.802
886.105;  650.803;  -12.361; 3160.360
886.666;  625.668;  -14.141; 3093.059
887.227;  651.705;  -11.361; 2941.957
887.788;  666.060;  -11.401; 2974.836
888.349;  668.810;  -13.791; 2721.214
888.910;  698.876;  -13.191; 2696.493
889.471;  729.044;   -9.881; 2560.172
890.032;  730.448;   -9.881; 2558.190
890.593;  726.761;  -10.371; 2567.669
891.153;  715.224;  -13.301; 2460.307
891.714;  681.018;  -11.431; 2372.046
892.275;  648.948;  -11.291; 2309.505
892.835;  616.335;  -11.471; 2382.543
893.396;  568.695;  -11.541; 2295.502
893.956;  519.473;  -11.181; 2162.420
894.517;  490.836;  -11.741; 2125.439
895.077;  490.857;  -11.671; 2086.978
895.638;  493.050;  -11.311; 2126.316
896.198;  468.258;   -9.831; 1838.275
896.758;  429.771;   -8.421; 1892.813
897.319;  401.988;  -12.351; 1792.232
897.879;  386.654;  -13.511; 1762.751
898.439;  362.738;  -12.001; 1661.149
898.999;  340.176;  -10.180; 1781.468
899.559;  332.977;  -12.030; 1703.347
900.119;  327.903;  -15.710; 1537.525
900.679;  324.756;   -8.900; 1638.384
901.239;  311.287;   -8.340; 1527.902
901.799;  302.931;  -13.910; 1456.441
902.359;  297.481;  -13.460; 1357.140
902.919;  291.124;  -11.490; 1331.118
903.479;  279.329;  -12.110; 1317.257
904.038;  260.111;  -11.720; 1262.595
904.598;  244.956;  -13.610; 1152.034
905.158;  241.806;  -11.040; 1240.893
905.717;  234.906;  -10.900; 1233.691
906.277;  222.961;  -15.080; 1217.330
906.836;  213.205;  -13.380; 1222.408
907.396;  205.106;  -10.780; 1193.047
907.955;  198.661;   -8.500; 1182.526
908.515;  189.324;  -12.760; 1099.364
909.074;  180.856;  -11.900; 1092.863
909.633;  174.742;   -8.950; 1069.121
910.192;  171.388;   -8.770; 1196.460
910.752;  168.421;  -12.390; 1029.960
911.311;  165.187;  -13.680; 1009.780
911.870;  163.426;  -12.370;  971.460
912.429;  165.468;  -10.900; 1094.080
912.988;  165.522;  -11.690; 1081.060
913.547;  159.724;  -13.240;  940.380
914.106;  154.708;  -11.990;  999.420
914.665;  152.329;   -9.990;  984.020
915.224;  152.527;  -12.880; 1035.760
915.782;  152.197;  -12.350;  922.560
916.341;  152.061;   -9.110; 1049.840
916.900;  147.847;   -9.270;  925.260
917.458;  145.791;  -13.240;  884.220
918.017;  145.033;  -13.550;  942.600
918.576;  145.399;  -12.320;  904.440
919.134;  143.255;  -11.490;  837.980
919.693;  140.846;  -13.670;  893.060
920.251;  139.241;  -15.470;  876.500
920.809;  137.992;  -11.290;  839.580
921.368;  138.369;  -10.210;  885.360
921.926;  137.195;  -12.140;  842.940
922.484;  135.272;  -13.080;  903.360
923.042;  135.159;  -11.720;  880.340
923.601;  138.573;   -7.480;  998.680
924.159;  137.110;  -11.570;  935.560
924.717;  132.695;  -13.840;  841.080
925.275;  133.403;  -10.640;  903.240
925.833;  134.182;  -11.540;  779.320
926.391;  133.900;  -12.960;  938.380
926.949;  131.771;  -14.130;  857.680
927.506;  132.205;  -11.750;  903.500
928.064;  132.847;  -10.250;  877.580
928.622;  132.674;  -13.030;  880.100
929.180;  131.986;  -13.400;  814.180
929.737;  133.424;  -10.700;  808.540
930.295;  137.044;  -10.070;  928.480
930.853;  138.732;  -11.960;  849.100
931.410;  138.734;  -13.120;  821.120
931.968;  138.423;  -10.770;  940.660
932.525;  138.032;  -10.680;  909.380
933.082;  139.371;  -13.130;  811.440
933.640;  139.733;  -13.210;  925.900
934.197;  136.516;  -11.060;  886.360
934.754;  138.080;   -9.580;  897.780
935.312;  142.194;  -14.000;  863.340
935.869;  145.906;  -10.710; 1012.980
936.426;  146.674;   -9.860;  872.800
936.983;  147.374;   -9.710;  889.020
937.540;  146.364;  -13.990;  838.280
938.097;  144.374;  -14.040;  940.120
938.654;  144.871;  -10.310;  898.860
939.211;  148.434;  -10.560;  952.480
939.768;  151.183;  -13.900;  915.420
940.324;  153.869;  -14.760;  904.200
940.881;  154.483;  -10.370;  878.500
941.438;  156.087;   -8.260; 1021.200
941.995;  151.909;  -12.540;  992.560
942.551;  149.516;  -14.670;  875.620
943.108;  150.150;  -10.450;  937.920
943.664;  152.660;  -10.750;  869.340
944.221;  155.799;  -11.550; 1088.140
944.777;  153.958;  -14.770;  869.680
945.334;  155.371;  -12.820;  884.840
945.890;  155.192;  -10.130;  946.480
946.446;  155.868;  -13.470;  947.020
947.003;  158.159;  -12.120;  964.940
947.559;  160.439;   -9.980; 1063.040
948.115;  159.656;   -9.080; 1026.540
948.671;  157.542;  -10.830;  967.300
949.227;  156.372;  -12.440;  859.560
949.783;  152.580;  -12.910;  858.900
950.339;  154.776;  -10.270;  991.000
950.895;  154.905;  -13.630; 1023.840
951.451;  154.670;  -15.100;  925.280
952.007;  154.621;  -11.330;  998.540
952.563;  154.870;  -10.580;  937.780
953.118;  153.231;  -13.440;  904.940
953.674;  152.846;  -12.710;  935.780
954.230;  152.954;  -10.350;  949.640
954.785;  150.513;   -9.190;  936.640
955.341;  148.785;  -11.200;  998.160
955.897;  146.281;  -16.560;  834.660
956.452;  147.937;  -12.570;  953.840
957.008;  146.862;   -7.970; 1083.640
957.563;  144.829;  -11.940; 1009.540
958.118;  140.391;  -13.450;  877.700
958.674;  141.122;  -12.030;  946.780
959.229;  142.036;   -9.410; 1013.980
959.784;  139.877;  -12.000;  832.400
960.339;  138.750;  -14.780; 1001.280
960.894;  135.003;   -9.860;  963.760
961.449;  130.989;   -9.970;  859.960
962.004;  130.958;  -10.900; 1212.840
962.559;  124.894;  -13.150;  860.140
963.114;  123.033;  -13.740;  742.480
963.669;  122.738;   -9.820;  915.500
964.224;  121.563;  -13.890;  874.340
964.779;  120.211;  -12.600;  828.420
965.334;  120.941;  -10.950; 1017.860
965.888;  120.875;  -11.170;  875.360
966.443;  123.752;  -12.540;  972.380
966.998;  122.284;  -15.780;  819.460
967.552;  121.401;   -9.760;  908.380
968.107;  117.681;   -9.060;  868.300
968.661;  118.248;  -11.950;  922.440
969.216;  119.529;  -12.800;  856.280
969.770;  119.884;  -11.210;  917.200
970.324;  118.916;  -11.610;  923.140
970.879;  115.402;  -11.370;  947.180
971.433;  112.045;  -12.540;  952.720
971.987;  106.570;  -11.320;  895.340
972.541;  103.852;  -10.720;  917.100
973.095;  103.855;   -9.680; 1009.460
973.649;  102.278;  -11.440;  809.480
974.203;  101.794;  -11.210;  829.040
974.757;  101.355;  -10.240;  855.220
975.311;  101.386;  -13.720;  872.600
975.865;  100.154;  -13.770;  881.820
976.419;   98.827;  -11.690;  857.400
976.973;   98.612;   -9.510;  849.620
977.526;  101.233;  -12.620;  949.920
978.080;  100.002;  -12.010;  796.780
978.634;  101.871;  -10.170;  921.320
979.187;   97.543;   -9.020;  905.400
979.741;   95.976;   -9.820; 1018.380
980.294;   90.239;  -14.870;  789.160
980.848;   88.804;  -12.380;  717.220
981.401;   91.270;  -10.350;  816.540
981.955;   93.239;  -13.720;  844.300
982.508;   92.594;  -11.490;  746.340
983.061;   91.945;  -10.000;  915.260
983.615;   88.769;  -11.480;  798.800
984.168;   85.932;  -13.220;  770.080
984.721;   84.886;  -13.960;  880.760
985.274;   83.682;  -10.870;  867.500
985.827;   83.114;   -9.790;  834.220
986.380;   80.850;  -13.120;  721.340
986.933;   80.726;  -12.450;  864.800
987.486;   77.720;  -10.210;  861.920
988.039;   77.372;   -8.430;  863.100
988.591;   75.234;  -10.520;  893.260
989.144;   71.990;  -14.860;  737.260
989.697;   71.237;  -13.080;  758.740
990.250;   72.703;  -10.150;  858.100
990.802;   71.211;  -13.430;  755.860
991.355;   72.696;  -12.750;  974.880
991.907;   70.416;  -12.040;  864.320
992.460;   68.136;  -11.330;  753.760
993.012;   66.717;  -13.610;  749.540
993.565;   66.176;  -13.460;  711.360
994.117;   67.730;   -9.360;  950.780
994.669;   63.848;  -11.300;  701.320
995.221;   62.089;  -13.540;  791.920
995.774;   59.940;  -13.430;  787.580
996.326;   58.654;  -12.520;  740.220
996.878;   58.587;  -10.950;  838.420
997.430;   57.529;  -14.300;  699.860
997.982;   55.728;  -13.760;  750.140
998.534;   55.044;  -11.530;  739.060
999.086;   53.838;  -10.310;  738.220
999.638;   53.044;  -12.530;  661.380
1000.190;   52.644;  -11.840;  699.320
1000.741;   52.026;  -10.260;  742.700
1001.293;   51.706;   -8.860;  686.020
1001.845;   50.019;  -13.700;  676.640
1002.396;   49.975;  -12.100;  743.400
1002.948;   49.415;  -12.760;  737.400
1003.500;   47.647;  -10.380;  723.780
1004.051;   48.947;  -11.900;  907.580
1004.603;   46.931;  -12.250;  791.820
1005.154;   43.461;  -13.210;  608.980
1005.705;   42.612;  -10.950;  723.960
1006.257;   41.998;  -13.880;  707.220
1006.808;   41.409;  -12.840;  685.460
1007.359;   40.687;  -10.570;  763.240
1007.910;   39.420;   -9.620;  646.640
1008.461;   40.306;  -13.630;  732.940
1009.013;   38.682;  -17.200;  588.340
1009.564;   39.457;  -10.200;  793.520
1010.115;   38.062;  -12.570;  597.040
1010.665;   38.077;  -15.150;  602.160
1011.216;   37.523;  -14.480;  667.920
1011.767;   37.038;  -11.340;  697.920
1012.318;   36.724;   -9.780;  736.980
1012.869;   35.824;  -12.380;  679.000
1013.419;   35.696;  -15.560;  603.120
1013.970;   35.031;  -11.010;  666.640
1014.521;   34.811;  -11.610;  620.620
1015.071;   35.771;  -13.450;  670.380
1015.622;   35.026;  -13.870;  635.460
1016.172;   33.902;  -11.610;  596.820
1016.723;   34.246;  -12.120;  614.380
1017.273;   33.558;  -13.620;  604.160
1017.823;   33.865;  -14.140;  650.340
1018.374;   32.787;  -12.800;  611.760
1018.924;   32.912;  -12.340;  716.880
1019.474;   33.615;  -11.410;  718.880
1020.024;   31.944;  -14.770;  657.580
1020.574;   32.883;   -9.780;  726.160
1021.124;   33.063;   -8.560;  673.580
1021.674;   31.907;  -15.190;  559.120
1022.224;   32.440;  -13.530;  708.940
1022.774;   32.489;  -13.280;  668.820
1023.324;   32.064;  -10.690;  753.520
1023.874;   33.664;  -10.240;  875.760
1024.423;   30.879;  -12.540;  613.700
1024.973;   30.337;  -10.010;  610.760
1025.523;   30.032;  -10.550;  620.960
1026.072;   30.185;  -13.560;  606.420
1026.622;   29.437;  -15.120;  675.740
1027.172;   30.533;  -11.260;  715.660
1027.721;   28.857;  -11.410;  601.220
1028.270;   30.479;  -13.530;  663.400
1028.820;   29.279;  -13.680;  638.080
1029.369;   28.628;  -13.520;  612.700
1029.918;   28.953;  -10.980;  649.840
1030.468;   28.715;  -13.530;  564.780
1031.017;   29.050;  -13.170;  634.800
1031.566;   27.776;  -12.200;  608.900
1032.115;   28.275;   -9.960;  694.500
1032.664;   27.167;  -13.210;  596.480
1033.213;   28.110;  -12.500;  735.420
1033.762;   27.195;  -11.910;  635.620
1034.311;   27.477;   -9.640;  677.220
1034.860;   27.690;  -13.310;  691.000
1035.408;   28.359;  -11.830;  722.720
1035.957;   27.880;  -12.000;  719.540
1036.506;   26.136;  -11.690;  530.800
1037.055;   27.823;  -10.990;  844.320
1037.603;   26.238;  -15.120;  664.000
1038.152;   24.866;  -12.450;  534.760
1038.700;   25.270;  -10.560;  585.740
1039.249;   25.553;  -11.080;  681.220
1039.797;   25.792;  -12.540;  633.360
1040.345;   25.270;  -11.920;  705.420
1040.894;   25.018;  -11.410;  625.300
1041.442;   25.417;  -14.320;  632.200
1041.990;   23.866;  -16.240;  559.160
1042.538;   23.448;  -11.680;  536.180
1043.087;   23.710;  -10.760;  570.860
1043.635;   24.963;  -11.850;  670.500
1044.183;   24.118;  -15.480;  586.400
1044.731;   23.095;  -11.770;  576.000
1045.279;   22.832;  -13.090;  674.920
1045.827;   25.566;  -12.440;  892.400
1046.374;   22.174;  -13.840;  515.420
1046.922;   22.076;  -13.220;  590.580
1047.470;   23.982;  -10.230;  691.300
1048.018;   22.851;  -14.590;  647.960
1048.565;   23.554;  -12.050;  708.600
1049.113;   22.372;  -11.650;  557.000
1049.660;   22.938;  -10.510;  629.660
1050.208;   22.842;  -13.310;  675.640
1050.755;   20.971;  -15.900;  606.580
1051.303;   22.537;  -11.430;  686.820
1051.850;   21.220;   -8.480;  635.120
1052.397;   20.826;  -15.010;  473.960
1052.945;   21.023;  -13.960;  617.760
1053.492;   22.121;  -13.150;  741.840
1054.039;   22.320;   -9.630;  720.180
1054.586;   20.758;  -13.680;  557.240
1055.133;   21.403;  -14.570;  693.140
1055.680;   20.329;  -13.820;  646.620
1056.227;   20.074;  -11.730;  542.780
1056.774;   21.491;  -12.480;  794.980
1057.321;   19.661;  -13.930;  523.260
1057.868;   20.080;  -11.690;  651.320
1058.415;   19.629;   -9.520;  651.980
1058.961;   20.372;  -13.160;  678.940
1059.508;   19.722;  -12.920;  643.820
1060.055;   19.711;  -11.920;  581.780
1060.601;   20.172;  -11.500;  624.300
1061.148;   20.066;  -14.330;  616.820
1061.694;   18.697;  -16.870;  592.580
1062.241;   18.986;  -10.330;  596.320
1062.787;   18.851;  -10.620;  663.140
1063.334;   21.213;  -10.110;  808.560
1063.880;   18.524;  -13.400;  668.360
1064.426;   18.681;  -10.680;  706.820
1064.972;   17.950;   -9.920;  601.340
1065.518;   17.115;  -10.980;  566.640
1066.065;   18.774;  -14.890;  624.460
1066.611;   17.673;  -12.870;  598.800
1067.157;   17.994;  -12.950;  641.860
1067.703;   17.789;  -13.540;  668.480
1068.249;   17.860;  -13.540;  605.220
1068.794;   17.576;  -12.600;  626.880
1069.340;   16.714;  -10.620;  578.960
1069.886;   17.748;  -12.830;  590.700
1070.432;   16.000;  -14.870;  541.720
1070.977;   16.409;  -11.980;  601.080
1071.523;   16.570;   -8.200;  573.060
1072.068;   17.150;  -12.330;  582.000
1072.614;   16.024;  -16.370;  527.760
1073.160;   17.084;  -11.100;  687.040
1073.705;   15.764;  -10.480;  572.520
1074.250;   16.196;  -14.520;  559.900
1074.796;   16.341;  -11.460;  655.160
1075.341;   16.034;  -11.950;  664.100
1075.886;   15.530;  -11.460;  594.240
1076.431;   15.622;  -13.770;  649.880
1076.976;   15.553;  -12.680;  639.220
1077.521;   15.177;  -13.170;  583.080
1078.067;   14.445;  -10.860;  579.400
1078.612;   15.141;  -13.920;  661.620
1079.156;   14.685;  -13.880;  601.540
1079.701;   15.993;  -13.120;  693.260
1080.246;   15.333;   -9.940;  696.300
1080.791;   15.086;  -14.740;  625.020
1081.336;   15.015;  -13.750;  659.320
1081.880;   14.326;  -13.400;  649.680
1082.425;   13.106;  -12.220;  573.480
1082.970;   15.273;  -11.610;  717.040
1083.514;   13.490;  -13.580;  597.000
1084.059;   12.592;  -12.810;  586.720
1084.603;   13.013;  -12.320;  565.840
1085.147;   14.108;  -13.190;  645.220
1085.692;   14.146;  -12.480;  716.800
1086.236;   11.192;  -13.020;  503.140
1086.780;   14.795;   -9.190;  751.440
1087.325;   13.060;  -12.480;  654.620
1087.869;   13.258;  -12.450;  610.700
1088.413;   13.845;  -12.240;  705.040
1088.957;   12.087;   -9.020;  543.400
1089.501;   13.967;  -10.320;  766.640
1090.045;   13.039;  -12.720;  726.480
1090.589;   10.788;  -13.690;  569.920
1091.133;   12.616;  -10.020;  673.340
1091.676;   12.832;  -12.330;  591.940
1092.220;   12.052;  -14.970;  600.920
1092.764;   12.447;  -12.430;  706.960
1093.307;   12.192;   -9.800;  673.780
1093.851;   11.335;  -14.970;  556.540
1094.395;   12.148;  -15.310;  683.140
1094.938;   11.056;  -10.370;  632.520
1095.482;   11.610;  -11.050;  559.800
1096.025;   12.290;  -11.840;  710.880
1096.568;   12.386;  -12.840;  779.280
1097.112;   10.164;  -14.700;  508.180
1097.655;   11.656;   -8.720;  603.000
1098.198;   10.289;  -13.610;  600.180
1098.741;   10.337;  -13.350;  612.860
1099.285;   11.298;  -11.230;  657.300
1099.828;    9.080;  -11.840;  439.400
1100.371;   10.092;  -10.840;  608.160
1100.914;   10.227;  -14.190;  682.660
1101.457;   10.437;  -11.240;  679.900
1101.999;    9.558;  -11.270;  584.680
1102.542;   10.157;  -11.480;  641.440
1103.085;    9.177;  -11.750;  658.500
1103.628;   10.597;  -11.400;  762.060
1104.170;    9.078;  -10.490;  588.280
1104.713;   10.249;  -10.600;  646.700
1105.256;    9.022;  -14.360;  557.440
1105.798;    7.577;  -13.210;  499.980
1106.341;    9.853;  -10.270;  728.900
1106.883;    8.902;  -12.200;  521.340
1107.425;    8.839;  -13.110;  668.180
1107.968;    8.986;  -12.840;  612.380
1108.510;    8.784;   -6.480;  684.960
1109.052;    8.444;  -13.940;  612.620
1109.594;    8.708;  -13.690;  554.440
1110.136;    9.495;  -11.880;  643.220
1110.679;    8.097;   -9.500;  633.080
1111.221;    7.724;  -14.160;  604.460
1111.763;    7.949;  -13.980;  559.220
1112.304;    7.575;  -13.880;  547.140
1112.846;    8.337;  -12.210;  666.240
1113.388;   10.557;  -11.390;  942.180
1113.930;    8.018;  -14.540;  694.200
1114.472;    7.234;  -12.640;  606.540
1115.013;    6.022;  -11.620;  551.280
1115.555;    6.563;  -13.640;  587.100
1116.097;    6.277;  -15.380;  579.480
1116.638;    7.420;  -12.640;  684.600
1117.180;    7.707;   -9.850;  667.740
1117.721;    7.397;  -13.690;  568.580
1118.262;    7.702;  -12.680;  677.960
1118.804;    7.136;  -12.530;  637.340
1119.345;    5.700;  -11.690;  578.400
1119.886;    7.625;  -13.380;  704.040
1120.427;    5.806;  -14.070;  589.020
1120.969;    5.155;  -13.500;  597.920
1121.510;    5.242;  -11.480;  563.060
1122.051;    7.035;  -12.830;  723.580
1122.592;    5.641;  -14.290;  655.420
1123.133;    4.366;  -12.400;  547.940
1123.673;    6.308;  -10.130;  706.480
1124.214;    5.890;  -12.930;  612.460
1124.755;    6.145;  -14.380;  639.460
1125.296;    5.734;  -14.000;  627.320
1125.836;    5.979;  -10.070;  691.500
1126.377;    5.147;  -12.640;  599.660
1126.918;    5.729;  -12.960;  614.980
1127.458;    5.311;  -13.350;  622.220
1127.999;    5.581;  -10.750;  656.980
1128.539;    5.752;  -12.350;  694.240
1129.079;    4.684;  -14.860;  632.720
1129.620;    4.074;  -13.840;  558.100
1130.160;    4.054;  -12.330;  539.480
1130.700;    5.549;  -14.530;  640.840
1131.240;    5.595;  -12.530;  643.700
1131.781;    4.569;  -14.450;  619.680
1132.321;    4.542;   -9.790;  599.120
1132.861;    3.235;  -14.860;  564.200
1133.401;    3.943;  -14.290;  593.940
1133.941;    4.249;  -11.750;  626.280
1134.481;    3.436;   -9.920;  597.580
1135.020;    4.020;  -12.290;  609.160
1135.560;    3.971;  -11.650;  674.940
1136.100;    3.539;  -16.270;  501.160
1136.640;    2.775;  -10.890;  510.480
1137.179;    3.532;  -14.180;  537.960
1137.719;    3.519;  -16.250;  605.400
1138.258;    3.346;  -14.230;  587.360
1138.798;    3.541;   -9.090;  663.780
1139.337;    2.424;  -15.130;  482.840
1139.877;    4.002;  -13.680;  642.360
1140.416;    4.561;  -11.320;  878.060
1140.955;    1.495;  -10.860;  535.380
1141.494;    3.095;  -12.920;  669.280
1142.034;    2.644;  -13.930;  583.520
1142.573;    3.311;  -11.440;  646.280
1143.112;    2.903;  -12.000;  553.480
1143.651;    2.249;  -13.670;  536.480
1144.190;    3.159;  -12.730;  691.640
1144.729;    2.404;  -14.560;  607.420
1145.267;    2.378;  -11.830;  584.900
1145.806;    3.575;  -12.230;  637.040
1146.345;    1.709;  -14.130;  635.020
1146.884;    1.687;  -11.590;  622.500
1147.422;    1.502;  -12.550;  533.060
1147.961;    2.955;  -11.180;  708.460
1148.500;    2.791;  -11.510;  669.720
1149.038;    2.589;  -11.640;  632.500
1149.577;    2.160;  -10.130;  698.640
1150.115;    0.239;  -13.970;  452.280
1150.653;    1.497;  -14.520;  607.340
1151.192;    2.569;  -12.810;  552.920
1151.730;    1.688;   -9.100;  652.560
1152.268;    1.466;  -12.220;  589.520
1152.806;    1.151;  -14.140;  571.180
1153.344;    0.073;  -12.350;  577.640
1153.882;    1.121;   -8.980;  600.060
1154.421;   -0.084;  -15.190;  470.620
1154.958;    0.022;  -15.210;  595.240
1155.496;    1.323;  -12.850;  645.280
1156.034;    1.254;   -9.940;  721.880
1156.572;    2.287;  -13.570;  667.060
1157.110;   -0.277;  -14.590;  473.940
1157.647;    1.134;  -13.030;  676.960
1158.185;    0.157;  -12.140;  564.320
1158.723;   -0.901;  -14.390;  509.200
1159.260;    1.199;  -14.090;  701.700
1159.798;    0.232;  -11.920;  658.160
1160.335;    0.310;  -11.110;  631.820

