gmr_right
Integration time [ms]:   3.882
Averaging Nr. [scans]: 1000
Smoothing Nr. [pixels]: 0
Data measured with spectrometer [name]: 7414430SP
Wave   ;Sample   ;Dark     ;Reference
[nm]   ;[counts] ;[counts] ;[counts] 

288.544;  129.165;   10.292;  793.890
289.143;  131.100;    4.564;  681.602
289.742;  134.056;    6.144;  828.814
290.341;  121.467;    4.396;  789.841
290.940;  111.663;    0.938;  730.702
291.538;  111.844;   -0.684;  881.108
292.137;  111.315;   -2.845;  792.581
292.736;  114.843;   -0.144;  975.101
293.335;  111.675;   -6.352;  735.086
293.934;  111.170;   -7.642;  781.677
294.532;  111.217;   -4.992; 1031.958
295.131;   97.725;   -5.478;  834.394
295.730;   98.185;   -6.549;  809.588
296.328;   96.070;   -9.558;  783.442
296.927;   95.737;   -8.118;  779.652
297.525;   96.753;   -6.908;  781.236
298.124;   88.351;   -9.195;  654.009
298.722;   92.142;   -8.198;  761.933
299.321;   90.755;   -8.817;  708.597
299.919;   87.824;   -7.716;  751.918
300.518;   84.158;  -10.745;  689.338
301.116;   85.537;   -9.647;  691.381
301.715;   87.102;  -10.828;  730.222
302.313;   85.926;   -6.087;  704.943
302.911;   80.068;   -6.824;  733.830
303.509;   86.509;   -8.807;  925.627
304.108;   83.958;   -8.198;  760.383
304.706;   83.676;   -6.218;  801.664
305.304;   77.481;   -7.185;  796.707
305.902;   83.875;   -8.568;  784.484
306.500;   79.486;   -7.737;  728.200
307.098;   76.878;   -6.026;  746.560
307.696;   75.709;   -7.176;  780.432
308.294;   75.382;   -8.656;  731.359
308.892;   78.402;   -6.838;  759.769
309.490;   74.131;   -2.596;  712.161
310.088;   72.593;   -4.485;  788.444
310.686;   77.027;   -3.907;  821.749
311.284;   73.181;   -2.806;  766.040
311.882;   71.458;   -2.845;  731.225
312.480;   67.141;   -3.274;  697.167
313.078;   69.219;   -3.645;  808.331
313.675;   71.237;   -4.997;  691.600
314.273;   65.935;   -0.894;  797.837
314.871;   65.116;   -2.854;  589.829
315.468;   63.093;   -3.644;  652.090
316.066;   66.695;   -3.947;  694.427
316.664;   59.093;   -1.824;  656.351
317.261;   64.127;    1.565;  910.128
317.859;   58.956;   -3.955;  768.735
318.456;   60.836;   -2.886;  830.096
319.054;   56.079;   -0.995;  787.828
319.651;   54.952;   -1.765;  759.928
320.249;   53.756;   -3.685;  810.188
320.846;   52.756;   -3.736;  714.286
321.443;   50.220;   -2.065;  832.135
322.041;   48.881;   -5.635;  812.315
322.638;   46.557;   -5.985;  701.456
323.235;   48.510;   -6.677;  665.683
323.833;   46.196;   -3.497;  740.354
324.430;   41.392;   -6.756;  615.900
325.027;   42.949;   -7.647;  876.855
325.624;   44.830;   -7.598;  644.532
326.221;   41.223;   -5.848;  689.717
326.818;   40.984;   -5.777;  818.332
327.415;   42.965;   -8.769;  748.828
328.012;   42.547;   -6.299;  690.585
328.609;   41.334;   -6.639;  731.389
329.206;   39.174;   -6.358;  778.621
329.803;   38.530;   -8.698;  737.841
330.400;   41.213;   -8.379;  704.260
330.997;   41.877;   -6.178;  817.147
331.594;   38.739;   -5.646;  788.185
332.191;   42.740;   -6.928;  728.722
332.787;   44.277;   -6.057;  844.463
333.384;   42.459;   -6.445;  763.093
333.981;   40.292;   -8.002;  815.687
334.578;   42.009;   -8.443;  708.378
335.174;   44.671;   -6.053;  731.469
335.771;   44.390;   -5.791;  836.456
336.367;   41.289;   -6.570;  710.631
336.964;   43.191;   -6.741;  793.266
337.561;   42.210;   -5.710;  731.112
338.157;   39.832;   -3.928;  911.916
338.754;   36.005;   -5.577;  796.589
339.350;   34.728;   -9.667;  722.493
339.946;   38.868;   -5.269;  773.135
340.543;   30.978;   -4.485;  846.136
341.139;   24.866;   -7.584;  720.836
341.735;   23.707;   -8.553;  772.593
342.332;   23.095;   -4.984;  691.472
342.928;   23.923;   -3.475;  795.394
343.524;   17.023;   -6.653;  761.684
344.120;   14.407;   -7.173;  738.562
344.716;   18.331;   -4.385;  723.717
345.313;   16.071;   -3.565;  795.342
345.909;   11.894;   -7.495;  627.336
346.505;   13.393;   -8.276;  740.247
347.101;   15.284;   -5.697;  827.864
347.697;   15.100;   -4.767;  785.398
348.293;    9.259;   -7.226;  627.244
348.889;   10.554;   -7.547;  745.914
349.485;   10.204;   -9.147;  688.205
350.081;   11.239;   -6.568;  772.592
350.676;    5.362;   -6.516;  691.606
351.272;   11.071;   -7.378;  809.530
351.868;   11.087;   -6.759;  780.497
352.464;    8.294;   -4.798;  723.932
353.059;    4.136;   -7.977;  646.017
353.655;    7.877;   -8.769;  777.063
354.251;    8.945;   -5.920;  759.845
354.846;    3.205;   -7.647;  740.646
355.442;    1.057;   -6.956;  753.071
356.038;    3.506;   -9.928;  751.708
356.633;    3.228;   -7.698;  728.594
357.229;    1.963;   -6.307;  724.757
357.824;   -0.404;   -7.647;  703.600
358.420;   -1.001;  -10.047;  679.726
359.015;    0.428;   -7.458;  695.357
359.610;    1.105;   -5.748;  763.920
360.206;   -5.348;   -9.346;  603.240
360.801;   -2.592;  -11.268;  646.503
361.396;    0.576;   -8.789;  725.975
361.992;   -3.965;   -6.347;  668.220
362.587;   -7.499;   -6.476;  670.160
363.182;   -5.766;   -9.457;  689.631
363.777;   -3.659;   -7.147;  738.242
364.372;   -3.725;   -5.507;  737.314
364.967;   -7.825;   -6.386;  680.744
365.563;   -3.109;   -7.858;  815.567
366.158;   -5.623;   -8.517;  685.161
366.753;   -5.350;   -8.728;  649.263
367.348;   -6.976;   -7.677;  746.056
367.942;   -7.625;  -10.387;  697.298
368.537;   -8.278;   -7.187;  754.245
369.132;   -8.428;   -8.587;  703.428
369.727;  -11.717;   -8.606;  638.079
370.322;  -10.474;  -10.426;  580.186
370.917;  -10.074;   -5.776;  710.646
371.511;   -6.866;   -6.007;  861.834
372.106;  -10.583;   -6.686;  776.964
372.701;  -14.584;   -9.335;  585.988
373.296;   -7.498;   -6.777;  863.135
373.890;  -12.703;   -7.546;  647.840
374.485;  -15.561;   -8.755;  691.199
375.079;  -11.509;   -9.797;  738.685
375.674;   -9.545;   -6.327;  812.970
376.268;  -14.137;   -9.046;  691.759
376.863;  -19.511;   -7.993;  580.327
377.457;  -13.411;   -9.206;  662.490
378.052;  -14.647;   -5.345;  764.884
378.646;  -15.929;   -5.605;  741.167
379.240;  -16.718;   -6.825;  721.176
379.835;  -15.644;  -10.476;  636.978
380.429;  -17.156;   -8.676;  562.557
381.023;  -16.643;   -4.945;  779.205
381.617;  -19.159;   -8.094;  680.106
382.212;  -15.803;  -10.646;  685.303
382.806;  -15.067;   -8.136;  760.690
383.400;  -19.172;   -7.855;  672.281
383.994;  -20.881;   -8.125;  664.870
384.588;  -16.357;   -7.637;  697.701
385.182;  -13.991;   -7.458;  726.624
385.776;  -14.547;   -6.277;  706.875
386.370;  -19.257;   -7.485;  681.968
386.964;  -17.086;   -9.416;  684.155
387.558;  -15.625;   -8.518;  598.360
388.152;  -18.583;   -7.096;  681.959
388.745;  -16.961;   -7.656;  814.707
389.339;  -16.384;   -8.927;  747.642
389.933;  -14.042;   -9.538;  695.370
390.527;  -14.929;   -5.857;  859.029
391.120;  -22.416;   -9.455;  595.318
391.714;  -19.586;   -9.746;  711.633
392.308;  -15.271;   -7.857;  780.253
392.901;  -19.669;   -9.106;  642.460
393.495;  -21.910;  -10.365;  595.414
394.089;  -18.659;   -9.696;  760.452
394.682;  -20.040;   -7.016;  697.188
395.275;  -19.745;   -8.466;  719.927
395.869;  -21.623;   -8.985;  667.314
396.462;  -19.828;  -11.496;  616.609
397.056;  -15.318;   -7.838;  776.621
397.649;  -19.690;   -6.895;  731.575
398.242;  -18.376;   -5.017;  712.645
398.836;  -16.810;   -8.787;  766.408
399.429;  -18.168;   -8.967;  631.041
400.022;  -21.288;   -8.815;  665.902
400.615;  -18.153;   -6.276;  805.609
401.208;  -16.549;   -8.407;  691.451
401.802;  -19.061;   -7.296;  699.329
402.395;  -20.104;   -7.585;  683.502
402.988;  -21.018;   -8.015;  696.627
403.581;  -18.338;   -9.577;  646.878
404.174;  -15.082;   -7.588;  686.568
404.767;  -17.603;   -7.906;  638.583
405.360;  -21.367;   -7.875;  621.445
405.953;  -15.264;   -8.127;  759.034
406.545;  -14.359;   -7.198;  725.342
407.138;  -18.519;   -8.916;  618.350
407.731;  -17.887;   -9.767;  613.303
408.324;  -13.533;  -10.659;  660.554
408.917;  -14.924;   -8.068;  681.864
409.509;  -16.488;   -9.837;  740.396
410.102;  -18.306;   -8.146;  643.948
410.695;  -12.802;   -7.969;  665.758
411.287;  -12.828;   -8.579;  599.821
411.880;  -14.025;   -6.968;  585.421
412.472;  -16.859;   -9.487;  613.092
413.065;  -14.227;  -10.338;  629.408
413.657;  -11.644;   -9.169;  576.678
414.250;  -11.441;  -10.119;  646.681
414.842;  -13.726;   -9.938;  676.353
415.434;  -11.679;  -10.409;  570.463
416.027;   -6.549;   -9.591;  652.196
416.619;   -9.354;   -7.379;  713.400
417.211;  -10.391;   -9.159;  599.352
417.804;   -6.382;   -9.191;  628.499
418.396;   -9.798;   -8.159;  607.643
418.988;   -7.007;   -6.960;  659.238
419.580;  -10.578;  -11.389;  568.276
420.172;   -9.497;  -13.460;  536.196
420.764;   -3.630;  -10.701;  672.482
421.356;   -5.643;   -8.961;  636.898
421.948;   -5.705;   -9.770;  677.661
422.540;   -1.267;   -8.832;  680.027
423.132;   -1.479;   -8.153;  600.641
423.724;   -5.377;   -8.481;  561.267
424.316;   -2.578;   -9.261;  621.345
424.908;    0.272;   -9.643;  591.517
425.500;    1.651;   -8.663;  647.978
426.092;    1.974;   -8.503;  648.268
426.683;    0.344;  -10.522;  684.836
427.275;    3.540;  -11.734;  641.471
427.867;    6.130;  -10.264;  668.948
428.458;    5.160;   -7.644;  732.344
429.050;    3.963;   -7.853;  680.749
429.642;    6.655;   -8.904;  743.124
430.233;    6.602;  -10.795;  569.356
430.825;    8.568;   -7.665;  724.809
431.416;    5.710;   -8.843;  698.241
432.008;    9.325;   -9.885;  651.723
432.599;   10.457;   -9.966;  656.073
433.190;    7.022;   -9.164;  637.670
433.782;    6.272;   -8.584;  590.395
434.373;   14.432;   -8.296;  884.765
434.964;   13.164;   -9.896;  602.920
435.556;   10.885;   -8.255;  634.537
436.147;   13.865;   -8.075;  758.490
436.738;   12.720;   -9.716;  701.099
437.329;   19.235;   -7.318;  721.723
437.920;   11.394;   -6.694;  666.688
438.511;   11.049;   -9.644;  564.526
439.103;   17.642;   -9.427;  623.998
439.694;   21.070;  -10.748;  681.583
440.285;   21.250;   -7.997;  764.432
440.876;   19.755;  -10.046;  845.738
441.466;   17.831;  -13.467;  575.162
442.057;   24.619;   -9.329;  665.814
442.648;   23.127;   -7.707;  746.255
443.239;   20.331;   -9.017;  620.477
443.830;   25.845;  -10.279;  704.958
444.421;   28.367;  -12.630;  655.474
445.011;   24.824;   -8.697;  693.619
445.602;   24.310;   -7.787;  743.126
446.193;   25.759;  -13.329;  488.117
446.783;   31.235;   -9.171;  640.397
447.374;   26.152;   -7.457;  692.759
447.964;   26.054;   -9.277;  713.770
448.555;   35.068;   -9.041;  822.742
449.145;   31.217;   -8.969;  662.853
449.736;   32.700;   -6.809;  803.179
450.326;   32.288;   -7.229;  713.626
450.917;   36.741;  -11.391;  675.324
451.507;   37.121;   -9.501;  600.661
452.097;   38.136;   -8.460;  746.267
452.688;   38.940;  -10.080;  742.160
453.278;   37.805;  -12.861;  566.840
453.868;   43.078;   -8.372;  793.550
454.458;   40.700;   -8.131;  651.141
455.048;   41.665;   -8.520;  711.783
455.639;   41.872;  -13.632;  567.096
456.229;   46.450;  -10.143;  710.694
456.819;   48.655;   -9.163;  751.158
457.409;   49.133;   -8.652;  773.993
457.999;   51.241;   -9.933;  737.505
458.589;   51.989;  -10.363;  686.606
459.179;   51.731;  -10.633;  717.658
459.769;   49.061;  -12.442;  627.099
460.358;   53.891;   -9.844;  797.262
460.948;   55.148;   -9.924;  689.503
461.538;   55.717;  -10.484;  660.677
462.128;   53.622;  -10.703;  664.934
462.717;   59.680;  -11.486;  710.326
463.307;   64.426;  -10.767;  705.846
463.897;   59.705;   -8.814;  656.942
464.486;   59.036;   -8.182;  837.128
465.076;   63.551;   -9.985;  733.776
465.666;   67.410;  -10.447;  652.900
466.255;   65.009;   -7.754;  785.651
466.845;   64.078;  -10.884;  666.749
467.434;   66.841;  -12.525;  725.873
468.023;   67.887;  -11.456;  658.357
468.613;   65.126;   -9.173;  713.946
469.202;   69.749;   -9.306;  646.507
469.791;   73.919;   -8.917;  737.811
470.381;   76.275;   -9.657;  742.813
470.970;   76.116;   -9.947;  711.099
471.559;   75.257;   -9.256;  733.291
472.148;   78.654;  -13.397;  675.737
472.738;   81.950;   -9.928;  765.466
473.327;   80.676;  -10.897;  637.529
473.916;   80.286;   -8.526;  737.446
474.505;   84.503;  -11.078;  751.703
475.094;   88.559;   -9.559;  806.570
475.683;   87.502;   -8.838;  797.699
476.272;   88.253;  -10.198;  730.632
476.861;   90.396;  -11.489;  706.754
477.449;   98.052;  -10.721;  728.487
478.038;   91.767;   -9.818;  692.513
478.627;   92.499;   -9.887;  714.852
479.216;  100.168;  -10.030;  769.441
479.805;  103.744;   -9.401;  783.375
480.393;  102.957;   -5.739; 1008.945
480.982;  102.684;   -7.838;  874.501
481.571;  107.882;   -9.111;  858.333
482.159;  109.119;  -10.601;  705.386
482.748;  109.002;   -8.500;  821.385
483.336;  113.431;   -9.241;  858.209
483.925;  113.512;  -10.440;  774.373
484.513;  121.288;  -11.063;  758.962
485.102;  116.653;   -9.540;  810.965
485.690;  125.842;   -6.742; 1011.050
486.278;  128.018;   -8.442;  979.329
486.867;  128.556;  -10.472;  809.662
487.455;  130.631;   -8.811;  898.229
488.043;  131.630;  -10.721;  748.361
488.631;  140.615;  -10.393; 1005.079
489.220;  144.979;  -10.843;  908.626
489.808;  143.464;  -10.572;  741.415
490.396;  152.007;  -10.482;  914.645
490.984;  157.366;  -11.542;  830.161
491.572;  167.402;   -8.463;  940.315
492.160;  172.630;   -8.491;  919.081
492.748;  183.023;   -9.681;  884.341
493.336;  202.902;  -10.493; 1019.693
493.924;  227.776;   -9.354;  958.077
494.512;  256.804;   -9.132; 1066.638
495.100;  293.164;   -9.001; 1103.280
495.687;  348.368;  -11.924; 1206.373
496.275;  419.878;  -11.193; 1150.796
496.863;  495.285;   -9.241; 1281.171
497.451;  591.191;  -11.341; 1386.805
498.038;  712.460;  -11.364; 1556.729
498.626;  821.543;   -8.104; 1741.407
499.214;  989.194;   -8.842; 2016.609
499.801; 1226.915;  -10.112; 2220.633
500.389; 1427.310;  -11.953; 2312.494
500.976; 1605.057;  -10.023; 2744.849
501.564; 1858.586;   -8.662; 3148.565
502.151; 2204.537;  -10.531; 3515.999
502.738; 2588.797;  -13.853; 3971.274
503.326; 3099.020;  -10.794; 4403.796
503.913; 3542.719;   -8.663; 5161.749
504.500; 4140.666;  -10.172; 5986.420
505.088; 5012.071;  -13.472; 6381.201
505.675; 5554.509;  -10.924; 6925.547
506.262; 5612.600;   -8.551; 7619.060
506.849; 6154.611;  -10.523; 8733.969
507.436; 7092.742;  -10.834; 9790.121
508.023; 7517.565;   -9.093; 9985.472
508.610; 7758.264;  -10.073;10434.618
509.197; 8869.626;   -9.500;11198.435
509.784;10621.797;  -13.242;12391.194
510.371;11537.668;  -10.964;13603.713
510.958;11937.735;   -9.772;14426.586
511.545;12266.794;   -7.842;15243.775
512.132;12415.813;  -12.184;15945.876
512.719;13897.295;   -9.733;16340.369
513.305;16665.313;   -9.172;18011.766
513.892;17993.398;   -9.581;19754.971
514.479;19059.564;  -10.253;20967.805
515.066;20062.947;   -8.183;22299.793
515.652;21256.846;   -9.253;22908.660
516.239;22983.248;   -9.412;23798.875
516.825;24335.988;  -11.153;25567.275
517.412;24134.500;  -10.263;28154.959
517.998;23889.949;   -8.802;28344.111
518.585;24322.941;  -10.401;27134.219
519.171;24155.955;  -12.744;27268.576
519.758;25433.451;  -11.793;28964.129
520.344;28663.127;   -8.912;30664.494
520.930;31953.459;  -10.901;32550.605
521.516;31944.680;  -12.034;35422.895
522.103;32599.246;  -10.473;38280.004
522.689;34316.426;   -8.311;37835.117
523.275;36407.125;  -10.691;37288.613
523.861;38079.926;  -11.193;37281.395
524.447;35533.789;  -11.484;37846.949
525.033;35567.590;   -7.702;38321.949
525.619;35549.906;  -11.241;38579.285
526.205;35618.527;  -12.152;40622.875
526.791;36587.777;  -11.423;42258.836
527.377;36918.074;   -7.981;42966.902
527.963;37268.363;   -9.450;42018.949
528.549;37614.145;  -11.351;42476.828
529.135;38133.367;  -10.202;41854.852
529.721;39551.875;   -8.672;41237.711
530.306;39115.957;   -9.111;41259.445
530.892;40578.313;  -11.252;41506.047
531.478;43822.004;  -10.432;43559.613
532.063;46041.625;  -10.721;47695.563
532.649;47027.164;   -7.450;50808.324
533.235;48648.367;  -11.811;51787.500
533.820;47767.102;   -9.383;52145.035
534.406;45460.625;   -9.400;51133.488
534.991;44076.438;   -8.861;49996.805
535.576;45317.191;  -10.612;48882.852
536.162;43261.250;   -7.322;46942.285
536.747;42584.988;   -9.360;45711.746
537.333;44199.988;  -10.450;48510.180
537.918;47318.516;  -12.610;50439.891
538.503;47792.578;  -12.132;50863.711
539.088;44619.328;  -10.831;50906.922
539.673;43740.672;  -11.220;52621.965
540.259;47562.844;  -11.481;52368.094
540.844;48297.602;  -11.462;50879.109
541.429;49816.430;   -7.869;52077.777
542.014;48058.063;  -11.859;52716.695
542.599;46102.734;  -11.061;52363.281
543.184;46845.551;  -12.300;53187.137
543.769;48066.559;   -9.369;54697.605
544.354;49205.172;  -12.020;53913.914
544.938;44440.648;  -10.350;49680.164
545.523;40896.313;  -10.841;47386.277
546.108;44101.895;   -8.579;49151.949
546.693;46696.031;   -8.818;51384.637
547.278;47981.512;  -11.331;51853.254
547.862;47274.813;  -10.292;51173.750
548.447;45765.535;   -8.349;51691.395
549.031;45302.355;  -10.838;52456.703
549.616;46596.105;  -11.681;52714.516
550.201;48994.969;  -11.140;52414.598
550.785;47037.855;   -8.649;52355.059
551.370;46873.750;  -11.889;54589.453
551.954;47841.473;  -11.239;58267.348
552.538;49418.207;   -8.850;59062.176
553.123;51877.035;  -10.829;58115.285
553.707;52945.242;   -8.887;56556.285
554.291;49903.285;  -10.430;56201.668
554.876;48055.957;   -9.799;55335.762
555.460;45430.766;  -10.018;54155.703
556.044;44712.883;   -7.307;53721.484
556.628;48169.156;  -12.229;53731.016
557.212;48848.488;   -9.820;54312.531
557.796;46654.590;   -9.109;53797.773
558.380;43452.238;   -9.707;56145.984
558.964;44668.137;  -10.980;57277.930
559.548;48559.496;  -12.010;56459.641
560.132;49339.453;   -7.928;54434.543
560.716;51988.508;  -10.247;54800.617
561.300;52807.926;  -11.250;57606.945
561.884;50821.777;  -10.568;58972.445
562.467;49411.664;   -9.727;57327.570
563.051;45637.242;  -11.847;54962.434
563.635;43534.496;  -10.747;52594.473
564.219;40926.934;  -13.108;50610.410
564.802;37378.316;  -11.417;49551.180
565.386;35970.250;  -10.457;48370.953
565.969;39841.727;   -8.959;48178.871
566.553;41760.848;  -10.328;49957.305
567.136;42681.363;  -10.257;50369.594
567.720;42755.137;  -10.186;49492.004
568.303;41819.352;  -10.027;50616.352
568.887;42173.004;  -10.397;50727.148
569.470;43726.191;   -8.185;51698.379
570.053;42606.352;  -11.596;52122.078
570.637;40918.145;  -11.378;52536.438
571.220;40635.836;   -9.138;51186.098
571.803;39796.793;   -7.675;51032.762
572.386;37998.176;   -8.976;49609.887
572.969;38525.773;  -12.477;48285.926
573.552;38902.785;   -9.767;47624.285
574.135;38002.398;   -8.175;45498.641
574.718;33410.930;  -11.096;41970.434
575.301;32187.848;  -11.966;41447.137
575.884;30964.766;  -12.836;40923.836
576.467;36365.734;   -9.116;45267.723
577.050;38644.422;  -10.536;48175.543
577.633;38739.922;  -11.027;47729.328
578.216;37346.684;   -9.946;47579.793
578.799;36646.984;   -9.645;47820.996
579.381;36419.621;   -9.446;48115.551
579.964;36678.816;  -12.217;47333.766
580.547;37296.715;  -10.586;46668.969
581.129;36743.336;   -8.374;44466.141
581.712;35199.957;  -10.434;44164.922
582.294;34481.273;  -10.896;46477.855
582.877;35384.348;   -8.906;48244.254
583.459;36464.660;   -9.994;47437.895
584.042;35893.047;  -10.084;46943.219
584.624;34774.258;  -13.534;46792.227
585.206;33833.270;  -12.716;46557.250
585.789;34583.863;  -11.614;45793.773
586.371;35201.363;  -10.203;43836.391
586.953;33760.977;  -10.314;42972.492
587.536;31721.939;   -9.776;42487.211
588.118;32115.809;   -9.821;42086.414
588.700;33146.180;  -10.073;43389.930
589.282;34648.969;  -12.395;43646.039
589.864;33782.785;  -11.514;43438.109
590.446;33963.164;  -10.803;43151.926
591.028;35224.051;  -11.043;42781.867
591.610;35178.406;  -13.244;42839.098
592.192;31826.627;  -11.095;42820.402
592.774;29216.705;  -10.823;40724.277
593.356;28607.975;  -11.052;39874.789
593.937;30523.184;  -11.664;39980.648
594.519;32911.262;  -10.454;42069.633
595.101;33507.582;  -10.322;42976.031
595.683;32287.645;  -10.042;44084.441
596.264;31011.160;  -14.334;43478.797
596.846;31420.891;  -10.863;43803.672
597.427;32181.244;   -9.901;42986.934
598.009;32593.311;  -10.911;42832.219
598.591;32887.293;  -10.483;42580.086
599.172;31488.672;   -9.663;43061.805
599.753;29768.592;  -10.631;41691.469
600.335;29160.990;   -9.371;40692.520
600.916;30457.873;  -13.992;39982.422
601.498;31466.754;   -8.352;40318.617
602.079;29051.283;   -8.411;40670.609
602.660;29422.354;  -10.841;41450.898
603.241;29820.297;  -12.963;41137.738
603.823;28598.898;  -11.523;38868.797
604.404;28526.053;  -11.881;38182.785
604.985;30539.873;  -11.721;38078.047
605.566;32470.488;   -9.293;38056.633
606.147;32084.467;  -10.940;37020.418
606.728;30751.818;  -11.840;37883.359
607.309;29763.973;  -11.781;38748.273
607.890;30053.604;  -11.262;38850.230
608.471;29366.324;  -10.111;37457.918
609.051;29217.871;   -7.709;36066.457
609.632;29756.211;  -12.409;35991.074
610.213;28760.367;  -10.811;37402.641
610.794;28199.467;  -11.630;38383.363
611.374;29376.883;   -8.030;40562.387
611.955;30546.797;  -10.809;38533.727
612.536;32016.793;  -10.531;36951.789
613.116;32341.289;  -12.820;37197.891
613.697;31544.432;  -11.419;38411.125
614.277;31056.947;   -9.768;38673.938
614.858;31184.705;  -10.251;37075.863
615.438;27760.658;  -11.981;35092.906
616.019;25713.367;   -8.978;33666.301
616.599;28322.133;  -12.219;34189.023
617.179;31517.100;  -14.170;36952.047
617.760;33004.281;   -9.211;39582.574
618.340;33287.188;   -9.018;38943.977
618.920;31771.020;   -9.249;37594.156
619.500;31278.773;  -12.728;37866.938
620.080;33361.156;  -12.939;37869.043
620.660;32647.518;  -11.586;36868.617
621.241;31689.236;  -11.538;36352.309
621.821;32012.293;  -11.398;35459.520
622.401;32744.621;  -10.179;35207.414
622.980;33157.254;  -11.587;35980.422
623.560;32140.715;  -12.888;37351.328
624.140;29954.400;  -13.149;34388.582
624.720;25317.631;   -9.928;32368.764
625.300;24969.648;  -10.869;32638.629
625.880;29459.203;   -8.617;34599.035
626.459;34141.273;  -12.138;36831.738
627.039;35544.707;  -12.267;38299.098
627.619;35346.398;   -7.476;38289.574
628.198;35983.227;  -11.347;37220.695
628.778;35384.590;  -11.678;37632.563
629.357;33195.508;  -12.438;38003.012
629.937;31053.971;   -9.576;38402.039
630.516;30093.891;  -11.096;37868.801
631.096;29766.361;  -11.828;35760.410
631.675;29980.670;  -11.565;35225.219
632.254;30123.158;  -11.845;35130.289
632.834;31186.260;  -11.545;35794.570
633.413;32227.848;  -10.887;35788.922
633.992;33945.793;  -10.175;34532.863
634.571;33058.609;   -9.704;33590.113
635.151;30739.455;  -10.815;34943.863
635.730;30312.541;  -11.617;35352.523
636.309;29465.299;  -10.836;35366.605
636.888;29893.162;   -9.755;36165.637
637.467;30701.797;  -11.684;37515.902
638.046;32698.424;  -11.987;39288.695
638.625;33914.434;  -10.455;38279.699
639.204;33195.738;  -11.234;37741.598
639.782;30348.717;  -12.023;38364.551
640.361;28267.957;  -11.506;36740.621
640.940;28064.934;  -12.316;34950.082
641.519;29725.932;  -11.616;34137.398
642.097;33389.156;   -9.266;35654.258
642.676;34220.895;  -12.936;35637.957
643.255;33179.582;   -9.966;36567.074
643.833;32838.426;   -8.916;37809.434
644.412;34012.473;  -10.936;37337.293
644.990;36665.277;  -12.176;37018.531
645.569;37358.656;  -12.246;36518.469
646.147;36651.504;  -12.107;36186.430
646.726;36028.742;  -12.937;36267.688
647.304;38869.602;  -12.547;36647.625
647.882;39929.703;  -12.597;39286.742
648.461;37810.727;   -9.427;39157.703
649.039;35204.488;   -8.937;35412.883
649.617;33016.586;  -11.067;34744.918
650.195;33155.027;  -10.657;35403.098
650.773;32596.725;  -10.097;35053.797
651.352;30560.754;  -11.887;33756.816
651.930;26237.223;  -13.557;31868.773
652.508;23089.906;  -11.767;33121.551
653.086;24181.896;  -10.777;33564.793
653.663;28226.465;  -12.067;34054.668
654.241;31527.215;  -14.918;35693.309
654.819;33063.410;  -11.788;36422.906
655.397;32577.371;  -11.268;38213.484
655.975;33599.320;  -11.738;39507.625
656.553;33168.559;  -11.018;39498.223
657.130;32188.121;  -12.848;40395.480
657.708;31708.301;  -10.098;39242.020
658.286;32381.521;  -11.678;38920.020
658.863;34664.141;  -11.498;40202.898
659.441;36985.102;  -11.008;39677.938
660.018;37669.961;  -11.048;40413.355
660.596;37211.703;  -12.058;39931.414
661.173;36479.758;  -14.158;39604.531
661.750;35989.277;  -12.298;39700.070
662.328;34957.809;  -10.699;39292.809
662.905;32808.824;  -12.119;38235.648
663.482;28103.453;  -11.829;36212.305
664.060;27138.141;  -11.009;35944.945
664.637;30036.402;  -10.369;35170.785
665.214;30596.270;  -10.459;34197.523
665.791;29212.578;  -12.599;34549.520
666.368;28717.461;  -12.919;35118.578
666.945;30777.869;  -10.699;36019.418
667.522;32079.801;  -11.359;36048.438
668.099;32229.078;  -13.529;36243.914
668.676;32162.604;  -10.229;35958.875
669.253;32018.563;   -9.279;37384.730
669.830;31032.488;  -11.370;36779.629
670.407;31508.146;  -10.950;35231.289
670.984;32742.201;  -12.850;35544.270
671.560;32310.865;   -8.440;35466.867
672.137;30621.254;  -13.520;34280.863
672.714;29443.303;  -13.620;34632.863
673.290;29965.795;  -10.450;35135.422
673.867;29596.721;  -10.960;36114.480
674.443;28162.930;  -13.300;36152.859
675.020;28680.404;  -12.370;35327.238
675.596;29189.365;  -11.250;35795.176
676.173;29710.537;  -11.080;35430.355
676.749;29993.887;  -13.220;33549.516
677.326;32940.746;  -13.000;32210.012
677.902;34541.055;  -12.701;32068.871
678.478;34465.172;  -12.801;32583.891
679.054;33773.363;   -8.601;32088.928
679.631;34484.461;  -12.631;30978.848
680.207;34078.742;   -9.451;33160.887
680.783;32639.211;  -11.701;35570.363
681.359;32237.104;  -12.701;36125.184
681.935;31949.037;  -13.271;35240.922
682.511;31145.162;  -10.791;34429.961
683.087;31355.465;  -10.791;34463.680
683.663;31271.619;   -8.121;34648.898
684.239;32896.984;  -13.261;34546.457
684.815;32279.336;  -10.581;35586.375
685.390;29115.664;   -9.961;35821.895
685.966;28070.363;  -11.182;35085.871
686.542;27823.100;  -13.512;34198.230
687.118;28240.912;  -11.472;32847.707
687.693;28515.969;  -10.152;32794.027
688.269;29645.297;  -14.442;33072.367
688.844;31015.574;  -11.852;33141.664
689.420;29156.213;  -13.942;33965.742
689.995;27758.943;   -9.702;34655.523
690.571;27888.564;  -11.312;33576.742
691.146;27623.818;  -14.332;32657.219
691.722;28906.990;  -11.192;32526.979
692.297;31308.807;  -10.962;33014.617
692.872;30518.166;  -11.082;34012.254
693.448;29472.324;  -14.732;34237.434
694.023;28891.311;  -12.363;34142.672
694.598;28818.590;  -12.393;34132.031
695.173;27648.232;  -11.023;34205.250
695.748;27180.029;  -12.743;32882.488
696.323;28709.275;  -11.103;32864.906
696.898;29954.480;   -8.123;33170.004
697.473;29615.879;  -12.603;32432.984
698.048;29224.674;  -12.553;31649.303
698.623;30557.510;  -12.573;30778.141
699.198;33948.695;  -12.743;31140.119
699.773;31809.836;  -12.843;31764.299
700.348;30716.520;  -16.683;31780.816
700.922;31237.266;  -11.403;32046.375
701.497;31870.705;  -11.253;32603.574
702.072;32060.287;  -10.044;34799.871
702.646;31454.699;  -13.054;35793.172
703.221;29993.496;  -11.414;35201.590
703.795;30130.174;  -10.644;34764.527
704.370;31644.344;  -13.484;34307.367
704.944;31513.234;  -12.144;33509.887
705.519;30412.160;  -12.024;31388.584
706.093;29072.973;  -11.234;31340.104
706.668;27445.869;   -9.874;32630.281
707.242;27024.527;  -12.404;32728.779
707.816;27162.891;  -10.644;32947.238
708.390;26635.746;  -11.174;33277.855
708.965;26815.207;  -10.324;33834.336
709.539;26470.041;  -12.014;33709.273
710.113;26444.721;  -12.295;33044.313
710.687;27388.121;  -10.965;31953.992
711.261;27948.195;  -13.685;30505.949
711.835;27296.551;  -15.335;30262.369
712.409;26660.766;  -13.785;31254.447
712.983;27228.174;  -10.525;32754.986
713.557;28761.898;  -13.175;34018.824
714.131;30136.549;  -13.245;34579.625
714.704;32158.256;  -13.175;33890.262
715.278;34374.547;  -11.545;33531.102
715.852;33664.984;  -10.975;33601.660
716.425;32454.961;  -10.075;33515.117
716.999;32004.871;  -12.185;33185.555
717.573;32574.096;   -9.685;33905.996
718.146;34615.402;  -10.516;35199.293
718.720;31702.229;  -12.106;35060.551
719.293;30539.570;  -12.386;34973.230
719.867;33662.398;  -12.456;36394.449
720.440;33870.598;  -10.686;36663.008
721.013;33783.723;  -12.596;35102.426
721.587;33829.559;  -13.956;33985.266
722.160;33212.922;   -9.806;33524.965
722.733;33009.906;  -11.676;32987.043
723.306;32435.951;  -14.276;33066.301
723.880;32365.076;  -12.126;33399.500
724.453;33724.199;  -10.156;33468.297
725.026;32339.320;  -12.956;33816.637
725.599;29885.908;  -11.676;32797.996
726.172;28220.861;  -12.337;33187.434
726.745;28913.537;  -11.277;35136.613
727.318;28769.014;  -11.927;35751.730
727.891;27528.291;  -13.607;35890.430
728.463;27631.002;  -11.327;34822.090
729.036;26922.182;  -11.917;32895.086
729.609;27423.473;  -12.697;31823.225
730.182;28178.734;  -11.787;31445.283
730.754;28709.264;  -12.957;32373.223
731.327;29529.492;  -11.017;33676.820
731.900;28119.197;  -12.797;33417.000
732.472;26096.086;  -10.677;31978.498
733.045;25334.854;  -12.797;30368.777
733.617;26332.348;  -13.908;30574.215
734.190;26646.736;  -12.258;31280.975
734.762;27619.740;  -13.438;31674.412
735.334;28015.846;  -11.758;31247.291
735.907;27897.414;  -11.158;29876.211
736.479;29220.547;  -11.258;29808.488
737.051;31526.525;  -10.918;30233.547
737.623;32390.043;  -11.038;31469.086
738.195;32060.033;  -12.188;31784.225
738.768;28669.496;  -11.378;32120.523
739.340;27255.424;  -12.598;32094.342
739.912;28786.027;  -11.568;31312.680
740.484;29397.760;   -9.348;31946.238
741.056;28762.744;  -12.628;32984.059
741.628;28737.668;  -13.349;33897.715
742.199;28768.170;  -11.309;33213.016
742.771;28029.043;  -12.699;31369.113
743.343;29289.121;  -11.919;31865.473
743.915;29634.080;  -11.679;32388.631
744.487;28219.816;  -12.249;31079.568
745.058;26417.553;  -11.119;30570.107
745.630;25095.109;   -9.439;29970.127
746.201;25414.924;  -11.949;29186.766
746.773;25885.627;  -12.639;28805.723
747.344;25548.311;  -11.039;29591.223
747.916;24553.053;  -12.549;31412.201
748.487;23461.922;  -12.659;32194.898
749.059;22793.393;  -13.059;32533.719
749.630;24260.131;  -12.080;32158.518
750.201;24028.400;  -13.100;30855.395
750.773;22775.182;  -15.310;28622.555
751.344;22119.543;  -12.240;28405.732
751.915;21631.088;  -11.960;28461.551
752.486;21315.701;  -13.200;27842.850
753.057;21416.609;  -15.230;27845.008
753.628;21765.168;  -13.130;27728.107
754.199;21925.104;  -12.720;27381.086
754.770;21624.951;  -10.680;25882.203
755.341;21620.553;  -11.010;25886.184
755.912;21090.127;  -12.990;26050.861
756.483;19803.943;  -11.110;26798.779
757.054;19130.588;  -12.190;27048.238
757.625;19503.129;  -13.981;26294.838
758.195;19516.828;  -11.041;26142.076
758.766;20421.615;  -11.861;26392.234
759.337;21376.643;  -11.461;26334.594
759.907;22352.682;  -15.001;27579.652
760.478;22106.889;   -9.681;28352.770
761.048;21275.451;  -12.421;27325.088
761.619;20620.002;  -11.761;26460.428
762.189;19192.098;  -12.391;26029.826
762.760;18400.672;  -10.201;26430.145
763.330;18968.803;  -10.811;26670.902
763.900;21619.182;  -10.261;26603.021
764.471;22149.523;  -13.061;25542.740
765.041;20370.361;  -11.051;24358.459
765.611;19919.342;  -11.032;23991.297
766.181;19566.027;  -10.532;24470.236
766.751;19338.988;  -13.502;24845.975
767.321;19379.512;  -11.392;24533.633
767.891;19714.240;  -11.522;24916.492
768.461;20363.639;  -13.672;24776.771
769.031;19992.721;  -14.652;24757.988
769.601;19111.410;  -10.182;24181.088
770.171;17576.648;  -11.752;23670.387
770.741;15767.317;  -12.272;22960.045
771.311;15481.703;  -13.112;22917.523
771.880;15847.238;  -14.122;23562.941
772.450;16971.482;  -11.782;24216.500
773.020;19047.092;  -12.642;24140.398
773.589;18729.830;  -13.043;24414.857
774.159;16493.863;  -11.783;23858.717
774.729;15366.604;  -13.473;22942.135
775.298;16260.801;  -14.523;22324.033
775.867;17175.918;  -12.013;21140.313
776.437;16450.820;  -12.113;20838.092
777.006;15065.980;  -13.543;20599.510
777.576;13738.031;  -12.523;20508.809
778.145;13198.568;  -12.173;20732.947
778.714;14129.415;  -12.153;21062.465
779.283;14635.381;  -11.833;20949.664
779.853;15445.524;  -13.483;20508.623
780.422;16193.818;  -12.933;20649.082
780.991;15615.092;  -13.173;21527.520
781.560;13784.679;  -10.224;22632.658
782.129;12957.430;  -12.684;23048.277
782.698;14130.033;  -11.284;23438.555
783.267;15485.870;  -11.684;23267.734
783.836;14867.712;  -10.974;22415.133
784.404;13599.993;  -13.534;20443.152
784.973;13486.961;  -16.734;19699.150
785.542;13452.615;  -12.594;19763.828
786.111;13068.665;  -11.644;20341.408
786.679;13528.762;  -11.384;20207.967
787.248;14430.505;  -12.014;19516.465
787.817;13511.490;  -12.804;18900.363
788.385;12379.192;  -11.994;17879.121
788.954;12524.423;  -12.564;17658.301
789.522;13890.894;  -12.225;17788.879
790.090;14153.235;  -13.775;18118.277
790.659;13073.688;  -12.485;18338.736
791.227;12330.353;  -12.295;18508.615
791.795;12331.384;  -13.415;17898.254
792.364;11745.233;  -12.995;17295.133
792.932;11276.786;   -8.365;16822.051
793.500;11447.425;  -11.925;17040.148
794.068;11820.494;  -13.245;17179.787
794.636;12051.135;  -13.815;16664.246
795.204;11492.214;  -13.375;16524.545
795.772;11343.892;  -12.125;17274.564
796.340;11634.855;  -13.855;17891.002
796.908;11934.506;  -13.456;17648.561
797.476;11450.104;  -13.116;17064.080
798.044;10843.593;  -13.226;16672.777
798.612;11426.849;  -11.236;17023.996
799.180;12521.758;  -10.476;16561.615
799.747;12692.704;  -11.746;15962.773
800.315;11733.705;  -12.366;15296.992
800.883;10729.976;  -14.616;14801.771
801.450;10323.217;  -11.996;14534.430
802.018;11032.986;  -11.206;14173.248
802.585;10683.433;  -12.466;14029.547
803.153; 9682.640;  -12.846;13836.846
803.720; 9354.591;  -12.136;13567.324
804.287; 9131.108;  -10.966;13360.622
804.855; 9269.213;   -9.797;13681.981
805.422; 9184.874;  -13.037;13536.560
805.989; 8866.119;  -12.697;13355.958
806.556; 9007.183;  -11.737;13747.896
807.124; 9339.742;  -11.997;13987.376
807.691; 8863.462;  -13.997;14038.674
808.258; 8586.947;  -10.927;14120.152
808.825; 9045.342;  -13.727;13860.111
809.392; 9552.923;  -11.847;13268.790
809.959; 9036.219;  -14.217;12680.389
810.526; 8143.681;   -8.277;12427.308
811.093; 7855.986;   -9.647;12030.105
811.659; 7744.335;  -10.987;11653.664
812.226; 7350.991;  -13.447;11637.183
812.793; 7447.576;  -14.418;11611.521
813.360; 7900.651;  -13.908;11885.181
813.926; 7998.033;  -12.918;12770.539
814.493; 7794.990;  -14.888;12677.638
815.060; 7825.264;  -12.758;11974.336
815.626; 8164.875;  -13.478;11594.715
816.193; 8276.783;  -13.898;11579.474
816.759; 8087.974;  -13.588;11666.972
817.325; 8070.433;  -12.018;11325.530
817.892; 7702.169;  -14.068;11105.369
818.458; 6900.679;  -13.458;10843.928
819.024; 6522.684;  -11.968;10714.406
819.591; 6162.631;  -11.028;10469.165
820.157; 5862.305;  -12.088;10235.523
820.723; 5769.633;  -12.599;10847.563
821.289; 6017.497;  -10.419;11040.980
821.855; 6725.476;  -10.939;10357.100
822.421; 7333.419;  -12.539; 9978.918
822.987; 7262.981;  -13.259; 9754.177
823.553; 6575.039;  -15.369;10065.755
824.119; 6272.841;  -10.779;10036.294
824.685; 5880.023;   -9.999;10029.192
825.251; 5534.635;  -11.819;10199.230
825.816; 5317.583;  -13.369; 9820.189
826.382; 5443.775;  -12.679; 9297.248
826.948; 5733.719;  -11.199; 9381.347
827.513; 5628.306;  -11.179; 9450.726
828.079; 5540.923;  -13.489; 9472.444
828.645; 5829.833;  -12.500; 9292.643
829.210; 6138.582;  -15.120; 9065.341
829.776; 6042.560;  -12.590; 9132.620
830.341; 5805.823;  -11.540; 9092.878
830.906; 5706.058;  -12.400; 9078.557
831.472; 5564.471;  -12.720; 8534.535
832.037; 5152.232;  -11.490; 8677.874
832.602; 4694.740;  -14.380; 8628.692
833.167; 4842.849;  -12.780; 8879.031
833.733; 5074.118;  -11.100; 9189.790
834.298; 5265.467;  -12.080; 9052.608
834.863; 5341.587;  -13.910; 8895.087
835.428; 5134.607;  -13.470; 8824.266
835.993; 5345.147;  -11.760; 8845.385
836.558; 5705.360;  -12.731; 8888.563
837.123; 5861.154;  -12.431; 8966.582
837.688; 5675.336;  -11.241; 8617.860
838.253; 5335.591;  -13.681; 8590.699
838.817; 4967.748;  -12.531; 8443.797
839.382; 4989.439;  -12.671; 8799.356
839.947; 4992.610;  -11.541; 8810.595
840.511; 4855.515;  -12.021; 8796.394
841.076; 4871.751;  -13.071; 8347.231
841.641; 4832.515;  -11.411; 8224.330
842.205; 4628.054;  -13.671; 8223.349
842.770; 4528.533;  -11.291; 8622.107
843.334; 4600.353;  -12.951; 8410.386
843.898; 4655.635;  -11.221; 8337.465
844.463; 4603.813;  -11.322; 8506.283
845.027; 4421.857;  -11.412; 8280.962
845.591; 4160.769;  -11.512; 8231.141
846.156; 4279.360;  -14.042; 7969.179
846.720; 4528.155;  -12.152; 7768.278
847.284; 4495.882;  -10.922; 7630.957
847.848; 4215.163;  -10.962; 7472.395
848.412; 3908.532;  -14.612; 7437.394
848.976; 3904.907;  -11.492; 7674.592
849.540; 3955.743;   -9.172; 7836.011
850.104; 4240.850;  -11.232; 7913.669
850.668; 4676.270;  -15.182; 7694.508
851.232; 4453.126;  -15.332; 7756.887
851.796; 4074.959;  -13.703; 7926.545
852.359; 4111.135;  -11.113; 7827.844
852.923; 4177.609;  -11.843; 7641.163
853.487; 4109.489;  -11.173; 7342.501
854.050; 3930.526;  -13.443; 7042.820
854.614; 3740.650;  -13.823; 7151.338
855.177; 3707.359;  -16.393; 7105.077
855.741; 3827.407;  -11.693; 6989.675
856.304; 3907.054;  -10.843; 6596.634
856.868; 3852.871;  -13.783; 6356.272
857.431; 3636.516;  -11.953; 6468.571
857.995; 3474.609;  -13.683; 6373.210
858.558; 3468.769;  -11.433; 6324.448
859.121; 3440.215;  -12.493; 6408.327
859.684; 3397.885;  -12.384; 6347.886
860.247; 3346.290;  -14.774; 6321.264
860.810; 3194.474;  -13.154; 6301.903
861.374; 3079.127;  -11.264; 6607.881
861.937; 3029.800;  -15.424; 6408.200
862.500; 3035.872;  -12.854; 6572.639
863.062; 3072.487;  -12.344; 6387.297
863.625; 3073.957;  -13.314; 6190.836
864.188; 2915.721;  -14.724; 5807.254
864.751; 2803.821;  -13.464; 5682.413
865.314; 2770.656;  -11.684; 5547.492
865.876; 2843.085;  -11.104; 5500.150
866.439; 3002.388;  -12.344; 5415.909
867.002; 3017.129;  -13.494; 5501.567
867.564; 3019.264;  -10.935; 5413.946
868.127; 2875.039;  -12.665; 5160.325
868.689; 2662.216;  -14.515; 5133.183
869.252; 2660.109;  -13.425; 5252.382
869.814; 2691.760;  -11.595; 5297.141
870.377; 2700.248;  -12.175; 5390.919
870.939; 2580.413;  -10.265; 5599.898
871.501; 2461.480;  -12.375; 5248.336
872.063; 2432.525;  -14.355; 4854.235
872.626; 2496.220;  -14.435; 4817.074
873.188; 2426.044;  -12.415; 4987.732
873.750; 2363.050;  -14.555; 4868.651
874.312; 2375.144;  -11.185; 4779.330
874.874; 2323.204;  -12.715; 4866.348
875.436; 2181.505;  -13.196; 4718.887
875.998; 2068.815;  -11.426; 4660.005
876.560; 1976.493;   -9.786; 4462.964
877.122; 1947.120;  -12.796; 4145.042
877.683; 1882.027;  -13.226; 4056.481
878.245; 1781.286;  -12.036; 3950.740
878.807; 1689.099;  -11.536; 4058.958
879.369; 1665.835;  -10.806; 3954.677
879.930; 1755.177;  -13.946; 3941.495
880.492; 1869.161;  -11.876; 4067.014
881.053; 1806.425;  -13.216; 3859.633
881.615; 1689.152;  -12.226; 3776.071
882.176; 1630.706;  -12.946; 3734.750
882.738; 1612.799;  -10.736; 3678.489
883.299; 1551.814;  -12.057; 3405.407
883.860; 1439.695;  -12.677; 3351.106
884.422; 1371.982;  -14.097; 3394.044
884.983; 1313.314;  -13.667; 3166.443
885.544; 1245.105;  -10.717; 3189.802
886.105; 1189.612;  -14.357; 3160.360
886.666; 1131.717;  -14.287; 3093.059
887.227; 1071.973;  -14.297; 2941.957
887.788; 1028.854;  -13.137; 2974.836
888.349;  963.345;  -14.637; 2721.214
888.910;  896.785;  -12.247; 2696.493
889.471;  895.227;  -10.577; 2560.172
890.032;  897.151;  -12.937; 2558.190
890.593;  883.258;  -12.487; 2567.669
891.153;  863.781;  -11.898; 2460.307
891.714;  829.222;  -14.278; 2372.046
892.275;  803.769;  -13.308; 2309.505
892.835;  757.496;  -12.058; 2382.543
893.396;  676.410;  -15.268; 2295.502
893.956;  624.233;  -13.278; 2162.420
894.517;  604.199;  -11.968; 2125.439
895.077;  608.370;  -12.798; 2086.978
895.638;  591.766;  -11.908; 2126.316
896.198;  571.168;  -13.288; 1838.275
896.758;  546.566;  -12.198; 1892.813
897.319;  518.493;  -13.048; 1792.232
897.879;  487.862;  -13.718; 1762.751
898.439;  451.764;  -14.138; 1661.149
898.999;  414.486;  -13.659; 1781.468
899.559;  393.819;  -14.699; 1703.347
900.119;  374.441;  -14.339; 1537.525
900.679;  348.767;  -11.789; 1638.384
901.239;  320.275;  -13.629; 1527.902
901.799;  301.910;  -13.679; 1456.441
902.359;  291.215;  -13.679; 1357.140
902.919;  283.392;  -14.159; 1331.118
903.479;  272.222;  -13.419; 1317.257
904.038;  255.489;  -14.899; 1262.595
904.598;  240.705;  -14.339; 1152.034
905.158;  232.936;  -13.959; 1240.893
905.717;  226.647;  -12.749; 1233.691
906.277;  223.183;  -11.889; 1217.330
906.836;  217.311;  -12.870; 1222.408
907.396;  211.798;  -11.790; 1193.047
907.955;  204.965;  -13.750; 1182.526
908.515;  195.465;  -14.760; 1099.364
909.074;  188.248;  -12.540; 1092.863
909.633;  184.145;  -12.120; 1069.121
910.192;  177.830;  -12.550; 1196.460
910.752;  172.586;  -12.760; 1029.960
911.311;  168.520;  -14.750; 1009.780
911.870;  165.524;  -13.860;  971.460
912.429;  166.742;  -13.480; 1094.080
912.988;  165.945;  -12.370; 1081.060
913.547;  162.120;  -14.670;  940.380
914.106;  161.309;  -12.800;  999.420
914.665;  160.294;  -11.370;  984.020
915.224;  156.973;  -11.430; 1035.760
915.782;  154.564;  -12.260;  922.560
916.341;  153.254;  -12.540; 1049.840
916.900;  150.565;  -12.540;  925.260
917.458;  148.784;  -13.480;  884.220
918.017;  147.614;  -12.470;  942.600
918.576;  147.642;  -13.450;  904.440
919.134;  147.404;  -12.890;  837.980
919.693;  145.160;  -15.480;  893.060
920.251;  143.571;  -14.420;  876.500
920.809;  142.506;  -12.170;  839.580
921.368;  142.344;  -13.650;  885.360
921.926;  140.962;  -12.750;  842.940
922.484;  140.163;  -14.150;  903.360
923.042;  140.094;  -15.100;  880.340
923.601;  142.411;  -10.990;  998.680
924.159;  142.120;  -12.470;  935.560
924.717;  140.110;  -15.640;  841.080
925.275;  142.081;  -12.380;  903.240
925.833;  142.346;  -12.710;  779.320
926.391;  144.499;  -11.200;  938.380
926.949;  145.215;  -16.000;  857.680
927.506;  145.725;  -12.260;  903.500
928.064;  147.465;  -11.300;  877.580
928.622;  147.152;  -13.750;  880.100
929.180;  147.280;  -15.290;  814.180
929.737;  148.178;  -14.500;  808.540
930.295;  150.184;  -10.630;  928.480
930.853;  152.217;  -14.590;  849.100
931.410;  152.356;  -14.450;  821.120
931.968;  154.876;  -14.390;  940.660
932.525;  157.681;  -13.050;  909.380
933.082;  161.332;  -15.620;  811.440
933.640;  168.672;  -15.650;  925.900
934.197;  173.431;  -13.610;  886.360
934.754;  178.075;  -13.320;  897.780
935.312;  176.696;  -13.370;  863.340
935.869;  178.413;  -12.780; 1012.980
936.426;  178.685;  -14.480;  872.800
936.983;  182.010;  -13.180;  889.020
937.540;  181.762;  -15.710;  838.280
938.097;  181.796;  -14.980;  940.120
938.654;  181.823;  -13.060;  898.860
939.211;  180.366;  -12.760;  952.480
939.768;  182.651;  -16.230;  915.420
940.324;  189.708;  -10.940;  904.200
940.881;  197.631;  -12.570;  878.500
941.438;  202.915;  -13.650; 1021.200
941.995;  200.873;  -13.300;  992.560
942.551;  202.396;  -15.800;  875.620
943.108;  203.147;  -14.180;  937.920
943.664;  197.910;  -13.890;  869.340
944.221;  192.880;  -12.640; 1088.140
944.777;  183.060;  -14.700;  869.680
945.334;  173.822;  -13.010;  884.840
945.890;  160.034;  -13.480;  946.480
946.446;  144.374;  -14.920;  947.020
947.003;  135.193;  -13.860;  964.940
947.559;  134.132;  -12.000; 1063.040
948.115;  138.142;  -10.510; 1026.540
948.671;  145.346;  -12.760;  967.300
949.227;  150.086;  -15.390;  859.560
949.783;  152.361;  -15.570;  858.900
950.339;  154.657;  -12.800;  991.000
950.895;  154.129;  -13.780; 1023.840
951.451;  151.164;  -13.810;  925.280
952.007;  154.387;  -12.390;  998.540
952.563;  153.499;  -11.980;  937.780
953.118;  150.555;  -14.070;  904.940
953.674;  148.658;  -14.140;  935.780
954.230;  148.163;  -12.680;  949.640
954.785;  149.875;  -12.770;  936.640
955.341;  150.648;  -11.450;  998.160
955.897;  145.771;  -15.350;  834.660
956.452;  145.502;  -14.200;  953.840
957.008;  145.199;  -10.820; 1083.640
957.563;  142.030;  -13.200; 1009.540
958.118;  136.572;  -14.460;  877.700
958.674;  137.436;  -13.840;  946.780
959.229;  138.153;  -10.670; 1013.980
959.784;  139.916;  -17.040;  832.400
960.339;  142.992;  -12.970; 1001.280
960.894;  143.787;  -12.700;  963.760
961.449;  142.556;  -13.790;  859.960
962.004;  147.695;  -11.760; 1212.840
962.559;  147.935;  -14.840;  860.140
963.114;  146.577;  -14.530;  742.480
963.669;  149.131;  -12.780;  915.500
964.224;  148.910;  -14.330;  874.340
964.779;  145.576;  -14.380;  828.420
965.334;  140.023;  -12.460; 1017.860
965.888;  136.233;  -13.490;  875.360
966.443;  135.302;  -14.140;  972.380
966.998;  131.690;  -16.240;  819.460
967.552;  128.994;  -12.730;  908.380
968.107;  126.764;  -14.510;  868.300
968.661;  127.233;  -11.850;  922.440
969.216;  125.243;  -14.370;  856.280
969.770;  124.749;  -13.010;  917.200
970.324;  125.398;  -12.460;  923.140
970.879;  125.921;  -11.580;  947.180
971.433;  124.331;  -13.130;  952.720
971.987;  121.234;  -12.360;  895.340
972.541;  122.302;  -14.330;  917.100
973.095;  121.738;  -13.310; 1009.460
973.649;  119.256;  -15.830;  809.480
974.203;  121.671;  -15.830;  829.040
974.757;  125.700;  -13.480;  855.220
975.311;  123.359;  -13.720;  872.600
975.865;  118.826;  -15.780;  881.820
976.419;  115.551;  -14.290;  857.400
976.973;  114.749;  -13.210;  849.620
977.526;  113.300;  -12.300;  949.920
978.080;  109.477;  -14.840;  796.780
978.634;  110.178;  -13.100;  921.320
979.187;  107.671;  -12.300;  905.400
979.741;  105.353;  -12.020; 1018.380
980.294;   97.994;  -14.590;  789.160
980.848;   95.455;  -14.390;  717.220
981.401;   95.633;  -14.280;  816.540
981.955;   95.929;  -11.920;  844.300
982.508;   92.743;  -15.790;  746.340
983.061;   93.624;  -12.070;  915.260
983.615;   91.060;  -13.260;  798.800
984.168;   87.322;  -15.540;  770.080
984.721;   87.023;  -13.230;  880.760
985.274;   85.793;  -11.820;  867.500
985.827;   84.564;  -13.510;  834.220
986.380;   80.761;  -14.840;  721.340
986.933;   80.598;  -13.970;  864.800
987.486;   79.885;  -12.450;  861.920
988.039;   78.081;  -11.170;  863.100
988.591;   75.897;  -13.070;  893.260
989.144;   72.266;  -15.530;  737.260
989.697;   70.952;  -14.300;  758.740
990.250;   70.692;  -13.310;  858.100
990.802;   69.347;  -14.490;  755.860
991.355;   70.601;  -12.980;  974.880
991.907;   68.900;  -13.715;  864.320
992.460;   67.200;  -14.450;  753.760
993.012;   66.556;  -12.590;  749.540
993.565;   64.428;  -15.180;  711.360
994.117;   66.087;  -11.630;  950.780
994.669;   62.206;  -13.760;  701.320
995.221;   61.477;  -12.710;  791.920
995.774;   60.187;  -14.620;  787.580
996.326;   59.185;  -13.150;  740.220
996.878;   60.307;  -12.880;  838.420
997.430;   58.257;  -14.580;  699.860
997.982;   57.282;  -14.030;  750.140
998.534;   56.730;  -12.190;  739.060
999.086;   56.943;  -12.990;  738.220
999.638;   54.509;  -13.180;  661.380
1000.190;   53.722;  -14.970;  699.320
1000.741;   54.167;  -12.200;  742.700
1001.293;   53.925;  -13.400;  686.020
1001.845;   53.259;  -14.490;  676.640
1002.396;   52.965;  -15.280;  743.400
1002.948;   52.835;  -12.380;  737.400
1003.500;   51.763;  -13.260;  723.780
1004.051;   53.746;  -13.730;  907.580
1004.603;   51.041;  -12.300;  791.820
1005.154;   47.193;  -15.330;  608.980
1005.705;   47.230;  -12.800;  723.960
1006.257;   46.655;  -13.900;  707.220
1006.808;   45.134;  -14.430;  685.460
1007.359;   44.723;  -12.010;  763.240
1007.910;   43.962;  -12.690;  646.640
1008.461;   43.677;  -13.610;  732.940
1009.013;   41.302;  -14.990;  588.340
1009.564;   42.152;  -11.860;  793.520
1010.115;   40.897;  -12.640;  597.040
1010.665;   41.133;  -14.570;  602.160
1011.216;   40.276;  -15.190;  667.920
1011.767;   40.169;  -13.470;  697.920
1012.318;   41.294;  -13.760;  736.980
1012.869;   39.536;  -15.950;  679.000
1013.419;   39.482;  -15.880;  603.120
1013.970;   39.449;  -14.540;  666.640
1014.521;   38.812;  -13.220;  620.620
1015.071;   38.396;  -15.020;  670.380
1015.622;   38.150;  -17.510;  635.460
1016.172;   37.437;  -14.130;  596.820
1016.723;   36.862;  -14.220;  614.380
1017.273;   37.060;  -15.370;  604.160
1017.823;   36.990;  -15.290;  650.340
1018.374;   35.754;  -13.420;  611.760
1018.924;   36.617;  -11.740;  716.880
1019.474;   37.331;  -12.250;  718.880
1020.024;   35.471;  -15.850;  657.580
1020.574;   35.845;  -13.280;  726.160
1021.124;   36.515;  -13.560;  673.580
1021.674;   34.426;  -13.790;  559.120
1022.224;   35.342;  -14.610;  708.940
1022.774;   35.061;  -13.100;  668.820
1023.324;   35.636;  -11.470;  753.520
1023.874;   37.598;  -11.990;  875.760
1024.423;   34.047;  -14.550;  613.700
1024.973;   33.960;  -14.440;  610.760
1025.523;   32.747;  -13.250;  620.960
1026.072;   33.061;  -15.200;  606.420
1026.622;   32.718;  -14.590;  675.740
1027.172;   33.066;  -11.080;  715.660
1027.721;   32.583;  -14.010;  601.220
1028.270;   32.761;  -13.690;  663.400
1028.820;   31.306;  -15.380;  638.080
1029.369;   31.502;  -14.980;  612.700
1029.918;   32.411;  -13.100;  649.840
1030.468;   31.700;  -13.680;  564.780
1031.017;   31.365;  -13.770;  634.800
1031.566;   30.603;  -14.100;  608.900
1032.115;   31.741;  -11.770;  694.500
1032.664;   29.942;  -14.940;  596.480
1033.213;   30.998;  -13.370;  735.420
1033.762;   29.813;  -13.660;  635.620
1034.311;   30.517;  -13.650;  677.220
1034.860;   30.188;  -13.820;  691.000
1035.408;   30.132;  -12.860;  722.720
1035.957;   30.300;  -13.060;  719.540
1036.506;   28.118;  -14.510;  530.800
1037.055;   31.508;  -13.470;  844.320
1037.603;   28.815;  -14.800;  664.000
1038.152;   27.816;  -14.190;  534.760
1038.700;   28.368;  -11.810;  585.740
1039.249;   28.313;  -12.850;  681.220
1039.797;   28.192;  -14.610;  633.360
1040.345;   27.523;  -15.220;  705.420
1040.894;   27.722;  -13.480;  625.300
1041.442;   27.519;  -13.310;  632.200
1041.990;   26.542;  -14.510;  559.160
1042.538;   25.130;  -15.700;  536.180
1043.087;   26.323;  -13.910;  570.860
1043.635;   28.320;  -13.620;  670.500
1044.183;   26.259;  -14.230;  586.400
1044.731;   26.641;  -13.730;  576.000
1045.279;   26.135;  -13.970;  674.920
1045.827;   28.790;  -10.750;  892.400
1046.374;   24.719;  -15.230;  515.420
1046.922;   24.762;  -15.390;  590.580
1047.470;   26.543;  -12.320;  691.300
1048.018;   26.401;  -13.230;  647.960
1048.565;   26.274;  -13.390;  708.600
1049.113;   24.184;  -15.030;  557.000
1049.660;   25.263;  -12.540;  629.660
1050.208;   25.000;  -15.040;  675.640
1050.755;   23.962;  -14.680;  606.580
1051.303;   24.692;  -13.610;  686.820
1051.850;   24.406;  -14.340;  635.120
1052.397;   21.769;  -16.330;  473.960
1052.945;   22.901;  -15.710;  617.760
1053.492;   24.223;  -12.320;  741.840
1054.039;   24.999;  -13.730;  720.180
1054.586;   23.186;  -16.140;  557.240
1055.133;   23.954;  -14.020;  693.140
1055.680;   23.198;  -13.430;  646.620
1056.227;   22.427;  -14.570;  542.780
1056.774;   24.836;  -14.400;  794.980
1057.321;   21.859;  -14.230;  523.260
1057.868;   21.959;  -14.220;  651.320
1058.415;   22.332;  -14.060;  651.980
1058.961;   22.291;  -14.640;  678.940
1059.508;   21.853;  -13.970;  643.820
1060.055;   21.426;  -15.100;  581.780
1060.601;   22.662;  -12.180;  624.300
1061.148;   21.725;  -15.010;  616.820
1061.694;   21.002;  -14.750;  592.580
1062.241;   20.248;  -14.130;  596.320
1062.787;   22.008;  -14.770;  663.140
1063.334;   23.507;  -13.130;  808.560
1063.880;   20.660;  -14.420;  668.360
1064.426;   21.399;  -13.130;  706.820
1064.972;   19.919;  -13.960;  601.340
1065.518;   19.515;  -13.680;  566.640
1066.065;   20.234;  -15.720;  624.460
1066.611;   18.333;  -13.970;  598.800
1067.157;   19.851;  -13.920;  641.860
1067.703;   19.893;  -14.760;  668.480
1068.249;   20.395;  -14.490;  605.220
1068.794;   19.220;  -14.740;  626.880
1069.340;   18.895;  -13.220;  578.960
1069.886;   19.706;  -14.930;  590.700
1070.432;   17.634;  -14.700;  541.720
1070.977;   17.726;  -14.470;  601.080
1071.523;   18.288;  -14.330;  573.060
1072.068;   18.332;  -14.960;  582.000
1072.614;   17.505;  -16.220;  527.760
1073.160;   19.162;  -11.280;  687.040
1073.705;   17.510;  -15.990;  572.520
1074.250;   17.394;  -16.550;  559.900
1074.796;   17.975;  -14.600;  655.160
1075.341;   18.123;  -13.440;  664.100
1075.886;   18.118;  -14.450;  594.240
1076.431;   17.769;  -13.160;  649.880
1076.976;   16.494;  -14.710;  639.220
1077.521;   16.783;  -14.000;  583.080
1078.067;   15.839;  -14.470;  579.400
1078.612;   16.808;  -14.530;  661.620
1079.156;   16.814;  -15.660;  601.540
1079.701;   16.395;  -16.120;  693.260
1080.246;   17.536;  -12.960;  696.300
1080.791;   16.747;  -13.700;  625.020
1081.336;   16.952;  -15.540;  659.320
1081.880;   16.771;  -14.640;  649.680
1082.425;   15.938;  -14.220;  573.480
1082.970;   17.347;  -11.890;  717.040
1083.514;   16.050;  -13.820;  597.000
1084.059;   14.936;  -14.280;  586.720
1084.603;   14.481;  -12.890;  565.840
1085.147;   15.746;  -13.590;  645.220
1085.692;   16.382;  -14.050;  716.800
1086.236;   13.367;  -14.990;  503.140
1086.780;   16.511;  -12.640;  751.440
1087.325;   15.185;  -15.550;  654.620
1087.869;   15.006;  -14.980;  610.700
1088.413;   15.624;  -13.440;  705.040
1088.957;   14.329;  -12.170;  543.400
1089.501;   16.177;  -12.730;  766.640
1090.045;   15.150;  -14.650;  726.480
1090.589;   13.082;  -14.500;  569.920
1091.133;   13.925;  -12.320;  673.340
1091.676;   14.356;  -16.130;  591.940
1092.220;   13.264;  -13.930;  600.920
1092.764;   15.277;  -12.820;  706.960
1093.307;   14.621;  -11.700;  673.780
1093.851;   13.109;  -15.600;  556.540
1094.395;   13.483;  -13.920;  683.140
1094.938;   12.507;  -16.090;  632.520
1095.482;   13.189;  -13.820;  559.800
1096.025;   14.362;  -12.720;  710.880
1096.568;   14.244;  -12.100;  779.280
1097.112;   10.876;  -15.450;  508.180
1097.655;   13.056;  -14.310;  603.000
1098.198;   11.754;  -14.740;  600.180
1098.741;   11.643;  -15.550;  612.860
1099.285;   13.041;  -12.600;  657.300
1099.828;   11.061;  -15.050;  439.400
1100.371;   12.619;  -14.800;  608.160
1100.914;   12.396;  -16.480;  682.660
1101.457;   12.101;  -12.990;  679.900
1101.999;   10.868;  -14.110;  584.680
1102.542;   11.775;  -11.450;  641.440
1103.085;   11.304;  -13.350;  658.500
1103.628;   11.764;  -13.200;  762.060
1104.170;   11.140;  -12.310;  588.280
1104.713;   11.830;  -14.320;  646.700
1105.256;   10.685;  -16.110;  557.440
1105.798;    8.903;  -15.910;  499.980
1106.341;   12.686;  -12.200;  728.900
1106.883;   10.844;  -14.910;  521.340
1107.425;   10.488;  -14.960;  668.180
1107.968;    9.899;  -13.440;  612.380
1108.510;   11.325;  -14.010;  684.960
1109.052;    9.739;  -15.430;  612.620
1109.594;    9.614;  -15.290;  554.440
1110.136;   10.534;  -13.360;  643.220
1110.679;    9.681;  -13.820;  633.080
1111.221;   10.239;  -13.690;  604.460
1111.763;    9.685;  -14.890;  559.220
1112.304;    8.902;  -14.550;  547.140
1112.846;   10.251;  -12.760;  666.240
1113.388;   13.286;  -10.780;  942.180
1113.930;    9.407;  -12.690;  694.200
1114.472;    8.211;  -15.730;  606.540
1115.013;    7.591;  -14.620;  551.280
1115.555;    8.338;  -14.950;  587.100
1116.097;    7.541;  -16.460;  579.480
1116.638;    8.602;  -13.730;  684.600
1117.180;    9.125;  -13.810;  667.740
1117.721;    8.253;  -13.280;  568.580
1118.262;    8.796;  -15.080;  677.960
1118.804;    8.545;  -14.040;  637.340
1119.345;    7.863;  -15.430;  578.400
1119.886;    9.407;  -15.240;  704.040
1120.427;    7.677;  -15.820;  589.020
1120.969;    7.177;  -14.550;  597.920
1121.510;    6.461;  -14.030;  563.060
1122.051;    7.961;  -11.990;  723.580
1122.592;    7.336;  -16.490;  655.420
1123.133;    6.147;  -15.580;  547.940
1123.673;    8.595;  -12.850;  706.480
1124.214;    8.115;  -13.630;  612.460
1124.755;    7.510;  -14.830;  639.460
1125.296;    6.659;  -13.110;  627.320
1125.836;    8.265;  -11.320;  691.500
1126.377;    6.460;  -14.330;  599.660
1126.918;    7.329;  -12.800;  614.980
1127.458;    5.899;  -13.580;  622.220
1127.999;    7.672;  -10.330;  656.980
1128.539;    7.017;  -13.390;  694.240
1129.079;    6.033;  -16.420;  632.720
1129.620;    5.686;  -15.700;  558.100
1130.160;    5.650;  -14.790;  539.480
1130.700;    6.696;  -12.910;  640.840
1131.240;    6.346;  -15.610;  643.700
1131.781;    5.537;  -12.920;  619.680
1132.321;    5.460;  -15.300;  599.120
1132.861;    5.912;  -14.760;  564.200
1133.401;    4.694;  -15.470;  593.940
1133.941;    5.908;  -13.710;  626.280
1134.481;    4.853;  -11.820;  597.580
1135.020;    5.054;  -14.810;  609.160
1135.560;    5.692;  -13.660;  674.940
1136.100;    3.693;  -13.940;  501.160
1136.640;    4.029;  -15.410;  510.480
1137.179;    4.922;  -16.920;  537.960
1137.719;    4.654;  -16.430;  605.400
1138.258;    4.482;  -16.300;  587.360
1138.798;    6.144;  -13.710;  663.780
1139.337;    3.952;  -13.840;  482.840
1139.877;    5.048;  -16.140;  642.360
1140.416;    7.264;  -11.410;  878.060
1140.955;    3.758;  -12.820;  535.380
1141.494;    4.874;  -12.310;  669.280
1142.034;    4.039;  -16.280;  583.520
1142.573;    4.631;  -13.090;  646.280
1143.112;    3.382;  -13.770;  553.480
1143.651;    3.851;  -15.830;  536.480
1144.190;    4.244;  -15.010;  691.640
1144.729;    3.148;  -13.650;  607.420
1145.267;    3.521;  -13.670;  584.900
1145.806;    4.774;  -13.630;  637.040
1146.345;    3.537;  -14.160;  635.020
1146.884;    3.224;  -11.180;  622.500
1147.422;    3.504;  -15.890;  533.060
1147.961;    4.798;  -12.760;  708.460
1148.500;    3.701;  -15.220;  669.720
1149.038;    4.088;  -13.720;  632.500
1149.577;    3.651;  -13.250;  698.640
1150.115;    1.149;  -16.790;  452.280
1150.653;    3.072;  -15.810;  607.340
1151.192;    2.732;  -14.730;  552.920
1151.730;    3.164;  -13.660;  652.560
1152.268;    2.854;  -15.120;  589.520
1152.806;    2.258;  -15.580;  571.180
1153.344;    1.526;  -16.210;  577.640
1153.882;    2.987;  -12.810;  600.060
1154.421;    1.223;  -14.150;  470.620
1154.958;    1.214;  -15.360;  595.240
1155.496;    2.588;  -14.710;  645.280
1156.034;    2.883;  -13.640;  721.880
1156.572;    3.222;  -13.740;  667.060
1157.110;    0.894;  -16.960;  473.940
1157.647;    2.576;  -11.940;  676.960
1158.185;    2.097;  -14.090;  564.320
1158.723;    1.181;  -13.610;  509.200
1159.260;    2.706;  -14.760;  701.700
1159.798;    2.687;  -13.700;  658.160
1160.335;    2.069;  -13.820;  631.820

