gmr_left
Integration time [ms]:   3.882
Averaging Nr. [scans]: 1000
Smoothing Nr. [pixels]: 0
Data measured with spectrometer [name]: 7414430SP
Wave   ;Sample   ;Dark     ;Reference
[nm]   ;[counts] ;[counts] ;[counts] 

288.544;  128.572;   10.292;  793.890
289.143;  132.823;    4.564;  681.602
289.742;  134.727;    6.144;  828.814
290.341;  120.569;    4.396;  789.841
290.940;  110.902;    0.938;  730.702
291.538;  112.892;   -0.684;  881.108
292.137;  111.384;   -2.845;  792.581
292.736;  114.896;   -0.144;  975.101
293.335;  110.960;   -6.352;  735.086
293.934;  112.049;   -7.642;  781.677
294.532;  111.766;   -4.992; 1031.958
295.131;   98.359;   -5.478;  834.394
295.730;   98.080;   -6.549;  809.588
296.328;   96.588;   -9.558;  783.442
296.927;   96.917;   -8.118;  779.652
297.525;   97.279;   -6.908;  781.236
298.124;   87.001;   -9.195;  654.009
298.722;   92.341;   -8.198;  761.933
299.321;   90.302;   -8.817;  708.597
299.919;   87.820;   -7.716;  751.918
300.518;   83.591;  -10.745;  689.338
301.116;   86.035;   -9.647;  691.381
301.715;   86.837;  -10.828;  730.222
302.313;   85.985;   -6.087;  704.943
302.911;   80.131;   -6.824;  733.830
303.509;   85.754;   -8.807;  925.627
304.108;   82.689;   -8.198;  760.383
304.706;   83.364;   -6.218;  801.664
305.304;   77.690;   -7.185;  796.707
305.902;   83.999;   -8.568;  784.484
306.500;   78.837;   -7.737;  728.200
307.098;   77.196;   -6.026;  746.560
307.696;   75.118;   -7.176;  780.432
308.294;   75.949;   -8.656;  731.359
308.892;   78.296;   -6.838;  759.769
309.490;   73.298;   -2.596;  712.161
310.088;   72.157;   -4.485;  788.444
310.686;   78.123;   -3.907;  821.749
311.284;   73.370;   -2.806;  766.040
311.882;   70.828;   -2.845;  731.225
312.480;   66.765;   -3.274;  697.167
313.078;   69.918;   -3.645;  808.331
313.675;   70.301;   -4.997;  691.600
314.273;   65.362;   -0.894;  797.837
314.871;   64.637;   -2.854;  589.829
315.468;   63.096;   -3.644;  652.090
316.066;   66.297;   -3.947;  694.427
316.664;   57.869;   -1.824;  656.351
317.261;   63.205;    1.565;  910.128
317.859;   59.252;   -3.955;  768.735
318.456;   60.279;   -2.886;  830.096
319.054;   55.652;   -0.995;  787.828
319.651;   54.348;   -1.765;  759.928
320.249;   54.646;   -3.685;  810.188
320.846;   52.432;   -3.736;  714.286
321.443;   51.023;   -2.065;  832.135
322.041;   47.600;   -5.635;  812.315
322.638;   46.702;   -5.985;  701.456
323.235;   47.981;   -6.677;  665.683
323.833;   45.894;   -3.497;  740.354
324.430;   41.013;   -6.756;  615.900
325.027;   42.918;   -7.647;  876.855
325.624;   43.838;   -7.598;  644.532
326.221;   39.800;   -5.848;  689.717
326.818;   39.863;   -5.777;  818.332
327.415;   43.546;   -8.769;  748.828
328.012;   42.210;   -6.299;  690.585
328.609;   40.430;   -6.639;  731.389
329.206;   38.549;   -6.358;  778.621
329.803;   38.312;   -8.698;  737.841
330.400;   40.436;   -8.379;  704.260
330.997;   40.464;   -6.178;  817.147
331.594;   37.710;   -5.646;  788.185
332.191;   43.236;   -6.928;  728.722
332.787;   44.261;   -6.057;  844.463
333.384;   42.037;   -6.445;  763.093
333.981;   40.453;   -8.002;  815.687
334.578;   41.931;   -8.443;  708.378
335.174;   44.506;   -6.053;  731.469
335.771;   44.082;   -5.791;  836.456
336.367;   40.082;   -6.570;  710.631
336.964;   43.809;   -6.741;  793.266
337.561;   42.051;   -5.710;  731.112
338.157;   38.784;   -3.928;  911.916
338.754;   35.086;   -5.577;  796.589
339.350;   33.981;   -9.667;  722.493
339.946;   38.057;   -5.269;  773.135
340.543;   29.725;   -4.485;  846.136
341.139;   23.529;   -7.584;  720.836
341.735;   23.361;   -8.553;  772.593
342.332;   22.177;   -4.984;  691.472
342.928;   22.553;   -3.475;  795.394
343.524;   17.087;   -6.653;  761.684
344.120;   14.610;   -7.173;  738.562
344.716;   17.198;   -4.385;  723.717
345.313;   15.387;   -3.565;  795.342
345.909;   10.578;   -7.495;  627.336
346.505;   14.068;   -8.276;  740.247
347.101;   14.145;   -5.697;  827.864
347.697;   14.088;   -4.767;  785.398
348.293;    8.088;   -7.226;  627.244
348.889;   10.043;   -7.547;  745.914
349.485;    9.788;   -9.147;  688.205
350.081;   10.382;   -6.568;  772.592
350.676;    5.415;   -6.516;  691.606
351.272;    9.816;   -7.378;  809.530
351.868;   10.295;   -6.759;  780.497
352.464;    7.589;   -4.798;  723.932
353.059;    3.593;   -7.977;  646.017
353.655;    8.365;   -8.769;  777.063
354.251;    8.691;   -5.920;  759.845
354.846;    2.409;   -7.647;  740.646
355.442;    0.738;   -6.956;  753.071
356.038;    3.223;   -9.928;  751.708
356.633;    3.012;   -7.698;  728.594
357.229;    1.706;   -6.307;  724.757
357.824;   -0.859;   -7.647;  703.600
358.420;   -0.662;  -10.047;  679.726
359.015;   -0.698;   -7.458;  695.357
359.610;    1.102;   -5.748;  763.920
360.206;   -5.750;   -9.346;  603.240
360.801;   -2.114;  -11.268;  646.503
361.396;    0.709;   -8.789;  725.975
361.992;   -4.171;   -6.347;  668.220
362.587;   -7.431;   -6.476;  670.160
363.182;   -4.984;   -9.457;  689.631
363.777;   -3.688;   -7.147;  738.242
364.372;   -4.222;   -5.507;  737.314
364.967;   -8.918;   -6.386;  680.744
365.563;   -3.624;   -7.858;  815.567
366.158;   -6.239;   -8.517;  685.161
366.753;   -5.714;   -8.728;  649.263
367.348;   -7.171;   -7.677;  746.056
367.942;   -7.082;  -10.387;  697.298
368.537;   -8.232;   -7.187;  754.245
369.132;   -8.114;   -8.587;  703.428
369.727;  -12.143;   -8.606;  638.079
370.322;  -10.194;  -10.426;  580.186
370.917;  -10.327;   -5.776;  710.646
371.511;   -7.091;   -6.007;  861.834
372.106;  -11.589;   -6.686;  776.964
372.701;  -14.388;   -9.335;  585.988
373.296;   -8.262;   -6.777;  863.135
373.890;  -13.879;   -7.546;  647.840
374.485;  -15.599;   -8.755;  691.199
375.079;  -11.069;   -9.797;  738.685
375.674;   -9.440;   -6.327;  812.970
376.268;  -14.188;   -9.046;  691.759
376.863;  -19.700;   -7.993;  580.327
377.457;  -13.145;   -9.206;  662.490
378.052;  -14.461;   -5.345;  764.884
378.646;  -15.585;   -5.605;  741.167
379.240;  -17.100;   -6.825;  721.176
379.835;  -15.646;  -10.476;  636.978
380.429;  -17.030;   -8.676;  562.557
381.023;  -16.571;   -4.945;  779.205
381.617;  -20.340;   -8.094;  680.106
382.212;  -15.562;  -10.646;  685.303
382.806;  -14.261;   -8.136;  760.690
383.400;  -19.128;   -7.855;  672.281
383.994;  -20.611;   -8.125;  664.870
384.588;  -16.338;   -7.637;  697.701
385.182;  -14.205;   -7.458;  726.624
385.776;  -16.152;   -6.277;  706.875
386.370;  -19.512;   -7.485;  681.968
386.964;  -16.655;   -9.416;  684.155
387.558;  -16.276;   -8.518;  598.360
388.152;  -19.600;   -7.096;  681.959
388.745;  -18.003;   -7.656;  814.707
389.339;  -15.343;   -8.927;  747.642
389.933;  -14.776;   -9.538;  695.370
390.527;  -16.100;   -5.857;  859.029
391.120;  -22.200;   -9.455;  595.318
391.714;  -18.709;   -9.746;  711.633
392.308;  -15.521;   -7.857;  780.253
392.901;  -19.628;   -9.106;  642.460
393.495;  -21.872;  -10.365;  595.414
394.089;  -18.990;   -9.696;  760.452
394.682;  -19.486;   -7.016;  697.188
395.275;  -20.461;   -8.466;  719.927
395.869;  -21.681;   -8.985;  667.314
396.462;  -19.827;  -11.496;  616.609
397.056;  -15.210;   -7.838;  776.621
397.649;  -21.024;   -6.895;  731.575
398.242;  -17.971;   -5.017;  712.645
398.836;  -16.600;   -8.787;  766.408
399.429;  -17.414;   -8.967;  631.041
400.022;  -21.873;   -8.815;  665.902
400.615;  -18.409;   -6.276;  805.609
401.208;  -15.650;   -8.407;  691.451
401.802;  -18.536;   -7.296;  699.329
402.395;  -20.366;   -7.585;  683.502
402.988;  -21.971;   -8.015;  696.627
403.581;  -18.170;   -9.577;  646.878
404.174;  -15.265;   -7.588;  686.568
404.767;  -18.081;   -7.906;  638.583
405.360;  -21.250;   -7.875;  621.445
405.953;  -14.844;   -8.127;  759.034
406.545;  -14.463;   -7.198;  725.342
407.138;  -18.746;   -8.916;  618.350
407.731;  -17.906;   -9.767;  613.303
408.324;  -12.761;  -10.659;  660.554
408.917;  -14.519;   -8.068;  681.864
409.509;  -16.548;   -9.837;  740.396
410.102;  -18.270;   -8.146;  643.948
410.695;  -11.893;   -7.969;  665.758
411.287;  -13.057;   -8.579;  599.821
411.880;  -13.755;   -6.968;  585.421
412.472;  -17.505;   -9.487;  613.092
413.065;  -14.091;  -10.338;  629.408
413.657;  -11.487;   -9.169;  576.678
414.250;  -11.736;  -10.119;  646.681
414.842;  -14.204;   -9.938;  676.353
415.434;  -11.072;  -10.409;  570.463
416.027;   -6.444;   -9.591;  652.196
416.619;   -9.245;   -7.379;  713.400
417.211;  -10.571;   -9.159;  599.352
417.804;   -6.179;   -9.191;  628.499
418.396;   -9.697;   -8.159;  607.643
418.988;   -7.088;   -6.960;  659.238
419.580;  -11.905;  -11.389;  568.276
420.172;   -8.458;  -13.460;  536.196
420.764;   -4.099;  -10.701;  672.482
421.356;   -5.175;   -8.961;  636.898
421.948;   -7.017;   -9.770;  677.661
422.540;   -0.828;   -8.832;  680.027
423.132;   -1.315;   -8.153;  600.641
423.724;   -5.294;   -8.481;  561.267
424.316;   -3.576;   -9.261;  621.345
424.908;    0.614;   -9.643;  591.517
425.500;    1.364;   -8.663;  647.978
426.092;    1.857;   -8.503;  648.268
426.683;   -0.041;  -10.522;  684.836
427.275;    4.522;  -11.734;  641.471
427.867;    5.302;  -10.264;  668.948
428.458;    5.965;   -7.644;  732.344
429.050;    3.780;   -7.853;  680.749
429.642;    6.859;   -8.904;  743.124
430.233;    7.216;  -10.795;  569.356
430.825;    8.417;   -7.665;  724.809
431.416;    5.256;   -8.843;  698.241
432.008;   10.034;   -9.885;  651.723
432.599;   10.630;   -9.966;  656.073
433.190;    6.635;   -9.164;  637.670
433.782;    5.961;   -8.584;  590.395
434.373;   14.426;   -8.296;  884.765
434.964;   13.076;   -9.896;  602.920
435.556;    9.852;   -8.255;  634.537
436.147;   12.868;   -8.075;  758.490
436.738;   12.901;   -9.716;  701.099
437.329;   19.163;   -7.318;  721.723
437.920;   10.976;   -6.694;  666.688
438.511;   10.395;   -9.644;  564.526
439.103;   18.189;   -9.427;  623.998
439.694;   20.709;  -10.748;  681.583
440.285;   21.241;   -7.997;  764.432
440.876;   18.857;  -10.046;  845.738
441.466;   18.263;  -13.467;  575.162
442.057;   24.190;   -9.329;  665.814
442.648;   22.002;   -7.707;  746.255
443.239;   19.639;   -9.017;  620.477
443.830;   26.043;  -10.279;  704.958
444.421;   27.723;  -12.630;  655.474
445.011;   23.495;   -8.697;  693.619
445.602;   23.513;   -7.787;  743.126
446.193;   26.026;  -13.329;  488.117
446.783;   30.605;   -9.171;  640.397
447.374;   25.997;   -7.457;  692.759
447.964;   26.949;   -9.277;  713.770
448.555;   35.242;   -9.041;  822.742
449.145;   32.485;   -8.969;  662.853
449.736;   32.015;   -6.809;  803.179
450.326;   31.858;   -7.229;  713.626
450.917;   37.762;  -11.391;  675.324
451.507;   36.333;   -9.501;  600.661
452.097;   37.133;   -8.460;  746.267
452.688;   37.707;  -10.080;  742.160
453.278;   38.725;  -12.861;  566.840
453.868;   42.600;   -8.372;  793.550
454.458;   40.559;   -8.131;  651.141
455.048;   40.968;   -8.520;  711.783
455.639;   42.821;  -13.632;  567.096
456.229;   45.888;  -10.143;  710.694
456.819;   48.224;   -9.163;  751.158
457.409;   48.524;   -8.652;  773.993
457.999;   51.810;   -9.933;  737.505
458.589;   51.407;  -10.363;  686.606
459.179;   50.449;  -10.633;  717.658
459.769;   48.570;  -12.442;  627.099
460.358;   54.796;   -9.844;  797.262
460.948;   54.340;   -9.924;  689.503
461.538;   55.353;  -10.484;  660.677
462.128;   53.866;  -10.703;  664.934
462.717;   60.005;  -11.486;  710.326
463.307;   64.275;  -10.767;  705.846
463.897;   59.346;   -8.814;  656.942
464.486;   59.037;   -8.182;  837.128
465.076;   61.613;   -9.985;  733.776
465.666;   67.026;  -10.447;  652.900
466.255;   64.182;   -7.754;  785.651
466.845;   62.630;  -10.884;  666.749
467.434;   66.363;  -12.525;  725.873
468.023;   67.851;  -11.456;  658.357
468.613;   64.787;   -9.173;  713.946
469.202;   68.755;   -9.306;  646.507
469.791;   73.742;   -8.917;  737.811
470.381;   76.584;   -9.657;  742.813
470.970;   74.842;   -9.947;  711.099
471.559;   75.578;   -9.256;  733.291
472.148;   77.375;  -13.397;  675.737
472.738;   81.087;   -9.928;  765.466
473.327;   79.853;  -10.897;  637.529
473.916;   79.461;   -8.526;  737.446
474.505;   84.818;  -11.078;  751.703
475.094;   87.857;   -9.559;  806.570
475.683;   86.022;   -8.838;  797.699
476.272;   86.671;  -10.198;  730.632
476.861;   90.761;  -11.489;  706.754
477.449;   98.153;  -10.721;  728.487
478.038;   90.902;   -9.818;  692.513
478.627;   90.931;   -9.887;  714.852
479.216;   98.788;  -10.030;  769.441
479.805;  102.522;   -9.401;  783.375
480.393;  102.029;   -5.739; 1008.945
480.982;  100.185;   -7.838;  874.501
481.571;  106.932;   -9.111;  858.333
482.159;  107.827;  -10.601;  705.386
482.748;  107.672;   -8.500;  821.385
483.336;  111.133;   -9.241;  858.209
483.925;  112.661;  -10.440;  774.373
484.513;  119.740;  -11.063;  758.962
485.102;  115.352;   -9.540;  810.965
485.690;  124.032;   -6.742; 1011.050
486.278;  127.982;   -8.442;  979.329
486.867;  126.538;  -10.472;  809.662
487.455;  128.407;   -8.811;  898.229
488.043;  129.843;  -10.721;  748.361
488.631;  139.178;  -10.393; 1005.079
489.220;  143.455;  -10.843;  908.626
489.808;  141.957;  -10.572;  741.415
490.396;  150.898;  -10.482;  914.645
490.984;  156.349;  -11.542;  830.161
491.572;  165.557;   -8.463;  940.315
492.160;  171.670;   -8.491;  919.081
492.748;  181.524;   -9.681;  884.341
493.336;  202.148;  -10.493; 1019.693
493.924;  225.303;   -9.354;  958.077
494.512;  253.761;   -9.132; 1066.638
495.100;  292.033;   -9.001; 1103.280
495.687;  349.637;  -11.924; 1206.373
496.275;  421.066;  -11.193; 1150.796
496.863;  496.414;   -9.241; 1281.171
497.451;  590.383;  -11.341; 1386.805
498.038;  715.163;  -11.364; 1556.729
498.626;  831.322;   -8.104; 1741.407
499.214; 1002.436;   -8.842; 2016.609
499.801; 1257.860;  -10.112; 2220.633
500.389; 1475.539;  -11.953; 2312.494
500.976; 1666.021;  -10.023; 2744.849
501.564; 1937.970;   -8.662; 3148.565
502.151; 2282.887;  -10.531; 3515.999
502.738; 2652.171;  -13.853; 3971.274
503.326; 3184.250;  -10.794; 4403.796
503.913; 3613.248;   -8.663; 5161.749
504.500; 4223.263;  -10.172; 5986.420
505.088; 5114.698;  -13.472; 6381.201
505.675; 5659.279;  -10.924; 6925.547
506.262; 5708.433;   -8.551; 7619.060
506.849; 6196.043;  -10.523; 8733.969
507.436; 7077.999;  -10.834; 9790.121
508.023; 7516.370;   -9.093; 9985.472
508.610; 7729.446;  -10.073;10434.618
509.197; 8700.382;   -9.500;11198.435
509.784;10272.169;  -13.242;12391.194
510.371;11185.078;  -10.964;13603.713
510.958;11523.762;   -9.772;14426.586
511.545;11753.650;   -7.842;15243.775
512.132;11805.789;  -12.184;15945.876
512.719;13054.779;   -9.733;16340.369
513.305;15654.521;   -9.172;18011.766
513.892;16874.359;   -9.581;19754.971
514.479;17664.576;  -10.253;20967.805
515.066;18371.889;   -8.183;22299.793
515.652;18996.395;   -9.253;22908.660
516.239;19615.367;   -9.412;23798.875
516.825;19665.854;  -11.153;25567.275
517.412;19265.873;  -10.263;28154.959
517.998;20203.891;   -8.802;28344.111
518.585;22717.301;  -10.401;27134.219
519.171;23925.014;  -12.744;27268.576
519.758;25613.033;  -11.793;28964.129
520.344;28833.270;   -8.912;30664.494
520.930;32218.939;  -10.901;32550.605
521.516;32169.936;  -12.034;35422.895
522.103;32577.854;  -10.473;38280.004
522.689;34303.156;   -8.311;37835.117
523.275;36847.289;  -10.691;37288.613
523.861;38964.574;  -11.193;37281.395
524.447;36627.230;  -11.484;37846.949
525.033;36630.961;   -7.702;38321.949
525.619;36496.738;  -11.241;38579.285
526.205;36346.395;  -12.152;40622.875
526.791;37518.391;  -11.423;42258.836
527.377;37970.066;   -7.981;42966.902
527.963;38568.094;   -9.450;42018.949
528.549;38793.172;  -11.351;42476.828
529.135;38799.531;  -10.202;41854.852
529.721;40438.578;   -8.672;41237.711
530.306;40460.984;   -9.111;41259.445
530.892;41661.211;  -11.252;41506.047
531.478;45012.523;  -10.432;43559.613
532.063;47271.238;  -10.721;47695.563
532.649;47792.898;   -7.450;50808.324
533.235;49270.441;  -11.811;51787.500
533.820;48313.059;   -9.383;52145.035
534.406;46049.375;   -9.400;51133.488
534.991;44175.449;   -8.861;49996.805
535.576;44990.148;  -10.612;48882.852
536.162;43128.578;   -7.322;46942.285
536.747;42247.082;   -9.360;45711.746
537.333;43639.012;  -10.450;48510.180
537.918;46391.719;  -12.610;50439.891
538.503;46493.453;  -12.132;50863.711
539.088;43369.301;  -10.831;50906.922
539.673;42401.945;  -11.220;52621.965
540.259;46323.059;  -11.481;52368.094
540.844;47317.125;  -11.462;50879.109
541.429;48733.621;   -7.869;52077.777
542.014;47108.383;  -11.859;52716.695
542.599;45456.598;  -11.061;52363.281
543.184;46508.211;  -12.300;53187.137
543.769;47730.574;   -9.369;54697.605
544.354;48899.246;  -12.020;53913.914
544.938;43947.539;  -10.350;49680.164
545.523;39919.785;  -10.841;47386.277
546.108;42814.434;   -8.579;49151.949
546.693;45247.582;   -8.818;51384.637
547.278;46429.695;  -11.331;51853.254
547.862;45744.527;  -10.292;51173.750
548.447;42912.891;   -8.349;51691.395
549.031;40946.422;  -10.838;52456.703
549.616;39271.852;  -11.681;52714.516
550.201;38206.867;  -11.140;52414.598
550.785;37451.074;   -8.649;52355.059
551.370;41128.223;  -11.889;54589.453
551.954;45877.836;  -11.239;58267.348
552.538;49284.016;   -8.850;59062.176
553.123;52133.238;  -10.829;58115.285
553.707;53311.113;   -8.887;56556.285
554.291;50552.133;  -10.430;56201.668
554.876;48529.105;   -9.799;55335.762
555.460;45814.738;  -10.018;54155.703
556.044;44451.301;   -7.307;53721.484
556.628;48254.598;  -12.229;53731.016
557.212;49255.512;   -9.820;54312.531
557.796;46807.332;   -9.109;53797.773
558.380;43166.355;   -9.707;56145.984
558.964;43835.527;  -10.980;57277.930
559.548;48019.531;  -12.010;56459.641
560.132;49040.926;   -7.928;54434.543
560.716;51697.438;  -10.247;54800.617
561.300;52872.016;  -11.250;57606.945
561.884;50959.219;  -10.568;58972.445
562.467;50269.465;   -9.727;57327.570
563.051;47136.609;  -11.847;54962.434
563.635;45566.105;  -10.747;52594.473
564.219;44204.016;  -13.108;50610.410
564.802;41475.324;  -11.417;49551.180
565.386;39583.074;  -10.457;48370.953
565.969;41640.230;   -8.959;48178.871
566.553;41503.566;  -10.328;49957.305
567.136;41611.371;  -10.257;50369.594
567.720;41695.988;  -10.186;49492.004
568.303;40690.313;  -10.027;50616.352
568.887;40813.785;  -10.397;50727.148
569.470;42304.773;   -8.185;51698.379
570.053;41631.457;  -11.596;52122.078
570.637;40228.617;  -11.378;52536.438
571.220;40064.066;   -9.138;51186.098
571.803;39282.219;   -7.675;51032.762
572.386;37468.063;   -8.976;49609.887
572.969;38172.926;  -12.477;48285.926
573.552;38608.859;   -9.767;47624.285
574.135;38034.078;   -8.175;45498.641
574.718;33492.664;  -11.096;41970.434
575.301;32178.115;  -11.966;41447.137
575.884;30863.570;  -12.836;40923.836
576.467;36078.754;   -9.116;45267.723
577.050;38292.184;  -10.536;48175.543
577.633;38724.496;  -11.027;47729.328
578.216;37474.652;   -9.946;47579.793
578.799;36128.098;   -9.645;47820.996
579.381;36134.445;   -9.446;48115.551
579.964;36776.293;  -12.217;47333.766
580.547;37580.500;  -10.586;46668.969
581.129;36998.602;   -8.374;44466.141
581.712;35122.059;  -10.434;44164.922
582.294;34342.215;  -10.896;46477.855
582.877;35558.969;   -8.906;48244.254
583.459;36896.355;   -9.994;47437.895
584.042;36371.516;  -10.084;46943.219
584.624;35122.871;  -13.534;46792.227
585.206;33619.012;  -12.716;46557.250
585.789;34049.008;  -11.614;45793.773
586.371;35064.633;  -10.203;43836.391
586.953;34005.527;  -10.314;42972.492
587.536;31975.377;   -9.776;42487.211
588.118;32396.775;   -9.821;42086.414
588.700;33499.773;  -10.073;43389.930
589.282;34973.090;  -12.395;43646.039
589.864;33604.879;  -11.514;43438.109
590.446;33457.195;  -10.803;43151.926
591.028;34684.746;  -11.043;42781.867
591.610;35140.387;  -13.244;42839.098
592.192;31821.887;  -11.095;42820.402
592.774;29071.350;  -10.823;40724.277
593.356;28260.211;  -11.052;39874.789
593.937;30440.295;  -11.664;39980.648
594.519;33493.422;  -10.454;42069.633
595.101;34672.496;  -10.322;42976.031
595.683;33530.270;  -10.042;44084.441
596.264;31735.156;  -14.334;43478.797
596.846;31675.041;  -10.863;43803.672
597.427;32562.791;   -9.901;42986.934
598.009;33323.328;  -10.911;42832.219
598.591;34360.242;  -10.483;42580.086
599.172;32826.566;   -9.663;43061.805
599.753;30477.227;  -10.631;41691.469
600.335;29662.465;   -9.371;40692.520
600.916;31061.059;  -13.992;39982.422
601.498;32558.084;   -8.352;40318.617
602.079;30811.189;   -8.411;40670.609
602.660;32320.207;  -10.841;41450.898
603.241;34637.324;  -12.963;41137.738
603.823;33602.582;  -11.523;38868.797
604.404;31558.926;  -11.881;38182.785
604.985;31540.504;  -11.721;38078.047
605.566;32636.406;   -9.293;38056.633
606.147;32210.451;  -10.940;37020.418
606.728;30883.109;  -11.840;37883.359
607.309;29860.713;  -11.781;38748.273
607.890;30359.473;  -11.262;38850.230
608.471;29737.441;  -10.111;37457.918
609.051;29399.918;   -7.709;36066.457
609.632;30188.566;  -12.409;35991.074
610.213;29653.762;  -10.811;37402.641
610.794;29040.660;  -11.630;38383.363
611.374;30235.063;   -8.030;40562.387
611.955;31503.820;  -10.809;38533.727
612.536;32821.422;  -10.531;36951.789
613.116;32927.477;  -12.820;37197.891
613.697;31979.387;  -11.419;38411.125
614.277;31587.291;   -9.768;38673.938
614.858;32362.516;  -10.251;37075.863
615.438;29004.119;  -11.981;35092.906
616.019;26265.582;   -8.978;33666.301
616.599;28733.934;  -12.219;34189.023
617.179;31989.031;  -14.170;36952.047
617.760;33556.379;   -9.211;39582.574
618.340;33957.586;   -9.018;38943.977
618.920;32412.861;   -9.249;37594.156
619.500;31525.779;  -12.728;37866.938
620.080;33618.320;  -12.939;37869.043
620.660;33245.289;  -11.586;36868.617
621.241;32165.525;  -11.538;36352.309
621.821;32702.852;  -11.398;35459.520
622.401;33485.074;  -10.179;35207.414
622.980;34257.207;  -11.587;35980.422
623.560;33419.496;  -12.888;37351.328
624.140;31163.748;  -13.149;34388.582
624.720;26344.014;   -9.928;32368.764
625.300;25735.006;  -10.869;32638.629
625.880;30460.662;   -8.617;34599.035
626.459;35406.617;  -12.138;36831.738
627.039;37077.383;  -12.267;38299.098
627.619;36875.313;   -7.476;38289.574
628.198;37427.953;  -11.347;37220.695
628.778;36761.988;  -11.678;37632.563
629.357;34481.941;  -12.438;38003.012
629.937;32281.283;   -9.576;38402.039
630.516;31085.340;  -11.096;37868.801
631.096;30487.750;  -11.828;35760.410
631.675;30596.387;  -11.565;35225.219
632.254;30624.844;  -11.845;35130.289
632.834;31638.432;  -11.545;35794.570
633.413;32756.365;  -10.887;35788.922
633.992;34512.160;  -10.175;34532.863
634.571;33676.180;   -9.704;33590.113
635.151;31323.969;  -10.815;34943.863
635.730;30617.023;  -11.617;35352.523
636.309;29445.816;  -10.836;35366.605
636.888;29906.475;   -9.755;36165.637
637.467;30544.701;  -11.684;37515.902
638.046;32237.799;  -11.987;39288.695
638.625;33745.992;  -10.455;38279.699
639.204;33564.543;  -11.234;37741.598
639.782;31099.826;  -12.023;38364.551
640.361;28512.684;  -11.506;36740.621
640.940;27969.068;  -12.316;34950.082
641.519;29850.141;  -11.616;34137.398
642.097;33662.906;   -9.266;35654.258
642.676;34557.105;  -12.936;35637.957
643.255;33282.563;   -9.966;36567.074
643.833;32902.672;   -8.916;37809.434
644.412;34217.488;  -10.936;37337.293
644.990;37199.359;  -12.176;37018.531
645.569;38236.027;  -12.246;36518.469
646.147;37194.582;  -12.107;36186.430
646.726;35870.836;  -12.937;36267.688
647.304;38141.664;  -12.547;36647.625
647.882;39164.348;  -12.597;39286.742
648.461;37287.531;   -9.427;39157.703
649.039;35063.156;   -8.937;35412.883
649.617;32782.176;  -11.067;34744.918
650.195;33137.930;  -10.657;35403.098
650.773;32674.061;  -10.097;35053.797
651.352;30449.410;  -11.887;33756.816
651.930;26026.822;  -13.557;31868.773
652.508;22601.104;  -11.767;33121.551
653.086;23717.988;  -10.777;33564.793
653.663;27519.395;  -12.067;34054.668
654.241;30571.705;  -14.918;35693.309
654.819;32373.164;  -11.788;36422.906
655.397;31842.969;  -11.268;38213.484
655.975;32586.748;  -11.738;39507.625
656.553;32162.553;  -11.018;39498.223
657.130;31208.154;  -12.848;40395.480
657.708;30318.967;  -10.098;39242.020
658.286;30628.887;  -11.678;38920.020
658.863;33390.070;  -11.498;40202.898
659.441;36297.602;  -11.008;39677.938
660.018;37001.195;  -11.048;40413.355
660.596;36565.523;  -12.058;39931.414
661.173;35785.242;  -14.158;39604.531
661.750;35302.727;  -12.298;39700.070
662.328;34218.840;  -10.699;39292.809
662.905;32371.852;  -12.119;38235.648
663.482;27678.529;  -11.829;36212.305
664.060;26657.584;  -11.009;35944.945
664.637;29383.908;  -10.369;35170.785
665.214;29938.689;  -10.459;34197.523
665.791;28566.145;  -12.599;34549.520
666.368;28164.170;  -12.919;35118.578
666.945;30009.232;  -10.699;36019.418
667.522;31485.318;  -11.359;36048.438
668.099;31713.215;  -13.529;36243.914
668.676;31435.918;  -10.229;35958.875
669.253;31382.813;   -9.279;37384.730
669.830;30205.504;  -11.370;36779.629
670.407;30249.215;  -10.950;35231.289
670.984;31568.508;  -12.850;35544.270
671.560;30960.992;   -8.440;35466.867
672.137;29341.770;  -13.520;34280.863
672.714;28689.049;  -13.620;34632.863
673.290;29412.852;  -10.450;35135.422
673.867;29205.719;  -10.960;36114.480
674.443;27819.926;  -13.300;36152.859
675.020;28381.861;  -12.370;35327.238
675.596;29187.986;  -11.250;35795.176
676.173;29844.689;  -11.080;35430.355
676.749;30028.273;  -13.220;33549.516
677.326;32775.629;  -13.000;32210.012
677.902;34527.922;  -12.701;32068.871
678.478;34399.840;  -12.801;32583.891
679.054;33852.762;   -8.601;32088.928
679.631;34415.840;  -12.631;30978.848
680.207;33854.781;   -9.451;33160.887
680.783;32324.354;  -11.701;35570.363
681.359;31765.080;  -12.701;36125.184
681.935;31733.516;  -13.271;35240.922
682.511;31391.869;  -10.791;34429.961
683.087;31439.525;  -10.791;34463.680
683.663;31152.008;   -8.121;34648.898
684.239;32722.701;  -13.261;34546.457
684.815;32548.027;  -10.581;35586.375
685.390;29320.287;   -9.961;35821.895
685.966;28238.543;  -11.182;35085.871
686.542;27907.922;  -13.512;34198.230
687.118;27943.816;  -11.472;32847.707
687.693;28162.543;  -10.152;32794.027
688.269;29094.771;  -14.442;33072.367
688.844;30459.932;  -11.852;33141.664
689.420;28829.301;  -13.942;33965.742
689.995;27522.240;   -9.702;34655.523
690.571;27588.973;  -11.312;33576.742
691.146;27111.367;  -14.332;32657.219
691.722;27888.871;  -11.192;32526.979
692.297;30463.693;  -10.962;33014.617
692.872;30136.436;  -11.082;34012.254
693.448;29080.232;  -14.732;34237.434
694.023;28422.457;  -12.363;34142.672
694.598;28231.580;  -12.393;34132.031
695.173;27067.689;  -11.023;34205.250
695.748;26542.150;  -12.743;32882.488
696.323;28023.059;  -11.103;32864.906
696.898;29217.578;   -8.123;33170.004
697.473;28751.498;  -12.603;32432.984
698.048;28427.715;  -12.553;31649.303
698.623;29824.752;  -12.573;30778.141
699.198;33358.813;  -12.743;31140.119
699.773;31476.176;  -12.843;31764.299
700.348;30281.146;  -16.683;31780.816
700.922;30736.498;  -11.403;32046.375
701.497;31490.576;  -11.253;32603.574
702.072;31918.369;  -10.044;34799.871
702.646;31713.451;  -13.054;35793.172
703.221;30335.760;  -11.414;35201.590
703.795;30230.570;  -10.644;34764.527
704.370;31824.064;  -13.484;34307.367
704.944;31846.170;  -12.144;33509.887
705.519;30596.934;  -12.024;31388.584
706.093;29116.654;  -11.234;31340.104
706.668;27421.641;   -9.874;32630.281
707.242;26989.693;  -12.404;32728.779
707.816;27440.688;  -10.644;32947.238
708.390;26779.064;  -11.174;33277.855
708.965;26588.428;  -10.324;33834.336
709.539;26274.314;  -12.014;33709.273
710.113;26372.531;  -12.295;33044.313
710.687;27537.242;  -10.965;31953.992
711.261;28276.680;  -13.685;30505.949
711.835;27709.137;  -15.335;30262.369
712.409;27086.963;  -13.785;31254.447
712.983;27535.703;  -10.525;32754.986
713.557;29297.693;  -13.175;34018.824
714.131;31003.908;  -13.245;34579.625
714.704;32948.340;  -13.175;33890.262
715.278;34965.797;  -11.545;33531.102
715.852;34171.141;  -10.975;33601.660
716.425;32679.686;  -10.075;33515.117
716.999;32066.545;  -12.185;33185.555
717.573;32510.617;   -9.685;33905.996
718.146;34439.363;  -10.516;35199.293
718.720;31807.240;  -12.106;35060.551
719.293;30178.254;  -12.386;34973.230
719.867;33560.719;  -12.456;36394.449
720.440;34369.313;  -10.686;36663.008
721.013;34192.406;  -12.596;35102.426
721.587;33995.375;  -13.956;33985.266
722.160;33338.645;   -9.806;33524.965
722.733;32983.895;  -11.676;32987.043
723.306;32198.217;  -14.276;33066.301
723.880;31896.859;  -12.126;33399.500
724.453;33368.668;  -10.156;33468.297
725.026;32127.141;  -12.956;33816.637
725.599;29922.402;  -11.676;32797.996
726.172;28260.641;  -12.337;33187.434
726.745;28722.213;  -11.277;35136.613
727.318;28829.639;  -11.927;35751.730
727.891;27539.271;  -13.607;35890.430
728.463;27529.090;  -11.327;34822.090
729.036;26703.580;  -11.917;32895.086
729.609;26929.969;  -12.697;31823.225
730.182;27731.508;  -11.787;31445.283
730.754;28009.582;  -12.957;32373.223
731.327;28791.166;  -11.017;33676.820
731.900;27581.275;  -12.797;33417.000
732.472;25767.146;  -10.677;31978.498
733.045;24877.041;  -12.797;30368.777
733.617;25759.428;  -13.908;30574.215
734.190;26069.646;  -12.258;31280.975
734.762;26822.680;  -13.438;31674.412
735.334;27451.902;  -11.758;31247.291
735.907;27581.139;  -11.158;29876.211
736.479;29145.818;  -11.258;29808.488
737.051;31763.512;  -10.918;30233.547
737.623;32663.648;  -11.038;31469.086
738.195;32656.914;  -12.188;31784.225
738.768;29371.836;  -11.378;32120.523
739.340;27744.455;  -12.598;32094.342
739.912;29303.178;  -11.568;31312.680
740.484;30009.252;   -9.348;31946.238
741.056;29291.254;  -12.628;32984.059
741.628;29017.529;  -13.349;33897.715
742.199;29053.207;  -11.309;33213.016
742.771;28045.066;  -12.699;31369.113
743.343;29138.682;  -11.919;31865.473
743.915;29682.824;  -11.679;32388.631
744.487;28660.342;  -12.249;31079.568
745.058;26961.369;  -11.119;30570.107
745.630;25572.650;   -9.439;29970.127
746.201;25967.602;  -11.949;29186.766
746.773;26932.414;  -12.639;28805.723
747.344;26748.471;  -11.039;29591.223
747.916;25432.172;  -12.549;31412.201
748.487;24096.770;  -12.659;32194.898
749.059;23163.211;  -13.059;32533.719
749.630;24980.332;  -12.080;32158.518
750.201;25059.201;  -13.100;30855.395
750.773;23796.965;  -15.310;28622.555
751.344;22905.482;  -12.240;28405.732
751.915;22137.328;  -11.960;28461.551
752.486;21314.107;  -13.200;27842.850
753.057;21195.875;  -15.230;27845.008
753.628;21746.488;  -13.130;27728.107
754.199;22115.367;  -12.720;27381.086
754.770;21742.576;  -10.680;25882.203
755.341;21692.781;  -11.010;25886.184
755.912;21356.498;  -12.990;26050.861
756.483;20172.643;  -11.110;26798.779
757.054;19368.254;  -12.190;27048.238
757.625;19746.178;  -13.981;26294.838
758.195;19644.229;  -11.041;26142.076
758.766;20345.162;  -11.861;26392.234
759.337;21320.389;  -11.461;26334.594
759.907;22475.955;  -15.001;27579.652
760.478;22293.107;   -9.681;28352.770
761.048;21446.438;  -12.421;27325.088
761.619;20837.068;  -11.761;26460.428
762.189;19349.689;  -12.391;26029.826
762.760;18394.160;  -10.201;26430.145
763.330;18741.402;  -10.811;26670.902
763.900;21249.080;  -10.261;26603.021
764.471;22136.469;  -13.061;25542.740
765.041;20224.369;  -11.051;24358.459
765.611;19577.818;  -11.032;23991.297
766.181;19174.521;  -10.532;24470.236
766.751;19093.402;  -13.502;24845.975
767.321;19242.268;  -11.392;24533.633
767.891;19560.898;  -11.522;24916.492
768.461;19971.396;  -13.672;24776.771
769.031;19436.242;  -14.652;24757.988
769.601;18628.664;  -10.182;24181.088
770.171;17536.512;  -11.752;23670.387
770.741;15763.542;  -12.272;22960.045
771.311;15251.236;  -13.112;22917.523
771.880;15644.785;  -14.122;23562.941
772.450;16596.574;  -11.782;24216.500
773.020;18786.172;  -12.642;24140.398
773.589;18999.160;  -13.043;24414.857
774.159;16900.188;  -11.783;23858.717
774.729;15613.624;  -13.473;22942.135
775.298;16289.270;  -14.523;22324.033
775.867;17182.266;  -12.013;21140.313
776.437;16476.123;  -12.113;20838.092
777.006;15079.118;  -13.543;20599.510
777.576;13816.803;  -12.523;20508.809
778.145;13006.759;  -12.173;20732.947
778.714;13749.261;  -12.153;21062.465
779.283;14292.268;  -11.833;20949.664
779.853;15322.279;  -13.483;20508.623
780.422;16279.568;  -12.933;20649.082
780.991;15896.117;  -13.173;21527.520
781.560;14121.431;  -10.224;22632.658
782.129;13150.220;  -12.684;23048.277
782.698;14169.348;  -11.284;23438.555
783.267;15515.169;  -11.684;23267.734
783.836;14959.350;  -10.974;22415.133
784.404;13472.625;  -13.534;20443.152
784.973;13124.183;  -16.734;19699.150
785.542;13005.595;  -12.594;19763.828
786.111;12581.872;  -11.644;20341.408
786.679;12921.602;  -11.384;20207.967
787.248;13715.388;  -12.014;19516.465
787.817;12750.791;  -12.804;18900.363
788.385;11672.467;  -11.994;17879.121
788.954;11990.396;  -12.564;17658.301
789.522;13545.061;  -12.225;17788.879
790.090;13966.587;  -13.775;18118.277
790.659;12968.339;  -12.485;18338.736
791.227;12156.783;  -12.295;18508.615
791.795;12159.687;  -13.415;17898.254
792.364;11614.033;  -12.995;17295.133
792.932;11102.766;   -8.365;16822.051
793.500;11283.322;  -11.925;17040.148
794.068;11757.490;  -13.245;17179.787
794.636;12124.689;  -13.815;16664.246
795.204;11556.011;  -13.375;16524.545
795.772;11261.451;  -12.125;17274.564
796.340;11425.363;  -13.855;17891.002
796.908;11716.364;  -13.456;17648.561
797.476;11321.360;  -13.116;17064.080
798.044;10634.924;  -13.226;16672.777
798.612;11108.271;  -11.236;17023.996
799.180;12178.200;  -10.476;16561.615
799.747;12274.688;  -11.746;15962.773
800.315;11234.030;  -12.366;15296.992
800.883;10169.611;  -14.616;14801.771
801.450; 9684.736;  -11.996;14534.430
802.018;10406.414;  -11.206;14173.248
802.585;10340.499;  -12.466;14029.547
803.153; 9547.996;  -12.846;13836.846
803.720; 9243.648;  -12.136;13567.324
804.287; 8912.996;  -10.966;13360.622
804.855; 8910.480;   -9.797;13681.981
805.422; 8805.792;  -13.037;13536.560
805.989; 8508.541;  -12.697;13355.958
806.556; 8627.045;  -11.737;13747.896
807.124; 8978.106;  -11.997;13987.376
807.691; 8563.045;  -13.997;14038.674
808.258; 8235.132;  -10.927;14120.152
808.825; 8625.716;  -13.727;13860.111
809.392; 9156.000;  -11.847;13268.790
809.959; 8723.601;  -14.217;12680.389
810.526; 7816.538;   -8.277;12427.308
811.093; 7416.700;   -9.647;12030.105
811.659; 7344.086;  -10.987;11653.664
812.226; 7091.500;  -13.447;11637.183
812.793; 7225.339;  -14.418;11611.521
813.360; 7629.143;  -13.908;11885.181
813.926; 7704.389;  -12.918;12770.539
814.493; 7471.247;  -14.888;12677.638
815.060; 7498.306;  -12.758;11974.336
815.626; 7867.621;  -13.478;11594.715
816.193; 8017.200;  -13.898;11579.474
816.759; 7904.764;  -13.588;11666.972
817.325; 7949.042;  -12.018;11325.530
817.892; 7636.439;  -14.068;11105.369
818.458; 6795.361;  -13.458;10843.928
819.024; 6386.288;  -11.968;10714.406
819.591; 6044.227;  -11.028;10469.165
820.157; 5716.670;  -12.088;10235.523
820.723; 5613.152;  -12.599;10847.563
821.289; 5822.215;  -10.419;11040.980
821.855; 6461.291;  -10.939;10357.100
822.421; 7059.899;  -12.539; 9978.918
822.987; 7059.635;  -13.259; 9754.177
823.553; 6441.392;  -15.369;10065.755
824.119; 6150.245;  -10.779;10036.294
824.685; 5794.808;   -9.999;10029.192
825.251; 5455.027;  -11.819;10199.230
825.816; 5208.663;  -13.369; 9820.189
826.382; 5279.681;  -12.679; 9297.248
826.948; 5585.762;  -11.199; 9381.347
827.513; 5529.354;  -11.179; 9450.726
828.079; 5405.878;  -13.489; 9472.444
828.645; 5631.706;  -12.500; 9292.643
829.210; 5974.109;  -15.120; 9065.341
829.776; 5949.886;  -12.590; 9132.620
830.341; 5741.041;  -11.540; 9092.878
830.906; 5616.073;  -12.400; 9078.557
831.472; 5484.547;  -12.720; 8534.535
832.037; 5110.968;  -11.490; 8677.874
832.602; 4630.801;  -14.380; 8628.692
833.167; 4690.583;  -12.780; 8879.031
833.733; 4898.362;  -11.100; 9189.790
834.298; 5069.054;  -12.080; 9052.608
834.863; 5183.894;  -13.910; 8895.087
835.428; 5050.478;  -13.470; 8824.266
835.993; 5271.617;  -11.760; 8845.385
836.558; 5615.022;  -12.731; 8888.563
837.123; 5812.852;  -12.431; 8966.582
837.688; 5699.845;  -11.241; 8617.860
838.253; 5405.215;  -13.681; 8590.699
838.817; 5001.475;  -12.531; 8443.797
839.382; 4930.188;  -12.671; 8799.356
839.947; 4902.663;  -11.541; 8810.595
840.511; 4763.235;  -12.021; 8796.394
841.076; 4787.257;  -13.071; 8347.231
841.641; 4797.834;  -11.411; 8224.330
842.205; 4575.901;  -13.671; 8223.349
842.770; 4419.509;  -11.291; 8622.107
843.334; 4487.251;  -12.951; 8410.386
843.898; 4574.838;  -11.221; 8337.465
844.463; 4562.261;  -11.322; 8506.283
845.027; 4434.450;  -11.412; 8280.962
845.591; 4183.523;  -11.512; 8231.141
846.156; 4281.314;  -14.042; 7969.179
846.720; 4523.622;  -12.152; 7768.278
847.284; 4492.349;  -10.922; 7630.957
847.848; 4223.325;  -10.962; 7472.395
848.412; 3895.153;  -14.612; 7437.394
848.976; 3818.150;  -11.492; 7674.592
849.540; 3852.567;   -9.172; 7836.011
850.104; 4099.140;  -11.232; 7913.669
850.668; 4554.050;  -15.182; 7694.508
851.232; 4387.241;  -15.332; 7756.887
851.796; 3956.304;  -13.703; 7926.545
852.359; 3964.868;  -11.113; 7827.844
852.923; 4080.756;  -11.843; 7641.163
853.487; 4068.876;  -11.173; 7342.501
854.050; 3923.835;  -13.443; 7042.820
854.614; 3706.110;  -13.823; 7151.338
855.177; 3603.859;  -16.393; 7105.077
855.741; 3722.795;  -11.693; 6989.675
856.304; 3857.294;  -10.843; 6596.634
856.868; 3861.242;  -13.783; 6356.272
857.431; 3696.646;  -11.953; 6468.571
857.995; 3547.480;  -13.683; 6373.210
858.558; 3579.387;  -11.433; 6324.448
859.121; 3582.401;  -12.493; 6408.327
859.684; 3513.788;  -12.384; 6347.886
860.247; 3417.040;  -14.774; 6321.264
860.810; 3167.769;  -13.154; 6301.903
861.374; 2793.283;  -11.264; 6607.881
861.937; 2385.453;  -15.424; 6408.200
862.500; 2039.537;  -12.854; 6572.639
863.062; 1858.620;  -12.344; 6387.297
863.625; 1866.713;  -13.314; 6190.836
864.188; 1921.232;  -14.724; 5807.254
864.751; 1970.957;  -13.464; 5682.413
865.314; 2044.353;  -11.684; 5547.492
865.876; 2200.981;  -11.104; 5500.150
866.439; 2451.421;  -12.344; 5415.909
867.002; 2581.559;  -13.494; 5501.567
867.564; 2647.509;  -10.935; 5413.946
868.127; 2542.076;  -12.665; 5160.325
868.689; 2345.875;  -14.515; 5133.183
869.252; 2343.221;  -13.425; 5252.382
869.814; 2377.922;  -11.595; 5297.141
870.377; 2401.303;  -12.175; 5390.919
870.939; 2301.319;  -10.265; 5599.898
871.501; 2200.144;  -12.375; 5248.336
872.063; 2182.841;  -14.355; 4854.235
872.626; 2248.943;  -14.435; 4817.074
873.188; 2197.447;  -12.415; 4987.732
873.750; 2163.075;  -14.555; 4868.651
874.312; 2172.842;  -11.185; 4779.330
874.874; 2121.778;  -12.715; 4866.348
875.436; 1987.332;  -13.196; 4718.887
875.998; 1892.588;  -11.426; 4660.005
876.560; 1823.942;   -9.786; 4462.964
877.122; 1815.022;  -12.796; 4145.042
877.683; 1766.558;  -13.226; 4056.481
878.245; 1686.288;  -12.036; 3950.740
878.807; 1608.890;  -11.536; 4058.958
879.369; 1561.547;  -10.806; 3954.677
879.930; 1617.466;  -13.946; 3941.495
880.492; 1738.089;  -11.876; 4067.014
881.053; 1717.385;  -13.216; 3859.633
881.615; 1615.566;  -12.226; 3776.071
882.176; 1570.458;  -12.946; 3734.750
882.738; 1552.741;  -10.736; 3678.489
883.299; 1482.838;  -12.057; 3405.407
883.860; 1368.843;  -12.677; 3351.106
884.422; 1297.738;  -14.097; 3394.044
884.983; 1244.531;  -13.667; 3166.443
885.544; 1184.673;  -10.717; 3189.802
886.105; 1130.597;  -14.357; 3160.360
886.666; 1081.038;  -14.287; 3093.059
887.227; 1033.549;  -14.297; 2941.957
887.788;  999.672;  -13.137; 2974.836
888.349;  937.086;  -14.637; 2721.214
888.910;  871.723;  -12.247; 2696.493
889.471;  867.215;  -10.577; 2560.172
890.032;  866.426;  -12.937; 2558.190
890.593;  848.471;  -12.487; 2567.669
891.153;  826.829;  -11.898; 2460.307
891.714;  791.415;  -14.278; 2372.046
892.275;  768.119;  -13.308; 2309.505
892.835;  731.995;  -12.058; 2382.543
893.396;  654.187;  -15.268; 2295.502
893.956;  600.926;  -13.278; 2162.420
894.517;  576.550;  -11.968; 2125.439
895.077;  577.822;  -12.798; 2086.978
895.638;  567.331;  -11.908; 2126.316
896.198;  554.398;  -13.288; 1838.275
896.758;  532.163;  -12.198; 1892.813
897.319;  503.824;  -13.048; 1792.232
897.879;  474.330;  -13.718; 1762.751
898.439;  439.596;  -14.138; 1661.149
898.999;  402.510;  -13.659; 1781.468
899.559;  379.684;  -14.699; 1703.347
900.119;  360.912;  -14.339; 1537.525
900.679;  335.355;  -11.789; 1638.384
901.239;  308.882;  -13.629; 1527.902
901.799;  291.696;  -13.679; 1456.441
902.359;  281.222;  -13.679; 1357.140
902.919;  274.221;  -14.159; 1331.118
903.479;  263.344;  -13.419; 1317.257
904.038;  246.934;  -14.899; 1262.595
904.598;  233.340;  -14.339; 1152.034
905.158;  224.973;  -13.959; 1240.893
905.717;  220.181;  -12.749; 1233.691
906.277;  215.405;  -11.889; 1217.330
906.836;  210.824;  -12.870; 1222.408
907.396;  206.319;  -11.790; 1193.047
907.955;  198.602;  -13.750; 1182.526
908.515;  189.283;  -14.760; 1099.364
909.074;  183.467;  -12.540; 1092.863
909.633;  178.976;  -12.120; 1069.121
910.192;  174.195;  -12.550; 1196.460
910.752;  167.284;  -12.760; 1029.960
911.311;  163.127;  -14.750; 1009.780
911.870;  160.919;  -13.860;  971.460
912.429;  161.285;  -13.480; 1094.080
912.988;  161.230;  -12.370; 1081.060
913.547;  157.587;  -14.670;  940.380
914.106;  156.153;  -12.800;  999.420
914.665;  155.348;  -11.370;  984.020
915.224;  152.014;  -11.430; 1035.760
915.782;  150.293;  -12.260;  922.560
916.341;  149.741;  -12.540; 1049.840
916.900;  146.926;  -12.540;  925.260
917.458;  143.648;  -13.480;  884.220
918.017;  143.689;  -12.470;  942.600
918.576;  143.037;  -13.450;  904.440
919.134;  142.285;  -12.890;  837.980
919.693;  141.125;  -15.480;  893.060
920.251;  139.480;  -14.420;  876.500
920.809;  138.558;  -12.170;  839.580
921.368;  138.433;  -13.650;  885.360
921.926;  137.709;  -12.750;  842.940
922.484;  137.349;  -14.150;  903.360
923.042;  137.383;  -15.100;  880.340
923.601;  138.766;  -10.990;  998.680
924.159;  136.856;  -12.470;  935.560
924.717;  136.243;  -15.640;  841.080
925.275;  138.963;  -12.380;  903.240
925.833;  137.116;  -12.710;  779.320
926.391;  139.844;  -11.200;  938.380
926.949;  140.812;  -16.000;  857.680
927.506;  140.963;  -12.260;  903.500
928.064;  142.336;  -11.300;  877.580
928.622;  142.047;  -13.750;  880.100
929.180;  142.046;  -15.290;  814.180
929.737;  145.763;  -14.500;  808.540
930.295;  149.510;  -10.630;  928.480
930.853;  151.527;  -14.590;  849.100
931.410;  149.425;  -14.450;  821.120
931.968;  146.168;  -14.390;  940.660
932.525;  141.871;  -13.050;  909.380
933.082;  138.179;  -15.620;  811.440
933.640;  142.422;  -15.650;  925.900
934.197;  148.739;  -13.610;  886.360
934.754;  155.631;  -13.320;  897.780
935.312;  157.620;  -13.370;  863.340
935.869;  161.219;  -12.780; 1012.980
936.426;  161.797;  -14.480;  872.800
936.983;  164.622;  -13.180;  889.020
937.540;  165.543;  -15.710;  838.280
938.097;  167.602;  -14.980;  940.120
938.654;  167.595;  -13.060;  898.860
939.211;  167.125;  -12.760;  952.480
939.768;  168.323;  -16.230;  915.420
940.324;  174.592;  -10.940;  904.200
940.881;  181.097;  -12.570;  878.500
941.438;  186.579;  -13.650; 1021.200
941.995;  182.891;  -13.300;  992.560
942.551;  182.323;  -15.800;  875.620
943.108;  181.485;  -14.180;  937.920
943.664;  176.414;  -13.890;  869.340
944.221;  175.092;  -12.640; 1088.140
944.777;  171.780;  -14.700;  869.680
945.334;  172.650;  -13.010;  884.840
945.890;  173.514;  -13.480;  946.480
946.446;  171.650;  -14.920;  947.020
947.003;  170.086;  -13.860;  964.940
947.559;  173.412;  -12.000; 1063.040
948.115;  173.316;  -10.510; 1026.540
948.671;  171.250;  -12.760;  967.300
949.227;  166.516;  -15.390;  859.560
949.783;  164.512;  -15.570;  858.900
950.339;  166.055;  -12.800;  991.000
950.895;  163.445;  -13.780; 1023.840
951.451;  159.934;  -13.810;  925.280
952.007;  160.715;  -12.390;  998.540
952.563;  159.385;  -11.980;  937.780
953.118;  154.452;  -14.070;  904.940
953.674;  151.666;  -14.140;  935.780
954.230;  152.015;  -12.680;  949.640
954.785;  153.418;  -12.770;  936.640
955.341;  153.092;  -11.450;  998.160
955.897;  147.301;  -15.350;  834.660
956.452;  147.653;  -14.200;  953.840
957.008;  146.939;  -10.820; 1083.640
957.563;  143.346;  -13.200; 1009.540
958.118;  137.484;  -14.460;  877.700
958.674;  137.440;  -13.840;  946.780
959.229;  136.698;  -10.670; 1013.980
959.784;  138.518;  -17.040;  832.400
960.339;  140.832;  -12.970; 1001.280
960.894;  141.318;  -12.700;  963.760
961.449;  139.686;  -13.790;  859.960
962.004;  146.048;  -11.760; 1212.840
962.559;  144.485;  -14.840;  860.140
963.114;  144.023;  -14.530;  742.480
963.669;  147.494;  -12.780;  915.500
964.224;  147.520;  -14.330;  874.340
964.779;  143.726;  -14.380;  828.420
965.334;  139.376;  -12.460; 1017.860
965.888;  133.757;  -13.490;  875.360
966.443;  133.162;  -14.140;  972.380
966.998;  129.588;  -16.240;  819.460
967.552;  126.484;  -12.730;  908.380
968.107;  124.130;  -14.510;  868.300
968.661;  123.895;  -11.850;  922.440
969.216;  122.009;  -14.370;  856.280
969.770;  122.615;  -13.010;  917.200
970.324;  122.639;  -12.460;  923.140
970.879;  122.195;  -11.580;  947.180
971.433;  121.620;  -13.130;  952.720
971.987;  119.230;  -12.360;  895.340
972.541;  119.636;  -14.330;  917.100
973.095;  118.220;  -13.310; 1009.460
973.649;  116.228;  -15.830;  809.480
974.203;  118.734;  -15.830;  829.040
974.757;  123.883;  -13.480;  855.220
975.311;  121.929;  -13.720;  872.600
975.865;  118.190;  -15.780;  881.820
976.419;  114.991;  -14.290;  857.400
976.973;  112.787;  -13.210;  849.620
977.526;  111.502;  -12.300;  949.920
978.080;  107.567;  -14.840;  796.780
978.634;  108.992;  -13.100;  921.320
979.187;  105.576;  -12.300;  905.400
979.741;  102.495;  -12.020; 1018.380
980.294;   95.972;  -14.590;  789.160
980.848;   92.885;  -14.390;  717.220
981.401;   94.281;  -14.280;  816.540
981.955;   94.261;  -11.920;  844.300
982.508;   91.082;  -15.790;  746.340
983.061;   92.134;  -12.070;  915.260
983.615;   88.987;  -13.260;  798.800
984.168;   86.269;  -15.540;  770.080
984.721;   86.857;  -13.230;  880.760
985.274;   84.842;  -11.820;  867.500
985.827;   82.294;  -13.510;  834.220
986.380;   79.396;  -14.840;  721.340
986.933;   80.635;  -13.970;  864.800
987.486;   79.429;  -12.450;  861.920
988.039;   77.374;  -11.170;  863.100
988.591;   74.930;  -13.070;  893.260
989.144;   71.650;  -15.530;  737.260
989.697;   69.242;  -14.300;  758.740
990.250;   69.970;  -13.310;  858.100
990.802;   69.061;  -14.490;  755.860
991.355;   69.562;  -12.980;  974.880
991.907;   67.637;  -13.715;  864.320
992.460;   65.712;  -14.450;  753.760
993.012;   65.025;  -12.590;  749.540
993.565;   63.718;  -15.180;  711.360
994.117;   65.521;  -11.630;  950.780
994.669;   61.833;  -13.760;  701.320
995.221;   60.645;  -12.710;  791.920
995.774;   59.700;  -14.620;  787.580
996.326;   58.255;  -13.150;  740.220
996.878;   58.579;  -12.880;  838.420
997.430;   56.805;  -14.580;  699.860
997.982;   56.239;  -14.030;  750.140
998.534;   56.089;  -12.190;  739.060
999.086;   54.515;  -12.990;  738.220
999.638;   53.305;  -13.180;  661.380
1000.190;   52.978;  -14.970;  699.320
1000.741;   53.305;  -12.200;  742.700
1001.293;   52.477;  -13.400;  686.020
1001.845;   52.080;  -14.490;  676.640
1002.396;   52.458;  -15.280;  743.400
1002.948;   52.343;  -12.380;  737.400
1003.500;   50.880;  -13.260;  723.780
1004.051;   51.936;  -13.730;  907.580
1004.603;   49.685;  -12.300;  791.820
1005.154;   46.297;  -15.330;  608.980
1005.705;   45.948;  -12.800;  723.960
1006.257;   45.243;  -13.900;  707.220
1006.808;   44.100;  -14.430;  685.460
1007.359;   44.063;  -12.010;  763.240
1007.910;   42.491;  -12.690;  646.640
1008.461;   41.976;  -13.610;  732.940
1009.013;   40.896;  -14.990;  588.340
1009.564;   42.275;  -11.860;  793.520
1010.115;   40.174;  -12.640;  597.040
1010.665;   39.470;  -14.570;  602.160
1011.216;   39.674;  -15.190;  667.920
1011.767;   39.264;  -13.470;  697.920
1012.318;   39.813;  -13.760;  736.980
1012.869;   38.074;  -15.950;  679.000
1013.419;   37.748;  -15.880;  603.120
1013.970;   38.228;  -14.540;  666.640
1014.521;   38.053;  -13.220;  620.620
1015.071;   38.454;  -15.020;  670.380
1015.622;   36.924;  -17.510;  635.460
1016.172;   36.886;  -14.130;  596.820
1016.723;   36.996;  -14.220;  614.380
1017.273;   36.279;  -15.370;  604.160
1017.823;   36.506;  -15.290;  650.340
1018.374;   36.084;  -13.420;  611.760
1018.924;   36.733;  -11.740;  716.880
1019.474;   36.819;  -12.250;  718.880
1020.024;   33.706;  -15.850;  657.580
1020.574;   35.560;  -13.280;  726.160
1021.124;   35.337;  -13.560;  673.580
1021.674;   33.906;  -13.790;  559.120
1022.224;   34.682;  -14.610;  708.940
1022.774;   34.138;  -13.100;  668.820
1023.324;   35.285;  -11.470;  753.520
1023.874;   36.232;  -11.990;  875.760
1024.423;   32.647;  -14.550;  613.700
1024.973;   32.700;  -14.440;  610.760
1025.523;   32.876;  -13.250;  620.960
1026.072;   32.617;  -15.200;  606.420
1026.622;   31.675;  -14.590;  675.740
1027.172;   32.522;  -11.080;  715.660
1027.721;   31.590;  -14.010;  601.220
1028.270;   31.683;  -13.690;  663.400
1028.820;   31.532;  -15.380;  638.080
1029.369;   31.103;  -14.980;  612.700
1029.918;   31.482;  -13.100;  649.840
1030.468;   30.774;  -13.680;  564.780
1031.017;   30.656;  -13.770;  634.800
1031.566;   29.405;  -14.100;  608.900
1032.115;   31.226;  -11.770;  694.500
1032.664;   30.273;  -14.940;  596.480
1033.213;   30.336;  -13.370;  735.420
1033.762;   29.478;  -13.660;  635.620
1034.311;   29.442;  -13.650;  677.220
1034.860;   30.201;  -13.820;  691.000
1035.408;   28.863;  -12.860;  722.720
1035.957;   29.180;  -13.060;  719.540
1036.506;   27.293;  -14.510;  530.800
1037.055;   30.539;  -13.470;  844.320
1037.603;   28.462;  -14.800;  664.000
1038.152;   26.358;  -14.190;  534.760
1038.700;   27.637;  -11.810;  585.740
1039.249;   27.390;  -12.850;  681.220
1039.797;   27.483;  -14.610;  633.360
1040.345;   27.722;  -15.220;  705.420
1040.894;   27.340;  -13.480;  625.300
1041.442;   26.915;  -13.310;  632.200
1041.990;   25.169;  -14.510;  559.160
1042.538;   25.710;  -15.700;  536.180
1043.087;   25.523;  -13.910;  570.860
1043.635;   27.065;  -13.620;  670.500
1044.183;   25.732;  -14.230;  586.400
1044.731;   25.057;  -13.730;  576.000
1045.279;   25.869;  -13.970;  674.920
1045.827;   28.154;  -10.750;  892.400
1046.374;   24.205;  -15.230;  515.420
1046.922;   24.515;  -15.390;  590.580
1047.470;   25.861;  -12.320;  691.300
1048.018;   25.146;  -13.230;  647.960
1048.565;   25.744;  -13.390;  708.600
1049.113;   23.438;  -15.030;  557.000
1049.660;   23.696;  -12.540;  629.660
1050.208;   24.641;  -15.040;  675.640
1050.755;   22.926;  -14.680;  606.580
1051.303;   23.966;  -13.610;  686.820
1051.850;   23.941;  -14.340;  635.120
1052.397;   21.663;  -16.330;  473.960
1052.945;   22.302;  -15.710;  617.760
1053.492;   24.518;  -12.320;  741.840
1054.039;   24.545;  -13.730;  720.180
1054.586;   22.632;  -16.140;  557.240
1055.133;   23.288;  -14.020;  693.140
1055.680;   22.956;  -13.430;  646.620
1056.227;   21.904;  -14.570;  542.780
1056.774;   24.204;  -14.400;  794.980
1057.321;   20.718;  -14.230;  523.260
1057.868;   21.964;  -14.220;  651.320
1058.415;   22.194;  -14.060;  651.980
1058.961;   22.026;  -14.640;  678.940
1059.508;   21.517;  -13.970;  643.820
1060.055;   20.905;  -15.100;  581.780
1060.601;   21.917;  -12.180;  624.300
1061.148;   20.465;  -15.010;  616.820
1061.694;   19.970;  -14.750;  592.580
1062.241;   20.455;  -14.130;  596.320
1062.787;   21.616;  -14.770;  663.140
1063.334;   22.746;  -13.130;  808.560
1063.880;   20.212;  -14.420;  668.360
1064.426;   20.513;  -13.130;  706.820
1064.972;   19.894;  -13.960;  601.340
1065.518;   19.065;  -13.680;  566.640
1066.065;   19.596;  -15.720;  624.460
1066.611;   18.994;  -13.970;  598.800
1067.157;   20.358;  -13.920;  641.860
1067.703;   20.103;  -14.760;  668.480
1068.249;   18.968;  -14.490;  605.220
1068.794;   18.918;  -14.740;  626.880
1069.340;   17.840;  -13.220;  578.960
1069.886;   19.234;  -14.930;  590.700
1070.432;   17.204;  -14.700;  541.720
1070.977;   17.606;  -14.470;  601.080
1071.523;   18.151;  -14.330;  573.060
1072.068;   17.833;  -14.960;  582.000
1072.614;   16.765;  -16.220;  527.760
1073.160;   18.560;  -11.280;  687.040
1073.705;   17.325;  -15.990;  572.520
1074.250;   17.834;  -16.550;  559.900
1074.796;   17.857;  -14.600;  655.160
1075.341;   17.838;  -13.440;  664.100
1075.886;   18.025;  -14.450;  594.240
1076.431;   17.313;  -13.160;  649.880
1076.976;   16.178;  -14.710;  639.220
1077.521;   16.509;  -14.000;  583.080
1078.067;   16.555;  -14.470;  579.400
1078.612;   17.096;  -14.530;  661.620
1079.156;   16.161;  -15.660;  601.540
1079.701;   16.847;  -16.120;  693.260
1080.246;   16.986;  -12.960;  696.300
1080.791;   16.704;  -13.700;  625.020
1081.336;   16.257;  -15.540;  659.320
1081.880;   15.678;  -14.640;  649.680
1082.425;   15.346;  -14.220;  573.480
1082.970;   16.942;  -11.890;  717.040
1083.514;   15.013;  -13.820;  597.000
1084.059;   14.497;  -14.280;  586.720
1084.603;   14.109;  -12.890;  565.840
1085.147;   14.945;  -13.590;  645.220
1085.692;   15.636;  -14.050;  716.800
1086.236;   13.359;  -14.990;  503.140
1086.780;   16.507;  -12.640;  751.440
1087.325;   15.455;  -15.550;  654.620
1087.869;   15.325;  -14.980;  610.700
1088.413;   15.690;  -13.440;  705.040
1088.957;   13.236;  -12.170;  543.400
1089.501;   15.688;  -12.730;  766.640
1090.045;   14.760;  -14.650;  726.480
1090.589;   12.620;  -14.500;  569.920
1091.133;   13.996;  -12.320;  673.340
1091.676;   13.622;  -16.130;  591.940
1092.220;   12.628;  -13.930;  600.920
1092.764;   14.245;  -12.820;  706.960
1093.307;   13.910;  -11.700;  673.780
1093.851;   12.890;  -15.600;  556.540
1094.395;   13.126;  -13.920;  683.140
1094.938;   12.557;  -16.090;  632.520
1095.482;   13.147;  -13.820;  559.800
1096.025;   14.507;  -12.720;  710.880
1096.568;   13.557;  -12.100;  779.280
1097.112;    9.830;  -15.450;  508.180
1097.655;   13.023;  -14.310;  603.000
1098.198;   11.888;  -14.740;  600.180
1098.741;   11.206;  -15.550;  612.860
1099.285;   12.359;  -12.600;  657.300
1099.828;   10.480;  -15.050;  439.400
1100.371;   11.621;  -14.800;  608.160
1100.914;   12.203;  -16.480;  682.660
1101.457;   12.075;  -12.990;  679.900
1101.999;   10.982;  -14.110;  584.680
1102.542;   11.724;  -11.450;  641.440
1103.085;   11.280;  -13.350;  658.500
1103.628;   12.148;  -13.200;  762.060
1104.170;   10.324;  -12.310;  588.280
1104.713;   10.677;  -14.320;  646.700
1105.256;    9.802;  -16.110;  557.440
1105.798;    9.618;  -15.910;  499.980
1106.341;   12.349;  -12.200;  728.900
1106.883;   10.087;  -14.910;  521.340
1107.425;   10.337;  -14.960;  668.180
1107.968;    9.793;  -13.440;  612.380
1108.510;   10.974;  -14.010;  684.960
1109.052;    8.965;  -15.430;  612.620
1109.594;    8.908;  -15.290;  554.440
1110.136;    9.735;  -13.360;  643.220
1110.679;    9.262;  -13.820;  633.080
1111.221;    9.610;  -13.690;  604.460
1111.763;    8.214;  -14.890;  559.220
1112.304;    8.157;  -14.550;  547.140
1112.846;    9.438;  -12.760;  666.240
1113.388;   12.071;  -10.780;  942.180
1113.930;    9.695;  -12.690;  694.200
1114.472;    8.487;  -15.730;  606.540
1115.013;    7.931;  -14.620;  551.280
1115.555;    7.412;  -14.950;  587.100
1116.097;    7.504;  -16.460;  579.480
1116.638;    8.281;  -13.730;  684.600
1117.180;    9.134;  -13.810;  667.740
1117.721;    8.150;  -13.280;  568.580
1118.262;    8.484;  -15.080;  677.960
1118.804;    8.377;  -14.040;  637.340
1119.345;    8.029;  -15.430;  578.400
1119.886;    9.144;  -15.240;  704.040
1120.427;    6.965;  -15.820;  589.020
1120.969;    7.130;  -14.550;  597.920
1121.510;    6.625;  -14.030;  563.060
1122.051;    7.431;  -11.990;  723.580
1122.592;    6.659;  -16.490;  655.420
1123.133;    5.254;  -15.580;  547.940
1123.673;    7.967;  -12.850;  706.480
1124.214;    6.853;  -13.630;  612.460
1124.755;    7.042;  -14.830;  639.460
1125.296;    6.731;  -13.110;  627.320
1125.836;    7.788;  -11.320;  691.500
1126.377;    6.015;  -14.330;  599.660
1126.918;    7.398;  -12.800;  614.980
1127.458;    6.153;  -13.580;  622.220
1127.999;    7.227;  -10.330;  656.980
1128.539;    7.136;  -13.390;  694.240
1129.079;    5.902;  -16.420;  632.720
1129.620;    5.342;  -15.700;  558.100
1130.160;    5.159;  -14.790;  539.480
1130.700;    6.723;  -12.910;  640.840
1131.240;    6.461;  -15.610;  643.700
1131.781;    5.338;  -12.920;  619.680
1132.321;    6.054;  -15.300;  599.120
1132.861;    4.779;  -14.760;  564.200
1133.401;    4.679;  -15.470;  593.940
1133.941;    5.988;  -13.710;  626.280
1134.481;    5.289;  -11.820;  597.580
1135.020;    4.597;  -14.810;  609.160
1135.560;    5.174;  -13.660;  674.940
1136.100;    4.232;  -13.940;  501.160
1136.640;    4.188;  -15.410;  510.480
1137.179;    4.358;  -16.920;  537.960
1137.719;    4.555;  -16.430;  605.400
1138.258;    5.389;  -16.300;  587.360
1138.798;    5.293;  -13.710;  663.780
1139.337;    3.613;  -13.840;  482.840
1139.877;    4.918;  -16.140;  642.360
1140.416;    7.192;  -11.410;  878.060
1140.955;    3.117;  -12.820;  535.380
1141.494;    4.407;  -12.310;  669.280
1142.034;    2.843;  -16.280;  583.520
1142.573;    4.527;  -13.090;  646.280
1143.112;    3.679;  -13.770;  553.480
1143.651;    3.201;  -15.830;  536.480
1144.190;    4.833;  -15.010;  691.640
1144.729;    3.068;  -13.650;  607.420
1145.267;    3.945;  -13.670;  584.900
1145.806;    4.982;  -13.630;  637.040
1146.345;    3.600;  -14.160;  635.020
1146.884;    3.142;  -11.180;  622.500
1147.422;    2.466;  -15.890;  533.060
1147.961;    4.589;  -12.760;  708.460
1148.500;    3.651;  -15.220;  669.720
1149.038;    3.786;  -13.720;  632.500
1149.577;    3.929;  -13.250;  698.640
1150.115;    1.119;  -16.790;  452.280
1150.653;    2.707;  -15.810;  607.340
1151.192;    3.252;  -14.730;  552.920
1151.730;    4.213;  -13.660;  652.560
1152.268;    2.209;  -15.120;  589.520
1152.806;    1.818;  -15.580;  571.180
1153.344;    0.953;  -16.210;  577.640
1153.882;    2.219;  -12.810;  600.060
1154.421;    0.414;  -14.150;  470.620
1154.958;    1.082;  -15.360;  595.240
1155.496;    2.920;  -14.710;  645.280
1156.034;    3.158;  -13.640;  721.880
1156.572;    3.147;  -13.740;  667.060
1157.110;    1.034;  -16.960;  473.940
1157.647;    2.287;  -11.940;  676.960
1158.185;    1.530;  -14.090;  564.320
1158.723;    0.137;  -13.610;  509.200
1159.260;    2.094;  -14.760;  701.700
1159.798;    2.223;  -13.700;  658.160
1160.335;    1.601;  -13.820;  631.820

