membrane
Integration time [ms]:   3.882
Averaging Nr. [scans]: 1000
Smoothing Nr. [pixels]: 0
Data measured with spectrometer [name]: 7414430SP
Wave   ;Sample   ;Dark     ;Reference
[nm]   ;[counts] ;[counts] ;[counts] 

288.544;  129.822;   10.292;  793.890
289.143;  132.488;    4.564;  681.602
289.742;  134.598;    6.144;  828.814
290.341;  121.352;    4.396;  789.841
290.940;  112.608;    0.938;  730.702
291.538;  112.884;   -0.684;  881.108
292.137;  112.780;   -2.845;  792.581
292.736;  116.829;   -0.144;  975.101
293.335;  112.397;   -6.352;  735.086
293.934;  111.709;   -7.642;  781.677
294.532;  112.512;   -4.992; 1031.958
295.131;   98.393;   -5.478;  834.394
295.730;   98.972;   -6.549;  809.588
296.328;   96.579;   -9.558;  783.442
296.927;   96.615;   -8.118;  779.652
297.525;   97.357;   -6.908;  781.236
298.124;   88.612;   -9.195;  654.009
298.722;   92.882;   -8.198;  761.933
299.321;   91.350;   -8.817;  708.597
299.919;   89.475;   -7.716;  751.918
300.518;   84.624;  -10.745;  689.338
301.116;   86.159;   -9.647;  691.381
301.715;   86.506;  -10.828;  730.222
302.313;   86.138;   -6.087;  704.943
302.911;   81.704;   -6.824;  733.830
303.509;   85.914;   -8.807;  925.627
304.108;   84.137;   -8.198;  760.383
304.706;   83.824;   -6.218;  801.664
305.304;   79.333;   -7.185;  796.707
305.902;   84.093;   -8.568;  784.484
306.500;   78.668;   -7.737;  728.200
307.098;   77.933;   -6.026;  746.560
307.696;   76.691;   -7.176;  780.432
308.294;   77.044;   -8.656;  731.359
308.892;   79.246;   -6.838;  759.769
309.490;   74.612;   -2.596;  712.161
310.088;   73.529;   -4.485;  788.444
310.686;   78.387;   -3.907;  821.749
311.284;   73.814;   -2.806;  766.040
311.882;   71.801;   -2.845;  731.225
312.480;   69.681;   -3.274;  697.167
313.078;   70.220;   -3.645;  808.331
313.675;   71.190;   -4.997;  691.600
314.273;   66.230;   -0.894;  797.837
314.871;   66.097;   -2.854;  589.829
315.468;   63.377;   -3.644;  652.090
316.066;   66.234;   -3.947;  694.427
316.664;   59.421;   -1.824;  656.351
317.261;   65.405;    1.565;  910.128
317.859;   59.871;   -3.955;  768.735
318.456;   60.790;   -2.886;  830.096
319.054;   57.716;   -0.995;  787.828
319.651;   56.704;   -1.765;  759.928
320.249;   55.775;   -3.685;  810.188
320.846;   53.554;   -3.736;  714.286
321.443;   51.665;   -2.065;  832.135
322.041;   48.758;   -5.635;  812.315
322.638;   46.810;   -5.985;  701.456
323.235;   48.980;   -6.677;  665.683
323.833;   47.165;   -3.497;  740.354
324.430;   42.808;   -6.756;  615.900
325.027;   44.348;   -7.647;  876.855
325.624;   44.314;   -7.598;  644.532
326.221;   42.120;   -5.848;  689.717
326.818;   42.612;   -5.777;  818.332
327.415;   44.831;   -8.769;  748.828
328.012;   43.625;   -6.299;  690.585
328.609;   42.282;   -6.639;  731.389
329.206;   40.906;   -6.358;  778.621
329.803;   38.806;   -8.698;  737.841
330.400;   41.627;   -8.379;  704.260
330.997;   42.682;   -6.178;  817.147
331.594;   40.158;   -5.646;  788.185
332.191;   45.060;   -6.928;  728.722
332.787;   45.638;   -6.057;  844.463
333.384;   43.699;   -6.445;  763.093
333.981;   41.870;   -8.002;  815.687
334.578;   43.163;   -8.443;  708.378
335.174;   44.934;   -6.053;  731.469
335.771;   45.033;   -5.791;  836.456
336.367;   42.161;   -6.570;  710.631
336.964;   44.770;   -6.741;  793.266
337.561;   43.777;   -5.710;  731.112
338.157;   40.936;   -3.928;  911.916
338.754;   36.927;   -5.577;  796.589
339.350;   34.917;   -9.667;  722.493
339.946;   39.163;   -5.269;  773.135
340.543;   31.331;   -4.485;  846.136
341.139;   26.218;   -7.584;  720.836
341.735;   25.063;   -8.553;  772.593
342.332;   23.443;   -4.984;  691.472
342.928;   23.495;   -3.475;  795.394
343.524;   18.829;   -6.653;  761.684
344.120;   16.275;   -7.173;  738.562
344.716;   18.802;   -4.385;  723.717
345.313;   17.539;   -3.565;  795.342
345.909;   13.330;   -7.495;  627.336
346.505;   14.318;   -8.276;  740.247
347.101;   15.652;   -5.697;  827.864
347.697;   17.187;   -4.767;  785.398
348.293;   11.113;   -7.226;  627.244
348.889;   12.549;   -7.547;  745.914
349.485;   10.741;   -9.147;  688.205
350.081;   12.000;   -6.568;  772.592
350.676;    7.561;   -6.516;  691.606
351.272;   13.096;   -7.378;  809.530
351.868;   12.011;   -6.759;  780.497
352.464;    9.463;   -4.798;  723.932
353.059;    5.446;   -7.977;  646.017
353.655;    9.338;   -8.769;  777.063
354.251;   10.185;   -5.920;  759.845
354.846;    4.931;   -7.647;  740.646
355.442;    2.777;   -6.956;  753.071
356.038;    4.326;   -9.928;  751.708
356.633;    5.523;   -7.698;  728.594
357.229;    3.197;   -6.307;  724.757
357.824;    2.073;   -7.647;  703.600
358.420;    0.578;  -10.047;  679.726
359.015;    1.664;   -7.458;  695.357
359.610;    3.377;   -5.748;  763.920
360.206;   -3.913;   -9.346;  603.240
360.801;   -0.770;  -11.268;  646.503
361.396;    1.892;   -8.789;  725.975
361.992;   -1.592;   -6.347;  668.220
362.587;   -5.673;   -6.476;  670.160
363.182;   -3.400;   -9.457;  689.631
363.777;   -2.247;   -7.147;  738.242
364.372;   -2.148;   -5.507;  737.314
364.967;   -5.874;   -6.386;  680.744
365.563;   -0.916;   -7.858;  815.567
366.158;   -4.700;   -8.517;  685.161
366.753;   -4.029;   -8.728;  649.263
367.348;   -5.175;   -7.677;  746.056
367.942;   -5.474;  -10.387;  697.298
368.537;   -6.095;   -7.187;  754.245
369.132;   -6.110;   -8.587;  703.428
369.727;   -9.986;   -8.606;  638.079
370.322;   -8.588;  -10.426;  580.186
370.917;   -8.360;   -5.776;  710.646
371.511;   -4.194;   -6.007;  861.834
372.106;   -8.823;   -6.686;  776.964
372.701;  -12.029;   -9.335;  585.988
373.296;   -6.080;   -6.777;  863.135
373.890;  -10.865;   -7.546;  647.840
374.485;  -13.054;   -8.755;  691.199
375.079;   -9.393;   -9.797;  738.685
375.674;   -7.857;   -6.327;  812.970
376.268;  -12.178;   -9.046;  691.759
376.863;  -16.459;   -7.993;  580.327
377.457;  -11.622;   -9.206;  662.490
378.052;  -13.036;   -5.345;  764.884
378.646;  -12.738;   -5.605;  741.167
379.240;  -13.451;   -6.825;  721.176
379.835;  -12.840;  -10.476;  636.978
380.429;  -15.135;   -8.676;  562.557
381.023;  -14.052;   -4.945;  779.205
381.617;  -16.852;   -8.094;  680.106
382.212;  -13.722;  -10.646;  685.303
382.806;  -12.239;   -8.136;  760.690
383.400;  -17.239;   -7.855;  672.281
383.994;  -17.767;   -8.125;  664.870
384.588;  -13.064;   -7.637;  697.701
385.182;  -11.809;   -7.458;  726.624
385.776;  -13.418;   -6.277;  706.875
386.370;  -16.390;   -7.485;  681.968
386.964;  -15.669;   -9.416;  684.155
387.558;  -13.934;   -8.518;  598.360
388.152;  -16.758;   -7.096;  681.959
388.745;  -14.829;   -7.656;  814.707
389.339;  -13.420;   -8.927;  747.642
389.933;  -13.037;   -9.538;  695.370
390.527;  -13.332;   -5.857;  859.029
391.120;  -19.637;   -9.455;  595.318
391.714;  -16.583;   -9.746;  711.633
392.308;  -13.321;   -7.857;  780.253
392.901;  -16.858;   -9.106;  642.460
393.495;  -18.888;  -10.365;  595.414
394.089;  -16.670;   -9.696;  760.452
394.682;  -17.101;   -7.016;  697.188
395.275;  -17.181;   -8.466;  719.927
395.869;  -18.698;   -8.985;  667.314
396.462;  -17.233;  -11.496;  616.609
397.056;  -13.107;   -7.838;  776.621
397.649;  -18.035;   -6.895;  731.575
398.242;  -15.138;   -5.017;  712.645
398.836;  -13.995;   -8.787;  766.408
399.429;  -15.698;   -8.967;  631.041
400.022;  -18.586;   -8.815;  665.902
400.615;  -15.569;   -6.276;  805.609
401.208;  -13.812;   -8.407;  691.451
401.802;  -16.363;   -7.296;  699.329
402.395;  -17.978;   -7.585;  683.502
402.988;  -17.895;   -8.015;  696.627
403.581;  -15.219;   -9.577;  646.878
404.174;  -12.613;   -7.588;  686.568
404.767;  -15.404;   -7.906;  638.583
405.360;  -18.061;   -7.875;  621.445
405.953;  -12.101;   -8.127;  759.034
406.545;  -11.831;   -7.198;  725.342
407.138;  -15.301;   -8.916;  618.350
407.731;  -14.460;   -9.767;  613.303
408.324;  -10.002;  -10.659;  660.554
408.917;  -11.847;   -8.068;  681.864
409.509;  -13.426;   -9.837;  740.396
410.102;  -15.710;   -8.146;  643.948
410.695;   -9.149;   -7.969;  665.758
411.287;  -10.255;   -8.579;  599.821
411.880;  -10.650;   -6.968;  585.421
412.472;  -14.000;   -9.487;  613.092
413.065;  -11.227;  -10.338;  629.408
413.657;   -9.093;   -9.169;  576.678
414.250;   -7.650;  -10.119;  646.681
414.842;  -10.702;   -9.938;  676.353
415.434;   -8.658;  -10.409;  570.463
416.027;   -3.712;   -9.591;  652.196
416.619;   -6.390;   -7.379;  713.400
417.211;   -5.845;   -9.159;  599.352
417.804;   -1.793;   -9.191;  628.499
418.396;   -6.602;   -8.159;  607.643
418.988;   -3.830;   -6.960;  659.238
419.580;   -7.258;  -11.389;  568.276
420.172;   -5.087;  -13.460;  536.196
420.764;   -0.715;  -10.701;  672.482
421.356;   -1.903;   -8.961;  636.898
421.948;   -2.331;   -9.770;  677.661
422.540;    2.217;   -8.832;  680.027
423.132;    2.206;   -8.153;  600.641
423.724;   -1.801;   -8.481;  561.267
424.316;    0.201;   -9.261;  621.345
424.908;    3.974;   -9.643;  591.517
425.500;    5.335;   -8.663;  647.978
426.092;    5.834;   -8.503;  648.268
426.683;    4.614;  -10.522;  684.836
427.275;    7.454;  -11.734;  641.471
427.867;    8.660;  -10.264;  668.948
428.458;    9.875;   -7.644;  732.344
429.050;    8.149;   -7.853;  680.749
429.642;   10.697;   -8.904;  743.124
430.233;   10.336;  -10.795;  569.356
430.825;   12.581;   -7.665;  724.809
431.416;    9.677;   -8.843;  698.241
432.008;   13.760;   -9.885;  651.723
432.599;   14.329;   -9.966;  656.073
433.190;   10.991;   -9.164;  637.670
433.782;   10.577;   -8.584;  590.395
434.373;   18.663;   -8.296;  884.765
434.964;   16.643;   -9.896;  602.920
435.556;   14.769;   -8.255;  634.537
436.147;   18.217;   -8.075;  758.490
436.738;   17.372;   -9.716;  701.099
437.329;   23.633;   -7.318;  721.723
437.920;   16.123;   -6.694;  666.688
438.511;   14.688;   -9.644;  564.526
439.103;   22.679;   -9.427;  623.998
439.694;   24.608;  -10.748;  681.583
440.285;   25.724;   -7.997;  764.432
440.876;   24.371;  -10.046;  845.738
441.466;   23.204;  -13.467;  575.162
442.057;   28.733;   -9.329;  665.814
442.648;   27.384;   -7.707;  746.255
443.239;   25.104;   -9.017;  620.477
443.830;   30.972;  -10.279;  704.958
444.421;   32.285;  -12.630;  655.474
445.011;   28.950;   -8.697;  693.619
445.602;   28.831;   -7.787;  743.126
446.193;   30.700;  -13.329;  488.117
446.783;   35.562;   -9.171;  640.397
447.374;   31.136;   -7.457;  692.759
447.964;   31.739;   -9.277;  713.770
448.555;   40.763;   -9.041;  822.742
449.145;   36.372;   -8.969;  662.853
449.736;   37.501;   -6.809;  803.179
450.326;   37.084;   -7.229;  713.626
450.917;   42.346;  -11.391;  675.324
451.507;   41.725;   -9.501;  600.661
452.097;   43.031;   -8.460;  746.267
452.688;   43.890;  -10.080;  742.160
453.278;   43.580;  -12.861;  566.840
453.868;   47.743;   -8.372;  793.550
454.458;   46.115;   -8.131;  651.141
455.048;   46.745;   -8.520;  711.783
455.639;   47.550;  -13.632;  567.096
456.229;   52.123;  -10.143;  710.694
456.819;   54.495;   -9.163;  751.158
457.409;   54.505;   -8.652;  773.993
457.999;   57.703;   -9.933;  737.505
458.589;   57.307;  -10.363;  686.606
459.179;   56.897;  -10.633;  717.658
459.769;   55.250;  -12.442;  627.099
460.358;   60.253;   -9.844;  797.262
460.948;   59.492;   -9.924;  689.503
461.538;   60.982;  -10.484;  660.677
462.128;   59.008;  -10.703;  664.934
462.717;   65.686;  -11.486;  710.326
463.307;   69.921;  -10.767;  705.846
463.897;   65.813;   -8.814;  656.942
464.486;   65.220;   -8.182;  837.128
465.076;   69.856;   -9.985;  733.776
465.666;   73.348;  -10.447;  652.900
466.255;   71.564;   -7.754;  785.651
466.845;   69.810;  -10.884;  666.749
467.434;   74.336;  -12.525;  725.873
468.023;   73.786;  -11.456;  658.357
468.613;   71.688;   -9.173;  713.946
469.202;   76.199;   -9.306;  646.507
469.791;   80.801;   -8.917;  737.811
470.381;   82.890;   -9.657;  742.813
470.970;   81.746;   -9.947;  711.099
471.559;   81.860;   -9.256;  733.291
472.148;   85.485;  -13.397;  675.737
472.738;   88.680;   -9.928;  765.466
473.327;   87.683;  -10.897;  637.529
473.916;   87.625;   -8.526;  737.446
474.505;   92.427;  -11.078;  751.703
475.094;   94.909;   -9.559;  806.570
475.683;   94.637;   -8.838;  797.699
476.272;   95.301;  -10.198;  730.632
476.861;   98.790;  -11.489;  706.754
477.449;  105.525;  -10.721;  728.487
478.038;   99.418;   -9.818;  692.513
478.627;  100.344;   -9.887;  714.852
479.216;  106.898;  -10.030;  769.441
479.805;  109.958;   -9.401;  783.375
480.393;  110.518;   -5.739; 1008.945
480.982;  110.131;   -7.838;  874.501
481.571;  116.318;   -9.111;  858.333
482.159;  116.391;  -10.601;  705.386
482.748;  116.628;   -8.500;  821.385
483.336;  121.859;   -9.241;  858.209
483.925;  122.798;  -10.440;  774.373
484.513;  129.570;  -11.063;  758.962
485.102;  125.667;   -9.540;  810.965
485.690;  135.117;   -6.742; 1011.050
486.278;  137.705;   -8.442;  979.329
486.867;  137.788;  -10.472;  809.662
487.455;  140.367;   -8.811;  898.229
488.043;  141.630;  -10.721;  748.361
488.631;  151.365;  -10.393; 1005.079
489.220;  154.877;  -10.843;  908.626
489.808;  155.097;  -10.572;  741.415
490.396;  164.367;  -10.482;  914.645
490.984;  170.038;  -11.542;  830.161
491.572;  179.724;   -8.463;  940.315
492.160;  187.235;   -8.491;  919.081
492.748;  198.495;   -9.681;  884.341
493.336;  219.781;  -10.493; 1019.693
493.924;  246.248;   -9.354;  958.077
494.512;  278.955;   -9.132; 1066.638
495.100;  322.147;   -9.001; 1103.280
495.687;  383.792;  -11.924; 1206.373
496.275;  463.135;  -11.193; 1150.796
496.863;  546.219;   -9.241; 1281.171
497.451;  651.849;  -11.341; 1386.805
498.038;  788.083;  -11.364; 1556.729
498.626;  914.356;   -8.104; 1741.407
499.214; 1104.224;   -8.842; 2016.609
499.801; 1377.578;  -10.112; 2220.633
500.389; 1612.670;  -11.953; 2312.494
500.976; 1815.990;  -10.023; 2744.849
501.564; 2109.409;   -8.662; 3148.565
502.151; 2490.893;  -10.531; 3515.999
502.738; 2901.485;  -13.853; 3971.274
503.326; 3476.031;  -10.794; 4403.796
503.913; 3951.307;   -8.663; 5161.749
504.500; 4622.610;  -10.172; 5986.420
505.088; 5591.051;  -13.472; 6381.201
505.675; 6174.353;  -10.924; 6925.547
506.262; 6215.063;   -8.551; 7619.060
506.849; 6765.091;  -10.523; 8733.969
507.436; 7770.559;  -10.834; 9790.121
508.023; 8265.688;   -9.093; 9985.472
508.610; 8527.341;  -10.073;10434.618
509.197; 9665.368;   -9.500;11198.435
509.784;11495.053;  -13.242;12391.194
510.371;12483.945;  -10.964;13603.713
510.958;12867.107;   -9.772;14426.586
511.545;13149.699;   -7.842;15243.775
512.132;13250.700;  -12.184;15945.876
512.719;14751.205;   -9.733;16340.369
513.305;17734.324;   -9.172;18011.766
513.892;19225.990;   -9.581;19754.971
514.479;20398.381;  -10.253;20967.805
515.066;21531.824;   -8.183;22299.793
515.652;22861.705;   -9.253;22908.660
516.239;24804.264;   -9.412;23798.875
516.825;26329.764;  -11.153;25567.275
517.412;26292.543;  -10.263;28154.959
517.998;26160.797;   -8.802;28344.111
518.585;26725.471;  -10.401;27134.219
519.171;26369.559;  -12.744;27268.576
519.758;27566.043;  -11.793;28964.129
520.344;30961.668;   -8.912;30664.494
520.930;34585.387;  -10.901;32550.605
521.516;34564.414;  -12.034;35422.895
522.103;35108.641;  -10.473;38280.004
522.689;36991.707;   -8.311;37835.117
523.275;39593.734;  -10.691;37288.613
523.861;41671.602;  -11.193;37281.395
524.447;39052.836;  -11.484;37846.949
525.033;39052.918;   -7.702;38321.949
525.619;38978.852;  -11.241;38579.285
526.205;38953.992;  -12.152;40622.875
526.791;40118.219;  -11.423;42258.836
527.377;40588.031;   -7.981;42966.902
527.963;41109.289;   -9.450;42018.949
528.549;41330.922;  -11.351;42476.828
529.135;41553.480;  -10.202;41854.852
529.721;43177.621;   -8.672;41237.711
530.306;42909.906;   -9.111;41259.445
530.892;44232.930;  -11.252;41506.047
531.478;47709.652;  -10.432;43559.613
532.063;50072.809;  -10.721;47695.563
532.649;50925.973;   -7.450;50808.324
533.235;52676.953;  -11.811;51787.500
533.820;51667.336;   -9.383;52145.035
534.406;49283.539;   -9.400;51133.488
534.991;47514.867;   -8.861;49996.805
535.576;48617.832;  -10.612;48882.852
536.162;46496.227;   -7.322;46942.285
536.747;45629.250;   -9.360;45711.746
537.333;47143.449;  -10.450;48510.180
537.918;50279.078;  -12.610;50439.891
538.503;50523.422;  -12.132;50863.711
539.088;47104.832;  -10.831;50906.922
539.673;46087.063;  -11.220;52621.965
540.259;50179.965;  -11.481;52368.094
540.844;51111.949;  -11.462;50879.109
541.429;52727.363;   -7.869;52077.777
542.014;50926.402;  -11.859;52716.695
542.599;49067.461;  -11.061;52363.281
543.184;50133.934;  -12.300;53187.137
543.769;51532.188;   -9.369;54697.605
544.354;52828.121;  -12.020;53913.914
544.938;47662.301;  -10.350;49680.164
545.523;43714.316;  -10.841;47386.277
546.108;47077.020;   -8.579;49151.949
546.693;49829.188;   -8.818;51384.637
547.278;51233.309;  -11.331;51853.254
547.862;50633.336;  -10.292;51173.750
548.447;48455.512;   -8.349;51691.395
549.031;47747.867;  -10.838;52456.703
549.616;49229.223;  -11.681;52714.516
550.201;52040.449;  -11.140;52414.598
550.785;50084.457;   -8.649;52355.059
551.370;49661.102;  -11.889;54589.453
551.954;50857.070;  -11.239;58267.348
552.538;52677.609;   -8.850;59062.176
553.123;55096.941;  -10.829;58115.285
553.707;56126.773;   -8.887;56556.285
554.291;53003.328;  -10.430;56201.668
554.876;50950.223;   -9.799;55335.762
555.460;48196.789;  -10.018;54155.703
556.044;47060.773;   -7.307;53721.484
556.628;50859.590;  -12.229;53731.016
557.212;51750.016;   -9.820;54312.531
557.796;49277.992;   -9.109;53797.773
558.380;45580.020;   -9.707;56145.984
558.964;46528.133;  -10.980;57277.930
559.548;50889.430;  -12.010;56459.641
560.132;51933.680;   -7.928;54434.543
560.716;54794.719;  -10.247;54800.617
561.300;55956.957;  -11.250;57606.945
561.884;53986.762;  -10.568;58972.445
562.467;53054.379;   -9.727;57327.570
563.051;49609.262;  -11.847;54962.434
563.635;48011.992;  -10.747;52594.473
564.219;46557.648;  -13.108;50610.410
564.802;43739.039;  -11.417;49551.180
565.386;41706.859;  -10.457;48370.953
565.969;43917.488;   -8.959;48178.871
566.553;43917.875;  -10.328;49957.305
567.136;43967.477;  -10.257;50369.594
567.720;43922.000;  -10.186;49492.004
568.303;42940.047;  -10.027;50616.352
568.887;43150.887;  -10.397;50727.148
569.470;44708.711;   -8.185;51698.379
570.053;43807.039;  -11.596;52122.078
570.637;42164.973;  -11.378;52536.438
571.220;41915.863;   -9.138;51186.098
571.803;41058.789;   -7.675;51032.762
572.386;39112.539;   -8.976;49609.887
572.969;39715.477;  -12.477;48285.926
573.552;40133.816;   -9.767;47624.285
574.135;39465.207;   -8.175;45498.641
574.718;34768.102;  -11.096;41970.434
575.301;33412.855;  -11.966;41447.137
575.884;32057.611;  -12.836;40923.836
576.467;37536.281;   -9.116;45267.723
577.050;39793.770;  -10.536;48175.543
577.633;40067.348;  -11.027;47729.328
578.216;38649.184;   -9.946;47579.793
578.799;37535.074;   -9.645;47820.996
579.381;37440.977;   -9.446;48115.551
579.964;37925.887;  -12.217;47333.766
580.547;38762.297;  -10.586;46668.969
581.129;38238.281;   -8.374;44466.141
581.712;36444.711;  -10.434;44164.922
582.294;35656.523;  -10.896;46477.855
582.877;36775.066;   -8.906;48244.254
583.459;38077.039;   -9.994;47437.895
584.042;37601.633;  -10.084;46943.219
584.624;36341.277;  -13.534;46792.227
585.206;34965.215;  -12.716;46557.250
585.789;35578.555;  -11.614;45793.773
586.371;36453.152;  -10.203;43836.391
586.953;35232.129;  -10.314;42972.492
587.536;33130.184;   -9.776;42487.211
588.118;33477.359;   -9.821;42086.414
588.700;34481.703;  -10.073;43389.930
589.282;35917.930;  -12.395;43646.039
589.864;34642.996;  -11.514;43438.109
590.446;34630.699;  -10.803;43151.926
591.028;35943.977;  -11.043;42781.867
591.610;36161.063;  -13.244;42839.098
592.192;32679.627;  -11.095;42820.402
592.774;29882.480;  -10.823;40724.277
593.356;29084.602;  -11.052;39874.789
593.937;31200.457;  -11.664;39980.648
594.519;34054.746;  -10.454;42069.633
595.101;35047.063;  -10.322;42976.031
595.683;33899.363;  -10.042;44084.441
596.264;32305.803;  -14.334;43478.797
596.846;32434.428;  -10.863;43803.672
597.427;33316.039;   -9.901;42986.934
598.009;34005.879;  -10.911;42832.219
598.591;34797.797;  -10.483;42580.086
599.172;33334.074;   -9.663;43061.805
599.753;31199.543;  -10.631;41691.469
600.335;30529.205;   -9.371;40692.520
600.916;32116.432;  -13.992;39982.422
601.498;33664.398;   -8.352;40318.617
602.079;31814.639;   -8.411;40670.609
602.660;33470.648;  -10.841;41450.898
603.241;35663.832;  -12.963;41137.738
603.823;34330.141;  -11.523;38868.797
604.404;32210.373;  -11.881;38182.785
604.985;32418.486;  -11.721;38078.047
605.566;33606.121;   -9.293;38056.633
606.147;33080.422;  -10.940;37020.418
606.728;31645.705;  -11.840;37883.359
607.309;30581.895;  -11.781;38748.273
607.890;31027.508;  -11.262;38850.230
608.471;30359.131;  -10.111;37457.918
609.051;30038.973;   -7.709;36066.457
609.632;30681.168;  -12.409;35991.074
610.213;29917.865;  -10.811;37402.641
610.794;29351.402;  -11.630;38383.363
611.374;30555.023;   -8.030;40562.387
611.955;31758.715;  -10.809;38533.727
612.536;33169.559;  -10.531;36951.789
613.116;33347.164;  -12.820;37197.891
613.697;32391.965;  -11.419;38411.125
614.277;31958.490;   -9.768;38673.938
614.858;32475.264;  -10.251;37075.863
615.438;28975.434;  -11.981;35092.906
616.019;26440.346;   -8.978;33666.301
616.599;29046.623;  -12.219;34189.023
617.179;32308.717;  -14.170;36952.047
617.760;33808.207;   -9.211;39582.574
618.340;34164.992;   -9.018;38943.977
618.920;32620.396;   -9.249;37594.156
619.500;31946.283;  -12.728;37866.938
620.080;34140.273;  -12.939;37869.043
620.660;33637.270;  -11.586;36868.617
621.241;32572.035;  -11.538;36352.309
621.821;33050.250;  -11.398;35459.520
622.401;33854.063;  -10.179;35207.414
622.980;34543.203;  -11.587;35980.422
623.560;33622.453;  -12.888;37351.328
624.140;31290.293;  -13.149;34388.582
624.720;26432.348;   -9.928;32368.764
625.300;25884.998;  -10.869;32638.629
625.880;30549.922;   -8.617;34599.035
626.459;35459.035;  -12.138;36831.738
627.039;37015.445;  -12.267;38299.098
627.619;36791.070;   -7.476;38289.574
628.198;37423.863;  -11.347;37220.695
628.778;36833.680;  -11.678;37632.563
629.357;34539.660;  -12.438;38003.012
629.937;32308.813;   -9.576;38402.039
630.516;31231.645;  -11.096;37868.801
631.096;30808.336;  -11.828;35760.410
631.675;30942.965;  -11.565;35225.219
632.254;30933.334;  -11.845;35130.289
632.834;31925.420;  -11.545;35794.570
633.413;33000.188;  -10.887;35788.922
633.992;34790.848;  -10.175;34532.863
634.571;33900.398;   -9.704;33590.113
635.151;31450.383;  -10.815;34943.863
635.730;30818.039;  -11.617;35352.523
636.309;29793.068;  -10.836;35366.605
636.888;30235.596;   -9.755;36165.637
637.467;30960.580;  -11.684;37515.902
638.046;32860.141;  -11.987;39288.695
638.625;34316.375;  -10.455;38279.699
639.204;33886.875;  -11.234;37741.598
639.782;31242.314;  -12.023;38364.551
640.361;28896.928;  -11.506;36740.621
640.940;28610.275;  -12.316;34950.082
641.519;30480.227;  -11.616;34137.398
642.097;34262.445;   -9.266;35654.258
642.676;35092.109;  -12.936;35637.957
643.255;33917.152;   -9.966;36567.074
643.833;33559.410;   -8.916;37809.434
644.412;34770.914;  -10.936;37337.293
644.990;37576.184;  -12.176;37018.531
645.569;38471.270;  -12.246;36518.469
646.147;37552.277;  -12.107;36186.430
646.726;36471.762;  -12.937;36267.688
647.304;38958.098;  -12.547;36647.625
647.882;39953.094;  -12.597;39286.742
648.461;37981.859;   -9.427;39157.703
649.039;35677.391;   -8.937;35412.883
649.617;33436.730;  -11.067;34744.918
650.195;33652.145;  -10.657;35403.098
650.773;33096.539;  -10.097;35053.797
651.352;30945.324;  -11.887;33756.816
651.930;26507.703;  -13.557;31868.773
652.508;23163.199;  -11.767;33121.551
653.086;24295.014;  -10.777;33564.793
653.663;28201.570;  -12.067;34054.668
654.241;31312.982;  -14.918;35693.309
654.819;32965.453;  -11.788;36422.906
655.397;32471.820;  -11.268;38213.484
655.975;33386.633;  -11.738;39507.625
656.553;32954.398;  -11.018;39498.223
657.130;31947.840;  -12.848;40395.480
657.708;31250.045;  -10.098;39242.020
658.286;31851.977;  -11.678;38920.020
658.863;34479.324;  -11.498;40202.898
659.441;37093.883;  -11.008;39677.938
660.018;37714.699;  -11.048;40413.355
660.596;37271.016;  -12.058;39931.414
661.173;36556.449;  -14.158;39604.531
661.750;36109.742;  -12.298;39700.070
662.328;34984.223;  -10.699;39292.809
662.905;32903.961;  -12.119;38235.648
663.482;28158.271;  -11.829;36212.305
664.060;27196.234;  -11.009;35944.945
664.637;30027.400;  -10.369;35170.785
665.214;30551.752;  -10.459;34197.523
665.791;29168.953;  -12.599;34549.520
666.368;28743.914;  -12.919;35118.578
666.945;30770.459;  -10.699;36019.418
667.522;32199.846;  -11.359;36048.438
668.099;32360.705;  -13.529;36243.914
668.676;32065.770;  -10.229;35958.875
669.253;31869.953;   -9.279;37384.730
669.830;30759.795;  -11.370;36779.629
670.407;31041.664;  -10.950;35231.289
670.984;32334.170;  -12.850;35544.270
671.560;31803.924;   -8.440;35466.867
672.137;30155.568;  -13.520;34280.863
672.714;29231.799;  -13.620;34632.863
673.290;29798.863;  -10.450;35135.422
673.867;29512.387;  -10.960;36114.480
674.443;28110.549;  -13.300;36152.859
675.020;28674.143;  -12.370;35327.238
675.596;29357.732;  -11.250;35795.176
676.173;29913.883;  -11.080;35430.355
676.749;30143.006;  -13.220;33549.516
677.326;33006.152;  -13.000;32210.012
677.902;34662.578;  -12.701;32068.871
678.478;34489.770;  -12.801;32583.891
679.054;33800.621;   -8.601;32088.928
679.631;34405.801;  -12.631;30978.848
680.207;33916.457;   -9.451;33160.887
680.783;32383.619;  -11.701;35570.363
681.359;31938.100;  -12.701;36125.184
681.935;31867.848;  -13.271;35240.922
682.511;31301.857;  -10.791;34429.961
683.087;31400.902;  -10.791;34463.680
683.663;31228.104;   -8.121;34648.898
684.239;32890.031;  -13.261;34546.457
684.815;32575.357;  -10.581;35586.375
685.390;29406.270;   -9.961;35821.895
685.966;28313.045;  -11.182;35085.871
686.542;27987.789;  -13.512;34198.230
687.118;28131.539;  -11.472;32847.707
687.693;28308.193;  -10.152;32794.027
688.269;29311.449;  -14.442;33072.367
688.844;30637.656;  -11.852;33141.664
689.420;28882.014;  -13.942;33965.742
689.995;27512.490;   -9.702;34655.523
690.571;27613.109;  -11.312;33576.742
691.146;27234.773;  -14.332;32657.219
691.722;28241.805;  -11.192;32526.979
692.297;30779.930;  -10.962;33014.617
692.872;30267.898;  -11.082;34012.254
693.448;29182.838;  -14.732;34237.434
694.023;28501.881;  -12.363;34142.672
694.598;28389.990;  -12.393;34132.031
695.173;27303.301;  -11.023;34205.250
695.748;26778.588;  -12.743;32882.488
696.323;28241.076;  -11.103;32864.906
696.898;29467.172;   -8.123;33170.004
697.473;29146.854;  -12.603;32432.984
698.048;28896.547;  -12.553;31649.303
698.623;30373.664;  -12.573;30778.141
699.198;33970.695;  -12.743;31140.119
699.773;31887.068;  -12.843;31764.299
700.348;30549.354;  -16.683;31780.816
700.922;30876.824;  -11.403;32046.375
701.497;31532.123;  -11.253;32603.574
702.072;31869.088;  -10.044;34799.871
702.646;31478.469;  -13.054;35793.172
703.221;30015.137;  -11.414;35201.590
703.795;29977.955;  -10.644;34764.527
704.370;31550.412;  -13.484;34307.367
704.944;31555.398;  -12.144;33509.887
705.519;30361.104;  -12.024;31388.584
706.093;28925.105;  -11.234;31340.104
706.668;27230.408;   -9.874;32630.281
707.242;26766.621;  -12.404;32728.779
707.816;27143.207;  -10.644;32947.238
708.390;26602.088;  -11.174;33277.855
708.965;26628.404;  -10.324;33834.336
709.539;26300.031;  -12.014;33709.273
710.113;26274.586;  -12.295;33044.313
710.687;27298.027;  -10.965;31953.992
711.261;27912.365;  -13.685;30505.949
711.835;27309.922;  -15.335;30262.369
712.409;26652.262;  -13.785;31254.447
712.983;27172.887;  -10.525;32754.986
713.557;28853.932;  -13.175;34018.824
714.131;30421.338;  -13.245;34579.625
714.704;32415.889;  -13.175;33890.262
715.278;34558.645;  -11.545;33531.102
715.852;33787.539;  -10.975;33601.660
716.425;32349.533;  -10.075;33515.117
716.999;31822.123;  -12.185;33185.555
717.573;32349.449;   -9.685;33905.996
718.146;34341.770;  -10.516;35199.293
718.720;31606.549;  -12.106;35060.551
719.293;30212.670;  -12.386;34973.230
719.867;33531.910;  -12.456;36394.449
720.440;34089.023;  -10.686;36663.008
721.013;33964.832;  -12.596;35102.426
721.587;33890.504;  -13.956;33985.266
722.160;33191.082;   -9.806;33524.965
722.733;32786.359;  -11.676;32987.043
723.306;32056.506;  -14.276;33066.301
723.880;31887.328;  -12.126;33399.500
724.453;33380.246;  -10.156;33468.297
725.026;32092.504;  -12.956;33816.637
725.599;29738.670;  -11.676;32797.996
726.172;28037.244;  -12.337;33187.434
726.745;28553.961;  -11.277;35136.613
727.318;28561.639;  -11.927;35751.730
727.891;27310.619;  -13.607;35890.430
728.463;27320.447;  -11.327;34822.090
729.036;26508.994;  -11.917;32895.086
729.609;26833.131;  -12.697;31823.225
730.182;27622.789;  -11.787;31445.283
730.754;28010.797;  -12.957;32373.223
731.327;28839.186;  -11.017;33676.820
731.900;27590.143;  -12.797;33417.000
732.472;25715.777;  -10.677;31978.498
733.045;24906.695;  -12.797;30368.777
733.617;25855.861;  -13.908;30574.215
734.190;26136.844;  -12.258;31280.975
734.762;26924.510;  -13.438;31674.412
735.334;27401.791;  -11.758;31247.291
735.907;27413.125;  -11.158;29876.211
736.479;28957.141;  -11.258;29808.488
737.051;31528.316;  -10.918;30233.547
737.623;32502.758;  -11.038;31469.086
738.195;32341.418;  -12.188;31784.225
738.768;28891.844;  -11.378;32120.523
739.340;27241.918;  -12.598;32094.342
739.912;28754.375;  -11.568;31312.680
740.484;29469.844;   -9.348;31946.238
741.056;28846.928;  -12.628;32984.059
741.628;28650.045;  -13.349;33897.715
742.199;28607.553;  -11.309;33213.016
742.771;27712.363;  -12.699;31369.113
743.343;28909.494;  -11.919;31865.473
743.915;29381.682;  -11.679;32388.631
744.487;28167.260;  -12.249;31079.568
745.058;26407.395;  -11.119;30570.107
745.630;25062.361;   -9.439;29970.127
746.201;25409.643;  -11.949;29186.766
746.773;26151.045;  -12.639;28805.723
747.344;25922.455;  -11.039;29591.223
747.916;24788.576;  -12.549;31412.201
748.487;23618.725;  -12.659;32194.898
749.059;22821.869;  -13.059;32533.719
749.630;24522.512;  -12.080;32158.518
750.201;24468.303;  -13.100;30855.395
750.773;23160.314;  -15.310;28622.555
751.344;22268.402;  -12.240;28405.732
751.915;21574.596;  -11.960;28461.551
752.486;21016.877;  -13.200;27842.850
753.057;21106.977;  -15.230;27845.008
753.628;21617.236;  -13.130;27728.107
754.199;21926.043;  -12.720;27381.086
754.770;21600.664;  -10.680;25882.203
755.341;21513.254;  -11.010;25886.184
755.912;20998.373;  -12.990;26050.861
756.483;19733.398;  -11.110;26798.779
757.054;19010.154;  -12.190;27048.238
757.625;19408.260;  -13.981;26294.838
758.195;19311.043;  -11.041;26142.076
758.766;20034.850;  -11.861;26392.234
759.337;20941.057;  -11.461;26334.594
759.907;21996.338;  -15.001;27579.652
760.478;21879.705;   -9.681;28352.770
761.048;21103.260;  -12.421;27325.088
761.619;20450.535;  -11.761;26460.428
762.189;18938.418;  -12.391;26029.826
762.760;17997.063;  -10.201;26430.145
763.330;18429.621;  -10.811;26670.902
763.900;21003.047;  -10.261;26603.021
764.471;21803.646;  -13.061;25542.740
765.041;20019.871;  -11.051;24358.459
765.611;19493.137;  -11.032;23991.297
766.181;19126.281;  -10.532;24470.236
766.751;18957.779;  -13.502;24845.975
767.321;19032.883;  -11.392;24533.633
767.891;19355.189;  -11.522;24916.492
768.461;19865.424;  -13.672;24776.771
769.031;19401.266;  -14.652;24757.988
769.601;18554.703;  -10.182;24181.088
770.171;17251.131;  -11.752;23670.387
770.741;15473.805;  -12.272;22960.045
771.311;15099.822;  -13.112;22917.523
771.880;15490.271;  -14.122;23562.941
772.450;16497.734;  -11.782;24216.500
773.020;18617.607;  -12.642;24140.398
773.589;18613.121;  -13.043;24414.857
774.159;16494.457;  -11.783;23858.717
774.729;15286.695;  -13.473;22942.135
775.298;16021.223;  -14.523;22324.033
775.867;16880.998;  -12.013;21140.313
776.437;16163.252;  -12.113;20838.092
777.006;14809.533;  -13.543;20599.510
777.576;13582.277;  -12.523;20508.809
778.145;12958.970;  -12.173;20732.947
778.714;13812.555;  -12.153;21062.465
779.283;14298.281;  -11.833;20949.664
779.853;15170.001;  -13.483;20508.623
780.422;15962.896;  -12.933;20649.082
780.991;15493.934;  -13.173;21527.520
781.560;13779.534;  -10.224;22632.658
782.129;12948.874;  -12.684;23048.277
782.698;14089.087;  -11.284;23438.555
783.267;15429.869;  -11.684;23267.734
783.836;14776.923;  -10.974;22415.133
784.404;13327.422;  -13.534;20443.152
784.973;13039.363;  -16.734;19699.150
785.542;12959.414;  -12.594;19763.828
786.111;12582.739;  -11.644;20341.408
786.679;12985.479;  -11.384;20207.967
787.248;13803.464;  -12.014;19516.465
787.817;12851.422;  -12.804;18900.363
788.385;11743.258;  -11.994;17879.121
788.954;11968.345;  -12.564;17658.301
789.522;13415.002;  -12.225;17788.879
790.090;13789.180;  -13.775;18118.277
790.659;12782.868;  -12.485;18338.736
791.227;12009.772;  -12.295;18508.615
791.795;12030.794;  -13.415;17898.254
792.364;11488.682;  -12.995;17295.133
792.932;10991.357;   -8.365;16822.051
793.500;11127.624;  -11.925;17040.148
794.068;11504.675;  -13.245;17179.787
794.636;11767.682;  -13.815;16664.246
795.204;11197.946;  -13.375;16524.545
795.772;10987.302;  -12.125;17274.564
796.340;11240.904;  -13.855;17891.002
796.908;11552.951;  -13.456;17648.561
797.476;11130.230;  -13.116;17064.080
798.044;10487.679;  -13.226;16672.777
798.612;10991.585;  -11.236;17023.996
799.180;12041.427;  -10.476;16561.615
799.747;12167.662;  -11.746;15962.773
800.315;11203.369;  -12.366;15296.992
800.883;10205.768;  -14.616;14801.771
801.450; 9753.646;  -11.996;14534.430
802.018;10445.269;  -11.206;14173.248
802.585;10257.512;  -12.466;14029.547
803.153; 9386.917;  -12.846;13836.846
803.720; 9080.082;  -12.136;13567.324
804.287; 8808.306;  -10.966;13360.622
804.855; 8874.347;   -9.797;13681.981
805.422; 8795.546;  -13.037;13536.560
805.989; 8493.645;  -12.697;13355.958
806.556; 8604.590;  -11.737;13747.896
807.124; 8910.448;  -11.997;13987.376
807.691; 8449.342;  -13.997;14038.674
808.258; 8143.033;  -10.927;14120.152
808.825; 8551.485;  -13.727;13860.111
809.392; 9077.786;  -11.847;13268.790
809.959; 8624.455;  -14.217;12680.389
810.526; 7739.782;   -8.277;12427.308
811.093; 7405.920;   -9.647;12030.105
811.659; 7324.712;  -10.987;11653.664
812.226; 7020.191;  -13.447;11637.183
812.793; 7129.676;  -14.418;11611.521
813.360; 7536.841;  -13.908;11885.181
813.926; 7617.141;  -12.918;12770.539
814.493; 7392.430;  -14.888;12677.638
815.060; 7424.910;  -12.758;11974.336
815.626; 7780.576;  -13.478;11594.715
816.193; 7929.587;  -13.898;11579.474
816.759; 7799.608;  -13.588;11666.972
817.325; 7818.347;  -12.018;11325.530
817.892; 7490.160;  -14.068;11105.369
818.458; 6678.960;  -13.458;10843.928
819.024; 6285.411;  -11.968;10714.406
819.591; 5948.787;  -11.028;10469.165
820.157; 5648.276;  -12.088;10235.523
820.723; 5555.280;  -12.599;10847.563
821.289; 5763.835;  -10.419;11040.980
821.855; 6420.212;  -10.939;10357.100
822.421; 7019.918;  -12.539; 9978.918
822.987; 6995.060;  -13.259; 9754.177
823.553; 6359.371;  -15.369;10065.755
824.119; 6081.802;  -10.779;10036.294
824.685; 5727.528;   -9.999;10029.192
825.251; 5384.817;  -11.819;10199.230
825.816; 5146.491;  -13.369; 9820.189
826.382; 5221.199;  -12.679; 9297.248
826.948; 5506.684;  -11.199; 9381.347
827.513; 5419.447;  -11.179; 9450.726
828.079; 5316.673;  -13.489; 9472.444
828.645; 5563.508;  -12.500; 9292.643
829.210; 5883.579;  -15.120; 9065.341
829.776; 5824.900;  -12.590; 9132.620
830.341; 5606.889;  -11.540; 9092.878
830.906; 5491.004;  -12.400; 9078.557
831.472; 5362.317;  -12.720; 8534.535
832.037; 4981.993;  -11.490; 8677.874
832.602; 4515.937;  -14.380; 8628.692
833.167; 4595.046;  -12.780; 8879.031
833.733; 4796.667;  -11.100; 9189.790
834.298; 4962.761;  -12.080; 9052.608
834.863; 5051.047;  -13.910; 8895.087
835.428; 4881.241;  -13.470; 8824.266
835.993; 5099.202;  -11.760; 8845.385
836.558; 5452.220;  -12.731; 8888.563
837.123; 5635.408;  -12.431; 8966.582
837.688; 5494.419;  -11.241; 8617.860
838.253; 5189.507;  -13.681; 8590.699
838.817; 4817.950;  -12.531; 8443.797
839.382; 4786.680;  -12.671; 8799.356
839.947; 4762.911;  -11.541; 8810.595
840.511; 4618.565;  -12.021; 8796.394
841.076; 4624.884;  -13.071; 8347.231
841.641; 4605.902;  -11.411; 8224.330
842.205; 4398.221;  -13.671; 8223.349
842.770; 4283.622;  -11.291; 8622.107
843.334; 4359.378;  -12.951; 8410.386
843.898; 4437.254;  -11.221; 8337.465
844.463; 4410.073;  -11.322; 8506.283
845.027; 4260.402;  -11.412; 8280.962
845.591; 4007.899;  -11.512; 8231.141
846.156; 4097.966;  -14.042; 7969.179
846.720; 4334.094;  -12.152; 7768.278
847.284; 4312.872;  -10.922; 7630.957
847.848; 4055.382;  -10.962; 7472.395
848.412; 3757.574;  -14.612; 7437.394
848.976; 3705.422;  -11.492; 7674.592
849.540; 3737.078;   -9.172; 7836.011
850.104; 3988.495;  -11.232; 7913.669
850.668; 4405.599;  -15.182; 7694.508
851.232; 4217.050;  -15.332; 7756.887
851.796; 3827.898;  -13.703; 7926.545
852.359; 3857.664;  -11.113; 7827.844
852.923; 3956.754;  -11.843; 7641.163
853.487; 3917.181;  -11.173; 7342.501
854.050; 3757.454;  -13.443; 7042.820
854.614; 3557.842;  -13.823; 7151.338
855.177; 3479.359;  -16.393; 7105.077
855.741; 3583.832;  -11.693; 6989.675
856.304; 3672.965;  -10.843; 6596.634
856.868; 3633.307;  -13.783; 6356.272
857.431; 3442.181;  -11.953; 6468.571
857.995; 3287.876;  -13.683; 6373.210
858.558; 3302.722;  -11.433; 6324.448
859.121; 3294.543;  -12.493; 6408.327
859.684; 3244.888;  -12.384; 6347.886
860.247; 3195.534;  -14.774; 6321.264
860.810; 3062.856;  -13.154; 6301.903
861.374; 2941.584;  -11.264; 6607.881
861.937; 2884.992;  -15.424; 6408.200
862.500; 2881.148;  -12.854; 6572.639
863.062; 2902.998;  -12.344; 6387.297
863.625; 2905.051;  -13.314; 6190.836
864.188; 2762.031;  -14.724; 5807.254
864.751; 2646.207;  -13.464; 5682.413
865.314; 2616.588;  -11.684; 5547.492
865.876; 2693.603;  -11.104; 5500.150
866.439; 2849.168;  -12.344; 5415.909
867.002; 2870.782;  -13.494; 5501.567
867.564; 2871.455;  -10.935; 5413.946
868.127; 2724.025;  -12.665; 5160.325
868.689; 2502.308;  -14.515; 5133.183
869.252; 2486.983;  -13.425; 5252.382
869.814; 2510.843;  -11.595; 5297.141
870.377; 2519.297;  -12.175; 5390.919
870.939; 2402.899;  -10.265; 5599.898
871.501; 2288.137;  -12.375; 5248.336
872.063; 2259.607;  -14.355; 4854.235
872.626; 2314.993;  -14.435; 4817.074
873.188; 2252.103;  -12.415; 4987.732
873.750; 2205.111;  -14.555; 4868.651
874.312; 2214.576;  -11.185; 4779.330
874.874; 2166.360;  -12.715; 4866.348
875.436; 2032.964;  -13.196; 4718.887
875.998; 1933.448;  -11.426; 4660.005
876.560; 1853.345;   -9.786; 4462.964
877.122; 1835.188;  -12.796; 4145.042
877.683; 1777.994;  -13.226; 4056.481
878.245; 1686.224;  -12.036; 3950.740
878.807; 1598.785;  -11.536; 4058.958
879.369; 1558.860;  -10.806; 3954.677
879.930; 1625.578;  -13.946; 3941.495
880.492; 1742.062;  -11.876; 4067.014
881.053; 1704.696;  -13.216; 3859.633
881.615; 1599.377;  -12.226; 3776.071
882.176; 1549.823;  -12.946; 3734.750
882.738; 1532.296;  -10.736; 3678.489
883.299; 1464.545;  -12.057; 3405.407
883.860; 1355.614;  -12.677; 3351.106
884.422; 1288.010;  -14.097; 3394.044
884.983; 1233.090;  -13.667; 3166.443
885.544; 1173.170;  -10.717; 3189.802
886.105; 1122.141;  -14.357; 3160.360
886.666; 1068.876;  -14.287; 3093.059
887.227; 1016.672;  -14.297; 2941.957
887.788;  979.570;  -13.137; 2974.836
888.349;  916.633;  -14.637; 2721.214
888.910;  854.195;  -12.247; 2696.493
889.471;  850.912;  -10.577; 2560.172
890.032;  848.612;  -12.937; 2558.190
890.593;  834.330;  -12.487; 2567.669
891.153;  813.114;  -11.898; 2460.307
891.714;  778.629;  -14.278; 2372.046
892.275;  755.144;  -13.308; 2309.505
892.835;  717.530;  -12.058; 2382.543
893.396;  641.548;  -15.268; 2295.502
893.956;  590.785;  -13.278; 2162.420
894.517;  568.939;  -11.968; 2125.439
895.077;  571.498;  -12.798; 2086.978
895.638;  557.797;  -11.908; 2126.316
896.198;  540.750;  -13.288; 1838.275
896.758;  517.293;  -12.198; 1892.813
897.319;  490.634;  -13.048; 1792.232
897.879;  464.010;  -13.718; 1762.751
898.439;  428.991;  -14.138; 1661.149
898.999;  392.158;  -13.659; 1781.468
899.559;  373.431;  -14.699; 1703.347
900.119;  354.814;  -14.339; 1537.525
900.679;  330.094;  -11.789; 1638.384
901.239;  302.814;  -13.629; 1527.902
901.799;  285.794;  -13.679; 1456.441
902.359;  276.514;  -13.679; 1357.140
902.919;  269.907;  -14.159; 1331.118
903.479;  259.296;  -13.419; 1317.257
904.038;  244.199;  -14.899; 1262.595
904.598;  231.134;  -14.339; 1152.034
905.158;  222.755;  -13.959; 1240.893
905.717;  217.102;  -12.749; 1233.691
906.277;  213.930;  -11.889; 1217.330
906.836;  208.548;  -12.870; 1222.408
907.396;  203.604;  -11.790; 1193.047
907.955;  196.188;  -13.750; 1182.526
908.515;  187.067;  -14.760; 1099.364
909.074;  182.107;  -12.540; 1092.863
909.633;  176.478;  -12.120; 1069.121
910.192;  171.933;  -12.550; 1196.460
910.752;  166.495;  -12.760; 1029.960
911.311;  162.310;  -14.750; 1009.780
911.870;  159.867;  -13.860;  971.460
912.429;  160.892;  -13.480; 1094.080
912.988;  159.979;  -12.370; 1081.060
913.547;  155.816;  -14.670;  940.380
914.106;  154.914;  -12.800;  999.420
914.665;  154.623;  -11.370;  984.020
915.224;  151.154;  -11.430; 1035.760
915.782;  148.531;  -12.260;  922.560
916.341;  148.429;  -12.540; 1049.840
916.900;  144.524;  -12.540;  925.260
917.458;  143.732;  -13.480;  884.220
918.017;  142.998;  -12.470;  942.600
918.576;  141.890;  -13.450;  904.440
919.134;  140.064;  -12.890;  837.980
919.693;  140.173;  -15.480;  893.060
920.251;  138.703;  -14.420;  876.500
920.809;  137.977;  -12.170;  839.580
921.368;  136.136;  -13.650;  885.360
921.926;  136.331;  -12.750;  842.940
922.484;  136.401;  -14.150;  903.360
923.042;  134.992;  -15.100;  880.340
923.601;  137.348;  -10.990;  998.680
924.159;  136.128;  -12.470;  935.560
924.717;  134.863;  -15.640;  841.080
925.275;  136.093;  -12.380;  903.240
925.833;  136.363;  -12.710;  779.320
926.391;  138.510;  -11.200;  938.380
926.949;  138.200;  -16.000;  857.680
927.506;  139.244;  -12.260;  903.500
928.064;  139.853;  -11.300;  877.580
928.622;  140.970;  -13.750;  880.100
929.180;  140.110;  -15.290;  814.180
929.737;  140.675;  -14.500;  808.540
930.295;  143.467;  -10.630;  928.480
930.853;  144.748;  -14.590;  849.100
931.410;  145.002;  -14.450;  821.120
931.968;  147.011;  -14.390;  940.660
932.525;  149.423;  -13.050;  909.380
933.082;  152.089;  -15.620;  811.440
933.640;  159.035;  -15.650;  925.900
934.197;  163.492;  -13.610;  886.360
934.754;  167.676;  -13.320;  897.780
935.312;  165.884;  -13.370;  863.340
935.869;  168.059;  -12.780; 1012.980
936.426;  167.397;  -14.480;  872.800
936.983;  169.565;  -13.180;  889.020
937.540;  170.135;  -15.710;  838.280
938.097;  170.905;  -14.980;  940.120
938.654;  170.729;  -13.060;  898.860
939.211;  168.725;  -12.760;  952.480
939.768;  169.737;  -16.230;  915.420
940.324;  175.491;  -10.940;  904.200
940.881;  181.476;  -12.570;  878.500
941.438;  185.864;  -13.650; 1021.200
941.995;  183.684;  -13.300;  992.560
942.551;  182.055;  -15.800;  875.620
943.108;  181.312;  -14.180;  937.920
943.664;  175.761;  -13.890;  869.340
944.221;  175.024;  -12.640; 1088.140
944.777;  171.829;  -14.700;  869.680
945.334;  172.437;  -13.010;  884.840
945.890;  173.058;  -13.480;  946.480
946.446;  171.033;  -14.920;  947.020
947.003;  170.781;  -13.860;  964.940
947.559;  172.645;  -12.000; 1063.040
948.115;  171.395;  -10.510; 1026.540
948.671;  169.827;  -12.760;  967.300
949.227;  166.131;  -15.390;  859.560
949.783;  163.520;  -15.570;  858.900
950.339;  163.846;  -12.800;  991.000
950.895;  163.112;  -13.780; 1023.840
951.451;  159.224;  -13.810;  925.280
952.007;  158.950;  -12.390;  998.540
952.563;  157.118;  -11.980;  937.780
953.118;  153.215;  -14.070;  904.940
953.674;  150.715;  -14.140;  935.780
954.230;  150.547;  -12.680;  949.640
954.785;  152.233;  -12.770;  936.640
955.341;  150.766;  -11.450;  998.160
955.897;  147.295;  -15.350;  834.660
956.452;  146.801;  -14.200;  953.840
957.008;  145.385;  -10.820; 1083.640
957.563;  142.170;  -13.200; 1009.540
958.118;  136.548;  -14.460;  877.700
958.674;  135.846;  -13.840;  946.780
959.229;  135.262;  -10.670; 1013.980
959.784;  137.853;  -17.040;  832.400
960.339;  141.354;  -12.970; 1001.280
960.894;  141.024;  -12.700;  963.760
961.449;  138.962;  -13.790;  859.960
962.004;  145.411;  -11.760; 1212.840
962.559;  144.781;  -14.840;  860.140
963.114;  143.683;  -14.530;  742.480
963.669;  145.318;  -12.780;  915.500
964.224;  146.202;  -14.330;  874.340
964.779;  143.210;  -14.380;  828.420
965.334;  137.807;  -12.460; 1017.860
965.888;  131.611;  -13.490;  875.360
966.443;  132.437;  -14.140;  972.380
966.998;  128.550;  -16.240;  819.460
967.552;  126.287;  -12.730;  908.380
968.107;  122.664;  -14.510;  868.300
968.661;  123.226;  -11.850;  922.440
969.216;  121.319;  -14.370;  856.280
969.770;  121.571;  -13.010;  917.200
970.324;  121.371;  -12.460;  923.140
970.879;  121.773;  -11.580;  947.180
971.433;  120.920;  -13.130;  952.720
971.987;  118.489;  -12.360;  895.340
972.541;  118.014;  -14.330;  917.100
973.095;  117.816;  -13.310; 1009.460
973.649;  115.481;  -15.830;  809.480
974.203;  118.045;  -15.830;  829.040
974.757;  121.837;  -13.480;  855.220
975.311;  120.781;  -13.720;  872.600
975.865;  116.089;  -15.780;  881.820
976.419;  112.399;  -14.290;  857.400
976.973;  111.949;  -13.210;  849.620
977.526;  109.981;  -12.300;  949.920
978.080;  105.769;  -14.840;  796.780
978.634;  106.417;  -13.100;  921.320
979.187;  103.843;  -12.300;  905.400
979.741;  101.844;  -12.020; 1018.380
980.294;   95.013;  -14.590;  789.160
980.848;   91.788;  -14.390;  717.220
981.401;   92.262;  -14.280;  816.540
981.955;   92.827;  -11.920;  844.300
982.508;   90.701;  -15.790;  746.340
983.061;   90.788;  -12.070;  915.260
983.615;   88.163;  -13.260;  798.800
984.168;   84.822;  -15.540;  770.080
984.721;   85.239;  -13.230;  880.760
985.274;   83.898;  -11.820;  867.500
985.827;   81.346;  -13.510;  834.220
986.380;   78.927;  -14.840;  721.340
986.933;   78.993;  -13.970;  864.800
987.486;   78.412;  -12.450;  861.920
988.039;   75.472;  -11.170;  863.100
988.591;   73.374;  -13.070;  893.260
989.144;   70.228;  -15.530;  737.260
989.697;   68.616;  -14.300;  758.740
990.250;   68.434;  -13.310;  858.100
990.802;   66.888;  -14.490;  755.860
991.355;   68.192;  -12.980;  974.880
991.907;   66.212;  -13.715;  864.320
992.460;   64.232;  -14.450;  753.760
993.012;   64.123;  -12.590;  749.540
993.565;   62.774;  -15.180;  711.360
994.117;   63.916;  -11.630;  950.780
994.669;   60.389;  -13.760;  701.320
995.221;   59.852;  -12.710;  791.920
995.774;   58.608;  -14.620;  787.580
996.326;   57.771;  -13.150;  740.220
996.878;   57.989;  -12.880;  838.420
997.430;   56.571;  -14.580;  699.860
997.982;   55.598;  -14.030;  750.140
998.534;   56.102;  -12.190;  739.060
999.086;   53.479;  -12.990;  738.220
999.638;   53.332;  -13.180;  661.380
1000.190;   52.173;  -14.970;  699.320
1000.741;   52.095;  -12.200;  742.700
1001.293;   51.642;  -13.400;  686.020
1001.845;   50.644;  -14.490;  676.640
1002.396;   51.444;  -15.280;  743.400
1002.948;   51.270;  -12.380;  737.400
1003.500;   50.088;  -13.260;  723.780
1004.051;   50.511;  -13.730;  907.580
1004.603;   49.538;  -12.300;  791.820
1005.154;   45.643;  -15.330;  608.980
1005.705;   45.635;  -12.800;  723.960
1006.257;   44.544;  -13.900;  707.220
1006.808;   44.050;  -14.430;  685.460
1007.359;   43.850;  -12.010;  763.240
1007.910;   41.354;  -12.690;  646.640
1008.461;   41.586;  -13.610;  732.940
1009.013;   40.591;  -14.990;  588.340
1009.564;   41.291;  -11.860;  793.520
1010.115;   38.103;  -12.640;  597.040
1010.665;   39.427;  -14.570;  602.160
1011.216;   39.522;  -15.190;  667.920
1011.767;   38.410;  -13.470;  697.920
1012.318;   39.019;  -13.760;  736.980
1012.869;   38.038;  -15.950;  679.000
1013.419;   37.532;  -15.880;  603.120
1013.970;   38.091;  -14.540;  666.640
1014.521;   36.839;  -13.220;  620.620
1015.071;   36.810;  -15.020;  670.380
1015.622;   37.380;  -17.510;  635.460
1016.172;   35.869;  -14.130;  596.820
1016.723;   35.718;  -14.220;  614.380
1017.273;   35.829;  -15.370;  604.160
1017.823;   35.514;  -15.290;  650.340
1018.374;   35.574;  -13.420;  611.760
1018.924;   34.505;  -11.740;  716.880
1019.474;   35.847;  -12.250;  718.880
1020.024;   34.122;  -15.850;  657.580
1020.574;   34.666;  -13.280;  726.160
1021.124;   34.351;  -13.560;  673.580
1021.674;   32.751;  -13.790;  559.120
1022.224;   34.459;  -14.610;  708.940
1022.774;   33.116;  -13.100;  668.820
1023.324;   34.411;  -11.470;  753.520
1023.874;   35.803;  -11.990;  875.760
1024.423;   32.304;  -14.550;  613.700
1024.973;   32.410;  -14.440;  610.760
1025.523;   31.068;  -13.250;  620.960
1026.072;   31.390;  -15.200;  606.420
1026.622;   31.329;  -14.590;  675.740
1027.172;   32.450;  -11.080;  715.660
1027.721;   30.559;  -14.010;  601.220
1028.270;   31.526;  -13.690;  663.400
1028.820;   31.526;  -15.380;  638.080
1029.369;   30.615;  -14.980;  612.700
1029.918;   31.095;  -13.100;  649.840
1030.468;   30.452;  -13.680;  564.780
1031.017;   30.694;  -13.770;  634.800
1031.566;   29.339;  -14.100;  608.900
1032.115;   30.634;  -11.770;  694.500
1032.664;   29.321;  -14.940;  596.480
1033.213;   29.784;  -13.370;  735.420
1033.762;   28.647;  -13.660;  635.620
1034.311;   28.477;  -13.650;  677.220
1034.860;   29.755;  -13.820;  691.000
1035.408;   28.758;  -12.860;  722.720
1035.957;   29.624;  -13.060;  719.540
1036.506;   26.696;  -14.510;  530.800
1037.055;   30.345;  -13.470;  844.320
1037.603;   28.137;  -14.800;  664.000
1038.152;   26.344;  -14.190;  534.760
1038.700;   25.763;  -11.810;  585.740
1039.249;   26.822;  -12.850;  681.220
1039.797;   27.057;  -14.610;  633.360
1040.345;   27.519;  -15.220;  705.420
1040.894;   26.126;  -13.480;  625.300
1041.442;   26.182;  -13.310;  632.200
1041.990;   25.457;  -14.510;  559.160
1042.538;   24.622;  -15.700;  536.180
1043.087;   24.639;  -13.910;  570.860
1043.635;   27.084;  -13.620;  670.500
1044.183;   25.818;  -14.230;  586.400
1044.731;   25.409;  -13.730;  576.000
1045.279;   24.505;  -13.970;  674.920
1045.827;   27.407;  -10.750;  892.400
1046.374;   23.926;  -15.230;  515.420
1046.922;   22.947;  -15.390;  590.580
1047.470;   25.757;  -12.320;  691.300
1048.018;   24.393;  -13.230;  647.960
1048.565;   25.703;  -13.390;  708.600
1049.113;   23.723;  -15.030;  557.000
1049.660;   23.307;  -12.540;  629.660
1050.208;   23.380;  -15.040;  675.640
1050.755;   23.152;  -14.680;  606.580
1051.303;   24.159;  -13.610;  686.820
1051.850;   22.245;  -14.340;  635.120
1052.397;   20.830;  -16.330;  473.960
1052.945;   22.306;  -15.710;  617.760
1053.492;   23.777;  -12.320;  741.840
1054.039;   22.882;  -13.730;  720.180
1054.586;   22.028;  -16.140;  557.240
1055.133;   22.585;  -14.020;  693.140
1055.680;   22.717;  -13.430;  646.620
1056.227;   21.342;  -14.570;  542.780
1056.774;   23.474;  -14.400;  794.980
1057.321;   20.885;  -14.230;  523.260
1057.868;   21.997;  -14.220;  651.320
1058.415;   21.043;  -14.060;  651.980
1058.961;   21.806;  -14.640;  678.940
1059.508;   21.064;  -13.970;  643.820
1060.055;   20.189;  -15.100;  581.780
1060.601;   20.996;  -12.180;  624.300
1061.148;   21.190;  -15.010;  616.820
1061.694;   20.180;  -14.750;  592.580
1062.241;   19.755;  -14.130;  596.320
1062.787;   19.821;  -14.770;  663.140
1063.334;   22.508;  -13.130;  808.560
1063.880;   20.437;  -14.420;  668.360
1064.426;   19.890;  -13.130;  706.820
1064.972;   19.033;  -13.960;  601.340
1065.518;   18.096;  -13.680;  566.640
1066.065;   18.484;  -15.720;  624.460
1066.611;   18.198;  -13.970;  598.800
1067.157;   19.190;  -13.920;  641.860
1067.703;   19.325;  -14.760;  668.480
1068.249;   18.880;  -14.490;  605.220
1068.794;   18.617;  -14.740;  626.880
1069.340;   17.624;  -13.220;  578.960
1069.886;   18.013;  -14.930;  590.700
1070.432;   17.529;  -14.700;  541.720
1070.977;   16.935;  -14.470;  601.080
1071.523;   17.841;  -14.330;  573.060
1072.068;   17.436;  -14.960;  582.000
1072.614;   17.458;  -16.220;  527.760
1073.160;   18.146;  -11.280;  687.040
1073.705;   16.041;  -15.990;  572.520
1074.250;   16.717;  -16.550;  559.900
1074.796;   17.771;  -14.600;  655.160
1075.341;   18.008;  -13.440;  664.100
1075.886;   17.276;  -14.450;  594.240
1076.431;   16.647;  -13.160;  649.880
1076.976;   16.933;  -14.710;  639.220
1077.521;   15.635;  -14.000;  583.080
1078.067;   14.842;  -14.470;  579.400
1078.612;   16.005;  -14.530;  661.620
1079.156;   16.410;  -15.660;  601.540
1079.701;   16.365;  -16.120;  693.260
1080.246;   15.854;  -12.960;  696.300
1080.791;   16.937;  -13.700;  625.020
1081.336;   16.343;  -15.540;  659.320
1081.880;   15.559;  -14.640;  649.680
1082.425;   14.878;  -14.220;  573.480
1082.970;   17.265;  -11.890;  717.040
1083.514;   14.912;  -13.820;  597.000
1084.059;   14.373;  -14.280;  586.720
1084.603;   13.625;  -12.890;  565.840
1085.147;   14.959;  -13.590;  645.220
1085.692;   16.045;  -14.050;  716.800
1086.236;   12.799;  -14.990;  503.140
1086.780;   15.731;  -12.640;  751.440
1087.325;   15.111;  -15.550;  654.620
1087.869;   14.389;  -14.980;  610.700
1088.413;   15.536;  -13.440;  705.040
1088.957;   12.893;  -12.170;  543.400
1089.501;   15.393;  -12.730;  766.640
1090.045;   14.325;  -14.650;  726.480
1090.589;   12.688;  -14.500;  569.920
1091.133;   13.235;  -12.320;  673.340
1091.676;   13.297;  -16.130;  591.940
1092.220;   12.775;  -13.930;  600.920
1092.764;   13.501;  -12.820;  706.960
1093.307;   13.300;  -11.700;  673.780
1093.851;   12.131;  -15.600;  556.540
1094.395;   13.037;  -13.920;  683.140
1094.938;   11.856;  -16.090;  632.520
1095.482;   11.877;  -13.820;  559.800
1096.025;   14.005;  -12.720;  710.880
1096.568;   13.410;  -12.100;  779.280
1097.112;    9.941;  -15.450;  508.180
1097.655;   12.512;  -14.310;  603.000
1098.198;   10.730;  -14.740;  600.180
1098.741;   10.914;  -15.550;  612.860
1099.285;   11.624;  -12.600;  657.300
1099.828;    9.374;  -15.050;  439.400
1100.371;   11.083;  -14.800;  608.160
1100.914;   11.648;  -16.480;  682.660
1101.457;   11.582;  -12.990;  679.900
1101.999;    9.973;  -14.110;  584.680
1102.542;   11.609;  -11.450;  641.440
1103.085;   10.606;  -13.350;  658.500
1103.628;   11.692;  -13.200;  762.060
1104.170;   10.237;  -12.310;  588.280
1104.713;   10.756;  -14.320;  646.700
1105.256;    9.723;  -16.110;  557.440
1105.798;    8.050;  -15.910;  499.980
1106.341;   11.124;  -12.200;  728.900
1106.883;    9.494;  -14.910;  521.340
1107.425;   10.032;  -14.960;  668.180
1107.968;    9.604;  -13.440;  612.380
1108.510;   10.716;  -14.010;  684.960
1109.052;    8.712;  -15.430;  612.620
1109.594;    8.171;  -15.290;  554.440
1110.136;    9.382;  -13.360;  643.220
1110.679;    9.243;  -13.820;  633.080
1111.221;    9.474;  -13.690;  604.460
1111.763;    8.348;  -14.890;  559.220
1112.304;    8.331;  -14.550;  547.140
1112.846;    9.698;  -12.760;  666.240
1113.388;   12.476;  -10.780;  942.180
1113.930;    9.206;  -12.690;  694.200
1114.472;    7.753;  -15.730;  606.540
1115.013;    6.706;  -14.620;  551.280
1115.555;    7.541;  -14.950;  587.100
1116.097;    7.312;  -16.460;  579.480
1116.638;    8.334;  -13.730;  684.600
1117.180;    8.157;  -13.810;  667.740
1117.721;    7.985;  -13.280;  568.580
1118.262;    8.426;  -15.080;  677.960
1118.804;    8.321;  -14.040;  637.340
1119.345;    6.606;  -15.430;  578.400
1119.886;    8.592;  -15.240;  704.040
1120.427;    7.714;  -15.820;  589.020
1120.969;    6.510;  -14.550;  597.920
1121.510;    5.871;  -14.030;  563.060
1122.051;    7.028;  -11.990;  723.580
1122.592;    6.625;  -16.490;  655.420
1123.133;    5.539;  -15.580;  547.940
1123.673;    6.994;  -12.850;  706.480
1124.214;    6.458;  -13.630;  612.460
1124.755;    6.898;  -14.830;  639.460
1125.296;    6.662;  -13.110;  627.320
1125.836;    7.761;  -11.320;  691.500
1126.377;    5.973;  -14.330;  599.660
1126.918;    7.430;  -12.800;  614.980
1127.458;    5.581;  -13.580;  622.220
1127.999;    6.929;  -10.330;  656.980
1128.539;    6.896;  -13.390;  694.240
1129.079;    6.046;  -16.420;  632.720
1129.620;    4.929;  -15.700;  558.100
1130.160;    4.912;  -14.790;  539.480
1130.700;    5.106;  -12.910;  640.840
1131.240;    6.201;  -15.610;  643.700
1131.781;    5.198;  -12.920;  619.680
1132.321;    4.667;  -15.300;  599.120
1132.861;    4.714;  -14.760;  564.200
1133.401;    4.605;  -15.470;  593.940
1133.941;    5.436;  -13.710;  626.280
1134.481;    4.563;  -11.820;  597.580
1135.020;    4.980;  -14.810;  609.160
1135.560;    4.262;  -13.660;  674.940
1136.100;    3.367;  -13.940;  501.160
1136.640;    3.077;  -15.410;  510.480
1137.179;    3.650;  -16.920;  537.960
1137.719;    4.319;  -16.430;  605.400
1138.258;    3.985;  -16.300;  587.360
1138.798;    4.898;  -13.710;  663.780
1139.337;    3.118;  -13.840;  482.840
1139.877;    4.174;  -16.140;  642.360
1140.416;    5.800;  -11.410;  878.060
1140.955;    2.981;  -12.820;  535.380
1141.494;    4.310;  -12.310;  669.280
1142.034;    2.916;  -16.280;  583.520
1142.573;    4.550;  -13.090;  646.280
1143.112;    2.396;  -13.770;  553.480
1143.651;    3.310;  -15.830;  536.480
1144.190;    3.995;  -15.010;  691.640
1144.729;    3.091;  -13.650;  607.420
1145.267;    3.093;  -13.670;  584.900
1145.806;    3.811;  -13.630;  637.040
1146.345;    2.403;  -14.160;  635.020
1146.884;    2.533;  -11.180;  622.500
1147.422;    2.104;  -15.890;  533.060
1147.961;    3.886;  -12.760;  708.460
1148.500;    3.907;  -15.220;  669.720
1149.038;    3.630;  -13.720;  632.500
1149.577;    2.730;  -13.250;  698.640
1150.115;    0.658;  -16.790;  452.280
1150.653;    1.518;  -15.810;  607.340
1151.192;    2.641;  -14.730;  552.920
1151.730;    1.981;  -13.660;  652.560
1152.268;    2.058;  -15.120;  589.520
1152.806;    1.865;  -15.580;  571.180
1153.344;    0.692;  -16.210;  577.640
1153.882;    1.728;  -12.810;  600.060
1154.421;    0.605;  -14.150;  470.620
1154.958;    1.514;  -15.360;  595.240
1155.496;    1.942;  -14.710;  645.280
1156.034;    2.229;  -13.640;  721.880
1156.572;    2.497;  -13.740;  667.060
1157.110;    0.145;  -16.960;  473.940
1157.647;    2.174;  -11.940;  676.960
1158.185;    0.076;  -14.090;  564.320
1158.723;    0.204;  -13.610;  509.200
1159.260;    1.755;  -14.760;  701.700
1159.798;    2.103;  -13.700;  658.160
1160.335;    1.058;  -13.820;  631.820

