
Integration time [ms]:   3.276
Averaging Nr. [scans]: 1000
Smoothing Nr. [pixels]: 0
Data measured with spectrometer [name]: 7414430SP
Wave   ;Sample   ;Dark     ;Reference
[nm]   ;[counts] ;[counts] ;[counts] 

288.544;  157.484;    7.793;  793.890
289.143;  160.209;    7.462;  681.602
289.742;  161.304;    8.602;  828.814
290.341;  148.609;    1.321;  789.841
290.940;  138.570;   -0.709;  730.702
291.538;  139.693;    0.881;  881.108
292.137;  139.286;    0.122;  792.581
292.736;  141.610;   -1.929;  975.101
293.335;  138.481;   -8.229;  735.086
293.934;  139.646;   -5.279;  781.677
294.532;  140.825;   -1.369; 1031.958
295.131;  125.487;   -7.641;  834.394
295.730;  125.584;   -8.420;  809.588
296.328;  123.037;   -5.611;  783.442
296.927;  121.979;   -5.781;  779.652
297.525;  124.371;   -6.361;  781.236
298.124;  116.152;  -11.382;  654.009
298.722;  119.786;   -7.641;  761.933
299.321;  117.745;   -6.811;  708.597
299.919;  113.324;   -6.991;  751.918
300.518;  110.020;  -10.362;  689.338
301.116;  112.788;   -9.581;  691.381
301.715;  113.080;   -4.891;  730.222
302.313;  112.347;   -8.801;  704.943
302.911;  106.443;   -8.522;  733.830
303.509;  111.648;   -6.171;  925.627
304.108;  109.481;   -7.311;  760.383
304.706;  108.893;   -8.321;  801.664
305.304;  104.318;  -10.222;  796.707
305.902;  108.363;   -6.021;  784.484
306.500;  103.732;   -4.971;  728.200
307.098;  102.167;   -7.061;  746.560
307.696;  101.858;   -8.801;  780.432
308.294;  100.746;   -6.411;  731.359
308.892;  102.604;   -2.901;  759.769
309.490;   98.522;   -5.041;  712.161
310.088;   96.828;   -5.002;  788.444
310.686;  100.985;   -2.041;  821.749
311.284;   97.234;   -2.351;  766.040
311.882;   94.750;   -4.422;  731.225
312.480;   91.735;   -4.192;  697.167
313.078;   92.328;   -1.172;  808.331
313.675;   92.902;   -2.601;  691.600
314.273;   89.033;   -1.312;  797.837
314.871;   88.069;   -3.942;  589.829
315.468;   86.248;   -2.802;  652.090
316.066;   88.797;   -0.701;  694.427
316.664;   81.229;   -4.362;  656.351
317.261;   85.362;   -2.872;  910.128
317.859;   81.745;   -2.022;  768.735
318.456;   82.118;   -0.531;  830.096
319.054;   78.040;   -3.912;  787.828
319.651;   75.767;   -4.752;  759.928
320.249;   74.455;   -2.602;  810.188
320.846;   73.172;   -0.821;  714.286
321.443;   70.983;   -4.642;  832.135
322.041;   68.215;   -5.002;  812.315
322.638;   63.979;   -3.982;  701.456
323.235;   66.709;   -3.411;  665.683
323.833;   62.668;   -7.361;  740.354
324.430;   58.885;   -8.611;  615.900
325.027;   59.182;   -4.061;  876.855
325.624;   58.664;   -4.031;  644.532
326.221;   55.701;   -7.481;  689.717
326.818;   55.400;   -5.281;  818.332
327.415;   58.014;   -7.460;  748.828
328.012;   57.897;   -5.510;  690.585
328.609;   55.867;   -7.880;  731.389
329.206;   54.183;   -8.331;  778.621
329.803;   54.393;   -5.121;  737.841
330.400;   56.556;   -4.510;  704.260
330.997;   57.946;   -6.441;  817.147
331.594;   56.986;   -8.831;  788.185
332.191;   61.158;   -7.621;  728.722
332.787;   65.676;   -4.591;  844.463
333.384;   64.669;   -7.412;  763.093
333.981;   63.974;   -8.293;  815.687
334.578;   66.829;   -7.052;  708.378
335.174;   68.962;   -3.102;  731.469
335.771;   68.051;   -5.943;  836.456
336.367;   65.671;   -7.393;  710.631
336.964;   71.089;   -4.063;  793.266
337.561;   67.531;   -3.813;  731.112
338.157;   64.041;   -4.654;  911.916
338.754;   62.154;   -7.934;  796.589
339.350;   60.607;   -4.414;  722.493
339.946;   62.242;   -4.664;  773.135
340.543;   54.035;   -6.375;  846.136
341.139;   47.975;   -9.815;  720.836
341.735;   44.654;   -4.526;  772.593
342.332;   46.091;   -4.895;  691.472
342.928;   44.581;   -4.295;  795.394
343.524;   37.059;   -5.476;  761.684
344.120;   33.552;   -5.856;  738.562
344.716;   37.409;   -2.155;  723.717
345.313;   35.082;   -6.275;  795.342
345.909;   30.252;   -8.815;  627.336
346.505;   30.068;   -5.305;  740.247
347.101;   31.693;   -2.674;  827.864
347.697;   31.775;   -4.344;  785.398
348.293;   26.679;   -9.975;  627.244
348.889;   27.525;   -5.774;  745.914
349.485;   27.314;   -5.004;  688.205
350.081;   27.022;   -4.704;  772.592
350.676;   22.344;   -6.635;  691.606
351.272;   26.354;   -4.504;  809.530
351.868;   26.094;   -3.914;  780.497
352.464;   23.355;   -9.044;  723.932
353.059;   20.122;   -8.314;  646.017
353.655;   23.159;   -7.024;  777.063
354.251;   23.784;   -5.343;  759.845
354.846;   18.258;   -8.604;  740.646
355.442;   15.265;   -6.945;  753.071
356.038;   17.210;   -7.564;  751.708
356.633;   17.647;   -5.814;  728.594
357.229;   15.443;   -7.364;  724.757
357.824;   14.327;   -8.024;  703.600
358.420;   12.532;   -9.384;  679.726
359.015;   13.027;   -5.104;  695.357
359.610;   14.572;   -6.854;  763.920
360.206;    8.005;  -10.185;  603.240
360.801;   11.887;   -7.054;  646.503
361.396;   13.809;   -5.034;  725.975
361.992;    8.546;   -8.284;  668.220
362.587;    5.856;   -8.625;  670.160
363.182;    7.755;   -7.674;  689.631
363.777;    8.776;   -5.164;  738.242
364.372;    8.942;   -8.604;  737.314
364.967;    3.901;   -9.055;  680.744
365.563;    8.971;   -6.114;  815.567
366.158;    5.735;   -5.814;  685.161
366.753;    6.079;   -7.854;  649.263
367.348;    4.907;   -7.804;  746.056
367.942;    4.403;   -7.954;  697.298
368.537;    3.266;   -4.984;  754.245
369.132;    4.150;   -8.564;  703.428
369.727;   -0.570;   -8.855;  638.079
370.322;    1.255;   -6.245;  580.186
370.917;    0.917;   -6.425;  710.646
371.511;    3.534;   -6.294;  861.834
372.106;   -0.588;   -7.685;  776.964
372.701;   -3.633;   -7.335;  585.988
373.296;    1.711;   -4.564;  863.135
373.890;   -2.568;  -10.235;  647.840
374.485;   -4.781;   -7.885;  691.199
375.079;   -0.985;   -7.324;  738.685
375.674;    0.384;   -3.494;  812.970
376.268;   -3.734;   -8.525;  691.759
376.863;   -9.627;  -10.086;  580.327
377.457;   -3.047;   -7.025;  662.490
378.052;   -5.595;   -3.585;  764.884
378.646;   -5.763;   -7.595;  741.167
379.240;   -7.036;   -8.335;  721.176
379.835;   -5.630;   -5.785;  636.978
380.429;   -8.378;   -4.335;  562.557
381.023;   -8.682;   -6.805;  779.205
381.617;  -10.918;   -9.195;  680.106
382.212;   -7.723;   -6.905;  685.303
382.806;   -6.049;   -3.745;  760.690
383.400;  -10.528;   -7.745;  672.281
383.994;  -12.064;   -9.765;  664.870
384.588;   -7.851;   -6.564;  697.701
385.182;   -6.188;   -5.344;  726.624
385.776;   -7.511;   -8.514;  706.875
386.370;  -12.054;   -9.555;  681.968
386.964;  -10.330;   -8.715;  684.155
387.558;   -8.205;   -6.174;  598.360
388.152;  -11.950;   -8.725;  681.959
388.745;  -10.378;   -7.965;  814.707
389.339;   -8.377;   -5.924;  747.642
389.933;   -7.647;   -5.524;  695.370
390.527;   -8.231;   -7.114;  859.029
391.120;  -14.656;  -10.725;  595.318
391.714;  -11.977;   -8.035;  711.633
392.308;   -9.761;   -3.574;  780.253
392.901;  -13.201;   -7.245;  642.460
393.495;  -14.641;   -9.285;  595.414
394.089;  -12.364;   -5.895;  760.452
394.682;  -13.209;   -4.295;  697.188
395.275;  -13.448;   -9.875;  719.927
395.869;  -15.205;   -8.485;  667.314
396.462;  -13.207;   -7.455;  616.609
397.056;   -8.835;   -5.424;  776.621
397.649;  -14.390;   -6.605;  731.575
398.242;  -11.869;   -8.224;  712.645
398.836;  -11.275;   -7.474;  766.408
399.429;  -11.464;   -7.094;  631.041
400.022;  -15.823;   -9.475;  665.902
400.615;  -12.963;   -7.145;  805.609
401.208;  -11.429;   -7.174;  691.451
401.802;  -12.502;   -5.515;  699.329
402.395;  -15.411;   -9.875;  683.502
402.988;  -15.239;   -8.845;  696.627
403.581;  -12.512;   -8.874;  646.878
404.174;   -9.972;   -5.324;  686.568
404.767;  -13.016;   -9.575;  638.583
405.360;  -15.345;  -10.965;  621.445
405.953;   -9.535;   -8.764;  759.034
406.545;   -9.676;   -7.514;  725.342
407.138;  -14.108;  -10.025;  618.350
407.731;  -12.907;  -10.034;  613.303
408.324;   -8.894;   -9.374;  660.554
408.917;   -9.598;   -6.534;  681.864
409.509;  -11.425;   -8.004;  740.396
410.102;  -13.602;   -9.875;  643.948
410.695;   -7.537;   -8.604;  665.758
411.287;   -8.449;   -6.794;  599.821
411.880;  -10.453;   -9.334;  585.421
412.472;  -12.541;  -10.254;  613.092
413.065;   -9.881;   -6.714;  629.408
413.657;   -7.860;   -7.234;  576.678
414.250;   -7.873;  -10.544;  646.681
414.842;   -9.311;   -9.744;  676.353
415.434;   -7.687;   -6.994;  570.463
416.027;   -3.074;   -5.893;  652.196
416.619;   -5.176;   -7.264;  713.400
417.211;   -5.606;  -10.374;  599.352
417.804;   -2.274;   -7.993;  628.499
418.396;   -6.374;   -7.234;  607.643
418.988;   -3.448;   -9.443;  659.238
419.580;   -7.990;  -10.724;  568.276
420.172;   -5.206;  -10.323;  536.196
420.764;   -0.449;   -8.793;  672.482
421.356;   -2.110;  -11.143;  636.898
421.948;   -3.483;   -8.293;  677.661
422.540;    0.577;   -7.893;  680.027
423.132;    1.517;   -7.082;  600.641
423.724;   -2.063;   -8.653;  561.267
424.316;   -0.105;  -10.213;  621.345
424.908;    3.121;   -9.762;  591.517
425.500;    4.258;   -5.572;  647.978
426.092;    4.551;   -8.422;  648.268
426.683;    2.950;   -9.283;  684.836
427.275;    5.949;   -7.852;  641.471
427.867;    8.228;   -5.272;  668.948
428.458;    8.489;   -7.682;  732.344
429.050;    6.300;  -10.612;  680.749
429.642;    7.986;   -9.882;  743.124
430.233;    9.629;   -6.962;  569.356
430.825;   10.801;   -6.842;  724.809
431.416;    7.391;   -9.672;  698.241
432.008;   11.743;   -6.552;  651.723
432.599;   12.598;   -6.891;  656.073
433.190;    9.415;  -10.912;  637.670
433.782;    8.652;  -11.172;  590.395
434.373;   15.944;   -6.061;  884.765
434.964;   15.163;   -8.251;  602.920
435.556;   12.308;   -9.722;  634.537
436.147;   14.983;   -9.082;  758.490
436.738;   15.467;   -8.041;  701.099
437.329;   20.698;   -7.341;  721.723
437.920;   13.712;   -8.162;  666.688
438.511;   14.026;  -11.802;  564.526
439.103;   20.090;  -10.191;  623.998
439.694;   21.736;   -7.601;  681.583
440.285;   23.150;   -8.541;  764.432
440.876;   20.451;   -9.751;  845.738
441.466;   19.889;   -9.401;  575.162
442.057;   25.168;   -7.760;  665.814
442.648;   23.924;   -9.971;  746.255
443.239;   22.478;  -11.001;  620.477
443.830;   27.492;   -7.990;  704.958
444.421;   29.803;   -7.910;  655.474
445.011;   25.306;   -8.131;  693.619
445.602;   25.510;   -7.111;  743.126
446.193;   27.283;  -10.920;  488.117
446.783;   31.592;   -6.500;  640.397
447.374;   26.931;   -8.671;  692.759
447.964;   28.060;  -10.781;  713.770
448.555;   36.100;   -9.650;  822.742
449.145;   33.371;   -8.660;  662.853
449.736;   32.927;   -8.990;  803.179
450.326;   33.496;   -9.500;  713.626
450.917;   38.129;   -8.680;  675.324
451.507;   38.041;   -7.520;  600.661
452.097;   38.161;   -8.590;  746.267
452.688;   39.688;  -11.340;  742.160
453.278;   39.026;  -10.100;  566.840
453.868;   43.449;   -6.019;  793.550
454.458;   41.409;   -9.440;  651.141
455.048;   41.559;  -10.560;  711.783
455.639;   42.764;  -11.799;  567.096
456.229;   46.983;   -6.899;  710.694
456.819;   48.554;   -7.389;  751.158
457.409;   49.135;  -11.119;  773.993
457.999;   51.837;   -9.289;  737.505
458.589;   52.461;   -6.139;  686.606
459.179;   50.982;   -8.729;  717.658
459.769;   49.407;   -9.789;  627.099
460.358;   54.597;  -10.259;  797.262
460.948;   54.631;   -7.299;  689.503
461.538;   56.198;  -10.289;  660.677
462.128;   54.386;  -11.269;  664.934
462.717;   60.676;   -9.368;  710.326
463.307;   63.677;   -7.908;  705.846
463.897;   59.400;   -9.599;  656.942
464.486;   58.824;   -9.769;  837.128
465.076;   63.572;   -8.048;  733.776
465.666;   66.703;   -9.358;  652.900
466.255;   64.746;   -7.919;  785.651
466.845;   63.152;  -11.689;  666.749
467.434;   66.861;   -7.818;  725.873
468.023;   67.802;   -7.678;  658.357
468.613;   65.464;  -10.939;  713.946
469.202;   69.703;  -10.118;  646.507
469.791;   72.920;   -9.108;  737.811
470.381;   76.519;   -6.058;  742.813
470.970;   75.482;  -10.428;  711.099
471.559;   75.402;  -10.268;  733.291
472.148;   78.343;   -8.448;  675.737
472.738;   80.960;   -6.917;  765.466
473.327;   80.052;  -11.978;  637.529
473.916;   80.798;  -11.888;  737.446
474.505;   84.288;   -9.437;  751.703
475.094;   87.488;   -6.747;  806.570
475.683;   87.093;   -9.367;  797.699
476.272;   87.307;  -12.637;  730.632
476.861;   90.850;  -10.027;  706.754
477.449;   96.706;   -8.716;  728.487
478.038;   91.352;   -9.577;  692.513
478.627;   92.330;   -9.718;  714.852
479.216;   98.807;   -8.947;  769.441
479.805;  101.859;   -6.256;  783.375
480.393;  101.550;   -7.937; 1008.945
480.982;  100.738;   -7.717;  874.501
481.571;  107.232;   -9.266;  858.333
482.159;  108.334;   -7.636;  705.386
482.748;  108.036;   -9.667;  821.385
483.336;  112.689;  -10.376;  858.209
483.925;  113.091;   -7.147;  774.373
484.513;  119.971;   -7.996;  758.962
485.102;  116.815;  -10.027;  810.965
485.690;  125.510;  -10.446; 1011.050
486.278;  127.579;   -8.446;  979.329
486.867;  128.498;   -6.356;  809.662
487.455;  129.966;   -9.136;  898.229
488.043;  131.769;  -10.646;  748.361
488.631;  140.545;   -7.456; 1005.079
489.220;  144.939;   -6.636;  908.626
489.808;  143.526;  -11.036;  741.415
490.396;  152.609;  -10.246;  914.645
490.984;  159.639;   -8.556;  830.161
491.572;  171.117;   -5.886;  940.315
492.160;  178.574;   -9.486;  919.081
492.748;  192.224;  -10.976;  884.341
493.336;  213.280;   -8.776; 1019.693
493.924;  242.902;   -5.465;  958.077
494.512;  276.466;   -9.986; 1066.638
495.100;  324.823;  -10.636; 1103.280
495.687;  386.331;  -10.885; 1206.373
496.275;  441.484;   -8.126; 1150.796
496.863;  506.652;  -10.586; 1281.171
497.451;  620.782;  -11.926; 1386.805
498.038;  733.469;  -10.885; 1556.729
498.626;  829.666;   -6.315; 1741.407
499.214;  985.855;   -7.326; 2016.609
499.801; 1208.563;  -11.906; 2220.633
500.389; 1457.339;  -10.466; 2312.494
500.976; 1702.107;   -5.236; 2744.849
501.564; 2122.557;   -8.936; 3148.565
502.151; 2579.561;  -13.176; 3515.999
502.738; 3106.951;  -10.646; 3971.274
503.326; 3499.075;   -9.525; 4403.796
503.913; 3780.083;  -10.856; 5161.749
504.500; 4262.270;  -11.586; 5986.420
505.088; 4588.487;  -10.336; 6381.201
505.675; 5058.396;   -6.355; 6925.547
506.262; 5511.601;   -9.046; 7619.060
506.849; 6012.818;  -10.416; 8733.969
507.436; 6489.172;  -10.305; 9790.121
508.023; 6947.776;   -5.496; 9985.472
508.610; 7812.460;   -7.856;10434.618
509.197; 9128.297;  -10.097;11198.435
509.784;10502.453;  -10.886;12391.194
510.371;11798.019;   -9.315;13603.713
510.958;12625.384;   -9.936;14426.586
511.545;13324.321;   -9.326;15243.775
512.132;14006.702;  -10.075;15945.876
512.719;14162.257;   -7.796;16340.369
513.305;14928.454;  -10.606;18011.766
513.892;16254.603;  -11.486;19754.971
514.479;18058.510;   -9.126;20967.805
515.066;19671.334;   -6.026;22299.793
515.652;20006.174;   -8.466;22908.660
516.239;21015.275;  -10.886;23798.875
516.825;23219.771;  -11.496;25567.275
517.412;25258.611;   -5.796;28154.959
517.998;27149.773;  -10.506;28344.111
518.585;26755.451;  -10.076;27134.219
519.171;25323.605;   -8.315;27268.576
519.758;26159.215;   -8.596;28964.129
520.344;27416.268;   -8.466;30664.494
520.930;29894.818;  -11.006;32550.605
521.516;30167.938;  -10.495;35422.895
522.103;28715.230;   -5.526;38280.004
522.689;29283.850;   -8.746;37835.117
523.275;30927.889;  -11.376;37288.613
523.861;32940.422;  -11.156;37281.395
524.447;36284.809;   -8.135;37846.949
525.033;37332.023;   -7.896;38321.949
525.619;36980.371;  -12.476;38579.285
526.205;37193.492;   -9.516;40622.875
526.791;36990.109;   -6.926;42258.836
527.377;38137.383;   -8.346;42966.902
527.963;39608.078;   -8.717;42018.949
528.549;38466.082;  -11.016;42476.828
529.135;38848.961;   -8.536;41854.852
529.721;38611.336;   -9.666;41237.711
530.306;36881.145;  -10.066;41259.445
530.892;36792.766;  -11.356;41506.047
531.478;36083.449;   -6.596;43559.613
532.063;36385.918;   -8.836;47695.563
532.649;39875.043;  -10.047;50808.324
533.235;41511.566;   -9.746;51787.500
533.820;40780.270;   -6.566;52145.035
534.406;39876.090;  -10.817;51133.488
534.991;42789.930;   -9.416;49996.805
535.576;43858.129;   -9.036;48882.852
536.162;44142.914;   -6.156;46942.285
536.747;45423.266;  -11.607;45711.746
537.333;45753.938;  -11.787;48510.180
537.918;45536.590;  -12.437;50439.891
538.503;46725.207;   -7.196;50863.711
539.088;44853.914;  -10.556;50906.922
539.673;43546.863;   -8.767;52621.965
540.259;44523.078;  -10.026;52368.094
540.844;46195.926;   -7.416;50879.109
541.429;45101.031;   -9.467;52077.777
542.014;44958.395;   -9.527;52716.695
542.599;47241.594;   -9.946;52363.281
543.184;49890.383;   -7.927;53187.137
543.769;48385.559;   -9.297;54697.605
544.354;44953.516;  -10.127;53913.914
544.938;42970.664;   -9.267;49680.164
545.523;44984.285;   -6.506;47386.277
546.108;48784.113;   -9.787;49151.949
546.693;48625.602;  -11.587;51384.637
547.278;48503.070;  -10.986;51853.254
547.862;45651.695;   -8.206;51173.750
548.447;43054.293;  -10.067;51691.395
549.031;43786.941;   -9.637;52456.703
549.616;44577.098;   -9.926;52714.516
550.201;43427.898;   -6.347;52414.598
550.785;42703.746;   -7.917;52355.059
551.370;43847.438;  -10.867;54589.453
551.954;44936.016;   -9.047;58267.348
552.538;45975.238;   -7.827;59062.176
553.123;45747.320;  -10.287;58115.285
553.707;41638.699;  -12.178;56556.285
554.291;42628.844;   -8.717;56201.668
554.876;45789.246;   -7.457;55335.762
555.460;46774.383;  -10.387;54155.703
556.044;47628.480;   -9.618;53721.484
556.628;46759.406;  -11.567;53731.016
557.212;44694.801;   -8.097;54312.531
557.796;46014.875;  -11.077;53797.773
558.380;44167.340;  -11.108;56145.984
558.964;42974.430;   -9.057;57277.930
559.548;42684.383;   -6.977;56459.641
560.132;41633.656;  -11.457;54434.543
560.716;40532.625;  -11.378;54800.617
561.300;41383.750;   -9.577;57606.945
561.884;43383.387;   -7.127;58972.445
562.467;44110.652;   -7.118;57327.570
563.051;43702.621;  -13.358;54962.434
563.635;41761.027;  -10.178;52594.473
564.219;41348.117;   -7.837;50610.410
564.802;40820.246;  -11.398;49551.180
565.386;41795.910;  -12.788;48370.953
565.969;42591.613;   -9.077;48178.871
566.553;42637.293;   -6.207;49957.305
567.136;39939.539;   -8.568;50369.594
567.720;39056.863;  -11.868;49492.004
568.303;39089.844;   -8.268;50616.352
568.887;37848.043;   -8.698;50727.148
569.470;37968.145;   -6.808;51698.379
570.053;36598.480;  -13.188;52122.078
570.637;35061.016;  -12.037;52536.438
571.220;34328.063;   -8.577;51186.098
571.803;34739.957;   -8.498;51032.762
572.386;36985.961;  -10.498;49609.887
572.969;38123.250;   -9.388;48285.926
573.552;33974.617;   -8.338;47624.285
574.135;31143.506;   -8.518;45498.641
574.718;28282.340;  -13.628;41970.434
575.301;29011.770;  -10.893;41447.137
575.884;29741.199;   -8.158;40923.836
576.467;35003.047;  -10.328;45267.723
577.050;33704.371;  -13.058;48175.543
577.633;32851.016;   -9.458;47729.328
578.216;34267.426;   -8.928;47579.793
578.799;35245.730;   -9.358;47820.996
579.381;34669.277;  -11.388;48115.551
579.964;31937.729;  -11.718;47333.766
580.547;31869.721;   -8.588;46668.969
581.129;33310.512;   -8.859;44466.141
581.712;33393.910;  -10.729;44164.922
582.294;34535.387;  -11.118;46477.855
582.877;32581.359;   -5.218;48244.254
583.459;32509.332;   -8.679;47437.895
584.042;34380.586;  -10.709;46943.219
584.624;36490.422;  -11.669;46792.227
585.206;35535.512;   -8.218;46557.250
585.789;34168.359;  -10.569;45793.773
586.371;34578.977;  -11.859;43836.391
586.953;33017.469;  -10.719;42972.492
587.536;34556.875;   -7.198;42487.211
588.118;35987.730;   -8.720;42086.414
588.700;35134.836;  -10.439;43389.930
589.282;35019.102;   -9.198;43646.039
589.864;33685.730;   -9.199;43438.109
590.446;31634.775;  -11.319;43151.926
591.028;31164.318;  -11.159;42781.867
591.610;30714.521;  -11.779;42839.098
592.192;27507.482;   -7.668;42820.402
592.774;27188.582;  -11.949;40724.277
593.356;26653.965;  -12.129;39874.789
593.937;23946.033;  -10.669;39980.648
594.519;26125.572;   -6.509;42069.633
595.101;29981.100;  -10.849;42976.031
595.683;30382.699;  -11.679;44084.441
596.264;30721.248;   -9.049;43478.797
596.846;32789.371;   -8.849;43803.672
597.427;32758.416;   -9.570;42986.934
598.009;33855.223;  -12.620;42832.219
598.591;33318.211;  -10.039;42580.086
599.172;32364.564;  -10.369;43061.805
599.753;30574.723;   -9.140;41691.469
600.335;30359.068;  -11.430;40692.520
600.916;30828.797;   -9.939;39982.422
601.498;29645.084;   -8.479;40318.617
602.079;28404.746;  -10.920;40670.609
602.660;30245.205;  -11.480;41450.898
603.241;31629.133;  -11.699;41137.738
603.823;31906.656;   -9.579;38868.797
604.404;31670.779;  -10.620;38182.785
604.985;30607.566;  -10.450;38078.047
605.566;30079.605;   -9.129;38056.633
606.147;29965.713;   -7.510;37020.418
606.728;31205.947;  -10.660;37883.359
607.309;32212.740;  -11.740;38748.273
607.890;31792.475;   -9.759;38850.230
608.471;30192.453;   -8.250;37457.918
609.051;30557.834;   -9.240;36066.457
609.632;28837.943;  -12.120;35991.074
610.213;27656.982;   -9.110;37402.641
610.794;29614.924;   -8.030;38383.363
611.374;32119.148;   -8.110;40562.387
611.955;31981.207;  -13.560;38533.727
612.536;29280.631;  -11.400;36951.789
613.116;28038.836;   -8.070;37197.891
613.697;29978.820;  -10.830;38411.125
614.277;31112.525;  -11.641;38673.938
614.858;30428.242;  -13.310;37075.863
615.438;29064.490;   -7.460;35092.906
616.019;27544.520;   -7.601;33666.301
616.599;28350.410;  -12.020;34189.023
617.179;29905.842;  -11.780;36952.047
617.760;32460.430;   -8.570;39582.574
618.340;32617.514;  -11.471;38943.977
618.920;31250.412;  -11.170;37594.156
619.500;33059.715;  -11.071;37866.938
620.080;33467.984;   -7.750;37869.043
620.660;31711.570;  -12.711;36868.617
621.241;30147.215;  -10.211;36352.309
621.821;29151.184;  -10.961;35459.520
622.401;28516.188;   -7.720;35207.414
622.980;29855.137;   -8.981;35980.422
623.560;30130.016;   -9.331;37351.328
624.140;28806.361;   -9.850;34388.582
624.720;26319.695;   -7.451;32368.764
625.300;24627.170;   -9.070;32638.629
625.880;28003.740;  -12.601;34599.035
626.459;29797.402;  -11.751;36831.738
627.039;30536.521;   -9.281;38299.098
627.619;32427.172;   -8.801;38289.574
628.198;31633.332;  -12.071;37220.695
628.778;30560.732;   -9.461;37632.563
629.357;31595.096;   -8.491;38003.012
629.937;31868.594;   -9.721;38402.039
630.516;32154.064;   -9.951;37868.801
631.096;32435.539;  -11.731;35760.410
631.675;33398.633;   -8.572;35225.219
632.254;33010.082;  -11.282;35130.289
632.834;32576.195;  -13.322;35794.570
633.413;32428.189;  -10.301;35788.922
633.992;31616.115;   -8.582;34532.863
634.571;33143.680;   -8.352;33590.113
635.151;33221.773;  -11.912;34943.863
635.730;32313.764;  -10.511;35352.523
636.309;34480.840;   -7.731;35366.605
636.888;32591.090;   -9.952;36165.637
637.467;30680.373;  -11.672;37515.902
638.046;30690.775;   -8.901;39288.695
638.625;31633.824;   -7.912;38279.699
639.204;31889.752;  -10.022;37741.598
639.782;30130.984;  -12.252;38364.551
640.361;28461.287;  -10.041;36740.621
640.940;27507.656;  -11.161;34950.082
641.519;28501.539;   -9.701;34137.398
642.097;30185.039;  -11.271;35654.258
642.676;31767.203;   -8.651;35637.957
643.255;32950.074;   -8.711;36567.074
643.833;30440.477;   -9.581;37809.434
644.412;28167.221;  -13.711;37337.293
644.990;30041.980;  -11.811;37018.531
645.569;32683.316;   -9.411;36518.469
646.147;32116.246;  -10.291;36186.430
646.726;30838.229;  -12.401;36267.688
647.304;30754.307;  -10.411;36647.625
647.882;29994.219;   -9.651;39286.742
648.461;31381.938;   -9.631;39157.703
649.039;34868.383;  -11.881;35412.883
649.617;35122.641;   -9.661;34744.918
650.195;32899.520;   -9.301;35403.098
650.773;31964.973;  -10.511;35053.797
651.352;31278.766;  -11.521;33756.816
651.930;28860.557;  -12.211;31868.773
652.508;25580.541;   -9.171;33121.551
653.086;26328.875;   -9.371;33564.793
653.663;31972.422;  -13.161;34054.668
654.241;35759.266;  -13.031;35693.309
654.819;36521.598;   -9.371;36422.906
655.397;36537.621;  -10.511;38213.484
655.975;33105.750;  -10.371;39507.625
656.553;29946.240;  -10.051;39498.223
657.130;28443.428;  -10.061;40395.480
657.708;26638.164;   -9.561;39242.020
658.286;24141.490;  -11.511;38920.020
658.863;26535.332;  -10.261;40202.898
659.441;30385.979;   -7.531;39677.938
660.018;32173.047;   -9.501;40413.355
660.596;31338.484;  -13.301;39931.414
661.173;31081.109;  -11.211;39604.531
661.750;32666.020;   -9.951;39700.070
662.328;31677.449;   -9.390;39292.809
662.905;30483.420;  -11.330;38235.648
663.482;28078.566;   -9.050;36212.305
664.060;25207.330;   -8.240;35944.945
664.637;25968.078;  -10.050;35170.785
665.214;29356.438;  -11.760;34197.523
665.791;30004.766;  -10.530;34549.520
666.368;28882.973;   -9.690;35118.578
666.945;30083.756;   -9.320;36019.418
667.522;30518.027;  -11.860;36048.438
668.099;31770.598;  -10.770;36243.914
668.676;31599.223;   -6.260;35958.875
669.253;34011.398;   -7.000;37384.730
669.830;35446.438;  -10.190;36779.629
670.407;32544.424;   -9.550;35231.289
670.984;33120.297;   -9.260;35544.270
671.560;30598.555;   -9.280;35466.867
672.137;26516.924;  -11.810;34280.863
672.714;28183.566;  -11.490;34632.863
673.290;31594.881;   -7.740;35135.422
673.867;31046.553;  -10.660;36114.480
674.443;31241.594;  -12.230;36152.859
675.020;31125.250;  -10.450;35327.238
675.596;29763.771;   -9.260;35795.176
676.173;28714.605;  -10.780;35430.355
676.749;28384.873;  -13.690;33549.516
677.326;28402.746;  -11.980;32210.012
677.902;27636.518;   -8.630;32068.871
678.478;29147.656;  -10.730;32583.891
679.054;29965.039;  -10.520;32088.928
679.631;29368.971;  -11.920;30978.848
680.207;29363.982;   -7.490;33160.887
680.783;31102.801;   -9.860;35570.363
681.359;32577.904;  -13.380;36125.184
681.935;33419.594;  -12.480;35240.922
682.511;32742.066;   -7.900;34429.961
683.087;31635.832;   -7.710;34463.680
683.663;31165.166;  -11.480;34648.898
684.239;29826.520;  -14.090;34546.457
684.815;28761.941;   -7.560;35586.375
685.390;29031.756;   -9.910;35821.895
685.966;30288.625;  -11.159;35085.871
686.542;31818.711;  -11.169;34198.230
687.118;33373.781;   -5.959;32847.707
687.693;32512.918;  -10.329;32794.027
688.269;33313.883;  -12.059;33072.367
688.844;33187.375;  -10.909;33141.664
689.420;30414.406;   -8.019;33965.742
689.995;29265.900;   -8.399;34655.523
690.571;30715.584;  -10.949;33576.742
691.146;30199.086;   -9.619;32657.219
691.722;28652.504;   -8.999;32526.979
692.297;27940.381;  -11.589;33014.617
692.872;28137.061;  -11.739;34012.254
693.448;30972.268;  -11.059;34237.434
694.023;31547.252;  -10.139;34142.672
694.598;29633.750;   -9.029;34132.031
695.173;30673.668;  -13.319;34205.250
695.748;31169.117;  -10.169;32882.488
696.323;28898.648;   -8.339;32864.906
696.898;27239.033;   -8.169;33170.004
697.473;27837.736;  -12.309;32432.984
698.048;27936.744;  -10.989;31649.303
698.623;26619.219;   -9.329;30778.141
699.198;27497.088;   -9.849;31140.119
699.773;28589.896;  -12.329;31764.299
700.348;29977.367;  -10.389;31780.816
700.922;30152.850;   -9.269;32046.375
701.497;30972.764;   -9.329;32603.574
702.072;32067.105;  -10.789;34799.871
702.646;31072.330;  -10.839;35793.172
703.221;30273.635;   -9.099;35201.590
703.795;32230.582;  -10.939;34764.527
704.370;29926.434;  -12.859;34307.367
704.944;28387.951;  -11.559;33509.887
705.519;29416.766;   -7.939;31388.584
706.093;31502.213;  -10.499;31340.104
706.668;33660.137;  -11.289;32630.281
707.242;33056.309;  -11.509;32728.779
707.816;31213.803;   -9.639;32947.238
708.390;29953.043;  -11.429;33277.855
708.965;29219.330;  -11.869;33834.336
709.539;30612.455;  -11.689;33709.273
710.113;30980.029;  -10.478;33044.313
710.687;30205.232;  -10.228;31953.992
711.261;29489.248;  -13.698;30505.949
711.835;29998.078;  -13.378;30262.369
712.409;29002.445;   -9.698;31254.447
712.983;28389.941;  -11.898;32754.986
713.557;30716.299;  -15.138;34018.824
714.131;28857.291;  -14.098;34579.625
714.704;28304.928;   -9.958;33890.262
715.278;30557.305;  -10.028;33531.102
715.852;29311.148;  -11.148;33601.660
716.425;28176.582;   -9.068;33515.117
716.999;26776.957;  -10.038;33185.555
717.573;26497.383;   -9.798;33905.996
718.146;25898.018;  -12.378;35199.293
718.720;26228.213;  -11.918;35060.551
719.293;26643.096;   -8.088;34973.230
719.867;28997.529;  -10.888;36394.449
720.440;30766.129;  -11.938;36663.008
721.013;31533.824;  -12.818;35102.426
721.587;29375.410;  -10.298;33985.266
722.160;27490.068;  -10.048;33524.965
722.733;26774.344;  -12.108;32987.043
723.306;27060.217;  -10.818;33066.301
723.880;28883.664;   -8.908;33399.500
724.453;28414.398;   -9.878;33468.297
725.026;28600.361;  -11.188;33816.637
725.599;31335.490;  -11.678;32797.996
726.172;30870.771;   -9.618;33187.434
726.745;28260.094;   -8.258;35136.613
727.318;27691.607;  -12.978;35751.730
727.891;27166.467;  -12.148;35890.430
728.463;26400.365;   -8.968;34822.090
729.036;26340.010;  -10.188;32895.086
729.609;26293.295;  -11.788;31823.225
730.182;24223.969;  -11.788;31445.283
730.754;22920.424;  -10.268;32373.223
731.327;23012.459;   -9.998;33676.820
731.900;24042.619;  -12.228;33417.000
732.472;23912.797;  -13.848;31978.498
733.045;23003.279;   -8.698;30368.777
733.617;22725.057;  -10.607;30574.215
734.190;24842.662;  -11.507;31280.975
734.762;25880.803;  -13.647;31674.412
735.334;27213.270;   -9.767;31247.291
735.907;27581.598;   -9.897;29876.211
736.479;27094.719;  -11.637;29808.488
737.051;27940.834;   -9.567;30233.547
737.623;27315.678;   -8.187;31469.086
738.195;26030.607;  -11.187;31784.225
738.768;24858.180;  -12.337;32120.523
739.340;23313.408;  -12.227;32094.342
739.912;22474.133;  -11.057;31312.680
740.484;22485.791;  -10.207;31946.238
741.056;22255.021;  -10.047;32984.059
741.628;23271.473;  -13.627;33897.715
742.199;24120.891;   -7.177;33213.016
742.771;26269.283;  -10.797;31369.113
743.343;27143.746;  -11.997;31865.473
743.915;26857.127;  -12.867;32388.631
744.487;24258.063;   -7.617;31079.568
745.058;21436.584;   -9.557;30570.107
745.630;22565.242;   -9.877;29970.127
746.201;24116.150;  -14.177;29186.766
746.773;24625.063;   -9.237;28805.723
747.344;22777.369;   -9.847;29591.223
747.916;21141.719;  -11.657;31412.201
748.487;22204.818;  -10.587;32194.898
749.059;23917.225;   -8.707;32533.719
749.630;24239.285;  -10.537;32158.518
750.201;23576.891;  -11.687;30855.395
750.773;22167.746;  -11.647;28622.555
751.344;21875.350;   -7.147;28405.732
751.915;24116.439;   -9.757;28461.551
752.486;25452.502;  -12.427;27842.850
753.057;24400.123;  -12.227;27845.008
753.628;24296.547;  -10.417;27728.107
754.199;23794.041;  -11.767;27381.086
754.770;23377.576;  -11.187;25882.203
755.341;22299.420;  -10.507;25886.184
755.912;20689.258;   -9.387;26050.861
756.483;19278.652;  -10.647;26798.779
757.054;19762.980;  -11.837;27048.238
757.625;19870.100;  -12.716;26294.838
758.195;19676.369;   -9.666;26142.076
758.766;19868.072;   -8.656;26392.234
759.337;19423.104;  -12.856;26334.594
759.907;19146.340;  -13.366;27579.652
760.478;18863.363;   -8.576;28352.770
761.048;19947.021;  -10.526;27325.088
761.619;20075.990;  -11.116;26460.428
762.189;18746.922;  -12.136;26029.826
762.760;18355.271;   -9.456;26430.145
763.330;18697.758;   -7.136;26670.902
763.900;18787.734;  -11.786;26603.021
764.471;18339.879;  -11.546;25542.740
765.041;17531.781;   -8.096;24358.459
765.611;16829.707;   -8.876;23991.297
766.181;16755.686;  -12.196;24470.236
766.751;16446.102;  -11.636;24845.975
767.321;17445.229;  -10.156;24533.633
767.891;16954.844;  -11.766;24916.492
768.461;17195.928;  -14.936;24776.771
769.031;18209.523;  -12.356;24757.988
769.601;18764.863;   -7.526;24181.088
770.171;18481.189;  -10.766;23670.387
770.741;17683.672;  -13.176;22960.045
771.311;17250.490;  -10.616;22917.523
771.880;17577.402;   -9.576;23562.941
772.450;17299.986;  -10.336;24216.500
773.020;16935.531;  -13.516;24140.398
773.589;17531.729;  -13.466;24414.857
774.159;17372.918;   -8.686;23858.717
774.729;16112.948;   -9.476;22942.135
775.298;14363.658;  -13.666;22324.033
775.867;13908.477;  -11.716;21140.313
776.437;13956.964;   -9.906;20838.092
777.006;13329.993;  -12.166;20599.510
777.576;12783.151;  -12.356;20508.809
778.145;12714.092;  -11.646;20732.947
778.714;13136.359;   -8.226;21062.465
779.283;14112.249;   -9.556;20949.664
779.853;14778.747;  -14.116;20508.623
780.422;14232.037;  -11.506;20649.082
780.991;13779.342;   -9.556;21527.520
781.560;13413.825;   -9.095;22632.658
782.129;13263.696;  -12.135;23048.277
782.698;13192.328;  -10.865;23438.555
783.267;12874.377;   -9.335;23267.734
783.836;13020.827;  -11.045;22415.133
784.404;13735.444;  -13.865;20443.152
784.973;12994.730;  -13.095;19699.150
785.542;11642.593;  -11.575;19763.828
786.111;11010.400;   -9.705;20341.408
786.679;11735.760;  -12.105;20207.967
787.248;12010.864;  -12.455;19516.465
787.817;11633.594;  -11.535;18900.363
788.385;11706.081;   -9.765;17879.121
788.954;11769.224;  -14.005;17658.301
789.522;11270.861;  -11.955;17788.879
790.090;11512.160;  -10.135;18118.277
790.659;12358.890;  -10.975;18338.736
791.227;12237.853;  -13.375;18508.615
791.795;11690.340;  -12.375;17898.254
792.364;11230.042;  -10.725;17295.133
792.932;11391.574;   -9.715;16822.051
793.500;11551.521;  -12.675;17040.148
794.068;11351.436;  -13.495;17179.787
794.636;10161.220;  -10.885;16664.246
795.204; 9136.654;  -11.045;16524.545
795.772; 9865.186;  -13.175;17274.564
796.340;11009.720;  -12.445;17891.002
796.908;10774.226;   -9.735;17648.561
797.476;11151.326;   -9.815;17064.080
798.044;11965.323;  -13.985;16672.777
798.612;11774.103;  -13.115;17023.996
799.180;10473.705;  -10.185;16561.615
799.747; 9428.063;   -9.055;15962.773
800.315; 8793.533;  -12.385;15296.992
800.883; 9062.475;  -15.035;14801.771
801.450; 9395.226;  -10.365;14534.430
802.018; 9540.011;   -9.855;14173.248
802.585; 9674.994;  -11.905;14029.547
803.153; 9226.456;  -11.585;13836.846
803.720; 8577.897;   -9.095;13567.324
804.287; 8582.111;   -9.135;13360.622
804.855; 8867.453;  -11.604;13681.981
805.422; 9004.014;  -11.794;13536.560
805.989; 8876.414;  -10.734;13355.958
806.556; 8454.237;  -10.444;13747.896
807.124; 8355.994;  -12.764;13987.376
807.691; 8938.622;  -12.964;14038.674
808.258; 9318.592;  -11.134;14120.152
808.825; 9512.799;   -9.854;13860.111
809.392; 9171.777;  -10.504;13268.790
809.959; 8700.293;  -13.054;12680.389
810.526; 8564.385;   -8.294;12427.308
811.093; 8273.710;   -8.394;12030.105
811.659; 7537.345;  -12.304;11653.664
812.226; 7305.898;  -13.944;11637.183
812.793; 7795.230;  -10.484;11611.521
813.360; 7917.331;  -10.144;11885.181
813.926; 7211.988;  -11.684;12770.539
814.493; 6624.029;  -13.644;12677.638
815.060; 6476.338;   -9.724;11974.336
815.626; 6799.086;   -9.854;11594.715
816.193; 6865.652;  -13.254;11579.474
816.759; 6876.310;  -13.204;11666.972
817.325; 6640.236;   -9.434;11325.530
817.892; 6310.377;  -10.134;11105.369
818.458; 6241.923;  -13.474;10843.928
819.024; 6243.659;  -11.854;10714.406
819.591; 6534.813;  -10.244;10469.165
820.157; 6624.192;  -10.704;10235.523
820.723; 6878.584;  -12.324;10847.563
821.289; 7313.199;   -9.444;11040.980
821.855; 7386.263;   -8.374;10357.100
822.421; 6982.866;  -10.234; 9978.918
822.987; 6718.851;  -13.294; 9754.177
823.553; 6559.567;  -10.884;10065.755
824.119; 6108.185;   -8.884;10036.294
824.685; 5908.543;   -6.784;10029.192
825.251; 5828.129;  -12.004;10199.230
825.816; 5928.287;  -11.474; 9820.189
826.382; 5699.504;   -9.174; 9297.248
826.948; 5427.838;   -9.214; 9381.347
827.513; 5196.938;  -10.774; 9450.726
828.079; 5155.269;  -11.924; 9472.444
828.645; 5252.787;  -10.543; 9292.643
829.210; 5449.016;  -10.533; 9065.341
829.776; 5455.694;  -10.753; 9132.620
830.341; 5371.216;  -10.173; 9092.878
830.906; 5472.279;  -10.743; 9078.557
831.472; 5333.997;  -11.113; 8534.535
832.037; 4845.537;  -10.603; 8677.874
832.602; 4800.678;  -13.323; 8628.692
833.167; 5200.399;  -10.823; 8879.031
833.733; 5172.790;  -10.113; 9189.790
834.298; 4880.220;  -13.583; 9052.608
834.863; 4748.386;  -12.703; 8895.087
835.428; 4631.142;  -10.523; 8824.266
835.993; 4574.149;   -6.963; 8845.385
836.558; 4651.033;  -10.763; 8888.563
837.123; 4772.156;   -9.903; 8966.582
837.688; 4618.483;   -9.913; 8617.860
838.253; 4462.745;  -10.283; 8590.699
838.817; 4599.667;  -12.963; 8443.797
839.382; 4782.538;  -14.243; 8799.356
839.947; 4679.591;  -10.733; 8810.595
840.511; 4774.295;   -9.383; 8796.394
841.076; 4814.122;  -12.563; 8347.231
841.641; 4614.896;  -12.953; 8224.330
842.205; 4316.943;   -7.043; 8223.349
842.770; 4259.930;   -8.163; 8622.107
843.334; 4297.018;  -12.503; 8410.386
843.898; 4265.424;  -11.693; 8337.465
844.463; 4159.368;  -10.203; 8506.283
845.027; 4064.751;   -9.533; 8280.962
845.591; 4109.425;  -13.443; 8231.141
846.156; 4019.532;  -13.143; 7969.179
846.720; 3798.266;   -9.433; 7768.278
847.284; 3514.594;  -11.033; 7630.957
847.848; 3378.971;  -10.403; 7472.395
848.412; 3400.583;  -11.553; 7437.394
848.976; 3586.442;   -8.393; 7674.592
849.540; 3632.265;   -8.713; 7836.011
850.104; 3609.432;  -12.463; 7913.669
850.668; 3738.160;  -12.973; 7694.508
851.232; 3762.158;  -10.793; 7756.887
851.796; 3658.599;  -10.662; 7926.545
852.359; 3667.204;  -13.082; 7827.844
852.923; 3398.345;  -12.192; 7641.163
853.487; 3302.034;  -11.912; 7342.501
854.050; 3486.598;  -10.892; 7042.820
854.614; 3499.698;  -13.992; 7151.338
855.177; 3397.365;  -11.732; 7105.077
855.741; 3321.588;   -8.962; 6989.675
856.304; 3212.723;   -9.442; 6596.634
856.868; 2963.514;  -14.192; 6356.272
857.431; 2736.449;  -12.702; 6468.571
857.995; 2781.213;   -9.942; 6373.210
858.558; 2811.370;   -9.112; 6324.448
859.121; 2626.934;  -12.932; 6408.327
859.684; 2582.087;  -13.442; 6347.886
860.247; 3012.099;  -10.632; 6321.264
860.810; 3340.270;  -11.272; 6301.903
861.374; 3335.068;   -9.832; 6607.881
861.937; 3302.088;  -11.762; 6408.200
862.500; 3160.568;   -9.722; 6572.639
863.062; 2859.144;  -10.512; 6387.297
863.625; 2752.957;  -11.232; 6190.836
864.188; 2758.952;  -14.112; 5807.254
864.751; 2771.964;  -11.302; 5682.413
865.314; 2891.967;  -10.112; 5547.492
865.876; 2913.268;  -12.182; 5500.150
866.439; 2814.948;  -10.722; 5415.909
867.002; 2655.718;   -9.252; 5501.567
867.564; 2548.071;   -9.572; 5413.946
868.127; 2410.902;  -13.142; 5160.325
868.689; 2126.374;  -12.902; 5133.183
869.252; 1998.693;   -9.732; 5252.382
869.814; 2009.243;   -9.432; 5297.141
870.377; 2105.251;  -11.552; 5390.919
870.939; 2088.510;   -9.052; 5599.898
871.501; 2018.095;  -10.982; 5248.336
872.063; 2046.735;  -12.292; 4854.235
872.626; 2055.282;  -14.912; 4817.074
873.188; 2062.086;  -13.112; 4987.732
873.750; 2008.960;  -13.442; 4868.651
874.312; 2073.102;   -9.402; 4779.330
874.874; 2209.574;  -11.062; 4866.348
875.436; 2085.897;  -13.931; 4718.887
875.998; 1795.677;   -9.561; 4660.005
876.560; 1637.006;  -11.321; 4462.964
877.122; 1631.383;  -12.221; 4145.042
877.683; 1614.255;  -12.191; 4056.481
878.245; 1703.502;  -12.101; 3950.740
878.807; 1858.697;   -8.971; 4058.958
879.369; 1896.542;  -12.071; 3954.677
879.930; 1824.185;  -14.621; 3941.495
880.492; 1646.635;  -10.311; 4067.014
881.053; 1486.206;  -10.901; 3859.633
881.615; 1464.754;  -14.411; 3776.071
882.176; 1497.044;  -13.761; 3734.750
882.738; 1519.277;   -9.181; 3678.489
883.299; 1484.564;  -11.791; 3405.407
883.860; 1401.067;  -13.121; 3351.106
884.422; 1290.652;  -11.211; 3394.044
884.983; 1210.015;  -10.091; 3166.443
885.544; 1186.956;   -8.461; 3189.802
886.105; 1128.635;  -12.361; 3160.360
886.666; 1048.650;  -14.141; 3093.059
887.227; 1017.105;  -11.361; 2941.957
887.788; 1033.991;  -11.401; 2974.836
888.349;  988.000;  -13.791; 2721.214
888.910;  890.669;  -13.191; 2696.493
889.471;  786.130;   -9.881; 2560.172
890.032;  712.125;   -9.881; 2558.190
890.593;  712.413;  -10.371; 2567.669
891.153;  714.518;  -13.301; 2460.307
891.714;  650.659;  -11.431; 2372.046
892.275;  598.970;  -11.291; 2309.505
892.835;  584.598;  -11.471; 2382.543
893.396;  573.215;  -11.541; 2295.502
893.956;  569.056;  -11.181; 2162.420
894.517;  554.655;  -11.741; 2125.439
895.077;  507.062;  -11.671; 2086.978
895.638;  456.987;  -11.311; 2126.316
896.198;  434.645;   -9.831; 1838.275
896.758;  435.164;   -8.421; 1892.813
897.319;  429.262;  -12.351; 1792.232
897.879;  410.575;  -13.511; 1762.751
898.439;  385.130;  -12.001; 1661.149
898.999;  364.168;  -10.180; 1781.468
899.559;  349.835;  -12.030; 1703.347
900.119;  340.753;  -15.710; 1537.525
900.679;  319.541;   -8.900; 1638.384
901.239;  290.664;   -8.340; 1527.902
901.799;  276.896;  -13.910; 1456.441
902.359;  267.382;  -13.460; 1357.140
902.919;  262.338;  -11.490; 1331.118
903.479;  259.537;  -12.110; 1317.257
904.038;  251.883;  -11.720; 1262.595
904.598;  234.683;  -13.610; 1152.034
905.158;  223.551;  -11.040; 1240.893
905.717;  217.069;  -10.900; 1233.691
906.277;  213.120;  -15.080; 1217.330
906.836;  210.032;  -13.380; 1222.408
907.396;  207.429;  -10.780; 1193.047
907.955;  199.891;   -8.500; 1182.526
908.515;  192.623;  -12.760; 1099.364
909.074;  188.202;  -11.900; 1092.863
909.633;  186.411;   -8.950; 1069.121
910.192;  182.169;   -8.770; 1196.460
910.752;  178.079;  -12.390; 1029.960
911.311;  174.846;  -13.680; 1009.780
911.870;  169.790;  -12.370;  971.460
912.429;  166.859;  -10.900; 1094.080
912.988;  164.005;  -11.690; 1081.060
913.547;  159.767;  -13.240;  940.380
914.106;  159.611;  -11.990;  999.420
914.665;  159.876;   -9.990;  984.020
915.224;  157.521;  -12.880; 1035.760
915.782;  156.234;  -12.350;  922.560
916.341;  156.579;   -9.110; 1049.840
916.900;  153.909;   -9.270;  925.260
917.458;  151.874;  -13.240;  884.220
918.017;  149.772;  -13.550;  942.600
918.576;  150.081;  -12.320;  904.440
919.134;  148.853;  -11.490;  837.980
919.693;  147.566;  -13.670;  893.060
920.251;  145.454;  -15.470;  876.500
920.809;  144.810;  -11.290;  839.580
921.368;  144.308;  -10.210;  885.360
921.926;  144.708;  -12.140;  842.940
922.484;  144.338;  -13.080;  903.360
923.042;  142.654;  -11.720;  880.340
923.601;  144.987;   -7.480;  998.680
924.159;  143.132;  -11.570;  935.560
924.717;  142.735;  -13.840;  841.080
925.275;  144.816;  -10.640;  903.240
925.833;  142.452;  -11.540;  779.320
926.391;  144.181;  -12.960;  938.380
926.949;  144.132;  -14.130;  857.680
927.506;  143.807;  -11.750;  903.500
928.064;  142.718;  -10.250;  877.580
928.622;  141.988;  -13.030;  880.100
929.180;  143.149;  -13.400;  814.180
929.737;  144.681;  -10.700;  808.540
930.295;  146.606;  -10.070;  928.480
930.853;  146.561;  -11.960;  849.100
931.410;  145.116;  -13.120;  821.120
931.968;  145.923;  -10.770;  940.660
932.525;  148.152;  -10.680;  909.380
933.082;  150.510;  -13.130;  811.440
933.640;  155.591;  -13.210;  925.900
934.197;  156.787;  -11.060;  886.360
934.754;  156.333;   -9.580;  897.780
935.312;  156.597;  -14.000;  863.340
935.869;  161.018;  -10.710; 1012.980
936.426;  158.757;   -9.860;  872.800
936.983;  158.154;   -9.710;  889.020
937.540;  156.344;  -13.990;  838.280
938.097;  155.681;  -14.040;  940.120
938.654;  159.301;  -10.310;  898.860
939.211;  159.891;  -10.560;  952.480
939.768;  158.946;  -13.900;  915.420
940.324;  159.818;  -14.760;  904.200
940.881;  164.861;  -10.370;  878.500
941.438;  171.785;   -8.260; 1021.200
941.995;  173.562;  -12.540;  992.560
942.551;  170.519;  -14.670;  875.620
943.108;  170.743;  -10.450;  937.920
943.664;  171.030;  -10.750;  869.340
944.221;  176.834;  -11.550; 1088.140
944.777;  179.546;  -14.770;  869.680
945.334;  178.627;  -12.820;  884.840
945.890;  176.881;  -10.130;  946.480
946.446;  174.422;  -13.470;  947.020
947.003;  174.846;  -12.120;  964.940
947.559;  174.769;   -9.980; 1063.040
948.115;  171.476;   -9.080; 1026.540
948.671;  168.217;  -10.830;  967.300
949.227;  165.542;  -12.440;  859.560
949.783;  165.839;  -12.910;  858.900
950.339;  169.375;  -10.270;  991.000
950.895;  169.926;  -13.630; 1023.840
951.451;  169.056;  -15.100;  925.280
952.007;  169.146;  -11.330;  998.540
952.563;  167.604;  -10.580;  937.780
953.118;  162.793;  -13.440;  904.940
953.674;  159.310;  -12.710;  935.780
954.230;  162.619;  -10.350;  949.640
954.785;  165.755;   -9.190;  936.640
955.341;  168.005;  -11.200;  998.160
955.897;  163.915;  -16.560;  834.660
956.452;  162.702;  -12.570;  953.840
957.008;  160.378;   -7.970; 1083.640
957.563;  159.164;  -11.940; 1009.540
958.118;  156.852;  -13.450;  877.700
958.674;  157.489;  -12.030;  946.780
959.229;  157.320;   -9.410; 1013.980
959.784;  154.907;  -12.000;  832.400
960.339;  152.117;  -14.780; 1001.280
960.894;  148.146;   -9.860;  963.760
961.449;  143.272;   -9.970;  859.960
962.004;  142.918;  -10.900; 1212.840
962.559;  137.867;  -13.150;  860.140
963.114;  134.257;  -13.740;  742.480
963.669;  132.484;   -9.820;  915.500
964.224;  124.856;  -13.890;  874.340
964.779;  116.179;  -12.600;  828.420
965.334;  109.440;  -10.950; 1017.860
965.888;  100.415;  -11.170;  875.360
966.443;   98.270;  -12.540;  972.380
966.998;   97.499;  -15.780;  819.460
967.552;  100.824;   -9.760;  908.380
968.107;  101.091;   -9.060;  868.300
968.661;  103.820;  -11.950;  922.440
969.216;  104.976;  -12.800;  856.280
969.770;  106.510;  -11.210;  917.200
970.324;  104.507;  -11.610;  923.140
970.879;  104.344;  -11.370;  947.180
971.433;  105.239;  -12.540;  952.720
971.987;  103.868;  -11.320;  895.340
972.541;  102.751;  -10.720;  917.100
973.095;  104.817;   -9.680; 1009.460
973.649;  103.510;  -11.440;  809.480
974.203;  105.078;  -11.210;  829.040
974.757;  105.332;  -10.240;  855.220
975.311;  105.022;  -13.720;  872.600
975.865;  105.907;  -13.770;  881.820
976.419;  105.006;  -11.690;  857.400
976.973;  105.315;   -9.510;  849.620
977.526;  106.145;  -12.620;  949.920
978.080;  102.406;  -12.010;  796.780
978.634;  101.292;  -10.170;  921.320
979.187;   97.948;   -9.020;  905.400
979.741;   98.160;   -9.820; 1018.380
980.294;   93.138;  -14.870;  789.160
980.848;   89.888;  -12.380;  717.220
981.401;   89.609;  -10.350;  816.540
981.955;   88.732;  -13.720;  844.300
982.508;   86.950;  -11.490;  746.340
983.061;   87.111;  -10.000;  915.260
983.615;   86.082;  -11.480;  798.800
984.168;   85.544;  -13.220;  770.080
984.721;   84.838;  -13.960;  880.760
985.274;   83.623;  -10.870;  867.500
985.827;   81.683;   -9.790;  834.220
986.380;   80.198;  -13.120;  721.340
986.933;   81.282;  -12.450;  864.800
987.486;   80.817;  -10.210;  861.920
988.039;   80.042;   -8.430;  863.100
988.591;   77.217;  -10.520;  893.260
989.144;   74.010;  -14.860;  737.260
989.697;   72.023;  -13.080;  758.740
990.250;   70.849;  -10.150;  858.100
990.802;   69.046;  -13.430;  755.860
991.355;   68.654;  -12.750;  974.880
991.907;   66.424;  -12.040;  864.320
992.460;   64.195;  -11.330;  753.760
993.012;   63.381;  -13.610;  749.540
993.565;   62.622;  -13.460;  711.360
994.117;   63.687;   -9.360;  950.780
994.669;   61.393;  -11.300;  701.320
995.221;   60.503;  -13.540;  791.920
995.774;   60.051;  -13.430;  787.580
996.326;   58.569;  -12.520;  740.220
996.878;   58.170;  -10.950;  838.420
997.430;   56.300;  -14.300;  699.860
997.982;   56.220;  -13.760;  750.140
998.534;   55.571;  -11.530;  739.060
999.086;   53.592;  -10.310;  738.220
999.638;   52.605;  -12.530;  661.380
1000.190;   51.919;  -11.840;  699.320
1000.741;   51.066;  -10.260;  742.700
1001.293;   51.106;   -8.860;  686.020
1001.845;   50.520;  -13.700;  676.640
1002.396;   51.037;  -12.100;  743.400
1002.948;   50.133;  -12.760;  737.400
1003.500;   48.928;  -10.380;  723.780
1004.051;   49.375;  -11.900;  907.580
1004.603;   48.482;  -12.250;  791.820
1005.154;   44.330;  -13.210;  608.980
1005.705;   44.638;  -10.950;  723.960
1006.257;   43.511;  -13.880;  707.220
1006.808;   42.453;  -12.840;  685.460
1007.359;   41.194;  -10.570;  763.240
1007.910;   40.863;   -9.620;  646.640
1008.461;   40.439;  -13.630;  732.940
1009.013;   38.692;  -17.200;  588.340
1009.564;   40.684;  -10.200;  793.520
1010.115;   38.360;  -12.570;  597.040
1010.665;   38.108;  -15.150;  602.160
1011.216;   38.867;  -14.480;  667.920
1011.767;   37.458;  -11.340;  697.920
1012.318;   38.227;   -9.780;  736.980
1012.869;   36.603;  -12.380;  679.000
1013.419;   36.136;  -15.560;  603.120
1013.970;   36.604;  -11.010;  666.640
1014.521;   35.758;  -11.610;  620.620
1015.071;   36.114;  -13.450;  670.380
1015.622;   35.567;  -13.870;  635.460
1016.172;   35.339;  -11.610;  596.820
1016.723;   34.596;  -12.120;  614.380
1017.273;   34.641;  -13.620;  604.160
1017.823;   34.572;  -14.140;  650.340
1018.374;   33.686;  -12.800;  611.760
1018.924;   34.040;  -12.340;  716.880
1019.474;   34.441;  -11.410;  718.880
1020.024;   32.797;  -14.770;  657.580
1020.574;   33.593;   -9.780;  726.160
1021.124;   33.053;   -8.560;  673.580
1021.674;   32.038;  -15.190;  559.120
1022.224;   33.992;  -13.530;  708.940
1022.774;   33.411;  -13.280;  668.820
1023.324;   33.608;  -10.690;  753.520
1023.874;   34.561;  -10.240;  875.760
1024.423;   31.544;  -12.540;  613.700
1024.973;   30.907;  -10.010;  610.760
1025.523;   30.647;  -10.550;  620.960
1026.072;   30.626;  -13.560;  606.420
1026.622;   30.336;  -15.120;  675.740
1027.172;   31.363;  -11.260;  715.660
1027.721;   30.160;  -11.410;  601.220
1028.270;   30.870;  -13.530;  663.400
1028.820;   30.851;  -13.680;  638.080
1029.369;   30.133;  -13.520;  612.700
1029.918;   30.342;  -10.980;  649.840
1030.468;   29.573;  -13.530;  564.780
1031.017;   30.366;  -13.170;  634.800
1031.566;   29.250;  -12.200;  608.900
1032.115;   29.384;   -9.960;  694.500
1032.664;   27.968;  -13.210;  596.480
1033.213;   29.473;  -12.500;  735.420
1033.762;   28.260;  -11.910;  635.620
1034.311;   27.958;   -9.640;  677.220
1034.860;   28.329;  -13.310;  691.000
1035.408;   28.177;  -11.830;  722.720
1035.957;   29.458;  -12.000;  719.540
1036.506;   25.738;  -11.690;  530.800
1037.055;   29.442;  -10.990;  844.320
1037.603;   27.365;  -15.120;  664.000
1038.152;   25.729;  -12.450;  534.760
1038.700;   26.172;  -10.560;  585.740
1039.249;   26.063;  -11.080;  681.220
1039.797;   26.237;  -12.540;  633.360
1040.345;   26.147;  -11.920;  705.420
1040.894;   25.567;  -11.410;  625.300
1041.442;   25.884;  -14.320;  632.200
1041.990;   25.569;  -16.240;  559.160
1042.538;   23.915;  -11.680;  536.180
1043.087;   24.444;  -10.760;  570.860
1043.635;   25.623;  -11.850;  670.500
1044.183;   24.860;  -15.480;  586.400
1044.731;   23.813;  -11.770;  576.000
1045.279;   24.134;  -13.090;  674.920
1045.827;   25.299;  -12.440;  892.400
1046.374;   22.709;  -13.840;  515.420
1046.922;   22.681;  -13.220;  590.580
1047.470;   24.746;  -10.230;  691.300
1048.018;   24.133;  -14.590;  647.960
1048.565;   24.864;  -12.050;  708.600
1049.113;   23.056;  -11.650;  557.000
1049.660;   23.120;  -10.510;  629.660
1050.208;   24.180;  -13.310;  675.640
1050.755;   22.447;  -15.900;  606.580
1051.303;   23.655;  -11.430;  686.820
1051.850;   22.953;   -8.480;  635.120
1052.397;   20.830;  -15.010;  473.960
1052.945;   21.761;  -13.960;  617.760
1053.492;   22.628;  -13.150;  741.840
1054.039;   22.569;   -9.630;  720.180
1054.586;   21.653;  -13.680;  557.240
1055.133;   22.397;  -14.570;  693.140
1055.680;   22.467;  -13.820;  646.620
1056.227;   21.128;  -11.730;  542.780
1056.774;   22.740;  -12.480;  794.980
1057.321;   20.542;  -13.930;  523.260
1057.868;   21.306;  -11.690;  651.320
1058.415;   20.383;   -9.520;  651.980
1058.961;   21.144;  -13.160;  678.940
1059.508;   20.348;  -12.920;  643.820
1060.055;   20.543;  -11.920;  581.780
1060.601;   20.610;  -11.500;  624.300
1061.148;   20.093;  -14.330;  616.820
1061.694;   19.776;  -16.870;  592.580
1062.241;   19.949;  -10.330;  596.320
1062.787;   20.328;  -10.620;  663.140
1063.334;   21.570;  -10.110;  808.560
1063.880;   19.632;  -13.400;  668.360
1064.426;   19.748;  -10.680;  706.820
1064.972;   18.739;   -9.920;  601.340
1065.518;   17.946;  -10.980;  566.640
1066.065;   18.756;  -14.890;  624.460
1066.611;   18.229;  -12.870;  598.800
1067.157;   18.254;  -12.950;  641.860
1067.703;   18.433;  -13.540;  668.480
1068.249;   18.606;  -13.540;  605.220
1068.794;   18.576;  -12.600;  626.880
1069.340;   17.426;  -10.620;  578.960
1069.886;   18.561;  -12.830;  590.700
1070.432;   16.824;  -14.870;  541.720
1070.977;   16.181;  -11.980;  601.080
1071.523;   16.933;   -8.200;  573.060
1072.068;   17.137;  -12.330;  582.000
1072.614;   16.931;  -16.370;  527.760
1073.160;   17.824;  -11.100;  687.040
1073.705;   15.962;  -10.480;  572.520
1074.250;   17.112;  -14.520;  559.900
1074.796;   17.876;  -11.460;  655.160
1075.341;   18.217;  -11.950;  664.100
1075.886;   16.396;  -11.460;  594.240
1076.431;   16.805;  -13.770;  649.880
1076.976;   16.060;  -12.680;  639.220
1077.521;   15.705;  -13.170;  583.080
1078.067;   15.499;  -10.860;  579.400
1078.612;   15.645;  -13.920;  661.620
1079.156;   16.019;  -13.880;  601.540
1079.701;   15.954;  -13.120;  693.260
1080.246;   17.332;   -9.940;  696.300
1080.791;   16.111;  -14.740;  625.020
1081.336;   15.596;  -13.750;  659.320
1081.880;   15.190;  -13.400;  649.680
1082.425;   15.211;  -12.220;  573.480
1082.970;   16.144;  -11.610;  717.040
1083.514;   14.835;  -13.580;  597.000
1084.059;   13.736;  -12.810;  586.720
1084.603;   14.143;  -12.320;  565.840
1085.147;   14.268;  -13.190;  645.220
1085.692;   15.302;  -12.480;  716.800
1086.236;   13.170;  -13.020;  503.140
1086.780;   15.651;   -9.190;  751.440
1087.325;   14.656;  -12.480;  654.620
1087.869;   14.281;  -12.450;  610.700
1088.413;   14.214;  -12.240;  705.040
1088.957;   12.608;   -9.020;  543.400
1089.501;   15.252;  -10.320;  766.640
1090.045;   13.895;  -12.720;  726.480
1090.589;   11.652;  -13.690;  569.920
1091.133;   13.017;  -10.020;  673.340
1091.676;   13.390;  -12.330;  591.940
1092.220;   12.752;  -14.970;  600.920
1092.764;   13.343;  -12.430;  706.960
1093.307;   13.061;   -9.800;  673.780
1093.851;   11.983;  -14.970;  556.540
1094.395;   13.275;  -15.310;  683.140
1094.938;   12.051;  -10.370;  632.520
1095.482;   12.588;  -11.050;  559.800
1096.025;   12.660;  -11.840;  710.880
1096.568;   13.358;  -12.840;  779.280
1097.112;   10.442;  -14.700;  508.180
1097.655;   12.457;   -8.720;  603.000
1098.198;   10.336;  -13.610;  600.180
1098.741;   11.172;  -13.350;  612.860
1099.285;   11.667;  -11.230;  657.300
1099.828;   10.212;  -11.840;  439.400
1100.371;   11.458;  -10.840;  608.160
1100.914;   11.231;  -14.190;  682.660
1101.457;   11.374;  -11.240;  679.900
1101.999;   10.406;  -11.270;  584.680
1102.542;   11.143;  -11.480;  641.440
1103.085;   10.192;  -11.750;  658.500
1103.628;   11.466;  -11.400;  762.060
1104.170;   10.023;  -10.490;  588.280
1104.713;   10.277;  -10.600;  646.700
1105.256;    9.884;  -14.360;  557.440
1105.798;    9.114;  -13.210;  499.980
1106.341;   10.855;  -10.270;  728.900
1106.883;   10.083;  -12.200;  521.340
1107.425;    9.626;  -13.110;  668.180
1107.968;    9.460;  -12.840;  612.380
1108.510;   10.666;   -6.480;  684.960
1109.052;    7.845;  -13.940;  612.620
1109.594;    8.274;  -13.690;  554.440
1110.136;    9.339;  -11.880;  643.220
1110.679;    8.731;   -9.500;  633.080
1111.221;    9.183;  -14.160;  604.460
1111.763;    8.765;  -13.980;  559.220
1112.304;    8.281;  -13.880;  547.140
1112.846;    8.103;  -12.210;  666.240
1113.388;   12.263;  -11.390;  942.180
1113.930;    9.279;  -14.540;  694.200
1114.472;    8.735;  -12.640;  606.540
1115.013;    7.277;  -11.620;  551.280
1115.555;    7.593;  -13.640;  587.100
1116.097;    6.585;  -15.380;  579.480
1116.638;    7.518;  -12.640;  684.600
1117.180;    8.347;   -9.850;  667.740
1117.721;    7.142;  -13.690;  568.580
1118.262;    8.181;  -12.680;  677.960
1118.804;    8.300;  -12.530;  637.340
1119.345;    6.997;  -11.690;  578.400
1119.886;    8.056;  -13.380;  704.040
1120.427;    6.948;  -14.070;  589.020
1120.969;    7.002;  -13.500;  597.920
1121.510;    6.151;  -11.480;  563.060
1122.051;    6.752;  -12.830;  723.580
1122.592;    5.859;  -14.290;  655.420
1123.133;    5.682;  -12.400;  547.940
1123.673;    7.451;  -10.130;  706.480
1124.214;    6.515;  -12.930;  612.460
1124.755;    7.253;  -14.380;  639.460
1125.296;    6.777;  -14.000;  627.320
1125.836;    7.457;  -10.070;  691.500
1126.377;    6.267;  -12.640;  599.660
1126.918;    6.723;  -12.960;  614.980
1127.458;    5.381;  -13.350;  622.220
1127.999;    6.679;  -10.750;  656.980
1128.539;    6.308;  -12.350;  694.240
1129.079;    5.373;  -14.860;  632.720
1129.620;    4.782;  -13.840;  558.100
1130.160;    4.814;  -12.330;  539.480
1130.700;    5.458;  -14.530;  640.840
1131.240;    5.676;  -12.530;  643.700
1131.781;    4.994;  -14.450;  619.680
1132.321;    5.187;   -9.790;  599.120
1132.861;    4.028;  -14.860;  564.200
1133.401;    3.818;  -14.290;  593.940
1133.941;    5.119;  -11.750;  626.280
1134.481;    4.324;   -9.920;  597.580
1135.020;    4.476;  -12.290;  609.160
1135.560;    5.036;  -11.650;  674.940
1136.100;    3.257;  -16.270;  501.160
1136.640;    3.166;  -10.890;  510.480
1137.179;    3.871;  -14.180;  537.960
1137.719;    4.245;  -16.250;  605.400
1138.258;    4.129;  -14.230;  587.360
1138.798;    4.357;   -9.090;  663.780
1139.337;    2.679;  -15.130;  482.840
1139.877;    3.977;  -13.680;  642.360
1140.416;    6.320;  -11.320;  878.060
1140.955;    3.127;  -10.860;  535.380
1141.494;    3.358;  -12.920;  669.280
1142.034;    3.017;  -13.930;  583.520
1142.573;    3.472;  -11.440;  646.280
1143.112;    2.507;  -12.000;  553.480
1143.651;    2.661;  -13.670;  536.480
1144.190;    3.424;  -12.730;  691.640
1144.729;    3.963;  -14.560;  607.420
1145.267;    3.427;  -11.830;  584.900
1145.806;    3.607;  -12.230;  637.040
1146.345;    2.589;  -14.130;  635.020
1146.884;    2.377;  -11.590;  622.500
1147.422;    2.582;  -12.550;  533.060
1147.961;    4.374;  -11.180;  708.460
1148.500;    3.311;  -11.510;  669.720
1149.038;    3.700;  -11.640;  632.500
1149.577;    3.451;  -10.130;  698.640
1150.115;    0.946;  -13.970;  452.280
1150.653;    3.035;  -14.520;  607.340
1151.192;    2.719;  -12.810;  552.920
1151.730;    2.313;   -9.100;  652.560
1152.268;    2.080;  -12.220;  589.520
1152.806;    1.777;  -14.140;  571.180
1153.344;    1.164;  -12.350;  577.640
1153.882;    2.276;   -8.980;  600.060
1154.421;    0.486;  -15.190;  470.620
1154.958;    0.590;  -15.210;  595.240
1155.496;    1.691;  -12.850;  645.280
1156.034;    1.721;   -9.940;  721.880
1156.572;    2.589;  -13.570;  667.060
1157.110;    1.461;  -14.590;  473.940
1157.647;    1.634;  -13.030;  676.960
1158.185;    0.931;  -12.140;  564.320
1158.723;   -0.157;  -14.390;  509.200
1159.260;    0.618;  -14.090;  701.700
1159.798;    1.724;  -11.920;  658.160
1160.335;    1.237;  -11.110;  631.820

