
Integration time [ms]:   3.882
Averaging Nr. [scans]: 1000
Smoothing Nr. [pixels]: 0
Data measured with spectrometer [name]: 7414430SP
Wave   ;Sample   ;Dark     ;Reference
[nm]   ;[counts] ;[counts] ;[counts] 

288.544;  140.575;    7.153;  793.890
289.143;  143.890;    8.402;  681.602
289.742;  144.444;    7.062;  828.814
290.341;  131.816;    0.191;  789.841
290.940;  123.030;    0.321;  730.702
291.538;  123.078;    3.811;  881.108
292.137;  121.609;   -3.438;  792.581
292.736;  124.376;   -2.809;  975.101
293.335;  122.570;   -5.239;  735.086
293.934;  123.200;   -4.939;  781.677
294.532;  122.681;   -2.199; 1031.958
295.131;  107.859;   -6.831;  834.394
295.730;  108.121;   -6.620;  809.588
296.328;  105.755;   -6.471;  783.442
296.927;  105.551;   -6.571;  779.652
297.525;  106.610;   -7.391;  781.236
298.124;   98.324;   -9.402;  654.009
298.722;  102.431;   -5.781;  761.933
299.321;   99.839;   -6.351;  708.597
299.919;   97.576;   -8.661;  751.918
300.518;   94.709;  -11.922;  689.338
301.116;   95.386;   -6.941;  691.381
301.715;   95.060;   -5.471;  730.222
302.313;   95.263;   -8.361;  704.943
302.911;   90.779;   -9.082;  733.830
303.509;   96.080;   -4.571;  925.627
304.108;   92.105;   -7.111;  760.383
304.706;   91.809;   -7.681;  801.664
305.304;   88.188;   -9.162;  796.707
305.902;   92.891;   -6.761;  784.484
306.500;   88.332;   -6.921;  728.200
307.098;   85.372;   -6.491;  746.560
307.696;   85.329;   -6.941;  780.432
308.294;   85.043;   -6.301;  731.359
308.892;   86.499;   -4.771;  759.769
309.490;   83.207;   -5.141;  712.161
310.088;   82.583;   -2.912;  788.444
310.686;   86.580;   -0.421;  821.749
311.284;   81.444;   -3.461;  766.040
311.882;   79.870;   -6.282;  731.225
312.480;   77.930;   -3.632;  697.167
313.078;   79.013;   -2.112;  808.331
313.675;   78.919;   -1.931;  691.600
314.273;   74.160;   -1.442;  797.837
314.871;   74.620;   -3.002;  589.829
315.468;   71.489;   -2.252;  652.090
316.066;   74.918;   -1.091;  694.427
316.664;   67.799;   -4.512;  656.351
317.261;   73.260;   -0.062;  910.128
317.859;   68.099;   -0.952;  768.735
318.456;   67.882;    0.719;  830.096
319.054;   63.358;   -4.002;  787.828
319.651;   64.474;   -4.972;  759.928
320.249;   62.108;   -1.162;  810.188
320.846;   60.044;   -2.651;  714.286
321.443;   58.225;   -3.832;  832.135
322.041;   56.362;   -4.312;  812.315
322.638;   53.274;   -3.872;  701.456
323.235;   54.825;   -4.361;  665.683
323.833;   51.872;   -4.821;  740.354
324.430;   47.799;   -6.971;  615.900
325.027;   49.290;   -4.361;  876.855
325.624;   49.438;   -5.581;  644.532
326.221;   46.827;   -6.601;  689.717
326.818;   46.048;   -7.301;  818.332
327.415;   48.053;   -6.180;  748.828
328.012;   46.744;   -5.920;  690.585
328.609;   45.332;   -8.390;  731.389
329.206;   44.848;   -6.121;  778.621
329.803;   43.791;   -5.241;  737.841
330.400;   45.394;   -7.420;  704.260
330.997;   46.409;   -5.931;  817.147
331.594;   45.000;   -5.641;  788.185
332.191;   50.835;   -6.451;  728.722
332.787;   52.818;   -4.651;  844.463
333.384;   50.647;   -5.472;  763.093
333.981;   49.254;   -6.303;  815.687
334.578;   52.522;   -5.892;  708.378
335.174;   53.873;   -4.102;  731.469
335.771;   53.007;   -8.053;  836.456
336.367;   50.647;   -7.363;  710.631
336.964;   55.306;   -6.243;  793.266
337.561;   52.802;   -5.653;  731.112
338.157;   48.440;   -7.074;  911.916
338.754;   46.865;   -5.474;  796.589
339.350;   45.263;   -5.624;  722.493
339.946;   47.163;   -5.054;  773.135
340.543;   39.551;   -6.695;  846.136
341.139;   34.399;   -6.215;  720.836
341.735;   32.113;   -5.746;  772.593
342.332;   30.269;   -7.335;  691.472
342.928;   31.553;   -4.835;  795.394
343.524;   26.489;   -4.586;  761.684
344.120;   22.652;   -3.946;  738.562
344.716;   25.164;   -4.835;  723.717
345.313;   23.362;   -5.325;  795.342
345.909;   19.724;   -6.535;  627.336
346.505;   20.208;   -4.725;  740.247
347.101;   21.136;   -4.164;  827.864
347.697;   22.498;   -5.274;  785.398
348.293;   16.496;   -7.145;  627.244
348.889;   16.946;   -4.364;  745.914
349.485;   16.474;   -6.404;  688.205
350.081;   17.495;   -7.534;  772.592
350.676;   13.027;   -6.995;  691.606
351.272;   17.019;   -3.544;  809.530
351.868;   16.729;   -5.324;  780.497
352.464;   14.226;   -7.204;  723.932
353.059;   11.442;   -6.894;  646.017
353.655;   14.298;   -3.754;  777.063
354.251;   14.640;   -6.143;  759.845
354.846;    9.084;   -9.464;  740.646
355.442;    7.937;   -7.555;  753.071
356.038;    8.855;   -5.474;  751.708
356.633;    8.353;   -5.914;  728.594
357.229;    7.284;   -8.944;  724.757
357.824;    6.528;   -6.794;  703.600
358.420;    4.715;   -5.754;  679.726
359.015;    4.963;   -5.664;  695.357
359.610;    6.121;   -8.004;  763.920
360.206;    0.894;   -8.815;  603.240
360.801;    3.586;   -8.834;  646.503
361.396;    5.225;   -6.274;  725.975
361.992;    0.314;   -8.574;  668.220
362.587;   -0.474;   -9.265;  670.160
363.182;    0.697;   -5.484;  689.631
363.777;    1.069;   -5.164;  738.242
364.372;    1.001;   -6.954;  737.314
364.967;   -2.558;   -7.065;  680.744
365.563;    1.851;   -5.684;  815.567
366.158;   -2.072;   -6.484;  685.161
366.753;   -1.045;   -8.004;  649.263
367.348;   -1.352;  -10.114;  746.056
367.942;   -2.364;   -7.764;  697.298
368.537;   -3.916;   -4.554;  754.245
369.132;   -3.203;   -7.664;  703.428
369.727;   -6.096;   -8.905;  638.079
370.322;   -5.409;   -4.945;  580.186
370.917;   -7.074;   -7.095;  710.646
371.511;   -2.651;   -6.574;  861.834
372.106;   -5.968;   -6.515;  776.964
372.701;   -9.836;   -8.225;  585.988
373.296;   -4.601;   -4.494;  863.135
373.890;   -8.616;   -7.965;  647.840
374.485;  -10.522;   -9.745;  691.199
375.079;   -6.681;   -5.554;  738.685
375.674;   -5.351;   -4.724;  812.970
376.268;  -10.583;   -8.365;  691.759
376.863;  -15.587;   -8.126;  580.327
377.457;   -8.294;   -6.045;  662.490
378.052;  -11.463;   -6.835;  764.884
378.646;  -12.041;   -9.375;  741.167
379.240;  -11.634;   -6.185;  721.176
379.835;  -12.115;   -6.135;  636.978
380.429;  -14.147;   -8.365;  562.557
381.023;  -13.754;   -7.935;  779.205
381.617;  -15.384;   -8.325;  680.106
382.212;  -12.774;   -7.405;  685.303
382.806;  -11.289;   -4.155;  760.690
383.400;  -15.223;   -8.945;  672.281
383.994;  -15.793;   -8.365;  664.870
384.588;  -11.671;   -7.824;  697.701
385.182;  -10.562;   -7.984;  726.624
385.776;  -13.042;  -10.404;  706.875
386.370;  -15.502;   -7.335;  681.968
386.964;  -14.026;   -7.485;  684.155
387.558;  -13.519;   -8.174;  598.360
388.152;  -16.900;  -10.415;  681.959
388.745;  -13.896;   -9.595;  814.707
389.339;  -12.648;   -6.454;  747.642
389.933;  -12.116;   -5.804;  695.370
390.527;  -12.672;   -6.854;  859.029
391.120;  -19.087;   -7.665;  595.318
391.714;  -16.420;   -7.245;  711.633
392.308;  -12.991;   -4.514;  780.253
392.901;  -16.949;   -7.935;  642.460
393.495;  -18.270;   -8.585;  595.414
394.089;  -16.125;   -5.245;  760.452
394.682;  -17.894;   -6.305;  697.188
395.275;  -17.505;   -9.335;  719.927
395.869;  -18.411;   -7.375;  667.314
396.462;  -17.236;   -7.055;  616.609
397.056;  -13.690;   -5.434;  776.621
397.649;  -17.542;   -9.525;  731.575
398.242;  -14.686;   -7.574;  712.645
398.836;  -14.221;   -5.134;  766.408
399.429;  -15.677;   -6.544;  631.041
400.022;  -18.669;   -9.215;  665.902
400.615;  -15.895;   -8.105;  805.609
401.208;  -14.201;   -7.614;  691.451
401.802;  -16.642;   -8.085;  699.329
402.395;  -18.388;   -9.575;  683.502
402.988;  -18.286;   -9.285;  696.627
403.581;  -15.554;   -7.514;  646.878
404.174;  -13.524;   -6.404;  686.568
404.767;  -16.081;   -8.775;  638.583
405.360;  -18.803;   -7.415;  621.445
405.953;  -12.872;   -5.624;  759.034
406.545;  -12.846;   -6.474;  725.342
407.138;  -17.495;   -8.445;  618.350
407.731;  -15.484;  -10.044;  613.303
408.324;  -11.871;   -8.484;  660.554
408.917;  -13.018;   -7.624;  681.864
409.509;  -14.868;   -8.304;  740.396
410.102;  -16.376;   -8.495;  643.948
410.695;  -10.626;   -7.824;  665.758
411.287;  -11.946;   -7.754;  599.821
411.880;  -12.799;   -9.294;  585.421
412.472;  -15.829;   -8.814;  613.092
413.065;  -12.449;   -6.674;  629.408
413.657;  -11.363;   -9.664;  576.678
414.250;  -10.765;  -10.264;  646.681
414.842;  -12.302;   -8.664;  676.353
415.434;  -10.797;   -8.584;  570.463
416.027;   -6.591;   -9.423;  652.196
416.619;   -8.214;  -10.764;  713.400
417.211;   -8.827;   -7.404;  599.352
417.804;   -5.050;   -7.383;  628.499
418.396;   -9.067;   -8.334;  607.643
418.988;   -6.996;   -9.633;  659.238
419.580;   -9.801;  -10.554;  568.276
420.172;   -8.740;   -8.683;  536.196
420.764;   -4.784;   -9.713;  672.482
421.356;   -5.272;  -11.303;  636.898
421.948;   -4.811;   -8.453;  677.661
422.540;   -0.841;   -5.793;  680.027
423.132;   -1.970;   -7.162;  600.641
423.724;   -6.243;   -7.933;  561.267
424.316;   -2.212;   -9.083;  621.345
424.908;    0.667;   -8.392;  591.517
425.500;    1.370;   -8.062;  647.978
426.092;    1.629;   -9.692;  648.268
426.683;    0.664;   -8.223;  684.836
427.275;    2.725;   -8.602;  641.471
427.867;    4.686;   -8.382;  668.948
428.458;    4.509;  -10.472;  732.344
429.050;    4.460;   -9.112;  680.749
429.642;    6.638;   -7.752;  743.124
430.233;    5.325;   -8.832;  569.356
430.825;    7.282;   -8.292;  724.809
431.416;    5.337;   -7.522;  698.241
432.008;    9.056;   -9.262;  651.723
432.599;    9.288;   -6.441;  656.073
433.190;    5.819;   -9.222;  637.670
433.782;    5.447;  -11.832;  590.395
434.373;   13.715;   -7.121;  884.765
434.964;   10.764;   -9.141;  602.920
435.556;    8.372;   -9.332;  634.537
436.147;   12.939;   -8.892;  758.490
436.738;   11.967;   -8.151;  701.099
437.329;   16.785;   -8.281;  721.723
437.920;   10.075;   -9.062;  666.688
438.511;   10.016;  -11.182;  564.526
439.103;   16.668;   -7.461;  623.998
439.694;   17.931;   -8.541;  681.583
440.285;   19.443;   -7.351;  764.432
440.876;   18.444;   -8.201;  845.738
441.466;   16.111;  -10.381;  575.162
442.057;   21.682;   -7.620;  665.814
442.648;   20.226;   -8.461;  746.255
443.239;   19.250;   -8.991;  620.477
443.830;   24.314;   -7.910;  704.958
444.421;   25.709;   -7.340;  655.474
445.011;   22.140;   -8.981;  693.619
445.602;   21.999;   -9.341;  743.126
446.193;   23.490;  -11.390;  488.117
446.783;   28.633;  -11.240;  640.397
447.374;   23.137;   -8.471;  692.759
447.964;   25.125;   -8.471;  713.770
448.555;   32.572;   -6.590;  822.742
449.145;   29.111;   -8.200;  662.853
449.736;   30.281;  -11.040;  803.179
450.326;   29.881;   -9.640;  713.626
450.917;   34.550;   -9.480;  675.324
451.507;   32.809;   -8.020;  600.661
452.097;   34.042;  -10.210;  746.267
452.688;   36.110;   -7.810;  742.160
453.278;   35.185;   -9.360;  566.840
453.868;   39.864;   -8.669;  793.550
454.458;   36.959;  -10.950;  651.141
455.048;   38.167;  -10.200;  711.783
455.639;   39.434;   -9.369;  567.096
456.229;   42.359;   -7.739;  710.694
456.819;   44.226;   -8.939;  751.158
457.409;   45.602;   -7.169;  773.993
457.999;   47.477;   -7.779;  737.505
458.589;   46.735;   -7.039;  686.606
459.179;   46.889;   -9.019;  717.658
459.769;   45.797;   -8.909;  627.099
460.358;   49.971;   -8.659;  797.262
460.948;   50.149;   -8.209;  689.503
461.538;   51.008;   -9.879;  660.677
462.128;   50.098;   -9.379;  664.934
462.717;   56.710;   -9.158;  710.326
463.307;   58.929;   -8.638;  705.846
463.897;   55.164;   -8.869;  656.942
464.486;   54.786;   -7.409;  837.128
465.076;   58.251;   -9.618;  733.776
465.666;   62.032;   -7.578;  652.900
466.255;   59.304;   -9.369;  785.651
466.845;   59.119;  -10.049;  666.749
467.434;   62.147;   -8.168;  725.873
468.023;   62.359;   -9.188;  658.357
468.613;   60.390;   -9.849;  713.946
469.202;   65.496;  -12.958;  646.507
469.791;   69.032;   -9.488;  737.811
470.381;   69.959;   -6.468;  742.813
470.970;   70.167;  -10.248;  711.099
471.559;   71.200;  -11.428;  733.291
472.148;   72.915;   -9.738;  675.737
472.738;   75.762;   -7.877;  765.466
473.327;   74.692;  -11.868;  637.529
473.916;   75.540;   -8.578;  737.446
474.505;   79.581;  -11.137;  751.703
475.094;   81.788;   -9.407;  806.570
475.683;   79.945;   -9.977;  797.699
476.272;   82.120;  -10.807;  730.632
476.861;   85.139;  -11.017;  706.754
477.449;   90.439;  -10.316;  728.487
478.038;   84.362;  -10.187;  692.513
478.627;   86.131;  -12.458;  714.852
479.216;   93.574;  -10.127;  769.441
479.805;   96.258;   -6.256;  783.375
480.393;   96.053;   -8.737; 1008.945
480.982;   94.516;   -9.087;  874.501
481.571;  100.923;   -7.806;  858.333
482.159;  100.391;  -10.596;  705.386
482.748;  100.069;  -11.507;  821.385
483.336;  105.392;   -8.366;  858.209
483.925;  106.292;   -7.497;  774.373
484.513;  111.570;   -8.326;  758.962
485.102;  107.697;  -10.277;  810.965
485.690;  117.632;   -8.256; 1011.050
486.278;  118.806;   -7.146;  979.329
486.867;  118.429;   -7.986;  809.662
487.455;  121.300;   -9.926;  898.229
488.043;  122.504;  -10.026;  748.361
488.631;  130.466;   -7.226; 1005.079
489.220;  133.969;   -8.696;  908.626
489.808;  132.229;  -12.276;  741.415
490.396;  140.765;   -9.386;  914.645
490.984;  145.744;   -8.506;  830.161
491.572;  155.040;   -8.226;  940.315
492.160;  159.617;   -9.836;  919.081
492.748;  169.928;  -10.316;  884.341
493.336;  188.777;   -7.146; 1019.693
493.924;  208.197;   -7.965;  958.077
494.512;  231.471;  -10.316; 1066.638
495.100;  263.121;  -10.186; 1103.280
495.687;  310.986;   -7.805; 1206.373
496.275;  368.199;   -9.686; 1150.796
496.863;  437.620;  -11.566; 1281.171
497.451;  528.289;  -11.406; 1386.805
498.038;  647.878;   -8.235; 1556.729
498.626;  751.695;   -7.485; 1741.407
499.214;  894.113;   -8.646; 2016.609
499.801; 1115.162;   -9.936; 2220.633
500.389; 1288.535;   -8.056; 2312.494
500.976; 1448.742;   -6.166; 2744.849
501.564; 1636.763;   -9.126; 3148.565
502.151; 1924.346;  -12.456; 3515.999
502.738; 2313.318;  -10.056; 3971.274
503.326; 2679.129;  -10.605; 4403.796
503.913; 2996.774;  -10.576; 5161.749
504.500; 3435.391;   -9.056; 5986.420
505.088; 3897.077;  -10.136; 6381.201
505.675; 4630.775;   -9.075; 6925.547
506.262; 5120.609;  -11.346; 7619.060
506.849; 5692.710;   -9.376; 8733.969
507.436; 6227.958;   -7.365; 9790.121
508.023; 6574.106;   -8.686; 9985.472
508.610; 6964.898;   -8.846;10434.618
509.197; 7858.455;   -9.077;11198.435
509.784; 8994.576;  -10.246;12391.194
510.371; 9444.396;   -9.825;13603.713
510.958;10212.872;  -10.896;14426.586
511.545;10936.828;   -9.006;15243.775
512.132;11703.610;   -8.765;15945.876
512.719;12702.823;   -8.286;16340.369
513.305;14594.945;   -9.256;18011.766
513.892;16660.805;  -11.106;19754.971
514.479;18146.547;   -8.576;20967.805
515.066;19163.072;   -9.046;22299.793
515.652;19786.590;  -10.676;22908.660
516.239;21393.672;  -10.166;23798.875
516.825;21892.635;  -11.266;25567.275
517.412;21619.363;   -7.446;28154.959
517.998;21963.104;  -10.916;28344.111
518.585;21405.900;   -9.166;27134.219
519.171;21325.395;  -10.135;27268.576
519.758;22870.033;   -8.806;28964.129
520.344;25513.727;   -6.716;30664.494
520.930;26860.273;  -10.166;32550.605
521.516;27376.662;   -9.615;35422.895
522.103;28734.383;   -8.656;38280.004
522.689;30962.547;   -9.646;37835.117
523.275;31699.854;  -10.786;37288.613
523.861;32707.832;   -9.266;37281.395
524.447;32563.379;   -8.285;37846.949
525.033;32603.988;   -9.426;38321.949
525.619;32091.475;   -9.836;38579.285
526.205;32965.238;   -8.136;40622.875
526.791;34232.867;   -9.986;42258.836
527.377;35693.605;   -8.236;42966.902
527.963;34174.430;  -12.117;42018.949
528.549;32807.973;   -8.376;42476.828
529.135;34267.527;   -8.696;41854.852
529.721;36121.590;   -9.686;41237.711
530.306;37991.484;   -8.616;41259.445
530.892;40596.785;   -9.396;41506.047
531.478;41410.500;   -9.926;43559.613
532.063;42954.078;  -10.236;47695.563
532.649;45106.473;   -8.257;50808.324
533.235;46498.617;  -11.476;51787.500
533.820;45209.133;   -8.156;52145.035
534.406;43588.246;  -12.257;51133.488
534.991;41963.055;   -8.686;49996.805
535.576;39880.430;   -9.426;48882.852
536.162;39532.973;   -8.436;46942.285
536.747;38272.648;  -10.957;45711.746
537.333;37992.617;  -13.147;48510.180
537.918;40759.004;   -9.027;50439.891
538.503;41664.680;   -8.256;50863.711
539.088;45309.012;  -10.576;50906.922
539.673;47455.289;  -10.907;52621.965
540.259;47368.355;   -9.126;52368.094
540.844;44392.234;   -9.026;50879.109
541.429;46172.906;   -9.597;52077.777
542.014;50125.695;  -11.447;52716.695
542.599;50761.930;   -9.236;52363.281
543.184;48959.203;  -12.267;53187.137
543.769;50347.715;  -10.367;54697.605
544.354;50485.234;  -10.887;53913.914
544.938;44192.152;  -11.687;49680.164
545.523;39554.734;   -8.286;47386.277
546.108;41032.078;   -9.317;49151.949
546.693;42980.102;  -10.187;51384.637
547.278;42205.590;   -9.926;51853.254
547.862;41840.711;   -9.196;51173.750
548.447;41244.969;   -9.657;51691.395
549.031;41653.348;   -9.127;52456.703
549.616;45146.703;  -10.836;52714.516
550.201;48336.461;   -8.507;52414.598
550.785;48621.832;  -10.537;52355.059
551.370;48610.242;  -11.727;54589.453
551.954;48935.961;   -9.457;58267.348
552.538;48170.594;   -8.147;59062.176
553.123;46715.270;   -9.397;58115.285
553.707;44528.641;   -9.558;56556.285
554.291;45225.219;   -9.417;56201.668
554.876;45224.945;   -7.627;55335.762
555.460;43390.930;  -10.457;54155.703
556.044;41735.922;  -10.078;53721.484
556.628;42481.301;   -9.407;53731.016
557.212;42543.801;   -7.957;54312.531
557.796;42593.422;  -11.327;53797.773
558.380;46915.422;  -10.868;56145.984
558.964;47432.879;   -9.637;57277.930
559.548;45580.535;   -8.807;56459.641
560.132;46115.902;  -10.187;54434.543
560.716;44993.465;   -9.868;54800.617
561.300;45832.707;  -10.217;57606.945
561.884;46845.402;   -4.947;58972.445
562.467;46456.832;   -9.588;57327.570
563.051;44877.262;  -11.138;54962.434
563.635;42926.117;   -9.358;52594.473
564.219;42440.063;   -9.797;50610.410
564.802;42544.285;   -9.918;49551.180
565.386;40278.273;  -10.838;48370.953
565.969;39330.211;   -8.037;48178.871
566.553;38685.863;   -5.667;49957.305
567.136;37356.859;   -8.258;50369.594
567.720;35725.379;  -11.278;49492.004
568.303;36692.281;   -9.028;50616.352
568.887;36340.742;   -7.508;50727.148
569.470;36485.500;  -11.068;51698.379
570.053;37703.285;  -10.028;52122.078
570.637;36981.875;  -11.077;52536.438
571.220;36658.059;   -8.747;51186.098
571.803;38292.668;   -8.868;51032.762
572.386;40395.504;  -10.608;49609.887
572.969;40318.539;  -10.548;48285.926
573.552;38328.867;   -7.898;47624.285
574.135;39495.484;   -9.918;45498.641
574.718;35837.523;  -10.328;41970.434
575.301;32964.734;   -9.548;41447.137
575.884;30091.947;   -8.768;40923.836
576.467;32898.344;   -9.858;45267.723
577.050;33325.051;  -11.018;48175.543
577.633;34539.207;  -10.048;47729.328
578.216;33851.242;  -10.268;47579.793
578.799;31288.330;  -11.808;47820.996
579.381;31377.617;   -7.338;48115.551
579.964;33950.180;   -9.728;47333.766
580.547;35145.094;   -8.928;46668.969
581.129;36229.766;   -9.149;44466.141
581.712;36392.879;  -11.359;44164.922
582.294;33901.949;  -10.738;46477.855
582.877;32839.105;   -8.788;48244.254
583.459;33747.219;   -9.859;47437.895
584.042;36097.504;   -9.649;46943.219
584.624;35610.875;  -10.529;46792.227
585.206;34296.461;  -10.298;46557.250
585.789;34098.012;  -11.029;45793.773
586.371;32330.186;   -9.359;43836.391
586.953;31145.164;   -8.799;42972.492
587.536;30506.582;   -8.928;42487.211
588.118;30610.086;   -9.180;42086.414
588.700;30189.650;  -10.519;43389.930
589.282;29211.361;   -8.098;43646.039
589.864;29219.273;   -8.139;43438.109
590.446;31161.316;  -10.509;43151.926
591.028;31744.336;  -11.119;42781.867
591.610;33111.727;  -10.019;42839.098
592.192;32938.285;   -8.838;42820.402
592.774;29931.967;  -11.549;40724.277
593.356;26985.412;  -11.609;39874.789
593.937;26058.355;  -10.019;39980.648
594.519;28380.295;   -7.839;42069.633
595.101;30975.045;  -10.779;42976.031
595.683;31999.482;  -10.049;44084.441
596.264;31513.063;   -9.969;43478.797
596.846;31055.164;   -9.699;43803.672
597.427;29643.930;  -10.970;42986.934
598.009;28364.148;  -13.090;42832.219
598.591;26845.965;   -9.509;42580.086
599.172;26328.256;   -9.019;43061.805
599.753;26887.643;  -13.310;41691.469
600.335;28781.604;  -11.010;40692.520
600.916;29847.813;  -10.309;39982.422
601.498;29670.172;   -8.209;40318.617
602.079;29422.621;  -11.440;40670.609
602.660;31176.297;   -8.690;41450.898
603.241;32414.230;  -12.759;41137.738
603.823;31190.203;  -10.409;38868.797
604.404;30802.572;  -11.790;38182.785
604.985;32789.691;  -10.280;38078.047
605.566;34032.398;   -8.059;38056.633
606.147;31169.688;   -8.960;37020.418
606.728;28945.998;  -10.710;37883.359
607.309;28356.814;  -12.760;38748.273
607.890;27179.004;   -9.959;38850.230
608.471;27515.557;   -9.780;37457.918
609.051;29239.682;   -8.940;36066.457
609.632;30159.043;  -12.070;35991.074
610.213;29796.148;   -9.610;37402.641
610.794;29571.320;   -8.750;38383.363
611.374;30268.432;  -11.100;40562.387
611.955;30878.738;  -12.200;38533.727
612.536;30936.787;  -10.410;36951.789
613.116;29759.932;  -10.010;37197.891
613.697;28185.408;  -10.480;38411.125
614.277;28216.547;  -12.751;38673.938
614.858;27505.449;  -11.600;37075.863
615.438;27707.865;   -8.190;35092.906
616.019;26583.219;   -8.941;33666.301
616.599;28668.025;  -13.540;34189.023
617.179;31281.549;  -10.890;36952.047
617.760;30205.352;   -7.610;39582.574
618.340;28252.293;  -14.441;38943.977
618.920;27995.547;   -9.180;37594.156
619.500;30430.795;  -11.881;37866.938
620.080;32093.125;   -9.870;37869.043
620.660;30975.537;  -13.211;36868.617
621.241;29829.277;  -11.921;36352.309
621.821;29232.150;  -10.271;35459.520
622.401;30029.557;   -8.200;35207.414
622.980;31460.016;  -11.141;35980.422
623.560;30872.209;  -14.321;37351.328
624.140;29340.762;   -9.360;34388.582
624.720;25301.787;   -7.481;32368.764
625.300;23123.680;  -12.730;32638.629
625.880;26939.006;  -11.441;34599.035
626.459;30522.684;  -10.971;36831.738
627.039;34026.508;   -9.011;38299.098
627.619;34242.020;   -8.521;38289.574
628.198;32401.238;   -9.861;37220.695
628.778;31194.666;   -8.841;37632.563
629.357;31378.896;   -9.891;38003.012
629.937;31493.746;  -11.871;38402.039
630.516;31322.877;  -10.641;37868.801
631.096;33552.750;  -11.391;35760.410
631.675;34883.094;   -6.622;35225.219
632.254;32001.055;  -13.002;35130.289
632.834;30997.965;  -11.622;35794.570
633.413;32086.623;   -8.321;35788.922
633.992;30391.607;   -7.732;34532.863
634.571;30320.777;  -10.992;33590.113
635.151;29679.715;  -10.422;34943.863
635.730;30241.533;  -11.511;35352.523
636.309;30060.109;   -7.901;35366.605
636.888;29181.490;  -11.452;36165.637
637.467;28418.105;  -10.672;37515.902
638.046;29262.779;   -9.301;39288.695
638.625;30801.277;  -11.452;38279.699
639.204;31480.744;  -12.262;37741.598
639.782;31818.045;  -11.892;38364.551
640.361;30218.367;  -11.411;36740.621
640.940;25538.668;  -11.501;34950.082
641.519;28037.678;  -10.921;34137.398
642.097;31598.637;  -10.101;35654.258
642.676;29959.908;  -10.821;35637.957
643.255;31173.803;   -8.631;36567.074
643.833;33663.949;  -11.411;37809.434
644.412;36244.656;  -12.021;37337.293
644.990;36411.609;  -12.271;37018.531
645.569;35158.375;   -9.741;36518.469
646.147;32730.822;   -9.051;36186.430
646.726;32694.299;  -13.861;36267.688
647.304;32704.807;   -9.461;36647.625
647.882;32574.016;  -13.171;39286.742
648.461;33010.773;  -11.911;39157.703
649.039;31830.877;   -9.541;35412.883
649.617;31176.787;   -8.901;34744.918
650.195;28994.600;   -8.591;35403.098
650.773;28368.738;  -13.031;35053.797
651.352;27675.619;  -12.211;33756.816
651.930;25487.807;  -11.361;31868.773
652.508;22473.885;   -8.601;33121.551
653.086;25243.646;   -9.991;33564.793
653.663;29584.920;  -11.931;34054.668
654.241;32128.691;  -10.821;35693.309
654.819;33554.746;   -9.341;36422.906
655.397;31266.992;  -10.851;38213.484
655.975;30148.006;  -11.461;39507.625
656.553;30159.012;   -8.841;39498.223
657.130;29420.338;  -10.371;40395.480
657.708;30164.982;  -11.071;39242.020
658.286;29725.070;  -11.141;38920.020
658.863;30792.094;  -10.861;40202.898
659.441;34824.973;  -11.181;39677.938
660.018;34924.105;  -10.851;40413.355
660.596;34553.395;  -12.571;39931.414
661.173;35025.164;  -12.141;39604.531
661.750;35013.375;  -11.571;39700.070
662.328;32186.781;  -10.780;39292.809
662.905;29545.814;  -10.750;38235.648
663.482;26763.887;  -11.320;36212.305
664.060;26104.881;  -10.160;35944.945
664.637;30689.566;  -13.120;35170.785
665.214;32570.818;  -11.500;34197.523
665.791;30923.518;  -12.430;34549.520
666.368;28719.063;   -9.840;35118.578
666.945;28049.086;  -11.290;36019.418
667.522;28640.260;  -13.540;36048.438
668.099;29084.465;  -10.250;36243.914
668.676;27791.248;  -11.270;35958.875
669.253;26720.238;   -8.210;37384.730
669.830;26158.137;   -9.710;36779.629
670.407;25787.268;   -9.700;35231.289
670.984;26570.639;   -9.190;35544.270
671.560;25983.078;   -9.560;35466.867
672.137;25787.588;  -11.820;34280.863
672.714;28584.418;  -12.460;34632.863
673.290;32590.049;  -10.940;35135.422
673.867;32680.199;  -10.510;36114.480
674.443;29676.131;  -12.110;36152.859
675.020;31154.783;  -11.760;35327.238
675.596;32196.328;   -9.380;35795.176
676.173;31096.713;  -11.120;35430.355
676.749;29780.188;  -13.390;33549.516
677.326;28913.205;  -12.600;32210.012
677.902;27842.834;  -10.830;32068.871
678.478;28064.277;  -12.400;32583.891
679.054;29870.148;   -8.610;32088.928
679.631;29744.582;  -11.640;30978.848
680.207;29680.928;   -8.140;33160.887
680.783;30620.479;  -12.300;35570.363
681.359;29761.924;  -10.910;36125.184
681.935;30183.596;  -11.040;35240.922
682.511;30551.818;  -11.130;34429.961
683.087;30666.850;  -11.080;34463.680
683.663;33034.926;  -10.530;34648.898
684.239;32728.168;  -12.120;34546.457
684.815;30139.395;   -8.870;35586.375
685.390;29422.168;   -8.940;35821.895
685.966;29384.480;  -12.109;35085.871
686.542;28292.270;  -13.539;34198.230
687.118;28079.113;  -10.379;32847.707
687.693;28260.096;  -10.189;32794.027
688.269;26912.080;  -12.939;33072.367
688.844;26099.676;   -8.679;33141.664
689.420;27148.684;  -10.919;33965.742
689.995;27635.221;   -7.489;34655.523
690.571;27304.266;  -12.199;33576.742
691.146;27670.455;   -8.979;32657.219
691.722;29026.395;   -9.119;32526.979
692.297;27095.561;  -10.519;33014.617
692.872;26549.773;  -10.629;34012.254
693.448;27219.396;  -12.119;34237.434
694.023;27707.143;   -8.219;34142.672
694.598;25811.207;  -13.209;34132.031
695.173;25179.984;  -11.879;34205.250
695.748;25819.275;  -12.039;32882.488
696.323;25554.160;  -11.779;32864.906
696.898;26463.148;  -10.219;33170.004
697.473;27587.340;  -13.639;32432.984
698.048;27953.752;  -11.239;31649.303
698.623;29882.994;  -10.859;30778.141
699.198;31455.010;  -13.379;31140.119
699.773;32405.371;  -13.409;31764.299
700.348;33254.586;  -12.329;31780.816
700.922;33675.801;   -8.749;32046.375
701.497;33726.383;  -12.449;32603.574
702.072;32115.320;   -8.879;34799.871
702.646;29713.580;  -10.719;35793.172
703.221;28446.473;   -8.469;35201.590
703.795;28426.955;  -11.389;34764.527
704.370;28425.057;  -12.499;34307.367
704.944;28406.180;  -11.449;33509.887
705.519;27655.867;  -10.659;31388.584
706.093;27053.307;  -12.909;31340.104
706.668;27574.377;  -13.509;32630.281
707.242;26901.006;  -10.049;32728.779
707.816;24615.596;  -10.629;32947.238
708.390;24216.533;  -11.829;33277.855
708.965;24874.209;  -11.159;33834.336
709.539;25630.361;  -11.069;33709.273
710.113;24822.523;  -10.908;33044.313
710.687;23306.293;   -9.488;31953.992
711.261;23647.756;  -13.068;30505.949
711.835;26550.658;  -12.748;30262.369
712.409;27158.896;  -10.678;31254.447
712.983;25941.357;  -11.658;32754.986
713.557;26477.861;  -13.718;34018.824
714.131;26980.520;  -13.388;34579.625
714.704;27571.537;   -9.818;33890.262
715.278;28500.557;  -11.818;33531.102
715.852;29584.520;  -11.328;33601.660
716.425;30064.186;   -9.118;33515.117
716.999;30130.102;  -10.188;33185.555
717.573;30166.725;   -9.808;33905.996
718.146;32638.379;  -11.478;35199.293
718.720;32595.486;  -10.998;35060.551
719.293;30910.633;   -9.508;34973.230
719.867;30464.057;  -12.138;36394.449
720.440;29362.404;  -11.288;36663.008
721.013;32150.227;  -11.428;35102.426
721.587;33671.145;  -11.698;33985.266
722.160;34421.977;  -11.608;33524.965
722.733;32823.754;  -11.428;32987.043
723.306;31576.369;  -12.518;33066.301
723.880;31525.629;   -7.408;33399.500
724.453;30474.188;  -11.048;33468.297
725.026;29124.465;  -11.678;33816.637
725.599;27941.875;  -10.978;32797.996
726.172;27143.605;   -8.838;33187.434
726.745;28146.576;  -11.438;35136.613
727.318;28914.193;   -9.828;35751.730
727.891;27398.293;  -10.868;35890.430
728.463;25514.943;  -11.348;34822.090
729.036;24013.096;  -11.608;32895.086
729.609;24035.697;  -14.738;31823.225
730.182;25281.541;   -8.448;31445.283
730.754;26434.055;  -11.228;32373.223
731.327;26721.975;  -12.018;33676.820
731.900;28451.492;  -13.748;33417.000
732.472;28323.199;  -10.928;31978.498
733.045;26666.699;   -9.478;30368.777
733.617;25086.213;  -12.967;30574.215
734.190;24220.975;  -11.707;31280.975
734.762;23218.539;  -11.067;31674.412
735.334;22741.299;  -10.587;31247.291
735.907;21795.732;  -11.947;29876.211
736.479;22386.344;  -11.667;29808.488
737.051;25089.242;  -10.187;30233.547
737.623;27683.111;   -6.887;31469.086
738.195;30788.559;  -12.117;31784.225
738.768;32437.510;  -14.077;32120.523
739.340;31260.266;  -12.207;32094.342
739.912;27741.943;   -8.977;31312.680
740.484;25871.566;  -11.017;31946.238
741.056;26776.746;  -13.517;32984.059
741.628;28666.301;  -11.507;33897.715
742.199;28897.980;   -7.597;33213.016
742.771;29613.160;  -12.227;31369.113
743.343;29014.787;  -12.427;31865.473
743.915;27409.762;   -9.827;32388.631
744.487;26403.797;  -10.007;31079.568
745.058;24764.738;  -11.887;30570.107
745.630;24037.592;  -10.787;29970.127
746.201;23440.002;  -10.887;29186.766
746.773;23457.314;   -9.707;28805.723
747.344;24179.693;  -11.137;29591.223
747.916;24509.682;  -11.887;31412.201
748.487;24148.945;   -9.707;32194.898
749.059;23505.346;  -10.027;32533.719
749.630;23207.240;  -11.787;32158.518
750.201;22233.381;  -12.767;30855.395
750.773;22017.645;  -11.497;28622.555
751.344;22675.988;   -9.937;28405.732
751.915;23123.646;  -11.567;28461.551
752.486;22652.314;  -13.267;27842.850
753.057;20687.928;  -10.627;27845.008
753.628;19326.959;  -11.657;27728.107
754.199;21491.461;  -12.097;27381.086
754.770;22797.877;  -11.447;25882.203
755.341;22708.035;  -11.997;25886.184
755.912;20716.080;  -10.207;26050.861
756.483;19008.775;  -10.937;26798.779
757.054;18820.074;  -11.527;27048.238
757.625;19112.418;  -12.886;26294.838
758.195;19579.254;  -11.226;26142.076
758.766;19620.301;  -12.366;26392.234
759.337;18541.131;  -11.946;26334.594
759.907;18653.668;  -13.856;27579.652
760.478;19446.068;   -9.606;28352.770
761.048;19406.404;  -11.606;27325.088
761.619;19657.486;  -11.036;26460.428
762.189;19148.639;  -12.206;26029.826
762.760;20587.600;   -9.666;26430.145
763.330;21387.086;   -9.796;26670.902
763.900;19347.383;  -10.896;26603.021
764.471;17732.971;  -11.726;25542.740
765.041;18188.689;   -9.656;24358.459
765.611;19055.514;  -11.276;23991.297
766.181;18776.289;  -12.116;24470.236
766.751;18207.652;  -12.376;24845.975
767.321;18223.646;  -11.626;24533.633
767.891;18531.449;  -10.426;24916.492
768.461;17445.314;  -13.456;24776.771
769.031;15508.223;  -11.616;24757.988
769.601;15333.041;  -11.356;24181.088
770.171;15592.967;  -11.586;23670.387
770.741;15986.464;  -12.696;22960.045
771.311;15975.564;  -10.226;22917.523
771.880;15697.604;  -11.146;23562.941
772.450;16382.519;  -11.716;24216.500
773.020;16653.895;  -13.226;24140.398
773.589;16429.615;  -12.586;24414.857
774.159;16149.849;  -10.246;23858.717
774.729;15615.584;  -11.586;22942.135
775.298;14744.763;  -15.926;22324.033
775.867;14853.736;  -10.426;21140.313
776.437;14753.525;  -11.416;20838.092
777.006;13381.506;  -12.766;20599.510
777.576;13474.352;  -13.666;20508.809
778.145;13851.704;  -10.066;20732.947
778.714;13433.753;  -10.276;21062.465
779.283;13846.404;  -12.086;20949.664
779.853;15351.156;  -14.016;20508.623
780.422;15799.017;  -12.376;20649.082
780.991;14630.123;   -9.246;21527.520
781.560;13626.686;   -9.775;22632.658
782.129;13338.014;  -12.495;23048.277
782.698;13075.431;  -11.775;23438.555
783.267;13361.687;  -10.065;23267.734
783.836;13928.301;  -12.455;22415.133
784.404;14708.478;  -13.385;20443.152
784.973;15582.805;  -11.045;19699.150
785.542;15210.965;   -9.505;19763.828
786.111;14070.230;   -9.385;20341.408
786.679;13798.546;  -13.475;20207.967
787.248;13864.429;  -11.245;19516.465
787.817;12107.334;  -12.485;18900.363
788.385;10468.129;  -11.165;17879.121
788.954;11110.245;  -11.755;17658.301
789.522;11868.342;   -9.625;17788.879
790.090;11559.229;   -9.665;18118.277
790.659;11115.195;   -9.295;18338.736
791.227;12085.313;  -12.175;18508.615
791.795;13367.593;  -12.145;17898.254
792.364;13136.442;  -11.575;17295.133
792.932;11881.354;  -11.085;16822.051
793.500;10899.199;  -11.345;17040.148
794.068;10967.409;  -12.565;17179.787
794.636;12076.104;  -12.105;16664.246
795.204;12556.170;  -11.995;16524.545
795.772;11907.736;  -12.615;17274.564
796.340;11475.123;  -12.425;17891.002
796.908;11232.115;  -11.455;17648.561
797.476;10588.284;  -12.165;17064.080
798.044;10268.344;  -15.795;16672.777
798.612;10517.099;  -10.985;17023.996
799.180;11290.196;  -12.055;16561.615
799.747;11581.380;  -12.525;15962.773
800.315;10402.779;  -14.765;15296.992
800.883; 9185.779;  -12.435;14801.771
801.450; 9078.207;  -11.295;14534.430
802.018; 9563.031;  -11.185;14173.248
802.585; 9506.607;  -11.625;14029.547
803.153; 8477.247;  -10.665;13836.846
803.720; 8022.068;  -10.275;13567.324
804.287; 7901.537;  -12.865;13360.622
804.855; 8151.163;  -12.324;13681.981
805.422; 8482.911;  -11.574;13536.560
805.989; 8293.161;  -11.004;13355.958
806.556; 8461.222;  -12.214;13747.896
807.124; 8881.103;  -13.304;13987.376
807.691; 8579.784;  -12.034;14038.674
808.258; 7884.040;  -11.014;14120.152
808.825; 7732.582;  -11.804;13860.111
809.392; 7656.249;  -11.544;13268.790
809.959; 7532.106;  -14.954;12680.389
810.526; 7851.257;  -10.214;12427.308
811.093; 8372.930;  -10.754;12030.105
811.659; 8079.013;  -12.194;11653.664
812.226; 6928.658;   -9.194;11637.183
812.793; 6600.229;   -9.644;11611.521
813.360; 7415.262;  -11.544;11885.181
813.926; 8247.136;  -12.814;12770.539
814.493; 8172.552;  -11.524;12677.638
815.060; 7856.174;  -12.254;11974.336
815.626; 7405.609;  -12.114;11594.715
816.193; 7112.023;  -11.994;11579.474
816.759; 7011.814;  -11.464;11666.972
817.325; 6676.799;  -10.444;11325.530
817.892; 6329.985;  -11.124;11105.369
818.458; 6181.120;  -11.864;10843.928
819.024; 6471.375;  -10.634;10714.406
819.591; 6581.324;  -10.554;10469.165
820.157; 6821.856;  -13.334;10235.523
820.723; 7100.560;  -13.044;10847.563
821.289; 7279.319;   -9.664;11040.980
821.855; 7474.591;  -10.994;10357.100
822.421; 7485.931;  -11.784; 9978.918
822.987; 7443.230;  -12.554; 9754.177
823.553; 7824.235;  -12.554;10065.755
824.119; 7672.396;   -8.544;10036.294
824.685; 6747.723;  -12.144;10029.192
825.251; 6172.340;  -12.754;10199.230
825.816; 5708.307;  -11.354; 9820.189
826.382; 5410.278;  -11.004; 9297.248
826.948; 5413.348;  -11.004; 9381.347
827.513; 5297.006;  -12.474; 9450.726
828.079; 5295.145;  -13.084; 9472.444
828.645; 5490.529;  -10.813; 9292.643
829.210; 5291.026;  -11.593; 9065.341
829.776; 5211.491;  -12.633; 9132.620
830.341; 5194.618;  -10.473; 9092.878
830.906; 4988.694;   -8.763; 9078.557
831.472; 4735.709;  -13.453; 8534.535
832.037; 4160.448;  -12.173; 8677.874
832.602; 3943.179;  -14.093; 8628.692
833.167; 4192.784;  -13.593; 8879.031
833.733; 4710.727;  -10.793; 9189.790
834.298; 5085.736;  -14.783; 9052.608
834.863; 4696.754;  -11.023; 8895.087
835.428; 4480.830;  -11.113; 8824.266
835.993; 4944.425;   -9.983; 8845.385
836.558; 5197.952;  -13.003; 8888.563
837.123; 5002.732;  -10.733; 8966.582
837.688; 4606.008;   -9.683; 8617.860
838.253; 4431.394;  -12.253; 8590.699
838.817; 4425.331;  -11.643; 8443.797
839.382; 4374.587;  -11.953; 8799.356
839.947; 4469.671;  -11.443; 8810.595
840.511; 4840.521;  -10.843; 8796.394
841.076; 5078.274;  -13.533; 8347.231
841.641; 4834.482;  -11.743; 8224.330
842.205; 4251.296;  -10.013; 8223.349
842.770; 3927.102;  -11.023; 8622.107
843.334; 4034.984;  -14.273; 8410.386
843.898; 4446.104;  -11.323; 8337.465
844.463; 4837.835;  -10.263; 8506.283
845.027; 5024.763;  -10.353; 8280.962
845.591; 4971.952;  -12.163; 8231.141
846.156; 4824.060;  -12.263; 7969.179
846.720; 4796.044;  -11.553; 7768.278
847.284; 4570.263;  -12.393; 7630.957
847.848; 3780.904;  -12.623; 7472.395
848.412; 3199.740;  -11.863; 7437.394
848.976; 3143.459;  -10.203; 7674.592
849.540; 3353.728;  -10.603; 7836.011
850.104; 3556.994;  -12.423; 7913.669
850.668; 3565.515;  -14.613; 7694.508
851.232; 3586.147;  -12.873; 7756.887
851.796; 3819.356;  -14.192; 7926.545
852.359; 4007.931;  -13.652; 7827.844
852.923; 3925.260;  -11.402; 7641.163
853.487; 3602.838;  -12.022; 7342.501
854.050; 3433.683;  -15.202; 7042.820
854.614; 3455.607;  -14.592; 7151.338
855.177; 3454.151;  -12.572; 7105.077
855.741; 3478.982;   -9.932; 6989.675
856.304; 3411.780;  -12.192; 6596.634
856.868; 3284.480;  -13.462; 6356.272
857.431; 3274.535;  -11.542; 6468.571
857.995; 3349.294;  -12.062; 6373.210
858.558; 3164.376;  -11.142; 6324.448
859.121; 3041.992;  -11.742; 6408.327
859.684; 3103.965;  -10.332; 6347.886
860.247; 3208.561;  -11.962; 6321.264
860.810; 3261.449;  -12.332; 6301.903
861.374; 3127.689;  -10.292; 6607.881
861.937; 2936.707;  -12.062; 6408.200
862.500; 2949.488;  -11.702; 6572.639
863.062; 3093.587;  -13.852; 6387.297
863.625; 3163.469;  -12.972; 6190.836
864.188; 3125.119;  -10.292; 5807.254
864.751; 3071.071;  -12.382; 5682.413
865.314; 2871.383;  -13.232; 5547.492
865.876; 2554.295;  -12.772; 5500.150
866.439; 2296.887;  -11.952; 5415.909
867.002; 2351.063;   -9.332; 5501.567
867.564; 2679.331;  -11.712; 5413.946
868.127; 2839.875;  -12.012; 5160.325
868.689; 2501.949;  -11.882; 5133.183
869.252; 2150.072;  -11.572; 5252.382
869.814; 2059.777;  -10.692; 5297.141
870.377; 2129.130;  -12.392; 5390.919
870.939; 2207.491;  -10.582; 5599.898
871.501; 2253.874;  -12.782; 5248.336
872.063; 2285.613;  -15.612; 4854.235
872.626; 2346.578;  -13.922; 4817.074
873.188; 2324.167;  -13.832; 4987.732
873.750; 2264.572;  -10.962; 4868.651
874.312; 2311.099;  -11.022; 4779.330
874.874; 2352.863;  -13.152; 4866.348
875.436; 2270.097;  -13.401; 4718.887
875.998; 2159.034;   -8.891; 4660.005
876.560; 2077.871;  -12.591; 4462.964
877.122; 2026.581;  -14.531; 4145.042
877.683; 1984.534;  -10.781; 4056.481
878.245; 1878.768;  -14.281; 3950.740
878.807; 1811.411;  -10.311; 4058.958
879.369; 1756.532;  -13.201; 3954.677
879.930; 1712.878;  -12.061; 3941.495
880.492; 1707.873;   -9.181; 4067.014
881.053; 1728.030;  -12.051; 3859.633
881.615; 1690.589;  -11.501; 3776.071
882.176; 1587.041;  -12.221; 3734.750
882.738; 1472.969;   -8.931; 3678.489
883.299; 1404.486;  -13.571; 3405.407
883.860; 1418.284;  -12.331; 3351.106
884.422; 1364.389;  -10.201; 3394.044
884.983; 1226.596;  -12.521; 3166.443
885.544; 1100.314;  -12.291; 3189.802
886.105; 1042.793;  -12.991; 3160.360
886.666; 1032.874;  -12.901; 3093.059
887.227; 1021.812;  -12.061; 2941.957
887.788;  989.046;  -11.641; 2974.836
888.349;  938.602;  -14.691; 2721.214
888.910;  894.044;   -9.681; 2696.493
889.471;  890.213;   -9.971; 2560.172
890.032;  904.593;  -13.151; 2558.190
890.593;  884.637;  -12.051; 2567.669
891.153;  838.943;  -12.841; 2460.307
891.714;  802.240;  -13.561; 2372.046
892.275;  769.088;  -12.401; 2309.505
892.835;  730.365;  -13.191; 2382.543
893.396;  693.426;  -12.551; 2295.502
893.956;  673.601;  -11.981; 2162.420
894.517;  655.213;  -12.221; 2125.439
895.077;  616.851;  -12.021; 2086.978
895.638;  555.412;  -10.891; 2126.316
896.198;  497.070;  -13.171; 1838.275
896.758;  459.152;  -11.891; 1892.813
897.319;  434.307;  -12.491; 1792.232
897.879;  419.643;  -12.401; 1762.751
898.439;  389.884;  -13.431; 1661.149
898.999;  372.033;  -11.340; 1781.468
899.559;  363.650;  -13.930; 1703.347
900.119;  344.445;  -13.730; 1537.525
900.679;  324.669;   -9.210; 1638.384
901.239;  307.022;  -10.860; 1527.902
901.799;  289.055;  -11.450; 1456.441
902.359;  270.968;  -13.800; 1357.140
902.919;  264.487;  -12.130; 1331.118
903.479;  264.847;  -12.650; 1317.257
904.038;  259.926;  -16.110; 1262.595
904.598;  246.171;  -13.690; 1152.034
905.158;  233.597;  -10.290; 1240.893
905.717;  225.557;  -10.670; 1233.691
906.277;  224.845;  -14.040; 1217.330
906.836;  225.685;  -13.510; 1222.408
907.396;  219.949;  -11.530; 1193.047
907.955;  207.857;  -13.190; 1182.526
908.515;  196.204;  -12.950; 1099.364
909.074;  187.439;  -12.390; 1092.863
909.633;  183.709;  -10.340; 1069.121
910.192;  180.632;  -11.170; 1196.460
910.752;  175.440;  -14.200; 1029.960
911.311;  171.288;  -13.810; 1009.780
911.870;  167.737;  -12.750;  971.460
912.429;  165.985;  -12.380; 1094.080
912.988;  163.815;  -11.930; 1081.060
913.547;  158.086;  -10.990;  940.380
914.106;  153.893;  -11.200;  999.420
914.665;  152.173;  -13.150;  984.020
915.224;  151.261;  -13.310; 1035.760
915.782;  149.890;  -13.340;  922.560
916.341;  148.850;  -10.710; 1049.840
916.900;  145.463;  -12.980;  925.260
917.458;  143.306;  -13.060;  884.220
918.017;  142.864;  -10.900;  942.600
918.576;  141.846;  -11.630;  904.440
919.134;  141.912;  -12.860;  837.980
919.693;  141.562;  -15.160;  893.060
920.251;  141.800;  -13.470;  876.500
920.809;  140.748;  -13.700;  839.580
921.368;  141.156;  -13.420;  885.360
921.926;  141.847;  -14.710;  842.940
922.484;  141.782;  -12.560;  903.360
923.042;  141.083;  -11.930;  880.340
923.601;  141.018;  -10.270;  998.680
924.159;  140.066;  -12.960;  935.560
924.717;  140.168;  -13.040;  841.080
925.275;  142.178;  -12.560;  903.240
925.833;  142.288;  -13.040;  779.320
926.391;  144.431;  -13.360;  938.380
926.949;  143.927;  -13.940;  857.680
927.506;  144.568;   -9.400;  903.500
928.064;  143.516;  -10.940;  877.580
928.622;  143.366;  -13.180;  880.100
929.180;  143.611;  -12.730;  814.180
929.737;  144.785;  -12.840;  808.540
930.295;  147.643;  -11.810;  928.480
930.853;  152.348;  -13.650;  849.100
931.410;  154.703;  -13.580;  821.120
931.968;  155.993;  -12.020;  940.660
932.525;  156.433;  -13.320;  909.380
933.082;  158.265;  -13.800;  811.440
933.640;  164.213;  -11.380;  925.900
934.197;  165.526;  -11.480;  886.360
934.754;  169.667;  -13.220;  897.780
935.312;  169.530;  -14.950;  863.340
935.869;  166.110;  -10.940; 1012.980
936.426;  160.855;  -12.100;  872.800
936.983;  161.288;  -12.930;  889.020
937.540;  162.771;  -14.250;  838.280
938.097;  168.293;  -12.600;  940.120
938.654;  172.900;  -11.260;  898.860
939.211;  177.384;  -13.020;  952.480
939.768;  179.829;  -15.760;  915.420
940.324;  181.656;  -13.920;  904.200
940.881;  177.536;  -11.620;  878.500
941.438;  173.026;   -9.870; 1021.200
941.995;  171.304;  -13.920;  992.560
942.551;  169.606;  -12.830;  875.620
943.108;  171.816;  -11.980;  937.920
943.664;  175.089;  -13.740;  869.340
944.221;  181.019;  -12.670; 1088.140
944.777;  179.138;  -13.250;  869.680
945.334;  178.391;  -13.000;  884.840
945.890;  179.079;  -13.020;  946.480
946.446;  180.806;  -13.880;  947.020
947.003;  183.731;  -12.660;  964.940
947.559;  184.520;   -8.730; 1063.040
948.115;  181.833;  -11.960; 1026.540
948.671;  177.293;  -12.360;  967.300
949.227;  173.353;  -12.700;  859.560
949.783;  167.978;  -13.450;  858.900
950.339;  166.489;  -10.620;  991.000
950.895;  165.627;  -14.770; 1023.840
951.451;  167.510;  -13.650;  925.280
952.007;  169.615;  -11.180;  998.540
952.563;  166.955;  -11.680;  937.780
953.118;  156.221;  -13.280;  904.940
953.674;  144.056;  -12.510;  935.780
954.230;  128.169;  -12.220;  949.640
954.785;  119.297;  -12.190;  936.640
955.341;  117.343;  -12.270;  998.160
955.897;  119.144;  -14.900;  834.660
956.452;  123.386;  -12.520;  953.840
957.008;  126.317;   -9.410; 1083.640
957.563;  126.993;  -11.280; 1009.540
958.118;  127.425;  -13.470;  877.700
958.674;  128.867;  -12.190;  946.780
959.229;  132.023;  -12.760; 1013.980
959.784;  138.100;  -15.710;  832.400
960.339;  144.912;  -12.540; 1001.280
960.894;  145.359;  -11.680;  963.760
961.449;  141.188;  -11.410;  859.960
962.004;  140.824;  -10.430; 1212.840
962.559;  136.783;  -14.040;  860.140
963.114;  134.073;  -14.270;  742.480
963.669;  134.885;  -11.320;  915.500
964.224;  133.535;  -14.620;  874.340
964.779;  132.631;  -14.150;  828.420
965.334;  132.722;  -10.850; 1017.860
965.888;  131.682;  -14.530;  875.360
966.443;  134.053;  -13.520;  972.380
966.998;  130.153;  -13.370;  819.460
967.552;  127.398;   -9.960;  908.380
968.107;  121.874;  -12.360;  868.300
968.661;  124.272;  -12.270;  922.440
969.216;  123.069;  -12.140;  856.280
969.770;  123.330;  -11.860;  917.200
970.324;  122.856;  -12.170;  923.140
970.879;  121.433;  -14.160;  947.180
971.433;  121.275;  -12.940;  952.720
971.987;  116.680;  -10.180;  895.340
972.541;  115.590;  -12.130;  917.100
973.095;  116.031;  -14.980; 1009.460
973.649;  115.321;  -14.480;  809.480
974.203;  115.833;  -13.530;  829.040
974.757;  117.359;  -12.060;  855.220
975.311;  115.866;  -13.240;  872.600
975.865;  113.738;  -12.550;  881.820
976.419;  111.219;  -13.180;  857.400
976.973;  110.789;  -14.100;  849.620
977.526;  110.374;  -13.330;  949.920
978.080;  106.860;  -15.390;  796.780
978.634;  107.267;  -11.670;  921.320
979.187;  104.222;  -10.640;  905.400
979.741;  103.909;  -13.330; 1018.380
980.294;  100.996;  -14.480;  789.160
980.848;   98.448;  -13.420;  717.220
981.401;   96.728;  -12.360;  816.540
981.955;   94.885;  -12.480;  844.300
982.508;   92.249;  -14.000;  746.340
983.061;   91.775;  -10.440;  915.260
983.615;   87.440;  -14.340;  798.800
984.168;   85.331;  -14.950;  770.080
984.721;   85.742;  -13.270;  880.760
985.274;   83.585;  -12.240;  867.500
985.827;   80.008;  -12.720;  834.220
986.380;   76.560;  -14.920;  721.340
986.933;   77.467;  -12.860;  864.800
987.486;   75.526;  -10.440;  861.920
988.039;   74.370;  -11.820;  863.100
988.591;   73.279;  -13.760;  893.260
989.144;   71.596;  -14.080;  737.260
989.697;   72.429;  -13.440;  758.740
990.250;   73.620;  -12.050;  858.100
990.802;   71.753;  -14.550;  755.860
991.355;   72.261;  -10.770;  974.880
991.907;   69.595;  -11.710;  864.320
992.460;   66.930;  -12.650;  753.760
993.012;   65.719;  -13.860;  749.540
993.565;   64.610;  -14.310;  711.360
994.117;   64.502;   -9.920;  950.780
994.669;   60.434;  -13.420;  701.320
995.221;   59.972;  -14.200;  791.920
995.774;   59.822;  -13.400;  787.580
996.326;   58.523;  -11.850;  740.220
996.878;   57.970;  -12.230;  838.420
997.430;   56.120;  -14.260;  699.860
997.982;   55.918;  -11.430;  750.140
998.534;   55.253;  -11.590;  739.060
999.086;   54.139;  -11.960;  738.220
999.638;   53.773;  -13.640;  661.380
1000.190;   53.793;  -13.660;  699.320
1000.741;   52.695;   -9.980;  742.700
1001.293;   51.719;  -11.860;  686.020
1001.845;   51.038;  -14.280;  676.640
1002.396;   52.224;  -12.270;  743.400
1002.948;   50.826;  -13.670;  737.400
1003.500;   49.331;  -12.010;  723.780
1004.051;   50.401;  -11.890;  907.580
1004.603;   50.170;  -11.220;  791.820
1005.154;   45.389;  -13.210;  608.980
1005.705;   44.369;  -11.850;  723.960
1006.257;   44.523;  -13.670;  707.220
1006.808;   43.772;  -12.060;  685.460
1007.359;   43.535;  -10.250;  763.240
1007.910;   41.799;  -13.440;  646.640
1008.461;   41.542;  -13.170;  732.940
1009.013;   40.899;  -14.590;  588.340
1009.564;   41.489;  -12.100;  793.520
1010.115;   38.336;  -14.000;  597.040
1010.665;   39.106;  -15.020;  602.160
1011.216;   39.790;  -12.560;  667.920
1011.767;   39.470;  -11.330;  697.920
1012.318;   38.629;  -11.450;  736.980
1012.869;   38.001;  -11.000;  679.000
1013.419;   37.841;  -11.760;  603.120
1013.970;   38.012;  -11.800;  666.640
1014.521;   36.608;  -14.750;  620.620
1015.071;   36.638;  -14.430;  670.380
1015.622;   37.300;  -14.170;  635.460
1016.172;   36.076;  -11.700;  596.820
1016.723;   35.329;  -13.230;  614.380
1017.273;   35.671;  -16.120;  604.160
1017.823;   36.653;  -13.360;  650.340
1018.374;   35.314;  -13.710;  611.760
1018.924;   34.762;  -11.050;  716.880
1019.474;   35.303;  -14.120;  718.880
1020.024;   34.179;  -12.990;  657.580
1020.574;   34.679;  -12.010;  726.160
1021.124;   34.435;  -12.080;  673.580
1021.674;   33.119;  -15.860;  559.120
1022.224;   34.619;  -11.710;  708.940
1022.774;   33.052;  -13.030;  668.820
1023.324;   33.886;  -11.000;  753.520
1023.874;   35.819;  -13.270;  875.760
1024.423;   32.888;  -14.570;  613.700
1024.973;   32.202;  -12.620;  610.760
1025.523;   30.992;  -12.630;  620.960
1026.072;   30.980;  -14.110;  606.420
1026.622;   31.348;  -15.390;  675.740
1027.172;   32.598;   -9.090;  715.660
1027.721;   29.691;  -12.250;  601.220
1028.270;   30.879;  -15.590;  663.400
1028.820;   31.220;  -13.840;  638.080
1029.369;   30.024;  -13.170;  612.700
1029.918;   30.668;  -14.080;  649.840
1030.468;   29.850;  -13.860;  564.780
1031.017;   31.458;  -12.970;  634.800
1031.566;   29.357;  -12.320;  608.900
1032.115;   29.728;  -13.140;  694.500
1032.664;   28.174;  -14.560;  596.480
1033.213;   30.993;  -11.620;  735.420
1033.762;   28.785;  -13.190;  635.620
1034.311;   28.513;  -13.460;  677.220
1034.860;   28.540;  -15.770;  691.000
1035.408;   29.744;  -13.100;  722.720
1035.957;   29.861;  -12.880;  719.540
1036.506;   26.593;  -13.640;  530.800
1037.055;   29.355;  -12.420;  844.320
1037.603;   28.654;  -13.740;  664.000
1038.152;   25.807;  -13.840;  534.760
1038.700;   26.319;  -10.770;  585.740
1039.249;   26.071;  -13.520;  681.220
1039.797;   28.170;  -13.060;  633.360
1040.345;   26.840;  -11.760;  705.420
1040.894;   26.397;  -10.790;  625.300
1041.442;   25.642;  -15.420;  632.200
1041.990;   25.204;  -14.550;  559.160
1042.538;   24.571;  -15.620;  536.180
1043.087;   24.717;  -14.940;  570.860
1043.635;   26.162;  -12.100;  670.500
1044.183;   25.439;  -13.200;  586.400
1044.731;   25.347;  -11.630;  576.000
1045.279;   24.779;  -14.200;  674.920
1045.827;   27.358;  -12.510;  892.400
1046.374;   23.926;  -14.960;  515.420
1046.922;   23.602;  -11.850;  590.580
1047.470;   24.786;  -13.770;  691.300
1048.018;   24.351;  -15.380;  647.960
1048.565;   25.832;  -14.010;  708.600
1049.113;   23.034;  -14.620;  557.000
1049.660;   22.684;  -14.940;  629.660
1050.208;   23.279;  -14.540;  675.640
1050.755;   23.847;  -13.710;  606.580
1051.303;   23.900;  -11.880;  686.820
1051.850;   23.008;  -12.160;  635.120
1052.397;   20.628;  -15.110;  473.960
1052.945;   22.729;  -14.770;  617.760
1053.492;   23.473;  -12.320;  741.840
1054.039;   23.343;  -13.290;  720.180
1054.586;   21.471;  -15.210;  557.240
1055.133;   23.324;  -12.920;  693.140
1055.680;   22.949;  -12.610;  646.620
1056.227;   21.731;  -12.620;  542.780
1056.774;   23.243;  -13.010;  794.980
1057.321;   21.306;  -16.180;  523.260
1057.868;   21.450;  -11.230;  651.320
1058.415;   20.994;  -10.890;  651.980
1058.961;   21.128;  -12.530;  678.940
1059.508;   21.937;  -14.120;  643.820
1060.055;   20.078;  -13.340;  581.780
1060.601;   21.235;  -12.920;  624.300
1061.148;   19.657;  -14.430;  616.820
1061.694;   20.052;  -14.140;  592.580
1062.241;   20.156;  -12.550;  596.320
1062.787;   20.396;  -13.370;  663.140
1063.334;   22.197;  -12.260;  808.560
1063.880;   20.490;  -10.800;  668.360
1064.426;   20.462;   -9.920;  706.820
1064.972;   19.504;  -12.970;  601.340
1065.518;   17.348;  -14.440;  566.640
1066.065;   20.186;  -12.680;  624.460
1066.611;   18.653;  -13.520;  598.800
1067.157;   19.038;  -11.100;  641.860
1067.703;   18.841;  -14.100;  668.480
1068.249;   19.553;  -13.750;  605.220
1068.794;   19.264;  -11.070;  626.880
1069.340;   17.104;  -13.210;  578.960
1069.886;   18.272;  -14.850;  590.700
1070.432;   17.310;  -14.580;  541.720
1070.977;   17.007;  -12.930;  601.080
1071.523;   17.708;  -11.970;  573.060
1072.068;   17.251;  -13.730;  582.000
1072.614;   17.986;  -14.550;  527.760
1073.160;   18.057;  -13.690;  687.040
1073.705;   15.869;  -14.780;  572.520
1074.250;   16.342;  -15.430;  559.900
1074.796;   18.274;  -11.620;  655.160
1075.341;   17.670;  -11.580;  664.100
1075.886;   16.407;  -13.190;  594.240
1076.431;   16.885;  -13.630;  649.880
1076.976;   16.800;  -11.670;  639.220
1077.521;   15.935;  -11.600;  583.080
1078.067;   14.611;  -13.920;  579.400
1078.612;   15.896;  -12.910;  661.620
1079.156;   16.767;  -15.340;  601.540
1079.701;   15.728;  -12.560;  693.260
1080.246;   16.725;  -12.490;  696.300
1080.791;   15.775;  -14.550;  625.020
1081.336;   16.494;  -15.210;  659.320
1081.880;   16.122;  -11.280;  649.680
1082.425;   14.787;  -12.830;  573.480
1082.970;   16.122;  -11.680;  717.040
1083.514;   15.455;  -15.500;  597.000
1084.059;   15.014;  -11.770;  586.720
1084.603;   13.768;  -13.480;  565.840
1085.147;   14.544;  -13.940;  645.220
1085.692;   16.303;  -13.170;  716.800
1086.236;   13.221;  -15.740;  503.140
1086.780;   15.316;  -10.750;  751.440
1087.325;   14.040;  -14.900;  654.620
1087.869;   14.928;  -15.160;  610.700
1088.413;   14.794;  -11.030;  705.040
1088.957;   12.749;  -15.210;  543.400
1089.501;   14.631;  -12.310;  766.640
1090.045;   15.091;  -12.790;  726.480
1090.589;   12.323;  -14.040;  569.920
1091.133;   13.011;  -12.800;  673.340
1091.676;   13.512;  -13.600;  591.940
1092.220;   13.380;  -12.960;  600.920
1092.764;   14.551;  -10.830;  706.960
1093.307;   13.089;  -12.390;  673.780
1093.851;   11.898;  -15.850;  556.540
1094.395;   13.065;  -12.980;  683.140
1094.938;   12.755;  -13.670;  632.520
1095.482;   11.864;  -12.740;  559.800
1096.025;   13.486;  -13.340;  710.880
1096.568;   14.319;  -10.500;  779.280
1097.112;    9.934;  -13.500;  508.180
1097.655;   11.834;  -13.060;  603.000
1098.198;   10.324;  -13.240;  600.180
1098.741;   11.597;  -15.490;  612.860
1099.285;   12.180;  -13.410;  657.300
1099.828;    9.084;  -15.640;  439.400
1100.371;   11.259;  -13.980;  608.160
1100.914;   12.794;  -13.990;  682.660
1101.457;   11.612;  -15.030;  679.900
1101.999;    9.606;  -12.480;  584.680
1102.542;   10.583;  -12.410;  641.440
1103.085;   11.061;  -14.730;  658.500
1103.628;   11.514;  -12.190;  762.060
1104.170;    9.746;  -12.360;  588.280
1104.713;   10.145;  -13.350;  646.700
1105.256;   10.298;  -14.930;  557.440
1105.798;    9.067;  -15.150;  499.980
1106.341;   11.187;  -13.230;  728.900
1106.883;    8.785;  -14.680;  521.340
1107.425;   10.751;  -14.810;  668.180
1107.968;    9.142;  -12.940;  612.380
1108.510;   10.255;  -10.550;  684.960
1109.052;    8.487;  -15.640;  612.620
1109.594;    9.661;  -14.440;  554.440
1110.136;    9.446;  -11.380;  643.220
1110.679;    8.120;  -13.090;  633.080
1111.221;    8.891;  -14.230;  604.460
1111.763;    9.561;  -14.260;  559.220
1112.304;    8.373;  -14.510;  547.140
1112.846;    8.311;  -14.700;  666.240
1113.388;   12.295;  -12.270;  942.180
1113.930;    9.802;  -13.340;  694.200
1114.472;    8.212;  -12.560;  606.540
1115.013;    6.638;  -14.280;  551.280
1115.555;    7.511;  -14.010;  587.100
1116.097;    7.334;  -14.730;  579.480
1116.638;    8.309;  -12.160;  684.600
1117.180;    8.263;  -14.320;  667.740
1117.721;    6.946;  -15.730;  568.580
1118.262;    9.487;  -13.480;  677.960
1118.804;    9.038;  -11.530;  637.340
1119.345;    7.061;  -13.540;  578.400
1119.886;    8.166;  -14.470;  704.040
1120.427;    7.151;  -13.030;  589.020
1120.969;    6.513;  -13.150;  597.920
1121.510;    6.140;  -13.940;  563.060
1122.051;    7.326;  -12.310;  723.580
1122.592;    7.176;  -13.870;  655.420
1123.133;    5.403;  -12.890;  547.940
1123.673;    7.344;  -13.300;  706.480
1124.214;    6.248;  -14.000;  612.460
1124.755;    7.495;  -13.210;  639.460
1125.296;    6.343;  -13.450;  627.320
1125.836;    7.444;  -12.610;  691.500
1126.377;    5.682;  -15.840;  599.660
1126.918;    7.246;  -11.830;  614.980
1127.458;    5.264;  -11.830;  622.220
1127.999;    6.093;  -11.490;  656.980
1128.539;    5.868;  -12.900;  694.240
1129.079;    5.739;  -14.910;  632.720
1129.620;    4.857;  -12.920;  558.100
1130.160;    4.389;  -14.640;  539.480
1130.700;    5.482;  -13.270;  640.840
1131.240;    6.968;  -14.110;  643.700
1131.781;    5.422;  -13.130;  619.680
1132.321;    4.232;  -15.220;  599.120
1132.861;    3.801;  -15.670;  564.200
1133.401;    4.491;  -13.970;  593.940
1133.941;    5.414;  -13.740;  626.280
1134.481;    4.444;  -13.200;  597.580
1135.020;    3.752;  -14.830;  609.160
1135.560;    5.745;  -14.590;  674.940
1136.100;    4.213;  -13.730;  501.160
1136.640;    2.933;  -15.240;  510.480
1137.179;    2.612;  -14.710;  537.960
1137.719;    4.413;  -14.090;  605.400
1138.258;    4.052;  -12.470;  587.360
1138.798;    4.094;  -12.580;  663.780
1139.337;    2.407;  -16.480;  482.840
1139.877;    4.324;  -13.970;  642.360
1140.416;    6.491;   -9.870;  878.060
1140.955;    3.160;  -14.860;  535.380
1141.494;    3.849;  -14.530;  669.280
1142.034;    3.812;  -13.940;  583.520
1142.573;    4.390;  -11.160;  646.280
1143.112;    2.150;  -15.050;  553.480
1143.651;    2.228;  -15.390;  536.480
1144.190;    4.015;  -12.990;  691.640
1144.729;    3.256;  -12.220;  607.420
1145.267;    3.178;  -14.020;  584.900
1145.806;    3.765;  -12.740;  637.040
1146.345;    3.420;  -14.810;  635.020
1146.884;    2.694;  -12.920;  622.500
1147.422;    1.862;  -13.930;  533.060
1147.961;    4.276;  -11.830;  708.460
1148.500;    3.502;  -12.710;  669.720
1149.038;    3.460;  -14.420;  632.500
1149.577;    1.955;  -13.920;  698.640
1150.115;    0.118;  -17.050;  452.280
1150.653;    3.091;  -14.890;  607.340
1151.192;    2.853;  -15.270;  552.920
1151.730;    1.415;  -13.160;  652.560
1152.268;    1.904;  -15.430;  589.520
1152.806;    2.442;  -15.880;  571.180
1153.344;    1.020;  -13.240;  577.640
1153.882;    1.772;  -13.010;  600.060
1154.421;   -0.101;  -16.180;  470.620
1154.958;    1.456;  -13.880;  595.240
1155.496;    2.797;  -13.590;  645.280
1156.034;    1.348;  -11.910;  721.880
1156.572;    2.535;  -12.010;  667.060
1157.110;    1.487;  -16.250;  473.940
1157.647;    2.207;  -15.230;  676.960
1158.185;    0.433;  -13.770;  564.320
1158.723;   -0.181;  -15.300;  509.200
1159.260;    1.940;  -13.130;  701.700
1159.798;    1.935;  -11.300;  658.160
1160.335;    0.399;  -13.210;  631.820

