
Integration time [ms]:   3.882
Averaging Nr. [scans]: 1000
Smoothing Nr. [pixels]: 0
Data measured with spectrometer [name]: 7414430SP
Wave   ;Sample   ;Dark     ;Reference
[nm]   ;[counts] ;[counts] ;[counts] 

288.544;  139.859;    7.153;  793.890
289.143;  142.783;    8.402;  681.602
289.742;  144.152;    7.062;  828.814
290.341;  131.579;    0.191;  789.841
290.940;  121.359;    0.321;  730.702
291.538;  121.358;    3.811;  881.108
292.137;  120.577;   -3.438;  792.581
292.736;  124.324;   -2.809;  975.101
293.335;  121.536;   -5.239;  735.086
293.934;  121.029;   -4.939;  781.677
294.532;  121.501;   -2.199; 1031.958
295.131;  108.624;   -6.831;  834.394
295.730;  107.116;   -6.620;  809.588
296.328;  103.968;   -6.471;  783.442
296.927;  105.248;   -6.571;  779.652
297.525;  107.145;   -7.391;  781.236
298.124;   98.007;   -9.402;  654.009
298.722;  101.287;   -5.781;  761.933
299.321;   99.164;   -6.351;  708.597
299.919;   98.584;   -8.661;  751.918
300.518;   93.512;  -11.922;  689.338
301.116;   94.195;   -6.941;  691.381
301.715;   95.625;   -5.471;  730.222
302.313;   95.823;   -8.361;  704.943
302.911;   90.220;   -9.082;  733.830
303.509;   95.489;   -4.571;  925.627
304.108;   93.189;   -7.111;  760.383
304.706;   93.158;   -7.681;  801.664
305.304;   86.755;   -9.162;  796.707
305.902;   92.378;   -6.761;  784.484
306.500;   88.043;   -6.921;  728.200
307.098;   86.380;   -6.491;  746.560
307.696;   84.228;   -6.941;  780.432
308.294;   85.149;   -6.301;  731.359
308.892;   87.290;   -4.771;  759.769
309.490;   83.935;   -5.141;  712.161
310.088;   81.111;   -2.912;  788.444
310.686;   85.419;   -0.421;  821.749
311.284;   81.566;   -3.461;  766.040
311.882;   80.153;   -6.282;  731.225
312.480;   76.936;   -3.632;  697.167
313.078;   78.185;   -2.112;  808.331
313.675;   78.599;   -1.931;  691.600
314.273;   74.578;   -1.442;  797.837
314.871;   73.748;   -3.002;  589.829
315.468;   71.083;   -2.252;  652.090
316.066;   74.700;   -1.091;  694.427
316.664;   68.022;   -4.512;  656.351
317.261;   71.675;   -0.062;  910.128
317.859;   67.344;   -0.952;  768.735
318.456;   67.904;    0.719;  830.096
319.054;   65.009;   -4.002;  787.828
319.651;   63.270;   -4.972;  759.928
320.249;   61.624;   -1.162;  810.188
320.846;   60.406;   -2.651;  714.286
321.443;   58.608;   -3.832;  832.135
322.041;   55.482;   -4.312;  812.315
322.638;   52.506;   -3.872;  701.456
323.235;   54.717;   -4.361;  665.683
323.833;   53.559;   -4.821;  740.354
324.430;   47.862;   -6.971;  615.900
325.027;   49.122;   -4.361;  876.855
325.624;   49.244;   -5.581;  644.532
326.221;   47.425;   -6.601;  689.717
326.818;   46.049;   -7.301;  818.332
327.415;   47.702;   -6.180;  748.828
328.012;   47.015;   -5.920;  690.585
328.609;   45.853;   -8.390;  731.389
329.206;   44.523;   -6.121;  778.621
329.803;   44.456;   -5.241;  737.841
330.400;   46.624;   -7.420;  704.260
330.997;   47.336;   -5.931;  817.147
331.594;   44.957;   -5.641;  788.185
332.191;   49.897;   -6.451;  728.722
332.787;   53.089;   -4.651;  844.463
333.384;   51.267;   -5.472;  763.093
333.981;   49.481;   -6.303;  815.687
334.578;   52.039;   -5.892;  708.378
335.174;   54.500;   -4.102;  731.469
335.771;   53.405;   -8.053;  836.456
336.367;   49.748;   -7.363;  710.631
336.964;   54.049;   -6.243;  793.266
337.561;   53.226;   -5.653;  731.112
338.157;   48.941;   -7.074;  911.916
338.754;   47.228;   -5.474;  796.589
339.350;   44.328;   -5.624;  722.493
339.946;   47.268;   -5.054;  773.135
340.543;   40.927;   -6.695;  846.136
341.139;   33.624;   -6.215;  720.836
341.735;   32.033;   -5.746;  772.593
342.332;   31.095;   -7.335;  691.472
342.928;   31.994;   -4.835;  795.394
343.524;   26.097;   -4.586;  761.684
344.120;   23.344;   -3.946;  738.562
344.716;   25.654;   -4.835;  723.717
345.313;   24.617;   -5.325;  795.342
345.909;   19.494;   -6.535;  627.336
346.505;   20.458;   -4.725;  740.247
347.101;   21.183;   -4.164;  827.864
347.697;   22.539;   -5.274;  785.398
348.293;   16.472;   -7.145;  627.244
348.889;   16.865;   -4.364;  745.914
349.485;   16.620;   -6.404;  688.205
350.081;   18.013;   -7.534;  772.592
350.676;   13.232;   -6.995;  691.606
351.272;   17.577;   -3.544;  809.530
351.868;   17.758;   -5.324;  780.497
352.464;   15.306;   -7.204;  723.932
353.059;   10.465;   -6.894;  646.017
353.655;   14.192;   -3.754;  777.063
354.251;   14.910;   -6.143;  759.845
354.846;   10.410;   -9.464;  740.646
355.442;    7.461;   -7.555;  753.071
356.038;    9.048;   -5.474;  751.708
356.633;    9.993;   -5.914;  728.594
357.229;    8.131;   -8.944;  724.757
357.824;    6.120;   -6.794;  703.600
358.420;    4.753;   -5.754;  679.726
359.015;    4.973;   -5.664;  695.357
359.610;    7.118;   -8.004;  763.920
360.206;    0.806;   -8.815;  603.240
360.801;    3.064;   -8.834;  646.503
361.396;    5.540;   -6.274;  725.975
361.992;    1.795;   -8.574;  668.220
362.587;   -0.730;   -9.265;  670.160
363.182;    1.178;   -5.484;  689.631
363.777;    2.205;   -5.164;  738.242
364.372;    1.816;   -6.954;  737.314
364.967;   -2.692;   -7.065;  680.744
365.563;    1.578;   -5.684;  815.567
366.158;   -0.604;   -6.484;  685.161
366.753;    0.155;   -8.004;  649.263
367.348;   -1.905;  -10.114;  746.056
367.942;   -2.401;   -7.764;  697.298
368.537;   -2.017;   -4.554;  754.245
369.132;   -1.748;   -7.664;  703.428
369.727;   -6.611;   -8.905;  638.079
370.322;   -5.860;   -4.945;  580.186
370.917;   -5.396;   -7.095;  710.646
371.511;   -1.490;   -6.574;  861.834
372.106;   -6.358;   -6.515;  776.964
372.701;   -9.757;   -8.225;  585.988
373.296;   -3.559;   -4.494;  863.135
373.890;   -7.772;   -7.965;  647.840
374.485;  -10.095;   -9.745;  691.199
375.079;   -6.924;   -5.554;  738.685
375.674;   -5.040;   -4.724;  812.970
376.268;   -9.257;   -8.365;  691.759
376.863;  -14.755;   -8.126;  580.327
377.457;   -9.398;   -6.045;  662.490
378.052;   -9.975;   -6.835;  764.884
378.646;  -10.781;   -9.375;  741.167
379.240;  -11.663;   -6.185;  721.176
379.835;  -11.365;   -6.135;  636.978
380.429;  -12.773;   -8.365;  562.557
381.023;  -11.905;   -7.935;  779.205
381.617;  -15.110;   -8.325;  680.106
382.212;  -12.440;   -7.405;  685.303
382.806;  -10.773;   -4.155;  760.690
383.400;  -14.564;   -8.945;  672.281
383.994;  -16.124;   -8.365;  664.870
384.588;  -12.435;   -7.824;  697.701
385.182;  -10.366;   -7.984;  726.624
385.776;  -12.514;  -10.404;  706.875
386.370;  -15.419;   -7.335;  681.968
386.964;  -15.039;   -7.485;  684.155
387.558;  -12.393;   -8.174;  598.360
388.152;  -14.461;  -10.415;  681.959
388.745;  -13.550;   -9.595;  814.707
389.339;  -12.696;   -6.454;  747.642
389.933;  -11.644;   -5.804;  695.370
390.527;  -11.657;   -6.854;  859.029
391.120;  -19.178;   -7.665;  595.318
391.714;  -15.468;   -7.245;  711.633
392.308;  -12.279;   -4.514;  780.253
392.901;  -14.859;   -7.935;  642.460
393.495;  -17.826;   -8.585;  595.414
394.089;  -16.376;   -5.245;  760.452
394.682;  -16.258;   -6.305;  697.188
395.275;  -16.960;   -9.335;  719.927
395.869;  -18.203;   -7.375;  667.314
396.462;  -17.179;   -7.055;  616.609
397.056;  -12.772;   -5.434;  776.621
397.649;  -16.759;   -9.525;  731.575
398.242;  -13.739;   -7.574;  712.645
398.836;  -14.098;   -5.134;  766.408
399.429;  -14.920;   -6.544;  631.041
400.022;  -17.766;   -9.215;  665.902
400.615;  -15.298;   -8.105;  805.609
401.208;  -13.914;   -7.614;  691.451
401.802;  -16.547;   -8.085;  699.329
402.395;  -16.813;   -9.575;  683.502
402.988;  -18.255;   -9.285;  696.627
403.581;  -15.489;   -7.514;  646.878
404.174;  -13.416;   -6.404;  686.568
404.767;  -14.678;   -8.775;  638.583
405.360;  -18.380;   -7.415;  621.445
405.953;  -12.616;   -5.624;  759.034
406.545;  -12.541;   -6.474;  725.342
407.138;  -15.763;   -8.445;  618.350
407.731;  -15.042;  -10.044;  613.303
408.324;  -11.902;   -8.484;  660.554
408.917;  -11.372;   -7.624;  681.864
409.509;  -13.545;   -8.304;  740.396
410.102;  -15.864;   -8.495;  643.948
410.695;  -10.550;   -7.824;  665.758
411.287;  -11.029;   -7.754;  599.821
411.880;  -11.901;   -9.294;  585.421
412.472;  -14.547;   -8.814;  613.092
413.065;  -12.852;   -6.674;  629.408
413.657;  -10.613;   -9.664;  576.678
414.250;   -9.651;  -10.264;  646.681
414.842;  -11.394;   -8.664;  676.353
415.434;  -10.220;   -8.584;  570.463
416.027;   -6.739;   -9.423;  652.196
416.619;   -6.988;  -10.764;  713.400
417.211;   -8.218;   -7.404;  599.352
417.804;   -5.432;   -7.383;  628.499
418.396;   -8.302;   -8.334;  607.643
418.988;   -5.824;   -9.633;  659.238
419.580;   -9.402;  -10.554;  568.276
420.172;   -8.221;   -8.683;  536.196
420.764;   -4.003;   -9.713;  672.482
421.356;   -3.887;  -11.303;  636.898
421.948;   -4.472;   -8.453;  677.661
422.540;   -1.085;   -5.793;  680.027
423.132;   -1.156;   -7.162;  600.641
423.724;   -4.331;   -7.933;  561.267
424.316;   -1.759;   -9.083;  621.345
424.908;    0.922;   -8.392;  591.517
425.500;    1.464;   -8.062;  647.978
426.092;    2.902;   -9.692;  648.268
426.683;    1.221;   -8.223;  684.836
427.275;    3.289;   -8.602;  641.471
427.867;    5.628;   -8.382;  668.948
428.458;    6.610;  -10.472;  732.344
429.050;    4.294;   -9.112;  680.749
429.642;    6.621;   -7.752;  743.124
430.233;    7.159;   -8.832;  569.356
430.825;    8.846;   -8.292;  724.809
431.416;    5.547;   -7.522;  698.241
432.008;    8.503;   -9.262;  651.723
432.599;    9.805;   -6.441;  656.073
433.190;    7.562;   -9.222;  637.670
433.782;    5.816;  -11.832;  590.395
434.373;   13.514;   -7.121;  884.765
434.964;   12.352;   -9.141;  602.920
435.556;    9.810;   -9.332;  634.537
436.147;   12.847;   -8.892;  758.490
436.738;   12.153;   -8.151;  701.099
437.329;   18.664;   -8.281;  721.723
437.920;   11.186;   -9.062;  666.688
438.511;   10.832;  -11.182;  564.526
439.103;   16.884;   -7.461;  623.998
439.694;   19.606;   -8.541;  681.583
440.285;   20.822;   -7.351;  764.432
440.876;   19.310;   -8.201;  845.738
441.466;   16.618;  -10.381;  575.162
442.057;   22.605;   -7.620;  665.814
442.648;   22.234;   -8.461;  746.255
443.239;   19.189;   -8.991;  620.477
443.830;   24.450;   -7.910;  704.958
444.421;   26.532;   -7.340;  655.474
445.011;   23.402;   -8.981;  693.619
445.602;   22.789;   -9.341;  743.126
446.193;   24.134;  -11.390;  488.117
446.783;   28.760;  -11.240;  640.397
447.374;   25.454;   -8.471;  692.759
447.964;   24.824;   -8.471;  713.770
448.555;   33.227;   -6.590;  822.742
449.145;   29.595;   -8.200;  662.853
449.736;   31.018;  -11.040;  803.179
450.326;   30.726;   -9.640;  713.626
450.917;   34.482;   -9.480;  675.324
451.507;   33.986;   -8.020;  600.661
452.097;   35.814;  -10.210;  746.267
452.688;   35.633;   -7.810;  742.160
453.278;   35.209;   -9.360;  566.840
453.868;   40.144;   -8.669;  793.550
454.458;   39.009;  -10.950;  651.141
455.048;   37.820;  -10.200;  711.783
455.639;   40.135;   -9.369;  567.096
456.229;   43.462;   -7.739;  710.694
456.819;   45.449;   -8.939;  751.158
457.409;   46.115;   -7.169;  773.993
457.999;   47.552;   -7.779;  737.505
458.589;   48.607;   -7.039;  686.606
459.179;   48.700;   -9.019;  717.658
459.769;   45.536;   -8.909;  627.099
460.358;   50.812;   -8.659;  797.262
460.948;   50.681;   -8.209;  689.503
461.538;   53.169;   -9.879;  660.677
462.128;   50.881;   -9.379;  664.934
462.717;   56.795;   -9.158;  710.326
463.307;   60.130;   -8.638;  705.846
463.897;   55.831;   -8.869;  656.942
464.486;   55.153;   -7.409;  837.128
465.076;   59.218;   -9.618;  733.776
465.666;   62.446;   -7.578;  652.900
466.255;   61.589;   -9.369;  785.651
466.845;   59.848;  -10.049;  666.749
467.434;   62.169;   -8.168;  725.873
468.023;   63.860;   -9.188;  658.357
468.613;   61.776;   -9.849;  713.946
469.202;   65.478;  -12.958;  646.507
469.791;   69.002;   -9.488;  737.811
470.381;   71.029;   -6.468;  742.813
470.970;   71.561;  -10.248;  711.099
471.559;   70.842;  -11.428;  733.291
472.148;   73.343;   -9.738;  675.737
472.738;   76.202;   -7.877;  765.466
473.327;   76.703;  -11.868;  637.529
473.916;   75.452;   -8.578;  737.446
474.505;   79.150;  -11.137;  751.703
475.094;   82.617;   -9.407;  806.570
475.683;   83.023;   -9.977;  797.699
476.272;   82.858;  -10.807;  730.632
476.861;   85.075;  -11.017;  706.754
477.449;   91.392;  -10.316;  728.487
478.038;   87.197;  -10.187;  692.513
478.627;   87.376;  -12.458;  714.852
479.216;   93.215;  -10.127;  769.441
479.805;   97.044;   -6.256;  783.375
480.393;   96.080;   -8.737; 1008.945
480.982;   96.121;   -9.087;  874.501
481.571;  100.530;   -7.806;  858.333
482.159;  101.716;  -10.596;  705.386
482.748;  102.311;  -11.507;  821.385
483.336;  106.438;   -8.366;  858.209
483.925;  105.607;   -7.497;  774.373
484.513;  112.430;   -8.326;  758.962
485.102;  109.370;  -10.277;  810.965
485.690;  118.575;   -8.256; 1011.050
486.278;  118.955;   -7.146;  979.329
486.867;  119.318;   -7.986;  809.662
487.455;  122.297;   -9.926;  898.229
488.043;  123.546;  -10.026;  748.361
488.631;  130.877;   -7.226; 1005.079
489.220;  134.523;   -8.696;  908.626
489.808;  134.868;  -12.276;  741.415
490.396;  142.002;   -9.386;  914.645
490.984;  145.881;   -8.506;  830.161
491.572;  155.724;   -8.226;  940.315
492.160;  162.274;   -9.836;  919.081
492.748;  171.079;  -10.316;  884.341
493.336;  187.885;   -7.146; 1019.693
493.924;  210.439;   -7.965;  958.077
494.512;  233.810;  -10.316; 1066.638
495.100;  265.709;  -10.186; 1103.280
495.687;  313.136;   -7.805; 1206.373
496.275;  372.010;   -9.686; 1150.796
496.863;  444.958;  -11.566; 1281.171
497.451;  532.948;  -11.406; 1386.805
498.038;  654.155;   -8.235; 1556.729
498.626;  759.142;   -7.485; 1741.407
499.214;  907.752;   -8.646; 2016.609
499.801; 1132.347;   -9.936; 2220.633
500.389; 1310.255;   -8.056; 2312.494
500.976; 1470.083;   -6.166; 2744.849
501.564; 1657.739;   -9.126; 3148.565
502.151; 1944.442;  -12.456; 3515.999
502.738; 2330.407;  -10.056; 3971.274
503.326; 2707.178;  -10.605; 4403.796
503.913; 3037.979;  -10.576; 5161.749
504.500; 3494.523;   -9.056; 5986.420
505.088; 3946.877;  -10.136; 6381.201
505.675; 4675.853;   -9.075; 6925.547
506.262; 5169.731;  -11.346; 7619.060
506.849; 5765.225;   -9.376; 8733.969
507.436; 6309.303;   -7.365; 9790.121
508.023; 6660.578;   -8.686; 9985.472
508.610; 7082.346;   -8.846;10434.618
509.197; 7947.749;   -9.077;11198.435
509.784; 9047.784;  -10.246;12391.194
510.371; 9512.061;   -9.825;13603.713
510.958;10235.128;  -10.896;14426.586
511.545;10919.854;   -9.006;15243.775
512.132;11660.661;   -8.765;15945.876
512.719;12639.772;   -8.286;16340.369
513.305;14570.402;   -9.256;18011.766
513.892;16591.174;  -11.106;19754.971
514.479;18091.814;   -8.576;20967.805
515.066;19183.256;   -9.046;22299.793
515.652;19598.318;  -10.676;22908.660
516.239;20991.775;  -10.166;23798.875
516.825;21421.449;  -11.266;25567.275
517.412;21034.295;   -7.446;28154.959
517.998;21207.563;  -10.916;28344.111
518.585;20388.553;   -9.166;27134.219
519.171;19657.311;  -10.135;27268.576
519.758;19679.865;   -8.806;28964.129
520.344;20822.631;   -6.716;30664.494
520.930;22892.781;  -10.166;32550.605
521.516;25765.768;   -9.615;35422.895
522.103;28935.428;   -8.656;38280.004
522.689;32094.619;   -9.646;37835.117
523.275;32900.246;  -10.786;37288.613
523.861;33806.191;   -9.266;37281.395
524.447;33664.051;   -8.285;37846.949
525.033;33578.414;   -9.426;38321.949
525.619;32901.918;   -9.836;38579.285
526.205;33649.750;   -8.136;40622.875
526.791;34994.074;   -9.986;42258.836
527.377;36817.309;   -8.236;42966.902
527.963;35376.883;  -12.117;42018.949
528.549;33691.102;   -8.376;42476.828
529.135;35112.707;   -8.696;41854.852
529.721;37044.848;   -9.686;41237.711
530.306;39115.891;   -8.616;41259.445
530.892;41832.016;   -9.396;41506.047
531.478;42600.227;   -9.926;43559.613
532.063;44001.031;  -10.236;47695.563
532.649;46120.172;   -8.257;50808.324
533.235;47285.441;  -11.476;51787.500
533.820;45970.625;   -8.156;52145.035
534.406;44352.180;  -12.257;51133.488
534.991;42625.047;   -8.686;49996.805
535.576;40609.957;   -9.426;48882.852
536.162;40277.168;   -8.436;46942.285
536.747;39050.223;  -10.957;45711.746
537.333;38713.449;  -13.147;48510.180
537.918;41265.016;   -9.027;50439.891
538.503;42048.773;   -8.256;50863.711
539.088;45530.266;  -10.576;50906.922
539.673;47660.375;  -10.907;52621.965
540.259;47646.660;   -9.126;52368.094
540.844;44509.500;   -9.026;50879.109
541.429;46084.281;   -9.597;52077.777
542.014;49822.203;  -11.447;52716.695
542.599;50436.211;   -9.236;52363.281
543.184;48788.395;  -12.267;53187.137
543.769;50052.688;  -10.367;54697.605
544.354;49736.676;  -10.887;53913.914
544.938;42865.305;  -11.687;49680.164
545.523;37242.500;   -8.286;47386.277
546.108;36897.992;   -9.317;49151.949
546.693;36987.387;  -10.187;51384.637
547.278;35509.516;   -9.926;51853.254
547.862;36264.453;   -9.196;51173.750
548.447;38247.215;   -9.657;51691.395
549.031;40905.109;   -9.127;52456.703
549.616;45901.930;  -10.836;52714.516
550.201;50113.039;   -8.507;52414.598
550.785;50651.781;  -10.537;52355.059
551.370;50388.816;  -11.727;54589.453
551.954;50567.594;   -9.457;58267.348
552.538;49809.023;   -8.147;59062.176
553.123;48266.293;   -9.397;58115.285
553.707;46106.055;   -9.558;56556.285
554.291;46651.266;   -9.417;56201.668
554.876;46576.172;   -7.627;55335.762
555.460;44667.855;  -10.457;54155.703
556.044;42921.426;  -10.078;53721.484
556.628;43744.305;   -9.407;53731.016
557.212;43757.262;   -7.957;54312.531
557.796;43787.367;  -11.327;53797.773
558.380;48296.938;  -10.868;56145.984
558.964;48717.793;   -9.637;57277.930
559.548;46808.379;   -8.807;56459.641
560.132;47543.402;  -10.187;54434.543
560.716;46569.242;   -9.868;54800.617
561.300;47412.359;  -10.217;57606.945
561.884;48107.613;   -4.947;58972.445
562.467;47476.980;   -9.588;57327.570
563.051;45842.773;  -11.138;54962.434
563.635;44126.336;   -9.358;52594.473
564.219;43725.805;   -9.797;50610.410
564.802;43962.379;   -9.918;49551.180
565.386;41747.867;  -10.838;48370.953
565.969;41011.715;   -8.037;48178.871
566.553;40679.152;   -5.667;49957.305
567.136;39767.035;   -8.258;50369.594
567.720;39044.469;  -11.278;49492.004
568.303;41449.309;   -9.028;50616.352
568.887;41154.809;   -7.508;50727.148
569.470;39787.547;  -11.068;51698.379
570.053;39386.996;  -10.028;52122.078
570.637;37717.984;  -11.077;52536.438
571.220;37206.531;   -8.747;51186.098
571.803;38980.676;   -8.868;51032.762
572.386;41207.910;  -10.608;49609.887
572.969;40979.531;  -10.548;48285.926
573.552;38761.688;   -7.898;47624.285
574.135;39813.422;   -9.918;45498.641
574.718;36251.281;  -10.328;41970.434
575.301;33409.230;   -9.548;41447.137
575.884;30567.176;   -8.768;40923.836
576.467;33459.512;   -9.858;45267.723
577.050;33802.516;  -11.018;48175.543
577.633;34978.680;  -10.048;47729.328
578.216;34316.500;  -10.268;47579.793
578.799;31766.553;  -11.808;47820.996
579.381;31701.346;   -7.338;48115.551
579.964;34298.664;   -9.728;47333.766
580.547;35542.129;   -8.928;46668.969
581.129;36696.234;   -9.149;44466.141
581.712;36977.262;  -11.359;44164.922
582.294;34367.590;  -10.738;46477.855
582.877;33176.660;   -8.788;48244.254
583.459;33960.863;   -9.859;47437.895
584.042;36287.980;   -9.649;46943.219
584.624;35830.164;  -10.529;46792.227
585.206;34524.375;  -10.298;46557.250
585.789;34292.582;  -11.029;45793.773
586.371;32566.131;   -9.359;43836.391
586.953;31601.914;   -8.799;42972.492
587.536;31049.662;   -8.928;42487.211
588.118;31066.877;   -9.180;42086.414
588.700;30552.807;  -10.519;43389.930
589.282;29505.174;   -8.098;43646.039
589.864;29495.785;   -8.139;43438.109
590.446;31577.930;  -10.509;43151.926
591.028;32321.918;  -11.119;42781.867
591.610;33756.047;  -10.019;42839.098
592.192;33470.340;   -8.838;42820.402
592.774;30396.334;  -11.549;40724.277
593.356;27537.045;  -11.609;39874.789
593.937;26819.029;  -10.019;39980.648
594.519;29082.912;   -7.839;42069.633
595.101;31608.402;  -10.779;42976.031
595.683;32715.063;  -10.049;44084.441
596.264;32294.184;   -9.969;43478.797
596.846;31967.830;   -9.699;43803.672
597.427;30894.229;  -10.970;42986.934
598.009;30361.566;  -13.090;42832.219
598.591;29843.270;   -9.509;42580.086
599.172;30443.109;   -9.019;43061.805
599.753;31118.080;  -13.310;41691.469
600.335;31744.238;  -11.010;40692.520
600.916;31367.170;  -10.309;39982.422
601.498;30363.270;   -8.209;40318.617
602.079;29841.105;  -11.440;40670.609
602.660;31492.340;   -8.690;41450.898
603.241;32589.205;  -12.759;41137.738
603.823;31259.900;  -10.409;38868.797
604.404;30767.346;  -11.790;38182.785
604.985;32620.959;  -10.280;38078.047
605.566;33962.008;   -8.059;38056.633
606.147;31240.730;   -8.960;37020.418
606.728;29013.381;  -10.710;37883.359
607.309;28418.736;  -12.760;38748.273
607.890;27114.039;   -9.959;38850.230
608.471;27360.932;   -9.780;37457.918
609.051;29161.348;   -8.940;36066.457
609.632;30206.430;  -12.070;35991.074
610.213;29914.379;   -9.610;37402.641
610.794;29652.496;   -8.750;38383.363
611.374;30136.971;  -11.100;40562.387
611.955;30716.555;  -12.200;38533.727
612.536;30913.289;  -10.410;36951.789
613.116;29931.754;  -10.010;37197.891
613.697;28302.098;  -10.480;38411.125
614.277;28219.041;  -12.751;38673.938
614.858;27538.486;  -11.600;37075.863
615.438;27657.713;   -8.190;35092.906
616.019;26522.588;   -8.941;33666.301
616.599;28630.688;  -13.540;34189.023
617.179;31372.615;  -10.890;36952.047
617.760;30339.553;   -7.610;39582.574
618.340;28335.848;  -14.441;38943.977
618.920;28000.488;   -9.180;37594.156
619.500;30441.014;  -11.881;37866.938
620.080;32170.641;   -9.870;37869.043
620.660;30927.875;  -13.211;36868.617
621.241;29665.941;  -11.921;36352.309
621.821;29038.592;  -10.271;35459.520
622.401;29837.701;   -8.200;35207.414
622.980;31335.016;  -11.141;35980.422
623.560;30966.518;  -14.321;37351.328
624.140;29485.410;   -9.360;34388.582
624.720;25447.736;   -7.481;32368.764
625.300;23242.953;  -12.730;32638.629
625.880;27233.252;  -11.441;34599.035
626.459;30790.563;  -10.971;36831.738
627.039;34072.441;   -9.011;38299.098
627.619;34311.234;   -8.521;38289.574
628.198;32632.713;   -9.861;37220.695
628.778;31456.184;   -8.841;37632.563
629.357;31440.742;   -9.891;38003.012
629.937;31432.008;  -11.871;38402.039
630.516;31109.912;  -10.641;37868.801
631.096;33406.129;  -11.391;35760.410
631.675;34854.004;   -6.622;35225.219
632.254;31984.555;  -13.002;35130.289
632.834;31066.303;  -11.622;35794.570
633.413;32225.307;   -8.321;35788.922
633.992;30365.482;   -7.732;34532.863
634.571;30322.959;  -10.992;33590.113
635.151;29872.617;  -10.422;34943.863
635.730;30394.178;  -11.511;35352.523
636.309;30203.348;   -7.901;35366.605
636.888;29340.732;  -11.452;36165.637
637.467;28498.305;  -10.672;37515.902
638.046;29276.994;   -9.301;39288.695
638.625;30687.625;  -11.452;38279.699
639.204;31394.732;  -12.262;37741.598
639.782;31806.756;  -11.892;38364.551
640.361;30307.029;  -11.411;36740.621
640.940;25651.004;  -11.501;34950.082
641.519;28115.889;  -10.921;34137.398
642.097;31738.301;  -10.101;35654.258
642.676;30073.848;  -10.821;35637.957
643.255;31277.340;   -8.631;36567.074
643.833;33699.766;  -11.411;37809.434
644.412;36226.789;  -12.021;37337.293
644.990;36394.375;  -12.271;37018.531
645.569;35151.262;   -9.741;36518.469
646.147;32756.121;   -9.051;36186.430
646.726;32741.061;  -13.861;36267.688
647.304;32814.988;   -9.461;36647.625
647.882;32623.998;  -13.171;39286.742
648.461;33057.016;  -11.911;39157.703
649.039;31848.025;   -9.541;35412.883
649.617;31306.049;   -8.901;34744.918
650.195;29053.283;   -8.591;35403.098
650.773;28429.357;  -13.031;35053.797
651.352;27788.533;  -12.211;33756.816
651.930;25611.547;  -11.361;31868.773
652.508;22452.965;   -8.601;33121.551
653.086;25026.584;   -9.991;33564.793
653.663;29389.691;  -11.931;34054.668
654.241;32083.889;  -10.821;35693.309
654.819;33626.035;   -9.341;36422.906
655.397;31156.385;  -10.851;38213.484
655.975;29879.369;  -11.461;39507.625
656.553;29962.809;   -8.841;39498.223
657.130;29279.973;  -10.371;40395.480
657.708;29987.459;  -11.071;39242.020
658.286;29452.396;  -11.141;38920.020
658.863;30606.139;  -10.861;40202.898
659.441;34971.543;  -11.181;39677.938
660.018;35062.426;  -10.851;40413.355
660.596;34450.156;  -12.571;39931.414
661.173;34919.313;  -12.141;39604.531
661.750;34821.930;  -11.571;39700.070
662.328;32062.188;  -10.780;39292.809
662.905;29597.111;  -10.750;38235.648
663.482;26801.525;  -11.320;36212.305
664.060;26029.717;  -10.160;35944.945
664.637;30507.973;  -13.120;35170.785
665.214;32455.041;  -11.500;34197.523
665.791;30826.832;  -12.430;34549.520
666.368;28633.631;   -9.840;35118.578
666.945;28003.883;  -11.290;36019.418
667.522;28644.256;  -13.540;36048.438
668.099;29101.992;  -10.250;36243.914
668.676;27783.363;  -11.270;35958.875
669.253;26593.182;   -8.210;37384.730
669.830;25953.611;   -9.710;36779.629
670.407;25558.830;   -9.700;35231.289
670.984;26340.709;   -9.190;35544.270
671.560;25721.492;   -9.560;35466.867
672.137;25565.713;  -11.820;34280.863
672.714;28458.736;  -12.460;34632.863
673.290;32560.732;  -10.940;35135.422
673.867;32755.658;  -10.510;36114.480
674.443;29790.861;  -12.110;36152.859
675.020;31015.232;  -11.760;35327.238
675.596;31734.758;   -9.380;35795.176
676.173;30712.736;  -11.120;35430.355
676.749;29596.049;  -13.390;33549.516
677.326;28684.623;  -12.600;32210.012
677.902;27533.051;  -10.830;32068.871
678.478;27718.135;  -12.400;32583.891
679.054;29583.533;   -8.610;32088.928
679.631;29613.119;  -11.640;30978.848
680.207;29641.379;   -8.140;33160.887
680.783;30483.586;  -12.300;35570.363
681.359;29418.873;  -10.910;36125.184
681.935;29784.158;  -11.040;35240.922
682.511;30545.750;  -11.130;34429.961
683.087;30837.742;  -11.080;34463.680
683.663;33054.930;  -10.530;34648.898
684.239;32633.832;  -12.120;34546.457
684.815;30088.748;   -8.870;35586.375
685.390;29389.750;   -8.940;35821.895
685.966;29364.340;  -12.109;35085.871
686.542;28301.426;  -13.539;34198.230
687.118;28105.061;  -10.379;32847.707
687.693;28204.547;  -10.189;32794.027
688.269;26914.184;  -12.939;33072.367
688.844;26193.164;   -8.679;33141.664
689.420;27343.760;  -10.919;33965.742
689.995;27785.801;   -7.489;34655.523
690.571;27319.223;  -12.199;33576.742
691.146;27574.115;   -8.979;32657.219
691.722;28953.488;   -9.119;32526.979
692.297;27220.027;  -10.519;33014.617
692.872;26677.959;  -10.629;34012.254
693.448;27179.732;  -12.119;34237.434
694.023;27587.969;   -8.219;34142.672
694.598;25675.803;  -13.209;34132.031
695.173;24959.990;  -11.879;34205.250
695.748;25713.744;  -12.039;32882.488
696.323;25529.771;  -11.779;32864.906
696.898;26441.104;  -10.219;33170.004
697.473;27527.385;  -13.639;32432.984
698.048;27860.988;  -11.239;31649.303
698.623;29815.248;  -10.859;30778.141
699.198;31408.984;  -13.379;31140.119
699.773;32186.025;  -13.409;31764.299
700.348;32894.520;  -12.329;31780.816
700.922;33413.301;   -8.749;32046.375
701.497;33683.258;  -12.449;32603.574
702.072;32159.707;   -8.879;34799.871
702.646;29763.299;  -10.719;35793.172
703.221;28425.881;   -8.469;35201.590
703.795;28321.195;  -11.389;34764.527
704.370;28118.072;  -12.499;34307.367
704.944;27892.283;  -11.449;33509.887
705.519;26902.432;  -10.659;31388.584
706.093;26044.900;  -12.909;31340.104
706.668;26570.947;  -13.509;32630.281
707.242;26386.729;  -10.049;32728.779
707.816;24446.250;  -10.629;32947.238
708.390;24045.404;  -11.829;33277.855
708.965;24682.678;  -11.159;33834.336
709.539;25520.178;  -11.069;33709.273
710.113;24789.535;  -10.908;33044.313
710.687;23236.025;   -9.488;31953.992
711.261;23524.379;  -13.068;30505.949
711.835;26474.504;  -12.748;30262.369
712.409;27144.385;  -10.678;31254.447
712.983;25914.988;  -11.658;32754.986
713.557;26414.311;  -13.718;34018.824
714.131;27043.973;  -13.388;34579.625
714.704;27680.547;   -9.818;33890.262
715.278;28516.910;  -11.818;33531.102
715.852;29526.074;  -11.328;33601.660
716.425;29997.838;   -9.118;33515.117
716.999;30134.471;  -10.188;33185.555
717.573;30134.441;   -9.808;33905.996
718.146;32564.076;  -11.478;35199.293
718.720;32442.434;  -10.998;35060.551
719.293;30714.516;   -9.508;34973.230
719.867;30353.383;  -12.138;36394.449
720.440;29276.383;  -11.288;36663.008
721.013;32042.441;  -11.428;35102.426
721.587;33673.383;  -11.698;33985.266
722.160;34483.141;  -11.608;33524.965
722.733;32783.621;  -11.428;32987.043
723.306;31399.131;  -12.518;33066.301
723.880;31360.779;   -7.408;33399.500
724.453;30393.693;  -11.048;33468.297
725.026;29002.553;  -11.678;33816.637
725.599;27793.225;  -10.978;32797.996
726.172;26994.346;   -8.838;33187.434
726.745;27976.807;  -11.438;35136.613
727.318;28734.082;   -9.828;35751.730
727.891;27206.656;  -10.868;35890.430
728.463;25368.951;  -11.348;34822.090
729.036;23940.309;  -11.608;32895.086
729.609;23888.357;  -14.738;31823.225
730.182;25050.912;   -8.448;31445.283
730.754;26216.654;  -11.228;32373.223
731.327;26559.076;  -12.018;33676.820
731.900;28330.467;  -13.748;33417.000
732.472;28237.373;  -10.928;31978.498
733.045;26501.660;   -9.478;30368.777
733.617;24836.307;  -12.967;30574.215
734.190;24043.109;  -11.707;31280.975
734.762;23042.426;  -11.067;31674.412
735.334;22486.430;  -10.587;31247.291
735.907;21532.865;  -11.947;29876.211
736.479;22140.553;  -11.667;29808.488
737.051;24895.064;  -10.187;30233.547
737.623;27590.424;   -6.887;31469.086
738.195;30690.035;  -12.117;31784.225
738.768;32264.244;  -14.077;32120.523
739.340;31048.887;  -12.207;32094.342
739.912;27550.990;   -8.977;31312.680
740.484;25658.145;  -11.017;31946.238
741.056;26560.416;  -13.517;32984.059
741.628;28532.979;  -11.507;33897.715
742.199;28874.352;   -7.597;33213.016
742.771;29662.260;  -12.227;31369.113
743.343;28995.045;  -12.427;31865.473
743.915;27297.943;   -9.827;32388.631
744.487;26303.635;  -10.007;31079.568
745.058;24644.260;  -11.887;30570.107
745.630;23877.930;  -10.787;29970.127
746.201;23294.035;  -10.887;29186.766
746.773;23310.141;   -9.707;28805.723
747.344;24042.939;  -11.137;29591.223
747.916;24293.340;  -11.887;31412.201
748.487;23875.426;   -9.707;32194.898
749.059;23244.213;  -10.027;32533.719
749.630;22972.592;  -11.787;32158.518
750.201;22012.504;  -12.767;30855.395
750.773;21711.184;  -11.497;28622.555
751.344;22414.332;   -9.937;28405.732
751.915;22873.613;  -11.567;28461.551
752.486;22366.529;  -13.267;27842.850
753.057;20383.834;  -10.627;27845.008
753.628;18945.568;  -11.657;27728.107
754.199;21045.588;  -12.097;27381.086
754.770;22538.219;  -11.447;25882.203
755.341;22583.621;  -11.997;25886.184
755.912;20569.203;  -10.207;26050.861
756.483;18837.244;  -10.937;26798.779
757.054;18713.672;  -11.527;27048.238
757.625;19002.574;  -12.886;26294.838
758.195;19386.463;  -11.226;26142.076
758.766;19397.906;  -12.366;26392.234
759.337;18322.207;  -11.946;26334.594
759.907;18362.695;  -13.856;27579.652
760.478;19151.006;   -9.606;28352.770
761.048;19139.064;  -11.606;27325.088
761.619;19393.834;  -11.036;26460.428
762.189;18948.959;  -12.206;26029.826
762.760;20385.949;   -9.666;26430.145
763.330;21206.107;   -9.796;26670.902
763.900;19222.992;  -10.896;26603.021
764.471;17538.951;  -11.726;25542.740
765.041;17906.195;   -9.656;24358.459
765.611;18793.838;  -11.276;23991.297
766.181;18617.369;  -12.116;24470.236
766.751;18103.145;  -12.376;24845.975
767.321;18121.201;  -11.626;24533.633
767.891;18384.334;  -10.426;24916.492
768.461;17259.875;  -13.456;24776.771
769.031;15278.830;  -11.616;24757.988
769.601;15012.448;  -11.356;24181.088
770.171;15200.205;  -11.586;23670.387
770.741;15606.027;  -12.696;22960.045
771.311;15701.805;  -10.226;22917.523
771.880;15519.889;  -11.146;23562.941
772.450;16246.759;  -11.716;24216.500
773.020;16518.645;  -13.226;24140.398
773.589;16297.228;  -12.586;24414.857
774.159;16061.292;  -10.246;23858.717
774.729;15607.516;  -11.586;22942.135
775.298;14733.218;  -15.926;22324.033
775.867;14752.315;  -10.426;21140.313
776.437;14623.813;  -11.416;20838.092
777.006;13287.166;  -12.766;20599.510
777.576;13359.350;  -13.666;20508.809
778.145;13761.273;  -10.066;20732.947
778.714;13341.135;  -10.276;21062.465
779.283;13690.277;  -12.086;20949.664
779.853;15086.149;  -14.016;20508.623
780.422;15480.484;  -12.376;20649.082
780.991;14365.986;   -9.246;21527.520
781.560;13415.162;   -9.775;22632.658
782.129;13186.316;  -12.495;23048.277
782.698;12967.589;  -11.775;23438.555
783.267;13253.347;  -10.065;23267.734
783.836;13859.925;  -12.455;22415.133
784.404;14622.582;  -13.385;20443.152
784.973;15406.761;  -11.045;19699.150
785.542;15008.744;   -9.505;19763.828
786.111;13921.059;   -9.385;20341.408
786.679;13660.791;  -13.475;20207.967
787.248;13745.804;  -11.245;19516.465
787.817;12012.568;  -12.485;18900.363
788.385;10340.912;  -11.165;17879.121
788.954;10936.173;  -11.755;17658.301
789.522;11710.000;   -9.625;17788.879
790.090;11451.208;   -9.665;18118.277
790.659;11094.795;   -9.295;18338.736
791.227;12139.008;  -12.175;18508.615
791.795;13519.329;  -12.145;17898.254
792.364;13349.276;  -11.575;17295.133
792.932;11980.176;  -11.085;16822.051
793.500;10852.279;  -11.345;17040.148
794.068;10819.151;  -12.565;17179.787
794.636;11895.212;  -12.105;16664.246
795.204;12405.288;  -11.995;16524.545
795.772;11758.317;  -12.615;17274.564
796.340;11323.914;  -12.425;17891.002
796.908;11074.707;  -11.455;17648.561
797.476;10415.036;  -12.165;17064.080
798.044;10090.729;  -15.795;16672.777
798.612;10355.431;  -10.985;17023.996
799.180;11106.733;  -12.055;16561.615
799.747;11427.792;  -12.525;15962.773
800.315;10309.943;  -14.765;15296.992
800.883; 9098.849;  -12.435;14801.771
801.450; 8969.325;  -11.295;14534.430
802.018; 9420.833;  -11.185;14173.248
802.585; 9388.630;  -11.625;14029.547
803.153; 8389.524;  -10.665;13836.846
803.720; 7936.445;  -10.275;13567.324
804.287; 7824.566;  -12.865;13360.622
804.855; 8078.309;  -12.324;13681.981
805.422; 8426.770;  -11.574;13536.560
805.989; 8232.392;  -11.004;13355.958
806.556; 8387.622;  -12.214;13747.896
807.124; 8781.140;  -13.304;13987.376
807.691; 8489.072;  -12.034;14038.674
808.258; 7807.424;  -11.014;14120.152
808.825; 7665.579;  -11.804;13860.111
809.392; 7578.021;  -11.544;13268.790
809.959; 7450.672;  -14.954;12680.389
810.526; 7750.098;  -10.214;12427.308
811.093; 8231.458;  -10.754;12030.105
811.659; 7946.019;  -12.194;11653.664
812.226; 6830.291;   -9.194;11637.183
812.793; 6500.857;   -9.644;11611.521
813.360; 7296.117;  -11.544;11885.181
813.926; 8128.649;  -12.814;12770.539
814.493; 8064.854;  -11.524;12677.638
815.060; 7772.983;  -12.254;11974.336
815.626; 7342.432;  -12.114;11594.715
816.193; 7017.107;  -11.994;11579.474
816.759; 6896.208;  -11.464;11666.972
817.325; 6557.071;  -10.444;11325.530
817.892; 6217.726;  -11.124;11105.369
818.458; 6073.650;  -11.864;10843.928
819.024; 6354.974;  -10.634;10714.406
819.591; 6458.195;  -10.554;10469.165
820.157; 6702.878;  -13.334;10235.523
820.723; 7001.478;  -13.044;10847.563
821.289; 7175.611;   -9.664;11040.980
821.855; 7359.798;  -10.994;10357.100
822.421; 7384.083;  -11.784; 9978.918
822.987; 7353.753;  -12.554; 9754.177
823.553; 7734.311;  -12.554;10065.755
824.119; 7593.689;   -8.544;10036.294
824.685; 6667.196;  -12.144;10029.192
825.251; 6076.923;  -12.754;10199.230
825.816; 5613.541;  -11.354; 9820.189
826.382; 5333.854;  -11.004; 9297.248
826.948; 5350.331;  -11.004; 9381.347
827.513; 5244.003;  -12.474; 9450.726
828.079; 5229.016;  -13.084; 9472.444
828.645; 5420.688;  -10.813; 9292.643
829.210; 5225.369;  -11.593; 9065.341
829.776; 5144.809;  -12.633; 9132.620
830.341; 5136.178;  -10.473; 9092.878
830.906; 4931.692;   -8.763; 9078.557
831.472; 4674.667;  -13.453; 8534.535
832.037; 4098.313;  -12.173; 8677.874
832.602; 3880.229;  -14.093; 8628.692
833.167; 4139.009;  -13.593; 8879.031
833.733; 4667.272;  -10.793; 9189.790
834.298; 5048.344;  -14.783; 9052.608
834.863; 4672.760;  -11.023; 8895.087
835.428; 4448.329;  -11.113; 8824.266
835.993; 4888.592;   -9.983; 8845.385
836.558; 5125.155;  -13.003; 8888.563
837.123; 4936.129;  -10.733; 8966.582
837.688; 4541.786;   -9.683; 8617.860
838.253; 4370.950;  -12.253; 8590.699
838.817; 4368.416;  -11.643; 8443.797
839.382; 4309.143;  -11.953; 8799.356
839.947; 4403.971;  -11.443; 8810.595
840.511; 4769.249;  -10.843; 8796.394
841.076; 5010.549;  -13.533; 8347.231
841.641; 4791.186;  -11.743; 8224.330
842.205; 4233.453;  -10.013; 8223.349
842.770; 3915.915;  -11.023; 8622.107
843.334; 4019.027;  -14.273; 8410.386
843.898; 4433.055;  -11.323; 8337.465
844.463; 4840.256;  -10.263; 8506.283
845.027; 5031.124;  -10.353; 8280.962
845.591; 4971.908;  -12.163; 8231.141
846.156; 4817.675;  -12.263; 7969.179
846.720; 4799.001;  -11.553; 7768.278
847.284; 4584.952;  -12.393; 7630.957
847.848; 3795.177;  -12.623; 7472.395
848.412; 3203.975;  -11.863; 7437.394
848.976; 3141.747;  -10.203; 7674.592
849.540; 3347.246;  -10.603; 7836.011
850.104; 3550.555;  -12.423; 7913.669
850.668; 3562.280;  -14.613; 7694.508
851.232; 3586.033;  -12.873; 7756.887
851.796; 3820.584;  -14.192; 7926.545
852.359; 4012.125;  -13.652; 7827.844
852.923; 3926.073;  -11.402; 7641.163
853.487; 3598.907;  -12.022; 7342.501
854.050; 3434.217;  -15.202; 7042.820
854.614; 3461.821;  -14.592; 7151.338
855.177; 3460.728;  -12.572; 7105.077
855.741; 3487.229;   -9.932; 6989.675
856.304; 3425.072;  -12.192; 6596.634
856.868; 3302.774;  -13.462; 6356.272
857.431; 3288.650;  -11.542; 6468.571
857.995; 3363.945;  -12.062; 6373.210
858.558; 3179.834;  -11.142; 6324.448
859.121; 3044.017;  -11.742; 6408.327
859.684; 3095.261;  -10.332; 6347.886
860.247; 3201.098;  -11.962; 6321.264
860.810; 3272.696;  -12.332; 6301.903
861.374; 3151.508;  -10.292; 6607.881
861.937; 2964.540;  -12.062; 6408.200
862.500; 2990.703;  -11.702; 6572.639
863.062; 3142.890;  -13.852; 6387.297
863.625; 3193.303;  -12.972; 6190.836
864.188; 3131.692;  -10.292; 5807.254
864.751; 3104.623;  -12.382; 5682.413
865.314; 3032.859;  -13.232; 5547.492
865.876; 2897.321;  -12.772; 5500.150
866.439; 2789.594;  -11.952; 5415.909
867.002; 2865.127;   -9.332; 5501.567
867.564; 2916.244;  -11.712; 5413.946
868.127; 2443.401;  -12.012; 5160.325
868.689; 1664.216;  -11.882; 5133.183
869.252; 1292.518;  -11.572; 5252.382
869.814; 1293.716;  -10.692; 5297.141
870.377; 1457.187;  -12.392; 5390.919
870.939; 1630.823;  -10.582; 5599.898
871.501; 1761.390;  -12.782; 5248.336
872.063; 1881.816;  -15.612; 4854.235
872.626; 2012.709;  -13.922; 4817.074
873.188; 2047.503;  -13.832; 4987.732
873.750; 2020.080;  -10.962; 4868.651
874.312; 2076.119;  -11.022; 4779.330
874.874; 2133.443;  -13.152; 4866.348
875.436; 2076.485;  -13.401; 4718.887
875.998; 1990.329;   -8.891; 4660.005
876.560; 1926.450;  -12.591; 4462.964
877.122; 1884.302;  -14.531; 4145.042
877.683; 1847.950;  -10.781; 4056.481
878.245; 1754.282;  -14.281; 3950.740
878.807; 1704.931;  -10.311; 4058.958
879.369; 1660.725;  -13.201; 3954.677
879.930; 1626.474;  -12.061; 3941.495
880.492; 1624.601;   -9.181; 4067.014
881.053; 1644.969;  -12.051; 3859.633
881.615; 1613.092;  -11.501; 3776.071
882.176; 1518.712;  -12.221; 3734.750
882.738; 1416.272;   -8.931; 3678.489
883.299; 1353.725;  -13.571; 3405.407
883.860; 1367.520;  -12.331; 3351.106
884.422; 1314.789;  -10.201; 3394.044
884.983; 1181.477;  -12.521; 3166.443
885.544; 1064.168;  -12.291; 3189.802
886.105; 1008.778;  -12.991; 3160.360
886.666;  994.753;  -12.901; 3093.059
887.227;  983.078;  -12.061; 2941.957
887.788;  953.546;  -11.641; 2974.836
888.349;  908.233;  -14.691; 2721.214
888.910;  861.679;   -9.681; 2696.493
889.471;  857.966;   -9.971; 2560.172
890.032;  871.967;  -13.151; 2558.190
890.593;  852.649;  -12.051; 2567.669
891.153;  808.748;  -12.841; 2460.307
891.714;  777.449;  -13.561; 2372.046
892.275;  744.710;  -12.401; 2309.505
892.835;  708.446;  -13.191; 2382.543
893.396;  672.802;  -12.551; 2295.502
893.956;  653.483;  -11.981; 2162.420
894.517;  637.607;  -12.221; 2125.439
895.077;  602.724;  -12.021; 2086.978
895.638;  542.551;  -10.891; 2126.316
896.198;  485.998;  -13.171; 1838.275
896.758;  449.026;  -11.891; 1892.813
897.319;  424.576;  -12.491; 1792.232
897.879;  407.509;  -12.401; 1762.751
898.439;  380.365;  -13.431; 1661.149
898.999;  363.445;  -11.340; 1781.468
899.559;  354.643;  -13.930; 1703.347
900.119;  334.876;  -13.730; 1537.525
900.679;  317.152;   -9.210; 1638.384
901.239;  301.559;  -10.860; 1527.902
901.799;  283.967;  -11.450; 1456.441
902.359;  265.073;  -13.800; 1357.140
902.919;  258.384;  -12.130; 1331.118
903.479;  260.138;  -12.650; 1317.257
904.038;  254.416;  -16.110; 1262.595
904.598;  240.287;  -13.690; 1152.034
905.158;  227.493;  -10.290; 1240.893
905.717;  222.399;  -10.670; 1233.691
906.277;  220.248;  -14.040; 1217.330
906.836;  220.809;  -13.510; 1222.408
907.396;  214.924;  -11.530; 1193.047
907.955;  204.503;  -13.190; 1182.526
908.515;  192.795;  -12.950; 1099.364
909.074;  184.077;  -12.390; 1092.863
909.633;  178.271;  -10.340; 1069.121
910.192;  177.755;  -11.170; 1196.460
910.752;  172.307;  -14.200; 1029.960
911.311;  167.431;  -13.810; 1009.780
911.870;  164.019;  -12.750;  971.460
912.429;  164.196;  -12.380; 1094.080
912.988;  161.717;  -11.930; 1081.060
913.547;  154.640;  -10.990;  940.380
914.106;  151.845;  -11.200;  999.420
914.665;  150.408;  -13.150;  984.020
915.224;  148.500;  -13.310; 1035.760
915.782;  146.627;  -13.340;  922.560
916.341;  146.463;  -10.710; 1049.840
916.900;  143.667;  -12.980;  925.260
917.458;  141.986;  -13.060;  884.220
918.017;  140.098;  -10.900;  942.600
918.576;  139.093;  -11.630;  904.440
919.134;  139.464;  -12.860;  837.980
919.693;  139.775;  -15.160;  893.060
920.251;  138.998;  -13.470;  876.500
920.809;  137.669;  -13.700;  839.580
921.368;  139.471;  -13.420;  885.360
921.926;  140.426;  -14.710;  842.940
922.484;  139.400;  -12.560;  903.360
923.042;  138.550;  -11.930;  880.340
923.601;  139.395;  -10.270;  998.680
924.159;  137.832;  -12.960;  935.560
924.717;  136.591;  -13.040;  841.080
925.275;  136.520;  -12.560;  903.240
925.833;  135.953;  -13.040;  779.320
926.391;  136.921;  -13.360;  938.380
926.949;  133.411;  -13.940;  857.680
927.506;  134.244;   -9.400;  903.500
928.064;  135.302;  -10.940;  877.580
928.622;  135.443;  -13.180;  880.100
929.180;  136.453;  -12.730;  814.180
929.737;  137.695;  -12.840;  808.540
930.295;  140.913;  -11.810;  928.480
930.853;  144.118;  -13.650;  849.100
931.410;  145.824;  -13.580;  821.120
931.968;  147.535;  -12.020;  940.660
932.525;  149.861;  -13.320;  909.380
933.082;  151.491;  -13.800;  811.440
933.640;  157.010;  -11.380;  925.900
934.197;  158.180;  -11.480;  886.360
934.754;  162.889;  -13.220;  897.780
935.312;  162.769;  -14.950;  863.340
935.869;  158.863;  -10.940; 1012.980
936.426;  153.922;  -12.100;  872.800
936.983;  154.737;  -12.930;  889.020
937.540;  155.603;  -14.250;  838.280
938.097;  160.061;  -12.600;  940.120
938.654;  164.680;  -11.260;  898.860
939.211;  168.683;  -13.020;  952.480
939.768;  171.419;  -15.760;  915.420
940.324;  173.137;  -13.920;  904.200
940.881;  167.214;  -11.620;  878.500
941.438;  166.649;   -9.870; 1021.200
941.995;  164.111;  -13.920;  992.560
942.551;  162.052;  -12.830;  875.620
943.108;  163.653;  -11.980;  937.920
943.664;  166.519;  -13.740;  869.340
944.221;  172.984;  -12.670; 1088.140
944.777;  170.025;  -13.250;  869.680
945.334;  168.641;  -13.000;  884.840
945.890;  169.165;  -13.020;  946.480
946.446;  170.509;  -13.880;  947.020
947.003;  172.232;  -12.660;  964.940
947.559;  172.841;   -8.730; 1063.040
948.115;  169.819;  -11.960; 1026.540
948.671;  166.265;  -12.360;  967.300
949.227;  163.530;  -12.700;  859.560
949.783;  158.704;  -13.450;  858.900
950.339;  157.717;  -10.620;  991.000
950.895;  155.329;  -14.770; 1023.840
951.451;  152.866;  -13.650;  925.280
952.007;  152.402;  -11.180;  998.540
952.563;  152.059;  -11.680;  937.780
953.118;  152.427;  -13.280;  904.940
953.674;  153.980;  -12.510;  935.780
954.230;  153.268;  -12.220;  949.640
954.785;  149.476;  -12.190;  936.640
955.341;  144.402;  -12.270;  998.160
955.897;  138.256;  -14.900;  834.660
956.452;  138.048;  -12.520;  953.840
957.008;  139.346;   -9.410; 1083.640
957.563;  137.230;  -11.280; 1009.540
958.118;  134.321;  -13.470;  877.700
958.674;  136.218;  -12.190;  946.780
959.229;  139.611;  -12.760; 1013.980
959.784;  143.670;  -15.710;  832.400
960.339;  149.508;  -12.540; 1001.280
960.894;  149.691;  -11.680;  963.760
961.449;  146.233;  -11.410;  859.960
962.004;  145.203;  -10.430; 1212.840
962.559;  139.336;  -14.040;  860.140
963.114;  136.057;  -14.270;  742.480
963.669;  137.268;  -11.320;  915.500
964.224;  137.525;  -14.620;  874.340
964.779;  133.954;  -14.150;  828.420
965.334;  134.009;  -10.850; 1017.860
965.888;  133.996;  -14.530;  875.360
966.443;  135.049;  -13.520;  972.380
966.998;  130.963;  -13.370;  819.460
967.552;  127.622;   -9.960;  908.380
968.107;  123.570;  -12.360;  868.300
968.661;  124.512;  -12.270;  922.440
969.216;  123.748;  -12.140;  856.280
969.770;  123.550;  -11.860;  917.200
970.324;  123.925;  -12.170;  923.140
970.879;  121.714;  -14.160;  947.180
971.433;  120.107;  -12.940;  952.720
971.987;  115.825;  -10.180;  895.340
972.541;  115.526;  -12.130;  917.100
973.095;  116.644;  -14.980; 1009.460
973.649;  114.065;  -14.480;  809.480
974.203;  115.611;  -13.530;  829.040
974.757;  117.293;  -12.060;  855.220
975.311;  115.528;  -13.240;  872.600
975.865;  112.057;  -12.550;  881.820
976.419;  110.187;  -13.180;  857.400
976.973;  110.491;  -14.100;  849.620
977.526;  110.193;  -13.330;  949.920
978.080;  105.521;  -15.390;  796.780
978.634;  105.405;  -11.670;  921.320
979.187;  104.590;  -10.640;  905.400
979.741;  103.122;  -13.330; 1018.380
980.294;   99.723;  -14.480;  789.160
980.848;   96.709;  -13.420;  717.220
981.401;   95.834;  -12.360;  816.540
981.955;   94.726;  -12.480;  844.300
982.508;   90.989;  -14.000;  746.340
983.061;   90.010;  -10.440;  915.260
983.615;   86.935;  -14.340;  798.800
984.168;   84.462;  -14.950;  770.080
984.721;   84.406;  -13.270;  880.760
985.274;   82.147;  -12.240;  867.500
985.827;   79.208;  -12.720;  834.220
986.380;   76.325;  -14.920;  721.340
986.933;   75.397;  -12.860;  864.800
987.486;   73.699;  -10.440;  861.920
988.039;   73.868;  -11.820;  863.100
988.591;   72.898;  -13.760;  893.260
989.144;   70.815;  -14.080;  737.260
989.697;   70.764;  -13.440;  758.740
990.250;   72.542;  -12.050;  858.100
990.802;   71.094;  -14.550;  755.860
991.355;   71.035;  -10.770;  974.880
991.907;   68.785;  -11.710;  864.320
992.460;   66.536;  -12.650;  753.760
993.012;   64.997;  -13.860;  749.540
993.565;   62.808;  -14.310;  711.360
994.117;   63.303;   -9.920;  950.780
994.669;   60.092;  -13.420;  701.320
995.221;   59.914;  -14.200;  791.920
995.774;   57.877;  -13.400;  787.580
996.326;   56.591;  -11.850;  740.220
996.878;   57.358;  -12.230;  838.420
997.430;   55.424;  -14.260;  699.860
997.982;   55.086;  -11.430;  750.140
998.534;   54.627;  -11.590;  739.060
999.086;   54.116;  -11.960;  738.220
999.638;   53.387;  -13.640;  661.380
1000.190;   51.761;  -13.660;  699.320
1000.741;   51.327;   -9.980;  742.700
1001.293;   50.788;  -11.860;  686.020
1001.845;   50.214;  -14.280;  676.640
1002.396;   50.950;  -12.270;  743.400
1002.948;   49.187;  -13.670;  737.400
1003.500;   48.711;  -12.010;  723.780
1004.051;   50.369;  -11.890;  907.580
1004.603;   48.358;  -11.220;  791.820
1005.154;   43.974;  -13.210;  608.980
1005.705;   44.951;  -11.850;  723.960
1006.257;   44.731;  -13.670;  707.220
1006.808;   43.069;  -12.060;  685.460
1007.359;   42.524;  -10.250;  763.240
1007.910;   41.102;  -13.440;  646.640
1008.461;   41.607;  -13.170;  732.940
1009.013;   39.236;  -14.590;  588.340
1009.564;   40.331;  -12.100;  793.520
1010.115;   39.031;  -14.000;  597.040
1010.665;   39.077;  -15.020;  602.160
1011.216;   39.354;  -12.560;  667.920
1011.767;   37.667;  -11.330;  697.920
1012.318;   38.158;  -11.450;  736.980
1012.869;   38.379;  -11.000;  679.000
1013.419;   37.263;  -11.760;  603.120
1013.970;   36.587;  -11.800;  666.640
1014.521;   36.173;  -14.750;  620.620
1015.071;   37.027;  -14.430;  670.380
1015.622;   35.941;  -14.170;  635.460
1016.172;   34.739;  -11.700;  596.820
1016.723;   35.445;  -13.230;  614.380
1017.273;   35.551;  -16.120;  604.160
1017.823;   35.634;  -13.360;  650.340
1018.374;   33.769;  -13.710;  611.760
1018.924;   34.865;  -11.050;  716.880
1019.474;   35.267;  -14.120;  718.880
1020.024;   33.645;  -12.990;  657.580
1020.574;   33.526;  -12.010;  726.160
1021.124;   34.288;  -12.080;  673.580
1021.674;   32.737;  -15.860;  559.120
1022.224;   34.132;  -11.710;  708.940
1022.774;   32.257;  -13.030;  668.820
1023.324;   33.589;  -11.000;  753.520
1023.874;   35.582;  -13.270;  875.760
1024.423;   31.977;  -14.570;  613.700
1024.973;   31.193;  -12.620;  610.760
1025.523;   31.470;  -12.630;  620.960
1026.072;   31.341;  -14.110;  606.420
1026.622;   30.792;  -15.390;  675.740
1027.172;   31.738;   -9.090;  715.660
1027.721;   30.514;  -12.250;  601.220
1028.270;   31.464;  -15.590;  663.400
1028.820;   30.514;  -13.840;  638.080
1029.369;   29.502;  -13.170;  612.700
1029.918;   30.035;  -14.080;  649.840
1030.468;   30.430;  -13.860;  564.780
1031.017;   30.906;  -12.970;  634.800
1031.566;   28.023;  -12.320;  608.900
1032.115;   29.574;  -13.140;  694.500
1032.664;   29.443;  -14.560;  596.480
1033.213;   30.019;  -11.620;  735.420
1033.762;   28.476;  -13.190;  635.620
1034.311;   28.370;  -13.460;  677.220
1034.860;   29.053;  -15.770;  691.000
1035.408;   28.944;  -13.100;  722.720
1035.957;   28.674;  -12.880;  719.540
1036.506;   26.610;  -13.640;  530.800
1037.055;   30.726;  -12.420;  844.320
1037.603;   27.936;  -13.740;  664.000
1038.152;   25.602;  -13.840;  534.760
1038.700;   26.737;  -10.770;  585.740
1039.249;   26.722;  -13.520;  681.220
1039.797;   26.465;  -13.060;  633.360
1040.345;   25.752;  -11.760;  705.420
1040.894;   25.674;  -10.790;  625.300
1041.442;   25.782;  -15.420;  632.200
1041.990;   24.595;  -14.550;  559.160
1042.538;   24.264;  -15.620;  536.180
1043.087;   24.550;  -14.940;  570.860
1043.635;   26.626;  -12.100;  670.500
1044.183;   25.120;  -13.200;  586.400
1044.731;   23.971;  -11.630;  576.000
1045.279;   24.798;  -14.200;  674.920
1045.827;   27.688;  -12.510;  892.400
1046.374;   23.181;  -14.960;  515.420
1046.922;   21.840;  -11.850;  590.580
1047.470;   24.484;  -13.770;  691.300
1048.018;   24.528;  -15.380;  647.960
1048.565;   25.123;  -14.010;  708.600
1049.113;   21.854;  -14.620;  557.000
1049.660;   24.100;  -14.940;  629.660
1050.208;   24.620;  -14.540;  675.640
1050.755;   22.619;  -13.710;  606.580
1051.303;   22.920;  -11.880;  686.820
1051.850;   22.851;  -12.160;  635.120
1052.397;   21.109;  -15.110;  473.960
1052.945;   21.320;  -14.770;  617.760
1053.492;   22.647;  -12.320;  741.840
1054.039;   22.937;  -13.290;  720.180
1054.586;   21.516;  -15.210;  557.240
1055.133;   21.942;  -12.920;  693.140
1055.680;   21.481;  -12.610;  646.620
1056.227;   21.158;  -12.620;  542.780
1056.774;   23.409;  -13.010;  794.980
1057.321;   20.370;  -16.180;  523.260
1057.868;   20.874;  -11.230;  651.320
1058.415;   20.816;  -10.890;  651.980
1058.961;   21.588;  -12.530;  678.940
1059.508;   20.990;  -14.120;  643.820
1060.055;   19.491;  -13.340;  581.780
1060.601;   21.459;  -12.920;  624.300
1061.148;   20.878;  -14.430;  616.820
1061.694;   20.174;  -14.140;  592.580
1062.241;   19.023;  -12.550;  596.320
1062.787;   20.337;  -13.370;  663.140
1063.334;   23.010;  -12.260;  808.560
1063.880;   19.547;  -10.800;  668.360
1064.426;   18.990;   -9.920;  706.820
1064.972;   18.936;  -12.970;  601.340
1065.518;   18.270;  -14.440;  566.640
1066.065;   18.280;  -12.680;  624.460
1066.611;   17.234;  -13.520;  598.800
1067.157;   19.685;  -11.100;  641.860
1067.703;   19.282;  -14.100;  668.480
1068.249;   18.572;  -13.750;  605.220
1068.794;   18.383;  -11.070;  626.880
1069.340;   17.941;  -13.210;  578.960
1069.886;   18.278;  -14.850;  590.700
1070.432;   16.463;  -14.580;  541.720
1070.977;   16.262;  -12.930;  601.080
1071.523;   17.410;  -11.970;  573.060
1072.068;   17.833;  -13.730;  582.000
1072.614;   16.709;  -14.550;  527.760
1073.160;   17.566;  -13.690;  687.040
1073.705;   15.645;  -14.780;  572.520
1074.250;   17.370;  -15.430;  559.900
1074.796;   17.267;  -11.620;  655.160
1075.341;   17.174;  -11.580;  664.100
1075.886;   17.104;  -13.190;  594.240
1076.431;   17.313;  -13.630;  649.880
1076.976;   16.574;  -11.670;  639.220
1077.521;   14.801;  -11.600;  583.080
1078.067;   15.554;  -13.920;  579.400
1078.612;   16.766;  -12.910;  661.620
1079.156;   15.573;  -15.340;  601.540
1079.701;   15.414;  -12.560;  693.260
1080.246;   16.258;  -12.490;  696.300
1080.791;   16.050;  -14.550;  625.020
1081.336;   14.887;  -15.210;  659.320
1081.880;   15.258;  -11.280;  649.680
1082.425;   15.196;  -12.830;  573.480
1082.970;   16.983;  -11.680;  717.040
1083.514;   14.528;  -15.500;  597.000
1084.059;   13.814;  -11.770;  586.720
1084.603;   13.833;  -13.480;  565.840
1085.147;   15.198;  -13.940;  645.220
1085.692;   15.342;  -13.170;  716.800
1086.236;   12.491;  -15.740;  503.140
1086.780;   15.825;  -10.750;  751.440
1087.325;   14.889;  -14.900;  654.620
1087.869;   14.340;  -15.160;  610.700
1088.413;   14.686;  -11.030;  705.040
1088.957;   12.130;  -15.210;  543.400
1089.501;   15.197;  -12.310;  766.640
1090.045;   14.357;  -12.790;  726.480
1090.589;   11.332;  -14.040;  569.920
1091.133;   13.492;  -12.800;  673.340
1091.676;   13.084;  -13.600;  591.940
1092.220;   12.528;  -12.960;  600.920
1092.764;   13.243;  -10.830;  706.960
1093.307;   12.909;  -12.390;  673.780
1093.851;   12.272;  -15.850;  556.540
1094.395;   13.588;  -12.980;  683.140
1094.938;   11.658;  -13.670;  632.520
1095.482;   11.832;  -12.740;  559.800
1096.025;   13.816;  -13.340;  710.880
1096.568;   13.860;  -10.500;  779.280
1097.112;    8.892;  -13.500;  508.180
1097.655;   11.816;  -13.060;  603.000
1098.198;   10.926;  -13.240;  600.180
1098.741;   10.759;  -15.490;  612.860
1099.285;   11.129;  -13.410;  657.300
1099.828;    9.491;  -15.640;  439.400
1100.371;   11.595;  -13.980;  608.160
1100.914;   11.191;  -13.990;  682.660
1101.457;   10.801;  -15.030;  679.900
1101.999;    9.259;  -12.480;  584.680
1102.542;   11.904;  -12.410;  641.440
1103.085;   10.559;  -14.730;  658.500
1103.628;   11.193;  -12.190;  762.060
1104.170;   10.048;  -12.360;  588.280
1104.713;   11.007;  -13.350;  646.700
1105.256;    9.337;  -14.930;  557.440
1105.798;    6.878;  -15.150;  499.980
1106.341;   11.513;  -13.230;  728.900
1106.883;    9.285;  -14.680;  521.340
1107.425;    9.994;  -14.810;  668.180
1107.968;    9.398;  -12.940;  612.380
1108.510;    9.834;  -10.550;  684.960
1109.052;    9.056;  -15.640;  612.620
1109.594;    8.652;  -14.440;  554.440
1110.136;    9.396;  -11.380;  643.220
1110.679;    7.865;  -13.090;  633.080
1111.221;    9.377;  -14.230;  604.460
1111.763;    7.741;  -14.260;  559.220
1112.304;    7.118;  -14.510;  547.140
1112.846;    8.954;  -14.700;  666.240
1113.388;   11.954;  -12.270;  942.180
1113.930;    9.138;  -13.340;  694.200
1114.472;    7.197;  -12.560;  606.540
1115.013;    6.604;  -14.280;  551.280
1115.555;    7.434;  -14.010;  587.100
1116.097;    6.748;  -14.730;  579.480
1116.638;    7.780;  -12.160;  684.600
1117.180;    7.890;  -14.320;  667.740
1117.721;    8.490;  -15.730;  568.580
1118.262;    8.982;  -13.480;  677.960
1118.804;    7.858;  -11.530;  637.340
1119.345;    6.612;  -13.540;  578.400
1119.886;    9.307;  -14.470;  704.040
1120.427;    7.017;  -13.030;  589.020
1120.969;    6.372;  -13.150;  597.920
1121.510;    6.404;  -13.940;  563.060
1122.051;    7.848;  -12.310;  723.580
1122.592;    5.927;  -13.870;  655.420
1123.133;    4.483;  -12.890;  547.940
1123.673;    6.487;  -13.300;  706.480
1124.214;    6.691;  -14.000;  612.460
1124.755;    6.889;  -13.210;  639.460
1125.296;    6.365;  -13.450;  627.320
1125.836;    6.972;  -12.610;  691.500
1126.377;    6.495;  -15.840;  599.660
1126.918;    6.730;  -11.830;  614.980
1127.458;    4.732;  -11.830;  622.220
1127.999;    6.405;  -11.490;  656.980
1128.539;    6.416;  -12.900;  694.240
1129.079;    5.330;  -14.910;  632.720
1129.620;    4.630;  -12.920;  558.100
1130.160;    4.248;  -14.640;  539.480
1130.700;    6.288;  -13.270;  640.840
1131.240;    5.682;  -14.110;  643.700
1131.781;    4.297;  -13.130;  619.680
1132.321;    5.107;  -15.220;  599.120
1132.861;    4.400;  -15.670;  564.200
1133.401;    4.449;  -13.970;  593.940
1133.941;    4.715;  -13.740;  626.280
1134.481;    4.587;  -13.200;  597.580
1135.020;    4.835;  -14.830;  609.160
1135.560;    4.817;  -14.590;  674.940
1136.100;    2.398;  -13.730;  501.160
1136.640;    3.154;  -15.240;  510.480
1137.179;    4.584;  -14.710;  537.960
1137.719;    3.999;  -14.090;  605.400
1138.258;    3.290;  -12.470;  587.360
1138.798;    4.673;  -12.580;  663.780
1139.337;    3.276;  -16.480;  482.840
1139.877;    3.782;  -13.970;  642.360
1140.416;    5.638;   -9.870;  878.060
1140.955;    2.614;  -14.860;  535.380
1141.494;    4.157;  -14.530;  669.280
1142.034;    2.940;  -13.940;  583.520
1142.573;    3.794;  -11.160;  646.280
1143.112;    2.444;  -15.050;  553.480
1143.651;    3.349;  -15.390;  536.480
1144.190;    3.753;  -12.990;  691.640
1144.729;    2.756;  -12.220;  607.420
1145.267;    2.440;  -14.020;  584.900
1145.806;    4.442;  -12.740;  637.040
1146.345;    2.673;  -14.810;  635.020
1146.884;    1.706;  -12.920;  622.500
1147.422;    1.606;  -13.930;  533.060
1147.961;    3.725;  -11.830;  708.460
1148.500;    3.651;  -12.710;  669.720
1149.038;    2.171;  -14.420;  632.500
1149.577;    2.839;  -13.920;  698.640
1150.115;    1.462;  -17.050;  452.280
1150.653;    2.087;  -14.890;  607.340
1151.192;    1.471;  -15.270;  552.920
1151.730;    2.262;  -13.160;  652.560
1152.268;    1.763;  -15.430;  589.520
1152.806;    1.620;  -15.880;  571.180
1153.344;    0.251;  -13.240;  577.640
1153.882;    1.668;  -13.010;  600.060
1154.421;    1.058;  -16.180;  470.620
1154.958;    0.517;  -13.880;  595.240
1155.496;    2.029;  -13.590;  645.280
1156.034;    1.663;  -11.910;  721.880
1156.572;    3.146;  -12.010;  667.060
1157.110;    0.119;  -16.250;  473.940
1157.647;    0.987;  -15.230;  676.960
1158.185;    0.521;  -13.770;  564.320
1158.723;    0.288;  -15.300;  509.200
1159.260;    1.724;  -13.130;  701.700
1159.798;    1.456;  -11.300;  658.160
1160.335;    0.223;  -13.210;  631.820

