
Integration time [ms]:   3.882
Averaging Nr. [scans]: 1000
Smoothing Nr. [pixels]: 0
Data measured with spectrometer [name]: 7414430SP
Wave   ;Sample   ;Dark     ;Reference
[nm]   ;[counts] ;[counts] ;[counts] 

288.544;  141.864;    7.153;  793.890
289.143;  145.457;    8.402;  681.602
289.742;  146.335;    7.062;  828.814
290.341;  132.109;    0.191;  789.841
290.940;  123.161;    0.321;  730.702
291.538;  124.674;    3.811;  881.108
292.137;  122.745;   -3.438;  792.581
292.736;  125.898;   -2.809;  975.101
293.335;  123.229;   -5.239;  735.086
293.934;  124.938;   -4.939;  781.677
294.532;  123.750;   -2.199; 1031.958
295.131;  109.404;   -6.831;  834.394
295.730;  108.960;   -6.620;  809.588
296.328;  107.488;   -6.471;  783.442
296.927;  106.694;   -6.571;  779.652
297.525;  107.831;   -7.391;  781.236
298.124;   98.527;   -9.402;  654.009
298.722;  104.682;   -5.781;  761.933
299.321;  101.718;   -6.351;  708.597
299.919;   99.517;   -8.661;  751.918
300.518;   95.263;  -11.922;  689.338
301.116;   97.289;   -6.941;  691.381
301.715;   96.803;   -5.471;  730.222
302.313;   96.865;   -8.361;  704.943
302.911;   92.227;   -9.082;  733.830
303.509;   97.527;   -4.571;  925.627
304.108;   94.370;   -7.111;  760.383
304.706;   94.312;   -7.681;  801.664
305.304;   89.520;   -9.162;  796.707
305.902;   94.432;   -6.761;  784.484
306.500;   89.724;   -6.921;  728.200
307.098;   88.055;   -6.491;  746.560
307.696;   85.814;   -6.941;  780.432
308.294;   86.910;   -6.301;  731.359
308.892;   89.723;   -4.771;  759.769
309.490;   84.629;   -5.141;  712.161
310.088;   83.900;   -2.912;  788.444
310.686;   87.522;   -0.421;  821.749
311.284;   84.011;   -3.461;  766.040
311.882;   81.036;   -6.282;  731.225
312.480;   78.582;   -3.632;  697.167
313.078;   80.400;   -2.112;  808.331
313.675;   80.719;   -1.931;  691.600
314.273;   76.321;   -1.442;  797.837
314.871;   75.418;   -3.002;  589.829
315.468;   73.101;   -2.252;  652.090
316.066;   76.270;   -1.091;  694.427
316.664;   68.463;   -4.512;  656.351
317.261;   74.431;   -0.062;  910.128
317.859;   69.237;   -0.952;  768.735
318.456;   70.520;    0.719;  830.096
319.054;   66.668;   -4.002;  787.828
319.651;   65.091;   -4.972;  759.928
320.249;   64.485;   -1.162;  810.188
320.846;   61.532;   -2.651;  714.286
321.443;   59.733;   -3.832;  832.135
322.041;   56.881;   -4.312;  812.315
322.638;   55.799;   -3.872;  701.456
323.235;   56.286;   -4.361;  665.683
323.833;   53.827;   -4.821;  740.354
324.430;   49.482;   -6.971;  615.900
325.027;   51.340;   -4.361;  876.855
325.624;   51.244;   -5.581;  644.532
326.221;   48.572;   -6.601;  689.717
326.818;   48.048;   -7.301;  818.332
327.415;   50.594;   -6.180;  748.828
328.012;   49.380;   -5.920;  690.585
328.609;   48.048;   -8.390;  731.389
329.206;   45.528;   -6.121;  778.621
329.803;   46.048;   -5.241;  737.841
330.400;   48.052;   -7.420;  704.260
330.997;   49.417;   -5.931;  817.147
331.594;   47.438;   -5.641;  788.185
332.191;   53.044;   -6.451;  728.722
332.787;   55.426;   -4.651;  844.463
333.384;   53.192;   -5.472;  763.093
333.981;   50.930;   -6.303;  815.687
334.578;   54.841;   -5.892;  708.378
335.174;   55.887;   -4.102;  731.469
335.771;   55.242;   -8.053;  836.456
336.367;   52.597;   -7.363;  710.631
336.964;   57.231;   -6.243;  793.266
337.561;   55.553;   -5.653;  731.112
338.157;   50.406;   -7.074;  911.916
338.754;   49.065;   -5.474;  796.589
339.350;   46.913;   -5.624;  722.493
339.946;   49.365;   -5.054;  773.135
340.543;   41.599;   -6.695;  846.136
341.139;   36.062;   -6.215;  720.836
341.735;   34.130;   -5.746;  772.593
342.332;   33.004;   -7.335;  691.472
342.928;   34.061;   -4.835;  795.394
343.524;   27.455;   -4.586;  761.684
344.120;   25.242;   -3.946;  738.562
344.716;   28.557;   -4.835;  723.717
345.313;   26.258;   -5.325;  795.342
345.909;   21.009;   -6.535;  627.336
346.505;   22.826;   -4.725;  740.247
347.101;   23.311;   -4.164;  827.864
347.697;   24.231;   -5.274;  785.398
348.293;   18.286;   -7.145;  627.244
348.889;   19.543;   -4.364;  745.914
349.485;   19.261;   -6.404;  688.205
350.081;   19.526;   -7.534;  772.592
350.676;   14.559;   -6.995;  691.606
351.272;   19.568;   -3.544;  809.530
351.868;   19.605;   -5.324;  780.497
352.464;   16.919;   -7.204;  723.932
353.059;   12.494;   -6.894;  646.017
353.655;   16.512;   -3.754;  777.063
354.251;   17.372;   -6.143;  759.845
354.846;   11.236;   -9.464;  740.646
355.442;   10.158;   -7.555;  753.071
356.038;   11.470;   -5.474;  751.708
356.633;   11.795;   -5.914;  728.594
357.229;    9.718;   -8.944;  724.757
357.824;    7.876;   -6.794;  703.600
358.420;    7.570;   -5.754;  679.726
359.015;    8.276;   -5.664;  695.357
359.610;    8.873;   -8.004;  763.920
360.206;    3.015;   -8.815;  603.240
360.801;    5.874;   -8.834;  646.503
361.396;    9.050;   -6.274;  725.975
361.992;    3.597;   -8.574;  668.220
362.587;    0.964;   -9.265;  670.160
363.182;    3.034;   -5.484;  689.631
363.777;    4.203;   -5.164;  738.242
364.372;    4.255;   -6.954;  737.314
364.967;   -0.132;   -7.065;  680.744
365.563;    4.191;   -5.684;  815.567
366.158;    1.888;   -6.484;  685.161
366.753;    1.441;   -8.004;  649.263
367.348;    0.282;  -10.114;  746.056
367.942;    0.551;   -7.764;  697.298
368.537;   -0.181;   -4.554;  754.245
369.132;   -0.272;   -7.664;  703.428
369.727;   -4.188;   -8.905;  638.079
370.322;   -2.822;   -4.945;  580.186
370.917;   -2.865;   -7.095;  710.646
371.511;    0.162;   -6.574;  861.834
372.106;   -4.135;   -6.515;  776.964
372.701;   -6.347;   -8.225;  585.988
373.296;   -1.187;   -4.494;  863.135
373.890;   -6.463;   -7.965;  647.840
374.485;   -8.102;   -9.745;  691.199
375.079;   -4.116;   -5.554;  738.685
375.674;   -2.797;   -4.724;  812.970
376.268;   -7.298;   -8.365;  691.759
376.863;  -12.331;   -8.126;  580.327
377.457;   -6.209;   -6.045;  662.490
378.052;   -7.847;   -6.835;  764.884
378.646;   -9.037;   -9.375;  741.167
379.240;   -9.609;   -6.185;  721.176
379.835;   -8.970;   -6.135;  636.978
380.429;  -10.746;   -8.365;  562.557
381.023;   -9.766;   -7.935;  779.205
381.617;  -12.556;   -8.325;  680.106
382.212;   -9.589;   -7.405;  685.303
382.806;   -8.217;   -4.155;  760.690
383.400;  -12.219;   -8.945;  672.281
383.994;  -12.777;   -8.365;  664.870
384.588;   -8.540;   -7.824;  697.701
385.182;   -8.195;   -7.984;  726.624
385.776;   -9.128;  -10.404;  706.875
386.370;  -13.076;   -7.335;  681.968
386.964;  -11.263;   -7.485;  684.155
387.558;  -10.047;   -8.174;  598.360
388.152;  -13.209;  -10.415;  681.959
388.745;  -11.337;   -9.595;  814.707
389.339;   -9.199;   -6.454;  747.642
389.933;   -9.236;   -5.804;  695.370
390.527;   -9.239;   -6.854;  859.029
391.120;  -15.946;   -7.665;  595.318
391.714;  -13.387;   -7.245;  711.633
392.308;   -9.401;   -4.514;  780.253
392.901;  -13.461;   -7.935;  642.460
393.495;  -15.644;   -8.585;  595.414
394.089;  -12.314;   -5.245;  760.452
394.682;  -14.119;   -6.305;  697.188
395.275;  -14.100;   -9.335;  719.927
395.869;  -15.785;   -7.375;  667.314
396.462;  -13.848;   -7.055;  616.609
397.056;   -9.957;   -5.434;  776.621
397.649;  -14.285;   -9.525;  731.575
398.242;  -11.918;   -7.574;  712.645
398.836;  -10.672;   -5.134;  766.408
399.429;  -11.961;   -6.544;  631.041
400.022;  -15.532;   -9.215;  665.902
400.615;  -12.877;   -8.105;  805.609
401.208;  -11.268;   -7.614;  691.451
401.802;  -13.573;   -8.085;  699.329
402.395;  -14.029;   -9.575;  683.502
402.988;  -15.522;   -9.285;  696.627
403.581;  -11.657;   -7.514;  646.878
404.174;   -9.594;   -6.404;  686.568
404.767;  -12.922;   -8.775;  638.583
405.360;  -15.591;   -7.415;  621.445
405.953;   -9.300;   -5.624;  759.034
406.545;   -9.120;   -6.474;  725.342
407.138;  -13.667;   -8.445;  618.350
407.731;  -12.146;  -10.044;  613.303
408.324;   -7.410;   -8.484;  660.554
408.917;   -8.461;   -7.624;  681.864
409.509;  -10.858;   -8.304;  740.396
410.102;  -12.583;   -8.495;  643.948
410.695;   -6.710;   -7.824;  665.758
411.287;   -7.467;   -7.754;  599.821
411.880;   -8.785;   -9.294;  585.421
412.472;  -11.809;   -8.814;  613.092
413.065;  -10.061;   -6.674;  629.408
413.657;   -6.667;   -9.664;  576.678
414.250;   -6.566;  -10.264;  646.681
414.842;   -8.424;   -8.664;  676.353
415.434;   -5.480;   -8.584;  570.463
416.027;   -2.392;   -9.423;  652.196
416.619;   -4.647;  -10.764;  713.400
417.211;   -5.003;   -7.404;  599.352
417.804;   -0.701;   -7.383;  628.499
418.396;   -5.508;   -8.334;  607.643
418.988;   -3.024;   -9.633;  659.238
419.580;   -6.098;  -10.554;  568.276
420.172;   -3.691;   -8.683;  536.196
420.764;    1.162;   -9.713;  672.482
421.356;   -1.246;  -11.303;  636.898
421.948;   -1.475;   -8.453;  677.661
422.540;    2.925;   -5.793;  680.027
423.132;    2.527;   -7.162;  600.641
423.724;   -0.990;   -7.933;  561.267
424.316;    0.810;   -9.083;  621.345
424.908;    4.986;   -8.392;  591.517
425.500;    5.385;   -8.062;  647.978
426.092;    6.142;   -9.692;  648.268
426.683;    4.996;   -8.223;  684.836
427.275;    8.553;   -8.602;  641.471
427.867;    9.776;   -8.382;  668.948
428.458;   10.096;  -10.472;  732.344
429.050;    8.763;   -9.112;  680.749
429.642;   10.346;   -7.752;  743.124
430.233;   10.706;   -8.832;  569.356
430.825;   11.802;   -8.292;  724.809
431.416;    9.449;   -7.522;  698.241
432.008;   13.175;   -9.262;  651.723
432.599;   13.253;   -6.441;  656.073
433.190;   11.571;   -9.222;  637.670
433.782;   10.129;  -11.832;  590.395
434.373;   18.983;   -7.121;  884.765
434.964;   17.271;   -9.141;  602.920
435.556;   13.597;   -9.332;  634.537
436.147;   17.173;   -8.892;  758.490
436.738;   17.628;   -8.151;  701.099
437.329;   22.485;   -8.281;  721.723
437.920;   16.051;   -9.062;  666.688
438.511;   15.478;  -11.182;  564.526
439.103;   22.498;   -7.461;  623.998
439.694;   24.498;   -8.541;  681.583
440.285;   25.548;   -7.351;  764.432
440.876;   23.722;   -8.201;  845.738
441.466;   21.854;  -10.381;  575.162
442.057;   28.047;   -7.620;  665.814
442.648;   26.364;   -8.461;  746.255
443.239;   24.611;   -8.991;  620.477
443.830;   29.645;   -7.910;  704.958
444.421;   31.909;   -7.340;  655.474
445.011;   28.406;   -8.981;  693.619
445.602;   28.083;   -9.341;  743.126
446.193;   29.421;  -11.390;  488.117
446.783;   34.266;  -11.240;  640.397
447.374;   29.540;   -8.471;  692.759
447.964;   29.567;   -8.471;  713.770
448.555;   39.080;   -6.590;  822.742
449.145;   35.530;   -8.200;  662.853
449.736;   36.049;  -11.040;  803.179
450.326;   35.845;   -9.640;  713.626
450.917;   41.321;   -9.480;  675.324
451.507;   39.949;   -8.020;  600.661
452.097;   40.277;  -10.210;  746.267
452.688;   42.202;   -7.810;  742.160
453.278;   42.469;   -9.360;  566.840
453.868;   46.561;   -8.669;  793.550
454.458;   44.072;  -10.950;  651.141
455.048;   44.796;  -10.200;  711.783
455.639;   46.031;   -9.369;  567.096
456.229;   49.339;   -7.739;  710.694
456.819;   51.112;   -8.939;  751.158
457.409;   50.916;   -7.169;  773.993
457.999;   54.421;   -7.779;  737.505
458.589;   54.886;   -7.039;  686.606
459.179;   54.298;   -9.019;  717.658
459.769;   52.320;   -8.909;  627.099
460.358;   58.103;   -8.659;  797.262
460.948;   57.169;   -8.209;  689.503
461.538;   58.356;   -9.879;  660.677
462.128;   56.954;   -9.379;  664.934
462.717;   63.764;   -9.158;  710.326
463.307;   66.358;   -8.638;  705.846
463.897;   62.415;   -8.869;  656.942
464.486;   62.014;   -7.409;  837.128
465.076;   66.511;   -9.618;  733.776
465.666;   69.632;   -7.578;  652.900
466.255;   68.142;   -9.369;  785.651
466.845;   66.113;  -10.049;  666.749
467.434;   70.770;   -8.168;  725.873
468.023;   70.496;   -9.188;  658.357
468.613;   68.536;   -9.849;  713.946
469.202;   72.976;  -12.958;  646.507
469.791;   77.218;   -9.488;  737.811
470.381;   79.461;   -6.468;  742.813
470.970;   79.643;  -10.248;  711.099
471.559;   79.979;  -11.428;  733.291
472.148;   81.491;   -9.738;  675.737
472.738;   84.666;   -7.877;  765.466
473.327;   84.033;  -11.868;  637.529
473.916;   83.188;   -8.578;  737.446
474.505;   88.179;  -11.137;  751.703
475.094;   90.460;   -9.407;  806.570
475.683;   90.787;   -9.977;  797.699
476.272;   90.497;  -10.807;  730.632
476.861;   93.738;  -11.017;  706.754
477.449;  100.843;  -10.316;  728.487
478.038;   94.509;  -10.187;  692.513
478.627;   96.271;  -12.458;  714.852
479.216;  102.724;  -10.127;  769.441
479.805;  106.439;   -6.256;  783.375
480.393;  105.665;   -8.737; 1008.945
480.982;  104.447;   -9.087;  874.501
481.571;  111.264;   -7.806;  858.333
482.159;  111.699;  -10.596;  705.386
482.748;  110.730;  -11.507;  821.385
483.336;  115.264;   -8.366;  858.209
483.925;  116.169;   -7.497;  774.373
484.513;  122.986;   -8.326;  758.962
485.102;  120.151;  -10.277;  810.965
485.690;  128.469;   -8.256; 1011.050
486.278;  130.492;   -7.146;  979.329
486.867;  130.005;   -7.986;  809.662
487.455;  133.435;   -9.926;  898.229
488.043;  133.718;  -10.026;  748.361
488.631;  142.840;   -7.226; 1005.079
489.220;  147.915;   -8.696;  908.626
489.808;  146.009;  -12.276;  741.415
490.396;  154.237;   -9.386;  914.645
490.984;  160.686;   -8.506;  830.161
491.572;  170.936;   -8.226;  940.315
492.160;  176.747;   -9.836;  919.081
492.748;  186.903;  -10.316;  884.341
493.336;  206.654;   -7.146; 1019.693
493.924;  230.399;   -7.965;  958.077
494.512;  256.486;  -10.316; 1066.638
495.100;  292.613;  -10.186; 1103.280
495.687;  346.804;   -7.805; 1206.373
496.275;  410.965;   -9.686; 1150.796
496.863;  491.319;  -11.566; 1281.171
497.451;  587.170;  -11.406; 1386.805
498.038;  722.423;   -8.235; 1556.729
498.626;  837.164;   -7.485; 1741.407
499.214; 1000.525;   -8.646; 2016.609
499.801; 1252.062;   -9.936; 2220.633
500.389; 1443.109;   -8.056; 2312.494
500.976; 1616.010;   -6.166; 2744.849
501.564; 1817.905;   -9.126; 3148.565
502.151; 2137.280;  -12.456; 3515.999
502.738; 2571.118;  -10.056; 3971.274
503.326; 2983.669;  -10.605; 4403.796
503.913; 3338.434;  -10.576; 5161.749
504.500; 3831.409;   -9.056; 5986.420
505.088; 4332.652;  -10.136; 6381.201
505.675; 5133.155;   -9.075; 6925.547
506.262; 5696.088;  -11.346; 7619.060
506.849; 6342.953;   -9.376; 8733.969
507.436; 6943.723;   -7.365; 9790.121
508.023; 7340.738;   -8.686; 9985.472
508.610; 7798.990;   -8.846;10434.618
509.197; 8785.941;   -9.077;11198.435
509.784;10035.788;  -10.246;12391.194
510.371;10564.928;   -9.825;13603.713
510.958;11429.455;  -10.896;14426.586
511.545;12182.088;   -9.006;15243.775
512.132;13010.674;   -8.765;15945.876
512.719;14127.548;   -8.286;16340.369
513.305;16269.519;   -9.256;18011.766
513.892;18536.004;  -11.106;19754.971
514.479;20263.924;   -8.576;20967.805
515.066;21542.455;   -9.046;22299.793
515.652;22211.854;  -10.676;22908.660
516.239;23868.262;  -10.166;23798.875
516.825;24375.318;  -11.266;25567.275
517.412;24046.252;   -7.446;28154.959
517.998;24459.682;  -10.916;28344.111
518.585;23862.869;   -9.166;27134.219
519.171;23727.967;  -10.135;27268.576
519.758;25423.424;   -8.806;28964.129
520.344;28517.451;   -6.716;30664.494
520.930;30045.303;  -10.166;32550.605
521.516;30498.787;   -9.615;35422.895
522.103;31942.799;   -8.656;38280.004
522.689;34474.016;   -9.646;37835.117
523.275;35207.828;  -10.786;37288.613
523.861;36147.598;   -9.266;37281.395
524.447;36010.043;   -8.285;37846.949
525.033;35992.645;   -9.426;38321.949
525.619;35364.426;   -9.836;38579.285
526.205;36243.934;   -8.136;40622.875
526.791;37741.691;   -9.986;42258.836
527.377;39523.406;   -8.236;42966.902
527.963;37818.020;  -12.117;42018.949
528.549;36093.098;   -8.376;42476.828
529.135;37592.520;   -8.696;41854.852
529.721;39692.090;   -9.686;41237.711
530.306;41910.547;   -8.616;41259.445
530.892;44800.445;   -9.396;41506.047
531.478;45658.781;   -9.926;43559.613
532.063;47089.715;  -10.236;47695.563
532.649;49432.316;   -8.257;50808.324
533.235;50855.289;  -11.476;51787.500
533.820;49387.777;   -8.156;52145.035
534.406;47601.465;  -12.257;51133.488
534.991;45795.070;   -8.686;49996.805
535.576;43644.809;   -9.426;48882.852
536.162;43315.488;   -8.436;46942.285
536.747;42053.785;  -10.957;45711.746
537.333;41742.867;  -13.147;48510.180
537.918;44631.418;   -9.027;50439.891
538.503;45536.422;   -8.256;50863.711
539.088;49421.477;  -10.576;50906.922
539.673;51829.906;  -10.907;52621.965
540.259;51847.195;   -9.126;52368.094
540.844;48453.891;   -9.026;50879.109
541.429;50235.617;   -9.597;52077.777
542.014;54370.648;  -11.447;52716.695
542.599;55167.871;   -9.236;52363.281
543.184;53498.914;  -12.267;53187.137
543.769;55171.477;  -10.367;54697.605
544.354;55109.246;  -10.887;53913.914
544.938;48006.051;  -11.687;49680.164
545.523;43084.055;   -8.286;47386.277
546.108;44887.832;   -9.317;49151.949
546.693;47032.852;  -10.187;51384.637
547.278;45996.004;   -9.926;51853.254
547.862;45558.254;   -9.196;51173.750
548.447;45086.629;   -9.657;51691.395
549.031;45469.535;   -9.127;52456.703
549.616;49344.398;  -10.836;52714.516
550.201;53127.105;   -8.507;52414.598
550.785;53256.621;  -10.537;52355.059
551.370;52917.672;  -11.727;54589.453
551.954;53127.027;   -9.457;58267.348
552.538;52353.379;   -8.147;59062.176
553.123;50824.891;   -9.397;58115.285
553.707;48522.949;   -9.558;56556.285
554.291;49271.977;   -9.417;56201.668
554.876;49155.199;   -7.627;55335.762
555.460;47085.906;  -10.457;54155.703
556.044;45362.426;  -10.078;53721.484
556.628;46135.164;   -9.407;53731.016
557.212;46001.066;   -7.957;54312.531
557.796;46111.379;  -11.327;53797.773
558.380;51001.418;  -10.868;56145.984
558.964;51436.207;   -9.637;57277.930
559.548;49472.203;   -8.807;56459.641
560.132;50186.875;  -10.187;54434.543
560.716;48989.043;   -9.868;54800.617
561.300;49837.609;  -10.217;57606.945
561.884;50695.480;   -4.947;58972.445
562.467;50022.125;   -9.588;57327.570
563.051;48269.684;  -11.138;54962.434
563.635;46489.945;   -9.358;52594.473
564.219;46168.035;   -9.797;50610.410
564.802;46260.730;   -9.918;49551.180
565.386;43918.719;  -10.838;48370.953
565.969;43147.426;   -8.037;48178.871
566.553;42724.594;   -5.667;49957.305
567.136;41829.770;   -8.258;50369.594
567.720;41139.465;  -11.278;49492.004
568.303;43592.863;   -9.028;50616.352
568.887;43356.551;   -7.508;50727.148
569.470;41995.035;  -11.068;51698.379
570.053;41532.324;  -10.028;52122.078
570.637;39694.332;  -11.077;52536.438
571.220;39106.727;   -8.747;51186.098
571.803;40942.414;   -8.868;51032.762
572.386;43203.078;  -10.608;49609.887
572.969;42952.945;  -10.548;48285.926
573.552;40515.488;   -7.898;47624.285
574.135;41480.523;   -9.918;45498.641
574.718;37735.043;  -10.328;41970.434
575.301;34787.961;   -9.548;41447.137
575.884;31840.883;   -8.768;40923.836
576.467;34911.207;   -9.858;45267.723
577.050;35419.238;  -11.018;48175.543
577.633;36597.828;  -10.048;47729.328
578.216;35725.598;  -10.268;47579.793
578.799;33021.457;  -11.808;47820.996
579.381;33157.477;   -7.338;48115.551
579.964;35873.656;   -9.728;47333.766
580.547;37131.738;   -8.928;46668.969
581.129;38285.254;   -9.149;44466.141
581.712;38521.438;  -11.359;44164.922
582.294;35747.984;  -10.738;46477.855
582.877;34616.008;   -8.788;48244.254
583.459;35533.410;   -9.859;47437.895
584.042;37893.652;   -9.649;46943.219
584.624;37281.816;  -10.529;46792.227
585.206;35894.777;  -10.298;46557.250
585.789;35650.172;  -11.029;45793.773
586.371;33890.406;   -9.359;43836.391
586.953;32940.969;   -8.799;42972.492
587.536;32383.611;   -8.928;42487.211
588.118;32353.873;   -9.180;42086.414
588.700;31761.184;  -10.519;43389.930
589.282;30681.303;   -8.098;43646.039
589.864;30714.561;   -8.139;43438.109
590.446;32881.898;  -10.509;43151.926
591.028;33605.891;  -11.119;42781.867
591.610;35035.793;  -10.019;42839.098
592.192;34638.004;   -8.838;42820.402
592.774;31480.070;  -11.549;40724.277
593.356;28602.189;  -11.609;39874.789
593.937;27788.801;  -10.019;39980.648
594.519;30156.373;   -7.839;42069.633
595.101;32894.809;  -10.779;42976.031
595.683;34018.652;  -10.049;44084.441
596.264;33511.359;   -9.969;43478.797
596.846;33247.992;   -9.699;43803.672
597.427;32263.531;  -10.970;42986.934
598.009;31656.785;  -13.090;42832.219
598.591;30959.758;   -9.509;42580.086
599.172;31545.297;   -9.019;43061.805
599.753;32337.328;  -13.310;41691.469
600.335;33073.102;  -11.010;40692.520
600.916;32497.643;  -10.309;39982.422
601.498;31356.223;   -8.209;40318.617
602.079;30843.988;  -11.440;40670.609
602.660;32584.281;   -8.690;41450.898
603.241;33698.340;  -12.759;41137.738
603.823;32287.326;  -10.409;38868.797
604.404;31897.234;  -11.790;38182.785
604.985;34007.215;  -10.280;38078.047
605.566;35394.766;   -8.059;38056.633
606.147;32518.990;   -8.960;37020.418
606.728;30120.158;  -10.710;37883.359
607.309;29397.346;  -12.760;38748.273
607.890;28129.895;   -9.959;38850.230
608.471;28437.283;   -9.780;37457.918
609.051;30346.736;   -8.940;36066.457
609.632;31396.277;  -12.070;35991.074
610.213;31012.824;   -9.610;37402.641
610.794;30602.303;   -8.750;38383.363
611.374;31166.943;  -11.100;40562.387
611.955;31754.607;  -12.200;38533.727
612.536;31846.809;  -10.410;36951.789
613.116;30833.996;  -10.010;37197.891
613.697;29181.094;  -10.480;38411.125
614.277;28969.250;  -12.751;38673.938
614.858;28222.811;  -11.600;37075.863
615.438;28393.184;   -8.190;35092.906
616.019;27084.043;   -8.941;33666.301
616.599;29157.361;  -13.540;34189.023
617.179;31985.299;  -10.890;36952.047
617.760;31052.994;   -7.610;39582.574
618.340;29043.734;  -14.441;38943.977
618.920;28765.063;   -9.180;37594.156
619.500;31296.039;  -11.881;37866.938
620.080;32922.094;   -9.870;37869.043
620.660;31632.174;  -13.211;36868.617
621.241;30390.953;  -11.921;36352.309
621.821;29813.291;  -10.271;35459.520
622.401;30663.549;   -8.200;35207.414
622.980;32237.404;  -11.141;35980.422
623.560;31826.625;  -14.321;37351.328
624.140;30199.865;   -9.360;34388.582
624.720;25956.557;   -7.481;32368.764
625.300;23736.068;  -12.730;32638.629
625.880;27797.867;  -11.441;34599.035
626.459;31514.982;  -10.971;36831.738
627.039;34933.102;   -9.011;38299.098
627.619;35127.234;   -8.521;38289.574
628.198;33332.391;   -9.861;37220.695
628.778;32152.461;   -8.841;37632.563
629.357;32234.668;   -9.891;38003.012
629.937;32249.738;  -11.871;38402.039
630.516;31997.330;  -10.641;37868.801
631.096;34311.469;  -11.391;35760.410
631.675;35667.445;   -6.622;35225.219
632.254;32727.361;  -13.002;35130.289
632.834;31709.438;  -11.622;35794.570
633.413;32843.359;   -8.321;35788.922
633.992;31035.646;   -7.732;34532.863
634.571;31075.109;  -10.992;33590.113
635.151;30564.342;  -10.422;34943.863
635.730;31029.291;  -11.511;35352.523
636.309;30746.203;   -7.901;35366.605
636.888;29896.270;  -11.452;36165.637
637.467;29184.865;  -10.672;37515.902
638.046;30153.088;   -9.301;39288.695
638.625;31640.623;  -11.452;38279.699
639.204;32358.986;  -12.262;37741.598
639.782;32786.074;  -11.892;38364.551
640.361;31087.572;  -11.411;36740.621
640.940;26209.516;  -11.501;34950.082
641.519;28699.420;  -10.921;34137.398
642.097;32292.904;  -10.101;35654.258
642.676;30692.572;  -10.821;35637.957
643.255;32035.141;   -8.631;36567.074
643.833;34502.922;  -11.411;37809.434
644.412;36996.180;  -12.021;37337.293
644.990;37026.492;  -12.271;37018.531
645.569;35659.070;   -9.741;36518.469
646.147;33240.922;   -9.051;36186.430
646.726;33415.574;  -13.861;36267.688
647.304;33551.105;   -9.461;36647.625
647.882;33358.059;  -13.171;39286.742
648.461;33811.441;  -11.911;39157.703
649.039;32572.496;   -9.541;35412.883
649.617;31994.295;   -8.901;34744.918
650.195;29681.646;   -8.591;35403.098
650.773;29003.336;  -13.031;35053.797
651.352;28354.441;  -12.211;33756.816
651.930;26115.721;  -11.361;31868.773
652.508;22859.389;   -8.601;33121.551
653.086;25477.057;   -9.991;33564.793
653.663;29925.814;  -11.931;34054.668
654.241;32678.355;  -10.821;35693.309
654.819;34150.281;   -9.341;36422.906
655.397;31713.652;  -10.851;38213.484
655.975;30562.154;  -11.461;39507.625
656.553;30638.965;   -8.841;39498.223
657.130;29983.656;  -10.371;40395.480
657.708;30723.078;  -11.071;39242.020
658.286;30256.326;  -11.141;38920.020
658.863;31571.322;  -10.861;40202.898
659.441;35969.449;  -11.181;39677.938
660.018;35991.566;  -10.851;40413.355
660.596;35305.738;  -12.571;39931.414
661.173;35676.484;  -12.141;39604.531
661.750;35477.262;  -11.571;39700.070
662.328;32680.242;  -10.780;39292.809
662.905;30206.510;  -10.750;38235.648
663.482;27289.344;  -11.320;36212.305
664.060;26516.967;  -10.160;35944.945
664.637;31137.865;  -13.120;35170.785
665.214;33027.680;  -11.500;34197.523
665.791;31386.688;  -12.430;34549.520
666.368;29198.613;   -9.840;35118.578
666.945;28599.490;  -11.290;36019.418
667.522;29303.396;  -13.540;36048.438
668.099;29790.697;  -10.250;36243.914
668.676;28360.654;  -11.270;35958.875
669.253;27173.301;   -8.210;37384.730
669.830;26549.279;   -9.710;36779.629
670.407;26136.652;   -9.700;35231.289
670.984;26901.348;   -9.190;35544.270
671.560;26206.551;   -9.560;35466.867
672.137;26007.832;  -11.820;34280.863
672.714;28961.463;  -12.460;34632.863
673.290;33067.305;  -10.940;35135.422
673.867;33177.285;  -10.510;36114.480
674.443;30164.701;  -12.110;36152.859
675.020;31655.061;  -11.760;35327.238
675.596;32491.916;   -9.380;35795.176
676.173;31368.209;  -11.120;35430.355
676.749;30085.283;  -13.390;33549.516
677.326;29218.869;  -12.600;32210.012
677.902;28108.854;  -10.830;32068.871
678.478;28283.908;  -12.400;32583.891
679.054;30205.010;   -8.610;32088.928
679.631;30272.902;  -11.640;30978.848
680.207;30316.611;   -8.140;33160.887
680.783;31138.918;  -12.300;35570.363
681.359;30006.629;  -10.910;36125.184
681.935;30323.600;  -11.040;35240.922
682.511;31008.100;  -11.130;34429.961
683.087;31353.215;  -11.080;34463.680
683.663;33559.449;  -10.530;34648.898
684.239;32989.484;  -12.120;34546.457
684.815;30338.646;   -8.870;35586.375
685.390;29749.977;   -8.940;35821.895
685.966;29841.244;  -12.109;35085.871
686.542;28790.576;  -13.539;34198.230
687.118;28533.982;  -10.379;32847.707
687.693;28604.301;  -10.189;32794.027
688.269;27270.787;  -12.939;33072.367
688.844;26573.490;   -8.679;33141.664
689.420;27685.496;  -10.919;33965.742
689.995;28062.660;   -7.489;34655.523
690.571;27662.139;  -12.199;33576.742
691.146;28053.922;   -8.979;32657.219
691.722;29533.709;   -9.119;32526.979
692.297;27720.744;  -10.519;33014.617
692.872;27100.063;  -10.629;34012.254
693.448;27574.043;  -12.119;34237.434
694.023;27980.686;   -8.219;34142.672
694.598;26011.971;  -13.209;34132.031
695.173;25260.553;  -11.879;34205.250
695.748;26005.859;  -12.039;32882.488
696.323;25876.299;  -11.779;32864.906
696.898;26802.783;  -10.219;33170.004
697.473;27910.367;  -13.639;32432.984
698.048;28288.600;  -11.239;31649.303
698.623;30251.242;  -10.859;30778.141
699.198;31824.963;  -13.379;31140.119
699.773;32611.549;  -13.409;31764.299
700.348;33353.262;  -12.329;31780.816
700.922;33864.195;   -8.749;32046.375
701.497;34061.977;  -12.449;32603.574
702.072;32513.213;   -8.879;34799.871
702.646;30119.434;  -10.719;35793.172
703.221;28825.785;   -8.469;35201.590
703.795;28732.768;  -11.389;34764.527
704.370;28488.299;  -12.499;34307.367
704.944;28354.152;  -11.449;33509.887
705.519;27631.049;  -10.659;31388.584
706.093;27030.314;  -12.909;31340.104
706.668;27513.752;  -13.509;32630.281
707.242;26974.924;  -10.049;32728.779
707.816;24760.592;  -10.629;32947.238
708.390;24349.104;  -11.829;33277.855
708.965;24979.750;  -11.159;33834.336
709.539;25755.658;  -11.069;33709.273
710.113;24912.854;  -10.908;33044.313
710.687;23278.473;   -9.488;31953.992
711.261;23594.443;  -13.068;30505.949
711.835;26514.674;  -12.748;30262.369
712.409;27104.641;  -10.678;31254.447
712.983;25894.484;  -11.658;32754.986
713.557;26466.346;  -13.718;34018.824
714.131;27097.791;  -13.388;34579.625
714.704;27838.895;   -9.818;33890.262
715.278;28739.387;  -11.818;33531.102
715.852;29771.887;  -11.328;33601.660
716.425;30244.570;   -9.118;33515.117
716.999;30329.686;  -10.188;33185.555
717.573;30361.139;   -9.808;33905.996
718.146;32826.430;  -11.478;35199.293
718.720;32742.865;  -10.998;35060.551
719.293;31112.977;   -9.508;34973.230
719.867;30665.037;  -12.138;36394.449
720.440;29403.117;  -11.288;36663.008
721.013;32021.900;  -11.428;35102.426
721.587;33572.426;  -11.698;33985.266
722.160;34464.492;  -11.608;33524.965
722.733;32816.102;  -11.428;32987.043
723.306;31496.527;  -12.518;33066.301
723.880;31514.740;   -7.408;33399.500
724.453;30546.615;  -11.048;33468.297
725.026;29087.996;  -11.678;33816.637
725.599;27800.324;  -10.978;32797.996
726.172;26947.174;   -8.838;33187.434
726.745;27883.807;  -11.438;35136.613
727.318;28539.180;   -9.828;35751.730
727.891;27002.281;  -10.868;35890.430
728.463;25237.855;  -11.348;34822.090
729.036;23866.984;  -11.608;32895.086
729.609;23917.889;  -14.738;31823.225
730.182;25172.744;   -8.448;31445.283
730.754;26312.615;  -11.228;32373.223
731.327;26627.572;  -12.018;33676.820
731.900;28400.369;  -13.748;33417.000
732.472;28286.086;  -10.928;31978.498
733.045;26504.832;   -9.478;30368.777
733.617;24831.098;  -12.967;30574.215
734.190;24105.398;  -11.707;31280.975
734.762;23172.359;  -11.067;31674.412
735.334;22666.566;  -10.587;31247.291
735.907;21733.018;  -11.947;29876.211
736.479;22385.090;  -11.667;29808.488
737.051;25073.822;  -10.187;30233.547
737.623;27539.514;   -6.887;31469.086
738.195;30494.494;  -12.117;31784.225
738.768;32069.629;  -14.077;32120.523
739.340;30840.486;  -12.207;32094.342
739.912;27331.553;   -8.977;31312.680
740.484;25524.303;  -11.017;31946.238
741.056;26461.299;  -13.517;32984.059
741.628;28372.383;  -11.507;33897.715
742.199;28584.865;   -7.597;33213.016
742.771;29337.381;  -12.227;31369.113
743.343;28595.316;  -12.427;31865.473
743.915;26963.986;   -9.827;32388.631
744.487;26013.520;  -10.007;31079.568
745.058;24346.648;  -11.887;30570.107
745.630;23635.053;  -10.787;29970.127
746.201;23050.820;  -10.887;29186.766
746.773;23089.170;   -9.707;28805.723
747.344;23863.152;  -11.137;29591.223
747.916;24173.664;  -11.887;31412.201
748.487;23733.928;   -9.707;32194.898
749.059;23076.273;  -10.027;32533.719
749.630;22738.777;  -11.787;32158.518
750.201;21764.121;  -12.767;30855.395
750.773;21535.438;  -11.497;28622.555
751.344;22142.539;   -9.937;28405.732
751.915;22614.523;  -11.567;28461.551
752.486;22249.813;  -13.267;27842.850
753.057;20356.709;  -10.627;27845.008
753.628;18949.625;  -11.657;27728.107
754.199;21103.328;  -12.097;27381.086
754.770;22553.451;  -11.447;25882.203
755.341;22452.076;  -11.997;25886.184
755.912;20345.648;  -10.207;26050.861
756.483;18653.645;  -10.937;26798.779
757.054;18542.264;  -11.527;27048.238
757.625;18772.654;  -12.886;26294.838
758.195;19151.529;  -11.226;26142.076
758.766;19169.277;  -12.366;26392.234
759.337;18127.006;  -11.946;26334.594
759.907;18171.828;  -13.856;27579.652
760.478;18946.238;   -9.606;28352.770
761.048;18911.832;  -11.606;27325.088
761.619;19142.195;  -11.036;26460.428
762.189;18662.563;  -12.206;26029.826
762.760;20086.441;   -9.666;26430.145
763.330;20862.709;   -9.796;26670.902
763.900;18924.070;  -10.896;26603.021
764.471;17370.904;  -11.726;25542.740
765.041;17795.553;   -9.656;24358.459
765.611;18608.023;  -11.276;23991.297
766.181;18350.293;  -12.116;24470.236
766.751;17772.527;  -12.376;24845.975
767.321;17763.424;  -11.626;24533.633
767.891;18044.633;  -10.426;24916.492
768.461;16946.727;  -13.456;24776.771
769.031;15075.894;  -11.616;24757.988
769.601;14968.519;  -11.356;24181.088
770.171;15243.368;  -11.586;23670.387
770.741;15653.581;  -12.696;22960.045
771.311;15713.830;  -10.226;22917.523
771.880;15475.419;  -11.146;23562.941
772.450;16106.641;  -11.716;24216.500
773.020;16284.306;  -13.226;24140.398
773.589;16051.814;  -12.586;24414.857
774.159;15833.012;  -10.246;23858.717
774.729;15367.568;  -11.586;22942.135
775.298;14474.511;  -15.926;22324.033
775.867;14509.149;  -10.426;21140.313
776.437;14384.563;  -11.416;20838.092
777.006;13064.340;  -12.766;20599.510
777.576;13197.415;  -13.666;20508.809
778.145;13636.074;  -10.066;20732.947
778.714;13225.313;  -10.276;21062.465
779.283;13559.178;  -12.086;20949.664
779.853;14950.048;  -14.016;20508.623
780.422;15311.290;  -12.376;20649.082
780.991;14195.204;   -9.246;21527.520
781.560;13266.703;   -9.775;22632.658
782.129;13070.798;  -12.495;23048.277
782.698;12877.203;  -11.775;23438.555
783.267;13166.827;  -10.065;23267.734
783.836;13755.332;  -12.455;22415.133
784.404;14516.296;  -13.385;20443.152
784.973;15335.157;  -11.045;19699.150
785.542;14934.263;   -9.505;19763.828
786.111;13804.077;   -9.385;20341.408
786.679;13541.729;  -13.475;20207.967
787.248;13607.559;  -11.245;19516.465
787.817;11912.080;  -12.485;18900.363
788.385;10283.880;  -11.165;17879.121
788.954;10843.061;  -11.755;17658.301
789.522;11556.658;   -9.625;17788.879
790.090;11281.913;   -9.665;18118.277
790.659;10951.560;   -9.295;18338.736
791.227;11998.341;  -12.175;18508.615
791.795;13313.992;  -12.145;17898.254
792.364;13083.378;  -11.575;17295.133
792.932;11716.250;  -11.085;16822.051
793.500;10610.698;  -11.345;17040.148
794.068;10608.868;  -12.565;17179.787
794.636;11702.823;  -12.105;16664.246
795.204;12200.473;  -11.995;16524.545
795.772;11573.671;  -12.615;17274.564
796.340;11187.467;  -12.425;17891.002
796.908;10956.899;  -11.455;17648.561
797.476;10298.374;  -12.165;17064.080
798.044; 9972.449;  -15.795;16672.777
798.612;10236.686;  -10.985;17023.996
799.180;10978.741;  -12.055;16561.615
799.747;11260.910;  -12.525;15962.773
800.315;10102.926;  -14.765;15296.992
800.883; 8903.644;  -12.435;14801.771
801.450; 8814.925;  -11.295;14534.430
802.018; 9306.446;  -11.185;14173.248
802.585; 9277.156;  -11.625;14029.547
803.153; 8281.279;  -10.665;13836.846
803.720; 7851.310;  -10.275;13567.324
804.287; 7712.553;  -12.865;13360.622
804.855; 7937.749;  -12.324;13681.981
805.422; 8274.393;  -11.574;13536.560
805.989; 8078.033;  -11.004;13355.958
806.556; 8218.991;  -12.214;13747.896
807.124; 8589.917;  -13.304;13987.376
807.691; 8297.834;  -12.034;14038.674
808.258; 7664.752;  -11.014;14120.152
808.825; 7558.848;  -11.804;13860.111
809.392; 7478.429;  -11.544;13268.790
809.959; 7353.719;  -14.954;12680.389
810.526; 7641.141;  -10.214;12427.308
811.093; 8132.085;  -10.754;12030.105
811.659; 7849.821;  -12.194;11653.664
812.226; 6714.020;   -9.194;11637.183
812.793; 6378.205;   -9.644;11611.521
813.360; 7160.874;  -11.544;11885.181
813.926; 7967.757;  -12.814;12770.539
814.493; 7883.533;  -11.524;12677.638
815.060; 7617.918;  -12.254;11974.336
815.626; 7214.341;  -12.114;11594.715
816.193; 6912.349;  -11.994;11579.474
816.759; 6798.571;  -11.464;11666.972
817.325; 6473.074;  -10.444;11325.530
817.892; 6135.169;  -11.124;11105.369
818.458; 6001.622;  -11.864;10843.928
819.024; 6279.642;  -10.634;10714.406
819.591; 6379.050;  -10.554;10469.165
820.157; 6624.668;  -13.334;10235.523
820.723; 6917.730;  -13.044;10847.563
821.289; 7093.715;   -9.664;11040.980
821.855; 7272.806;  -10.994;10357.100
822.421; 7289.045;  -11.784; 9978.918
822.987; 7260.034;  -12.554; 9754.177
823.553; 7620.506;  -12.554;10065.755
824.119; 7470.860;   -8.544;10036.294
824.685; 6574.824;  -12.144;10029.192
825.251; 6009.065;  -12.754;10199.230
825.816; 5546.959;  -11.354; 9820.189
826.382; 5250.267;  -11.004; 9297.248
826.948; 5258.657;  -11.004; 9381.347
827.513; 5146.700;  -12.474; 9450.726
828.079; 5131.842;  -13.084; 9472.444
828.645; 5323.638;  -10.813; 9292.643
829.210; 5143.823;  -11.593; 9065.341
829.776; 5068.442;  -12.633; 9132.620
830.341; 5050.296;  -10.473; 9092.878
830.906; 4846.801;   -8.763; 9078.557
831.472; 4585.606;  -13.453; 8534.535
832.037; 4005.517;  -12.173; 8677.874
832.602; 3792.659;  -14.093; 8628.692
833.167; 4062.528;  -13.593; 8879.031
833.733; 4582.705;  -10.793; 9189.790
834.298; 4949.945;  -14.783; 9052.608
834.863; 4575.273;  -11.023; 8895.087
835.428; 4368.336;  -11.113; 8824.266
835.993; 4815.326;   -9.983; 8845.385
836.558; 5055.055;  -13.003; 8888.563
837.123; 4856.103;  -10.733; 8966.582
837.688; 4455.532;   -9.683; 8617.860
838.253; 4284.004;  -12.253; 8590.699
838.817; 4277.483;  -11.643; 8443.797
839.382; 4222.710;  -11.953; 8799.356
839.947; 4306.906;  -11.443; 8810.595
840.511; 4644.563;  -10.843; 8796.394
841.076; 4863.004;  -13.533; 8347.231
841.641; 4644.255;  -11.743; 8224.330
842.205; 4108.259;  -10.013; 8223.349
842.770; 3815.887;  -11.023; 8622.107
843.334; 3919.152;  -14.273; 8410.386
843.898; 4317.963;  -11.323; 8337.465
844.463; 4701.339;  -10.263; 8506.283
845.027; 4880.435;  -10.353; 8280.962
845.591; 4831.517;  -12.163; 8231.141
846.156; 4682.080;  -12.263; 7969.179
846.720; 4651.581;  -11.553; 7768.278
847.284; 4422.874;  -12.393; 7630.957
847.848; 3646.966;  -12.623; 7472.395
848.412; 3080.523;  -11.863; 7437.394
848.976; 3034.516;  -10.203; 7674.592
849.540; 3246.806;  -10.603; 7836.011
850.104; 3445.063;  -12.423; 7913.669
850.668; 3453.154;  -14.613; 7694.508
851.232; 3482.622;  -12.873; 7756.887
851.796; 3721.759;  -14.192; 7926.545
852.359; 3905.407;  -13.652; 7827.844
852.923; 3805.850;  -11.402; 7641.163
853.487; 3478.337;  -12.022; 7342.501
854.050; 3309.841;  -15.202; 7042.820
854.614; 3326.031;  -14.592; 7151.338
855.177; 3321.472;  -12.572; 7105.077
855.741; 3345.719;   -9.932; 6989.675
856.304; 3288.612;  -12.192; 6596.634
856.868; 3171.254;  -13.462; 6356.272
857.431; 3162.134;  -11.542; 6468.571
857.995; 3237.263;  -12.062; 6373.210
858.558; 3068.723;  -11.142; 6324.448
859.121; 2941.341;  -11.742; 6408.327
859.684; 2992.934;  -10.332; 6347.886
860.247; 3082.123;  -11.962; 6321.264
860.810; 3129.590;  -12.332; 6301.903
861.374; 2998.029;  -10.292; 6607.881
861.937; 2817.955;  -12.062; 6408.200
862.500; 2833.167;  -11.702; 6572.639
863.062; 2980.219;  -13.852; 6387.297
863.625; 3050.304;  -12.972; 6190.836
864.188; 3013.034;  -10.292; 5807.254
864.751; 2964.378;  -12.382; 5682.413
865.314; 2774.868;  -13.232; 5547.492
865.876; 2471.771;  -12.772; 5500.150
866.439; 2231.086;  -11.952; 5415.909
867.002; 2293.948;   -9.332; 5501.567
867.564; 2614.072;  -11.712; 5413.946
868.127; 2764.068;  -12.012; 5160.325
868.689; 2426.844;  -11.882; 5133.183
869.252; 2082.488;  -11.572; 5252.382
869.814; 1999.092;  -10.692; 5297.141
870.377; 2059.411;  -12.392; 5390.919
870.939; 2135.227;  -10.582; 5599.898
871.501; 2180.020;  -12.782; 5248.336
872.063; 2211.711;  -15.612; 4854.235
872.626; 2270.125;  -13.922; 4817.074
873.188; 2245.491;  -13.832; 4987.732
873.750; 2186.755;  -10.962; 4868.651
874.312; 2233.081;  -11.022; 4779.330
874.874; 2271.526;  -13.152; 4866.348
875.436; 2184.085;  -13.401; 4718.887
875.998; 2072.655;   -8.891; 4660.005
876.560; 1987.222;  -12.591; 4462.964
877.122; 1932.694;  -14.531; 4145.042
877.683; 1895.512;  -10.781; 4056.481
878.245; 1795.668;  -14.281; 3950.740
878.807; 1732.698;  -10.311; 4058.958
879.369; 1685.217;  -13.201; 3954.677
879.930; 1649.356;  -12.061; 3941.495
880.492; 1650.910;   -9.181; 4067.014
881.053; 1672.918;  -12.051; 3859.633
881.615; 1637.100;  -11.501; 3776.071
882.176; 1536.891;  -12.221; 3734.750
882.738; 1424.183;   -8.931; 3678.489
883.299; 1358.579;  -13.571; 3405.407
883.860; 1368.379;  -12.331; 3351.106
884.422; 1312.422;  -10.201; 3394.044
884.983; 1178.627;  -12.521; 3166.443
885.544; 1056.555;  -12.291; 3189.802
886.105; 1000.732;  -12.991; 3160.360
886.666;  987.707;  -12.901; 3093.059
887.227;  977.425;  -12.061; 2941.957
887.788;  947.757;  -11.641; 2974.836
888.349;  903.572;  -14.691; 2721.214
888.910;  861.522;   -9.681; 2696.493
889.471;  856.682;   -9.971; 2560.172
890.032;  868.737;  -13.151; 2558.190
890.593;  845.769;  -12.051; 2567.669
891.153;  805.152;  -12.841; 2460.307
891.714;  771.358;  -13.561; 2372.046
892.275;  738.429;  -12.401; 2309.505
892.835;  700.930;  -13.191; 2382.543
893.396;  665.922;  -12.551; 2295.502
893.956;  646.464;  -11.981; 2162.420
894.517;  629.394;  -12.221; 2125.439
895.077;  593.194;  -12.021; 2086.978
895.638;  534.135;  -10.891; 2126.316
896.198;  479.501;  -13.171; 1838.275
896.758;  443.919;  -11.891; 1892.813
897.319;  418.987;  -12.491; 1792.232
897.879;  402.358;  -12.401; 1762.751
898.439;  376.740;  -13.431; 1661.149
898.999;  358.695;  -11.340; 1781.468
899.559;  351.134;  -13.930; 1703.347
900.119;  331.382;  -13.730; 1537.525
900.679;  314.507;   -9.210; 1638.384
901.239;  297.743;  -10.860; 1527.902
901.799;  279.696;  -11.450; 1456.441
902.359;  261.893;  -13.800; 1357.140
902.919;  255.898;  -12.130; 1331.118
903.479;  256.160;  -12.650; 1317.257
904.038;  251.540;  -16.110; 1262.595
904.598;  237.109;  -13.690; 1152.034
905.158;  226.846;  -10.290; 1240.893
905.717;  219.321;  -10.670; 1233.691
906.277;  217.701;  -14.040; 1217.330
906.836;  218.053;  -13.510; 1222.408
907.396;  213.481;  -11.530; 1193.047
907.955;  202.257;  -13.190; 1182.526
908.515;  190.162;  -12.950; 1099.364
909.074;  181.927;  -12.390; 1092.863
909.633;  178.371;  -10.340; 1069.121
910.192;  175.983;  -11.170; 1196.460
910.752;  170.268;  -14.200; 1029.960
911.311;  165.999;  -13.810; 1009.780
911.870;  163.526;  -12.750;  971.460
912.429;  162.644;  -12.380; 1094.080
912.988;  159.648;  -11.930; 1081.060
913.547;  154.086;  -10.990;  940.380
914.106;  151.225;  -11.200;  999.420
914.665;  149.251;  -13.150;  984.020
915.224;  146.567;  -13.310; 1035.760
915.782;  145.626;  -13.340;  922.560
916.341;  145.289;  -10.710; 1049.840
916.900;  143.118;  -12.980;  925.260
917.458;  141.041;  -13.060;  884.220
918.017;  139.225;  -10.900;  942.600
918.576;  138.382;  -11.630;  904.440
919.134;  138.347;  -12.860;  837.980
919.693;  137.703;  -15.160;  893.060
920.251;  137.727;  -13.470;  876.500
920.809;  137.340;  -13.700;  839.580
921.368;  138.474;  -13.420;  885.360
921.926;  137.796;  -14.710;  842.940
922.484;  138.409;  -12.560;  903.360
923.042;  137.323;  -11.930;  880.340
923.601;  138.277;  -10.270;  998.680
924.159;  136.873;  -12.960;  935.560
924.717;  135.850;  -13.040;  841.080
925.275;  139.025;  -12.560;  903.240
925.833;  139.272;  -13.040;  779.320
926.391;  141.231;  -13.360;  938.380
926.949;  139.433;  -13.940;  857.680
927.506;  140.599;   -9.400;  903.500
928.064;  140.301;  -10.940;  877.580
928.622;  139.008;  -13.180;  880.100
929.180;  139.523;  -12.730;  814.180
929.737;  140.763;  -12.840;  808.540
930.295;  144.148;  -11.810;  928.480
930.853;  147.686;  -13.650;  849.100
931.410;  149.518;  -13.580;  821.120
931.968;  151.288;  -12.020;  940.660
932.525;  151.395;  -13.320;  909.380
933.082;  151.899;  -13.800;  811.440
933.640;  158.151;  -11.380;  925.900
934.197;  160.209;  -11.480;  886.360
934.754;  163.741;  -13.220;  897.780
935.312;  162.159;  -14.950;  863.340
935.869;  160.261;  -10.940; 1012.980
936.426;  154.936;  -12.100;  872.800
936.983;  155.197;  -12.930;  889.020
937.540;  155.810;  -14.250;  838.280
938.097;  159.355;  -12.600;  940.120
938.654;  165.989;  -11.260;  898.860
939.211;  168.606;  -13.020;  952.480
939.768;  171.561;  -15.760;  915.420
940.324;  172.406;  -13.920;  904.200
940.881;  168.493;  -11.620;  878.500
941.438;  166.432;   -9.870; 1021.200
941.995;  162.860;  -13.920;  992.560
942.551;  161.284;  -12.830;  875.620
943.108;  163.805;  -11.980;  937.920
943.664;  166.423;  -13.740;  869.340
944.221;  172.168;  -12.670; 1088.140
944.777;  169.483;  -13.250;  869.680
945.334;  168.529;  -13.000;  884.840
945.890;  169.221;  -13.020;  946.480
946.446;  168.768;  -13.880;  947.020
947.003;  171.650;  -12.660;  964.940
947.559;  171.824;   -8.730; 1063.040
948.115;  168.266;  -11.960; 1026.540
948.671;  165.091;  -12.360;  967.300
949.227;  161.586;  -12.700;  859.560
949.783;  158.459;  -13.450;  858.900
950.339;  156.947;  -10.620;  991.000
950.895;  154.750;  -14.770; 1023.840
951.451;  151.544;  -13.650;  925.280
952.007;  152.380;  -11.180;  998.540
952.563;  151.457;  -11.680;  937.780
953.118;  151.295;  -13.280;  904.940
953.674;  153.089;  -12.510;  935.780
954.230;  152.688;  -12.220;  949.640
954.785;  148.607;  -12.190;  936.640
955.341;  143.123;  -12.270;  998.160
955.897;  137.187;  -14.900;  834.660
956.452;  137.496;  -12.520;  953.840
957.008;  137.354;   -9.410; 1083.640
957.563;  135.864;  -11.280; 1009.540
958.118;  133.463;  -13.470;  877.700
958.674;  136.793;  -12.190;  946.780
959.229;  138.161;  -12.760; 1013.980
959.784;  142.621;  -15.710;  832.400
960.339;  148.534;  -12.540; 1001.280
960.894;  149.891;  -11.680;  963.760
961.449;  146.196;  -11.410;  859.960
962.004;  144.051;  -10.430; 1212.840
962.559;  138.866;  -14.040;  860.140
963.114;  135.978;  -14.270;  742.480
963.669;  136.937;  -11.320;  915.500
964.224;  135.325;  -14.620;  874.340
964.779;  132.191;  -14.150;  828.420
965.334;  132.849;  -10.850; 1017.860
965.888;  131.751;  -14.530;  875.360
966.443;  132.909;  -13.520;  972.380
966.998;  129.560;  -13.370;  819.460
967.552;  126.582;   -9.960;  908.380
968.107;  122.221;  -12.360;  868.300
968.661;  122.745;  -12.270;  922.440
969.216;  121.533;  -12.140;  856.280
969.770;  122.695;  -11.860;  917.200
970.324;  122.175;  -12.170;  923.140
970.879;  121.197;  -14.160;  947.180
971.433;  118.573;  -12.940;  952.720
971.987;  115.020;  -10.180;  895.340
972.541;  115.101;  -12.130;  917.100
973.095;  114.120;  -14.980; 1009.460
973.649;  113.163;  -14.480;  809.480
974.203;  114.407;  -13.530;  829.040
974.757;  116.427;  -12.060;  855.220
975.311;  114.024;  -13.240;  872.600
975.865;  110.876;  -12.550;  881.820
976.419;  109.583;  -13.180;  857.400
976.973;  109.349;  -14.100;  849.620
977.526;  108.238;  -13.330;  949.920
978.080;  104.404;  -15.390;  796.780
978.634;  104.248;  -11.670;  921.320
979.187;  102.733;  -10.640;  905.400
979.741;  101.573;  -13.330; 1018.380
980.294;   98.476;  -14.480;  789.160
980.848;   96.155;  -13.420;  717.220
981.401;   94.773;  -12.360;  816.540
981.955;   92.842;  -12.480;  844.300
982.508;   89.088;  -14.000;  746.340
983.061;   89.412;  -10.440;  915.260
983.615;   86.370;  -14.340;  798.800
984.168;   82.527;  -14.950;  770.080
984.721;   82.952;  -13.270;  880.760
985.274;   81.985;  -12.240;  867.500
985.827;   78.025;  -12.720;  834.220
986.380;   73.986;  -14.920;  721.340
986.933;   74.545;  -12.860;  864.800
987.486;   73.401;  -10.440;  861.920
988.039;   73.801;  -11.820;  863.100
988.591;   71.488;  -13.760;  893.260
989.144;   70.119;  -14.080;  737.260
989.697;   70.560;  -13.440;  758.740
990.250;   71.701;  -12.050;  858.100
990.802;   70.035;  -14.550;  755.860
991.355;   70.341;  -10.770;  974.880
991.907;   68.187;  -11.710;  864.320
992.460;   66.032;  -12.650;  753.760
993.012;   64.172;  -13.860;  749.540
993.565;   62.422;  -14.310;  711.360
994.117;   62.234;   -9.920;  950.780
994.669;   59.799;  -13.420;  701.320
995.221;   58.039;  -14.200;  791.920
995.774;   58.108;  -13.400;  787.580
996.326;   57.379;  -11.850;  740.220
996.878;   57.082;  -12.230;  838.420
997.430;   54.359;  -14.260;  699.860
997.982;   54.032;  -11.430;  750.140
998.534;   54.576;  -11.590;  739.060
999.086;   53.446;  -11.960;  738.220
999.638;   52.408;  -13.640;  661.380
1000.190;   51.117;  -13.660;  699.320
1000.741;   51.215;   -9.980;  742.700
1001.293;   50.862;  -11.860;  686.020
1001.845;   49.647;  -14.280;  676.640
1002.396;   50.375;  -12.270;  743.400
1002.948;   49.438;  -13.670;  737.400
1003.500;   48.829;  -12.010;  723.780
1004.051;   48.432;  -11.890;  907.580
1004.603;   47.813;  -11.220;  791.820
1005.154;   43.955;  -13.210;  608.980
1005.705;   43.371;  -11.850;  723.960
1006.257;   43.376;  -13.670;  707.220
1006.808;   42.951;  -12.060;  685.460
1007.359;   42.171;  -10.250;  763.240
1007.910;   41.274;  -13.440;  646.640
1008.461;   40.592;  -13.170;  732.940
1009.013;   39.153;  -14.590;  588.340
1009.564;   40.755;  -12.100;  793.520
1010.115;   38.817;  -14.000;  597.040
1010.665;   37.760;  -15.020;  602.160
1011.216;   38.209;  -12.560;  667.920
1011.767;   37.440;  -11.330;  697.920
1012.318;   38.763;  -11.450;  736.980
1012.869;   36.435;  -11.000;  679.000
1013.419;   37.180;  -11.760;  603.120
1013.970;   37.384;  -11.800;  666.640
1014.521;   36.348;  -14.750;  620.620
1015.071;   36.392;  -14.430;  670.380
1015.622;   35.390;  -14.170;  635.460
1016.172;   35.213;  -11.700;  596.820
1016.723;   35.169;  -13.230;  614.380
1017.273;   34.428;  -16.120;  604.160
1017.823;   34.829;  -13.360;  650.340
1018.374;   34.611;  -13.710;  611.760
1018.924;   34.318;  -11.050;  716.880
1019.474;   35.080;  -14.120;  718.880
1020.024;   32.716;  -12.990;  657.580
1020.574;   34.157;  -12.010;  726.160
1021.124;   34.926;  -12.080;  673.580
1021.674;   32.435;  -15.860;  559.120
1022.224;   33.845;  -11.710;  708.940
1022.774;   33.463;  -13.030;  668.820
1023.324;   33.352;  -11.000;  753.520
1023.874;   35.139;  -13.270;  875.760
1024.423;   31.937;  -14.570;  613.700
1024.973;   31.644;  -12.620;  610.760
1025.523;   31.116;  -12.630;  620.960
1026.072;   30.729;  -14.110;  606.420
1026.622;   30.915;  -15.390;  675.740
1027.172;   31.876;   -9.090;  715.660
1027.721;   30.002;  -12.250;  601.220
1028.270;   30.495;  -15.590;  663.400
1028.820;   29.961;  -13.840;  638.080
1029.369;   29.914;  -13.170;  612.700
1029.918;   30.062;  -14.080;  649.840
1030.468;   29.332;  -13.860;  564.780
1031.017;   29.752;  -12.970;  634.800
1031.566;   28.393;  -12.320;  608.900
1032.115;   29.703;  -13.140;  694.500
1032.664;   27.333;  -14.560;  596.480
1033.213;   29.096;  -11.620;  735.420
1033.762;   28.359;  -13.190;  635.620
1034.311;   28.386;  -13.460;  677.220
1034.860;   28.469;  -15.770;  691.000
1035.408;   27.821;  -13.100;  722.720
1035.957;   28.560;  -12.880;  719.540
1036.506;   26.232;  -13.640;  530.800
1037.055;   29.162;  -12.420;  844.320
1037.603;   27.287;  -13.740;  664.000
1038.152;   25.750;  -13.840;  534.760
1038.700;   26.265;  -10.770;  585.740
1039.249;   26.074;  -13.520;  681.220
1039.797;   26.225;  -13.060;  633.360
1040.345;   26.492;  -11.760;  705.420
1040.894;   25.947;  -10.790;  625.300
1041.442;   25.502;  -15.420;  632.200
1041.990;   25.017;  -14.550;  559.160
1042.538;   24.113;  -15.620;  536.180
1043.087;   24.852;  -14.940;  570.860
1043.635;   25.839;  -12.100;  670.500
1044.183;   24.755;  -13.200;  586.400
1044.731;   24.347;  -11.630;  576.000
1045.279;   24.461;  -14.200;  674.920
1045.827;   26.422;  -12.510;  892.400
1046.374;   22.649;  -14.960;  515.420
1046.922;   23.503;  -11.850;  590.580
1047.470;   24.560;  -13.770;  691.300
1048.018;   23.684;  -15.380;  647.960
1048.565;   24.361;  -14.010;  708.600
1049.113;   23.017;  -14.620;  557.000
1049.660;   23.251;  -14.940;  629.660
1050.208;   23.638;  -14.540;  675.640
1050.755;   22.865;  -13.710;  606.580
1051.303;   23.067;  -11.880;  686.820
1051.850;   22.545;  -12.160;  635.120
1052.397;   20.557;  -15.110;  473.960
1052.945;   21.125;  -14.770;  617.760
1053.492;   23.581;  -12.320;  741.840
1054.039;   23.001;  -13.290;  720.180
1054.586;   21.304;  -15.210;  557.240
1055.133;   22.254;  -12.920;  693.140
1055.680;   22.122;  -12.610;  646.620
1056.227;   20.774;  -12.620;  542.780
1056.774;   23.055;  -13.010;  794.980
1057.321;   20.156;  -16.180;  523.260
1057.868;   20.871;  -11.230;  651.320
1058.415;   21.130;  -10.890;  651.980
1058.961;   21.034;  -12.530;  678.940
1059.508;   20.096;  -14.120;  643.820
1060.055;   20.181;  -13.340;  581.780
1060.601;   20.840;  -12.920;  624.300
1061.148;   19.933;  -14.430;  616.820
1061.694;   19.185;  -14.140;  592.580
1062.241;   19.981;  -12.550;  596.320
1062.787;   20.702;  -13.370;  663.140
1063.334;   22.428;  -12.260;  808.560
1063.880;   19.697;  -10.800;  668.360
1064.426;   19.400;   -9.920;  706.820
1064.972;   18.278;  -12.970;  601.340
1065.518;   17.786;  -14.440;  566.640
1066.065;   19.210;  -12.680;  624.460
1066.611;   18.443;  -13.520;  598.800
1067.157;   19.269;  -11.100;  641.860
1067.703;   19.331;  -14.100;  668.480
1068.249;   17.816;  -13.750;  605.220
1068.794;   18.485;  -11.070;  626.880
1069.340;   17.382;  -13.210;  578.960
1069.886;   17.801;  -14.850;  590.700
1070.432;   16.617;  -14.580;  541.720
1070.977;   16.780;  -12.930;  601.080
1071.523;   17.433;  -11.970;  573.060
1072.068;   17.443;  -13.730;  582.000
1072.614;   16.636;  -14.550;  527.760
1073.160;   17.519;  -13.690;  687.040
1073.705;   16.260;  -14.780;  572.520
1074.250;   16.463;  -15.430;  559.900
1074.796;   17.181;  -11.620;  655.160
1075.341;   17.751;  -11.580;  664.100
1075.886;   16.862;  -13.190;  594.240
1076.431;   15.888;  -13.630;  649.880
1076.976;   15.786;  -11.670;  639.220
1077.521;   15.053;  -11.600;  583.080
1078.067;   15.286;  -13.920;  579.400
1078.612;   14.577;  -12.910;  661.620
1079.156;   15.539;  -15.340;  601.540
1079.701;   15.343;  -12.560;  693.260
1080.246;   16.455;  -12.490;  696.300
1080.791;   15.124;  -14.550;  625.020
1081.336;   15.249;  -15.210;  659.320
1081.880;   15.463;  -11.280;  649.680
1082.425;   14.588;  -12.830;  573.480
1082.970;   16.162;  -11.680;  717.040
1083.514;   14.272;  -15.500;  597.000
1084.059;   14.016;  -11.770;  586.720
1084.603;   14.262;  -13.480;  565.840
1085.147;   13.820;  -13.940;  645.220
1085.692;   15.075;  -13.170;  716.800
1086.236;   12.695;  -15.740;  503.140
1086.780;   15.554;  -10.750;  751.440
1087.325;   14.239;  -14.900;  654.620
1087.869;   13.673;  -15.160;  610.700
1088.413;   14.201;  -11.030;  705.040
1088.957;   12.279;  -15.210;  543.400
1089.501;   14.797;  -12.310;  766.640
1090.045;   14.470;  -12.790;  726.480
1090.589;   12.033;  -14.040;  569.920
1091.133;   13.334;  -12.800;  673.340
1091.676;   12.993;  -13.600;  591.940
1092.220;   12.488;  -12.960;  600.920
1092.764;   14.161;  -10.830;  706.960
1093.307;   13.120;  -12.390;  673.780
1093.851;   11.770;  -15.850;  556.540
1094.395;   13.284;  -12.980;  683.140
1094.938;   11.905;  -13.670;  632.520
1095.482;   11.743;  -12.740;  559.800
1096.025;   12.600;  -13.340;  710.880
1096.568;   12.600;  -10.500;  779.280
1097.112;    9.812;  -13.500;  508.180
1097.655;   12.095;  -13.060;  603.000
1098.198;   10.431;  -13.240;  600.180
1098.741;   10.596;  -15.490;  612.860
1099.285;   11.550;  -13.410;  657.300
1099.828;    9.046;  -15.640;  439.400
1100.371;   11.103;  -13.980;  608.160
1100.914;   11.496;  -13.990;  682.660
1101.457;   11.614;  -15.030;  679.900
1101.999;   10.119;  -12.480;  584.680
1102.542;   11.180;  -12.410;  641.440
1103.085;   10.497;  -14.730;  658.500
1103.628;   11.407;  -12.190;  762.060
1104.170;   10.189;  -12.360;  588.280
1104.713;   10.837;  -13.350;  646.700
1105.256;    9.483;  -14.930;  557.440
1105.798;    8.682;  -15.150;  499.980
1106.341;   11.265;  -13.230;  728.900
1106.883;    9.449;  -14.680;  521.340
1107.425;    9.765;  -14.810;  668.180
1107.968;    9.016;  -12.940;  612.380
1108.510;   10.129;  -10.550;  684.960
1109.052;    8.131;  -15.640;  612.620
1109.594;    9.039;  -14.440;  554.440
1110.136;    8.763;  -11.380;  643.220
1110.679;    8.488;  -13.090;  633.080
1111.221;    9.237;  -14.230;  604.460
1111.763;    8.261;  -14.260;  559.220
1112.304;    7.369;  -14.510;  547.140
1112.846;    9.414;  -14.700;  666.240
1113.388;   11.500;  -12.270;  942.180
1113.930;    8.088;  -13.340;  694.200
1114.472;    7.710;  -12.560;  606.540
1115.013;    6.805;  -14.280;  551.280
1115.555;    6.698;  -14.010;  587.100
1116.097;    5.891;  -14.730;  579.480
1116.638;    7.310;  -12.160;  684.600
1117.180;    8.624;  -14.320;  667.740
1117.721;    6.625;  -15.730;  568.580
1118.262;    7.756;  -13.480;  677.960
1118.804;    7.800;  -11.530;  637.340
1119.345;    6.445;  -13.540;  578.400
1119.886;    8.085;  -14.470;  704.040
1120.427;    5.924;  -13.030;  589.020
1120.969;    6.290;  -13.150;  597.920
1121.510;    6.081;  -13.940;  563.060
1122.051;    6.920;  -12.310;  723.580
1122.592;    6.615;  -13.870;  655.420
1123.133;    5.028;  -12.890;  547.940
1123.673;    7.250;  -13.300;  706.480
1124.214;    6.373;  -14.000;  612.460
1124.755;    7.111;  -13.210;  639.460
1125.296;    6.251;  -13.450;  627.320
1125.836;    7.813;  -12.610;  691.500
1126.377;    5.784;  -15.840;  599.660
1126.918;    6.183;  -11.830;  614.980
1127.458;    5.296;  -11.830;  622.220
1127.999;    6.497;  -11.490;  656.980
1128.539;    6.419;  -12.900;  694.240
1129.079;    5.242;  -14.910;  632.720
1129.620;    4.940;  -12.920;  558.100
1130.160;    5.126;  -14.640;  539.480
1130.700;    5.058;  -13.270;  640.840
1131.240;    5.594;  -14.110;  643.700
1131.781;    4.439;  -13.130;  619.680
1132.321;    4.838;  -15.220;  599.120
1132.861;    3.689;  -15.670;  564.200
1133.401;    3.568;  -13.970;  593.940
1133.941;    5.048;  -13.740;  626.280
1134.481;    3.597;  -13.200;  597.580
1135.020;    4.131;  -14.830;  609.160
1135.560;    5.076;  -14.590;  674.940
1136.100;    3.036;  -13.730;  501.160
1136.640;    3.111;  -15.240;  510.480
1137.179;    3.907;  -14.710;  537.960
1137.719;    3.594;  -14.090;  605.400
1138.258;    4.053;  -12.470;  587.360
1138.798;    4.554;  -12.580;  663.780
1139.337;    2.481;  -16.480;  482.840
1139.877;    3.955;  -13.970;  642.360
1140.416;    6.818;   -9.870;  878.060
1140.955;    2.784;  -14.860;  535.380
1141.494;    3.367;  -14.530;  669.280
1142.034;    2.311;  -13.940;  583.520
1142.573;    4.070;  -11.160;  646.280
1143.112;    2.574;  -15.050;  553.480
1143.651;    2.527;  -15.390;  536.480
1144.190;    3.986;  -12.990;  691.640
1144.729;    3.619;  -12.220;  607.420
1145.267;    3.079;  -14.020;  584.900
1145.806;    3.130;  -12.740;  637.040
1146.345;    1.904;  -14.810;  635.020
1146.884;    3.007;  -12.920;  622.500
1147.422;    1.606;  -13.930;  533.060
1147.961;    3.887;  -11.830;  708.460
1148.500;    3.606;  -12.710;  669.720
1149.038;    2.633;  -14.420;  632.500
1149.577;    3.538;  -13.920;  698.640
1150.115;   -0.404;  -17.050;  452.280
1150.653;    1.811;  -14.890;  607.340
1151.192;    2.371;  -15.270;  552.920
1151.730;    2.202;  -13.160;  652.560
1152.268;    1.298;  -15.430;  589.520
1152.806;    1.879;  -15.880;  571.180
1153.344;    0.762;  -13.240;  577.640
1153.882;    2.113;  -13.010;  600.060
1154.421;    0.066;  -16.180;  470.620
1154.958;    0.909;  -13.880;  595.240
1155.496;    2.400;  -13.590;  645.280
1156.034;    2.026;  -11.910;  721.880
1156.572;    2.243;  -12.010;  667.060
1157.110;   -0.002;  -16.250;  473.940
1157.647;    1.722;  -15.230;  676.960
1158.185;    0.145;  -13.770;  564.320
1158.723;   -0.154;  -15.300;  509.200
1159.260;    1.298;  -13.130;  701.700
1159.798;    1.565;  -11.300;  658.160
1160.335;    1.217;  -13.210;  631.820

