
Integration time [ms]:   3.276
Averaging Nr. [scans]: 1000
Smoothing Nr. [pixels]: 0
Data measured with spectrometer [name]: 7414430SP
Wave   ;Sample   ;Dark     ;Reference
[nm]   ;[counts] ;[counts] ;[counts] 

288.544;  150.125;    7.793;  793.890
289.143;  153.852;    7.462;  681.602
289.742;  153.679;    8.602;  828.814
290.341;  139.848;    1.321;  789.841
290.940;  128.287;   -0.709;  730.702
291.538;  130.092;    0.881;  881.108
292.137;  130.021;    0.122;  792.581
292.736;  134.249;   -1.929;  975.101
293.335;  130.802;   -8.229;  735.086
293.934;  130.446;   -5.279;  781.677
294.532;  129.456;   -1.369; 1031.958
295.131;  115.083;   -7.641;  834.394
295.730;  115.577;   -8.420;  809.588
296.328;  114.399;   -5.611;  783.442
296.927;  115.113;   -5.781;  779.652
297.525;  116.525;   -6.361;  781.236
298.124;  107.244;  -11.382;  654.009
298.722;  110.428;   -7.641;  761.933
299.321;  108.018;   -6.811;  708.597
299.919;  106.735;   -6.991;  751.918
300.518;  103.445;  -10.362;  689.338
301.116;  104.979;   -9.581;  691.381
301.715;  104.762;   -4.891;  730.222
302.313;  103.454;   -8.801;  704.943
302.911;   99.262;   -8.522;  733.830
303.509;  104.764;   -6.171;  925.627
304.108;  102.445;   -7.311;  760.383
304.706;  101.807;   -8.321;  801.664
305.304;   95.908;  -10.222;  796.707
305.902;  101.648;   -6.021;  784.484
306.500;   97.029;   -4.971;  728.200
307.098;   95.570;   -7.061;  746.560
307.696;   93.438;   -8.801;  780.432
308.294;   93.767;   -6.411;  731.359
308.892;   96.219;   -2.901;  759.769
309.490;   92.246;   -5.041;  712.161
310.088;   91.223;   -5.002;  788.444
310.686;   95.125;   -2.041;  821.749
311.284;   90.203;   -2.351;  766.040
311.882;   88.196;   -4.422;  731.225
312.480;   85.129;   -4.192;  697.167
313.078;   86.962;   -1.172;  808.331
313.675;   87.346;   -2.601;  691.600
314.273;   82.566;   -1.312;  797.837
314.871;   82.091;   -3.942;  589.829
315.468;   79.632;   -2.802;  652.090
316.066;   81.477;   -0.701;  694.427
316.664;   75.924;   -4.362;  656.351
317.261;   79.727;   -2.872;  910.128
317.859;   74.612;   -2.022;  768.735
318.456;   75.249;   -0.531;  830.096
319.054;   71.332;   -3.912;  787.828
319.651;   70.634;   -4.752;  759.928
320.249;   68.518;   -2.602;  810.188
320.846;   67.293;   -0.821;  714.286
321.443;   64.422;   -4.642;  832.135
322.041;   61.584;   -5.002;  812.315
322.638;   59.435;   -3.982;  701.456
323.235;   60.605;   -3.411;  665.683
323.833;   57.924;   -7.361;  740.354
324.430;   53.463;   -8.611;  615.900
325.027;   54.427;   -4.061;  876.855
325.624;   53.458;   -4.031;  644.532
326.221;   50.537;   -7.481;  689.717
326.818;   49.914;   -5.281;  818.332
327.415;   53.470;   -7.460;  748.828
328.012;   53.453;   -5.510;  690.585
328.609;   51.673;   -7.880;  731.389
329.206;   49.336;   -8.331;  778.621
329.803;   49.722;   -5.121;  737.841
330.400;   52.805;   -4.510;  704.260
330.997;   53.938;   -6.441;  817.147
331.594;   52.920;   -8.831;  788.185
332.191;   57.631;   -7.621;  728.722
332.787;   61.019;   -4.591;  844.463
333.384;   59.285;   -7.412;  763.093
333.981;   58.380;   -8.293;  815.687
334.578;   60.264;   -7.052;  708.378
335.174;   63.017;   -3.102;  731.469
335.771;   63.336;   -5.943;  836.456
336.367;   59.326;   -7.393;  710.631
336.964;   63.353;   -4.063;  793.266
337.561;   61.922;   -3.813;  731.112
338.157;   57.051;   -4.654;  911.916
338.754;   54.787;   -7.934;  796.589
339.350;   52.955;   -4.414;  722.493
339.946;   55.720;   -4.664;  773.135
340.543;   47.588;   -6.375;  846.136
341.139;   41.682;   -9.815;  720.836
341.735;   40.125;   -4.526;  772.593
342.332;   38.589;   -4.895;  691.472
342.928;   38.598;   -4.295;  795.394
343.524;   32.524;   -5.476;  761.684
344.120;   28.952;   -5.856;  738.562
344.716;   32.472;   -2.155;  723.717
345.313;   30.209;   -6.275;  795.342
345.909;   24.868;   -8.815;  627.336
346.505;   26.632;   -5.305;  740.247
347.101;   27.486;   -2.674;  827.864
347.697;   27.642;   -4.344;  785.398
348.293;   21.619;   -9.975;  627.244
348.889;   22.489;   -5.774;  745.914
349.485;   21.995;   -5.004;  688.205
350.081;   22.942;   -4.704;  772.592
350.676;   17.763;   -6.635;  691.606
351.272;   22.167;   -4.504;  809.530
351.868;   21.613;   -3.914;  780.497
352.464;   19.223;   -9.044;  723.932
353.059;   15.301;   -8.314;  646.017
353.655;   18.528;   -7.024;  777.063
354.251;   20.569;   -5.343;  759.845
354.846;   14.233;   -8.604;  740.646
355.442;   12.481;   -6.945;  753.071
356.038;   14.364;   -7.564;  751.708
356.633;   13.965;   -5.814;  728.594
357.229;   11.746;   -7.364;  724.757
357.824;   10.262;   -8.024;  703.600
358.420;    9.314;   -9.384;  679.726
359.015;   10.183;   -5.104;  695.357
359.610;   11.290;   -6.854;  763.920
360.206;    5.026;  -10.185;  603.240
360.801;    8.452;   -7.054;  646.503
361.396;   10.261;   -5.034;  725.975
361.992;    6.096;   -8.284;  668.220
362.587;    3.134;   -8.625;  670.160
363.182;    4.643;   -7.674;  689.631
363.777;    5.916;   -5.164;  738.242
364.372;    5.544;   -8.604;  737.314
364.967;    1.320;   -9.055;  680.744
365.563;    5.729;   -6.114;  815.567
366.158;    2.944;   -5.814;  685.161
366.753;    3.173;   -7.854;  649.263
367.348;    2.391;   -7.804;  746.056
367.942;    1.983;   -7.954;  697.298
368.537;    0.978;   -4.984;  754.245
369.132;    1.169;   -8.564;  703.428
369.727;   -3.418;   -8.855;  638.079
370.322;   -1.980;   -6.245;  580.186
370.917;   -2.693;   -6.425;  710.646
371.511;    0.797;   -6.294;  861.834
372.106;   -2.625;   -7.685;  776.964
372.701;   -5.616;   -7.335;  585.988
373.296;   -0.522;   -4.564;  863.135
373.890;   -5.168;  -10.235;  647.840
374.485;   -7.163;   -7.885;  691.199
375.079;   -3.537;   -7.324;  738.685
375.674;   -1.529;   -3.494;  812.970
376.268;   -6.546;   -8.525;  691.759
376.863;  -12.713;  -10.086;  580.327
377.457;   -5.548;   -7.025;  662.490
378.052;   -8.064;   -3.585;  764.884
378.646;   -8.474;   -7.595;  741.167
379.240;   -9.080;   -8.335;  721.176
379.835;   -8.151;   -5.785;  636.978
380.429;   -9.802;   -4.335;  562.557
381.023;   -9.476;   -6.805;  779.205
381.617;  -12.575;   -9.195;  680.106
382.212;  -10.030;   -6.905;  685.303
382.806;   -8.405;   -3.745;  760.690
383.400;  -12.662;   -7.745;  672.281
383.994;  -13.646;   -9.765;  664.870
384.588;   -9.345;   -6.564;  697.701
385.182;   -8.030;   -5.344;  726.624
385.776;  -10.232;   -8.514;  706.875
386.370;  -13.318;   -9.555;  681.968
386.964;  -12.374;   -8.715;  684.155
387.558;  -10.148;   -6.174;  598.360
388.152;  -13.119;   -8.725;  681.959
388.745;  -11.910;   -7.965;  814.707
389.339;  -10.068;   -5.924;  747.642
389.933;   -9.049;   -5.524;  695.370
390.527;  -10.918;   -7.114;  859.029
391.120;  -16.523;  -10.725;  595.318
391.714;  -13.903;   -8.035;  711.633
392.308;   -9.999;   -3.574;  780.253
392.901;  -14.567;   -7.245;  642.460
393.495;  -15.344;   -9.285;  595.414
394.089;  -13.655;   -5.895;  760.452
394.682;  -14.292;   -4.295;  697.188
395.275;  -14.628;   -9.875;  719.927
395.869;  -16.547;   -8.485;  667.314
396.462;  -14.788;   -7.455;  616.609
397.056;  -10.219;   -5.424;  776.621
397.649;  -15.093;   -6.605;  731.575
398.242;  -12.941;   -8.224;  712.645
398.836;  -12.451;   -7.474;  766.408
399.429;  -13.291;   -7.094;  631.041
400.022;  -16.519;   -9.475;  665.902
400.615;  -14.606;   -7.145;  805.609
401.208;  -12.108;   -7.174;  691.451
401.802;  -14.434;   -5.515;  699.329
402.395;  -15.264;   -9.875;  683.502
402.988;  -17.449;   -8.845;  696.627
403.581;  -13.430;   -8.874;  646.878
404.174;  -11.682;   -5.324;  686.568
404.767;  -14.137;   -9.575;  638.583
405.360;  -16.403;  -10.965;  621.445
405.953;  -11.841;   -8.764;  759.034
406.545;  -11.358;   -7.514;  725.342
407.138;  -14.778;  -10.025;  618.350
407.731;  -13.610;  -10.034;  613.303
408.324;   -9.485;   -9.374;  660.554
408.917;  -10.448;   -6.534;  681.864
409.509;  -12.829;   -8.004;  740.396
410.102;  -14.370;   -9.875;  643.948
410.695;   -8.470;   -8.604;  665.758
411.287;  -10.010;   -6.794;  599.821
411.880;  -11.248;   -9.334;  585.421
412.472;  -14.075;  -10.254;  613.092
413.065;  -10.483;   -6.714;  629.408
413.657;   -9.511;   -7.234;  576.678
414.250;   -8.348;  -10.544;  646.681
414.842;   -9.928;   -9.744;  676.353
415.434;   -8.480;   -6.994;  570.463
416.027;   -3.877;   -5.893;  652.196
416.619;   -6.169;   -7.264;  713.400
417.211;   -7.117;  -10.374;  599.352
417.804;   -3.728;   -7.993;  628.499
418.396;   -7.080;   -7.234;  607.643
418.988;   -5.561;   -9.443;  659.238
419.580;   -8.640;  -10.724;  568.276
420.172;   -6.919;  -10.323;  536.196
420.764;   -1.339;   -8.793;  672.482
421.356;   -3.097;  -11.143;  636.898
421.948;   -4.538;   -8.293;  677.661
422.540;    0.718;   -7.893;  680.027
423.132;   -0.612;   -7.082;  600.641
423.724;   -2.868;   -8.653;  561.267
424.316;   -1.488;  -10.213;  621.345
424.908;    2.110;   -9.762;  591.517
425.500;    2.762;   -5.572;  647.978
426.092;    2.707;   -8.422;  648.268
426.683;    2.865;   -9.283;  684.836
427.275;    5.109;   -7.852;  641.471
427.867;    7.091;   -5.272;  668.948
428.458;    7.045;   -7.682;  732.344
429.050;    5.619;  -10.612;  680.749
429.642;    8.019;   -9.882;  743.124
430.233;    8.317;   -6.962;  569.356
430.825;    9.707;   -6.842;  724.809
431.416;    6.836;   -9.672;  698.241
432.008;   10.065;   -6.552;  651.723
432.599;   10.861;   -6.891;  656.073
433.190;    8.043;  -10.912;  637.670
433.782;    7.874;  -11.172;  590.395
434.373;   14.861;   -6.061;  884.765
434.964;   14.449;   -8.251;  602.920
435.556;   11.048;   -9.722;  634.537
436.147;   14.367;   -9.082;  758.490
436.738;   14.359;   -8.041;  701.099
437.329;   19.814;   -7.341;  721.723
437.920;   12.611;   -8.162;  666.688
438.511;   12.508;  -11.802;  564.526
439.103;   18.603;  -10.191;  623.998
439.694;   21.032;   -7.601;  681.583
440.285;   21.825;   -8.541;  764.432
440.876;   19.893;   -9.751;  845.738
441.466;   19.771;   -9.401;  575.162
442.057;   23.850;   -7.760;  665.814
442.648;   22.734;   -9.971;  746.255
443.239;   21.056;  -11.001;  620.477
443.830;   26.121;   -7.990;  704.958
444.421;   28.610;   -7.910;  655.474
445.011;   24.513;   -8.131;  693.619
445.602;   24.126;   -7.111;  743.126
446.193;   25.718;  -10.920;  488.117
446.783;   30.352;   -6.500;  640.397
447.374;   26.019;   -8.671;  692.759
447.964;   26.447;  -10.781;  713.770
448.555;   35.306;   -9.650;  822.742
449.145;   31.722;   -8.660;  662.853
449.736;   32.664;   -8.990;  803.179
450.326;   31.979;   -9.500;  713.626
450.917;   37.263;   -8.680;  675.324
451.507;   36.113;   -7.520;  600.661
452.097;   36.373;   -8.590;  746.267
452.688;   36.954;  -11.340;  742.160
453.278;   37.609;  -10.100;  566.840
453.868;   42.873;   -6.019;  793.550
454.458;   40.221;   -9.440;  651.141
455.048;   40.154;  -10.560;  711.783
455.639;   41.687;  -11.799;  567.096
456.229;   44.888;   -6.899;  710.694
456.819;   46.745;   -7.389;  751.158
457.409;   47.617;  -11.119;  773.993
457.999;   50.830;   -9.289;  737.505
458.589;   50.787;   -6.139;  686.606
459.179;   50.195;   -8.729;  717.658
459.769;   47.871;   -9.789;  627.099
460.358;   53.719;  -10.259;  797.262
460.948;   52.708;   -7.299;  689.503
461.538;   54.759;  -10.289;  660.677
462.128;   52.324;  -11.269;  664.934
462.717;   58.722;   -9.368;  710.326
463.307;   62.218;   -7.908;  705.846
463.897;   57.953;   -9.599;  656.942
464.486;   57.525;   -9.769;  837.128
465.076;   61.417;   -8.048;  733.776
465.666;   65.297;   -9.358;  652.900
466.255;   62.744;   -7.919;  785.651
466.845;   61.827;  -11.689;  666.749
467.434;   65.069;   -7.818;  725.873
468.023;   65.994;   -7.678;  658.357
468.613;   64.088;  -10.939;  713.946
469.202;   67.728;  -10.118;  646.507
469.791;   72.002;   -9.108;  737.811
470.381;   73.215;   -6.058;  742.813
470.970;   74.165;  -10.428;  711.099
471.559;   73.480;  -10.268;  733.291
472.148;   76.139;   -8.448;  675.737
472.738;   79.038;   -6.917;  765.466
473.327;   78.681;  -11.978;  637.529
473.916;   77.818;  -11.888;  737.446
474.505;   81.988;   -9.437;  751.703
475.094;   84.572;   -6.747;  806.570
475.683;   84.094;   -9.367;  797.699
476.272;   85.395;  -12.637;  730.632
476.861;   88.528;  -10.027;  706.754
477.449;   94.758;   -8.716;  728.487
478.038;   89.677;   -9.577;  692.513
478.627;   89.787;   -9.718;  714.852
479.216;   97.294;   -8.947;  769.441
479.805;  100.394;   -6.256;  783.375
480.393;   99.584;   -7.937; 1008.945
480.982;   98.653;   -7.717;  874.501
481.571;  105.091;   -9.266;  858.333
482.159;  104.927;   -7.636;  705.386
482.748;  105.303;   -9.667;  821.385
483.336;  109.470;  -10.376;  858.209
483.925;  109.979;   -7.147;  774.373
484.513;  116.698;   -7.996;  758.962
485.102;  114.730;  -10.027;  810.965
485.690;  122.514;  -10.446; 1011.050
486.278;  123.949;   -8.446;  979.329
486.867;  124.795;   -6.356;  809.662
487.455;  126.339;   -9.136;  898.229
488.043;  127.964;  -10.646;  748.361
488.631;  136.902;   -7.456; 1005.079
489.220;  139.750;   -6.636;  908.626
489.808;  139.837;  -11.036;  741.415
490.396;  147.535;  -10.246;  914.645
490.984;  152.951;   -8.556;  830.161
491.572;  162.299;   -5.886;  940.315
492.160;  168.994;   -9.486;  919.081
492.748;  181.133;  -10.976;  884.341
493.336;  202.472;   -8.776; 1019.693
493.924;  227.961;   -5.465;  958.077
494.512;  254.527;   -9.986; 1066.638
495.100;  288.922;  -10.636; 1103.280
495.687;  343.530;  -10.885; 1206.373
496.275;  402.456;   -8.126; 1150.796
496.863;  472.835;  -10.586; 1281.171
497.451;  572.108;  -11.926; 1386.805
498.038;  698.568;  -10.885; 1556.729
498.626;  803.457;   -6.315; 1741.407
499.214;  950.184;   -7.326; 2016.609
499.801; 1140.381;  -11.906; 2220.633
500.389; 1382.307;  -10.466; 2312.494
500.976; 1680.295;   -5.236; 2744.849
501.564; 2103.511;   -8.936; 3148.565
502.151; 2466.387;  -13.176; 3515.999
502.738; 2906.792;  -10.646; 3971.274
503.326; 3288.191;   -9.525; 4403.796
503.913; 3659.928;  -10.856; 5161.749
504.500; 4017.155;  -11.586; 5986.420
505.088; 4447.299;  -10.336; 6381.201
505.675; 4959.204;   -6.355; 6925.547
506.262; 5667.406;   -9.046; 7619.060
506.849; 6374.788;  -10.416; 8733.969
507.436; 6848.950;  -10.305; 9790.121
508.023; 7417.054;   -5.496; 9985.472
508.610; 7665.474;   -7.856;10434.618
509.197; 8289.266;  -10.097;11198.435
509.784; 9621.525;  -10.886;12391.194
510.371;10659.772;   -9.315;13603.713
510.958;11404.108;   -9.936;14426.586
511.545;12151.617;   -9.326;15243.775
512.132;12959.800;  -10.075;15945.876
512.719;13502.332;   -7.796;16340.369
513.305;14417.542;  -10.606;18011.766
513.892;15175.198;  -11.486;19754.971
514.479;16506.600;   -9.126;20967.805
515.066;18004.861;   -6.026;22299.793
515.652;19312.143;   -8.466;22908.660
516.239;20483.121;  -10.886;23798.875
516.825;21416.584;  -11.496;25567.275
517.412;22410.154;   -5.796;28154.959
517.998;23031.445;  -10.506;28344.111
518.585;23164.268;  -10.076;27134.219
519.171;23699.885;   -8.315;27268.576
519.758;25078.738;   -8.596;28964.129
520.344;26854.266;   -8.466;30664.494
520.930;26833.426;  -11.006;32550.605
521.516;28037.357;  -10.495;35422.895
522.103;30251.811;   -5.526;38280.004
522.689;30689.656;   -8.746;37835.117
523.275;30193.584;  -11.376;37288.613
523.861;31438.348;  -11.156;37281.395
524.447;32777.566;   -8.135;37846.949
525.033;32539.135;   -7.896;38321.949
525.619;32654.271;  -12.476;38579.285
526.205;34035.816;   -9.516;40622.875
526.791;35977.910;   -6.926;42258.836
527.377;35768.566;   -8.346;42966.902
527.963;36502.930;   -8.717;42018.949
528.549;33727.027;  -11.016;42476.828
529.135;30390.158;   -8.536;41854.852
529.721;29295.434;   -9.666;41237.711
530.306;30997.197;  -10.066;41259.445
530.892;33430.527;  -11.356;41506.047
531.478;35996.199;   -6.596;43559.613
532.063;39215.992;   -8.836;47695.563
532.649;39706.516;  -10.047;50808.324
533.235;40293.602;   -9.746;51787.500
533.820;40571.008;   -6.566;52145.035
534.406;41734.066;  -10.817;51133.488
534.991;41120.152;   -9.416;49996.805
535.576;39116.926;   -9.036;48882.852
536.162;38474.867;   -6.156;46942.285
536.747;37222.910;  -11.607;45711.746
537.333;37494.863;  -11.787;48510.180
537.918;38186.727;  -12.437;50439.891
538.503;38436.586;   -7.196;50863.711
539.088;38921.172;  -10.556;50906.922
539.673;42437.031;   -8.767;52621.965
540.259;44901.957;  -10.026;52368.094
540.844;43206.500;   -7.416;50879.109
541.429;44678.957;   -9.467;52077.777
542.014;47494.926;   -9.527;52716.695
542.599;46732.648;   -9.946;52363.281
543.184;44280.820;   -7.927;53187.137
543.769;45567.566;   -9.297;54697.605
544.354;45089.184;  -10.127;53913.914
544.938;43871.176;   -9.267;49680.164
545.523;45712.535;   -6.506;47386.277
546.108;48451.941;   -9.787;49151.949
546.693;50346.074;  -11.587;51384.637
547.278;50076.031;  -10.986;51853.254
547.862;47181.891;   -8.206;51173.750
548.447;42689.145;  -10.067;51691.395
549.031;42298.973;   -9.637;52456.703
549.616;47127.414;   -9.926;52714.516
550.201;46358.777;   -6.347;52414.598
550.785;47500.957;   -7.917;52355.059
551.370;46588.277;  -10.867;54589.453
551.954;46140.766;   -9.047;58267.348
552.538;46847.793;   -7.827;59062.176
553.123;45254.230;  -10.287;58115.285
553.707;43128.816;  -12.178;56556.285
554.291;44681.172;   -8.717;56201.668
554.876;47107.633;   -7.457;55335.762
555.460;47141.121;  -10.387;54155.703
556.044;48029.777;   -9.618;53721.484
556.628;46703.961;  -11.567;53731.016
557.212;45533.098;   -8.097;54312.531
557.796;43950.492;  -11.077;53797.773
558.380;43937.965;  -11.108;56145.984
558.964;44303.617;   -9.057;57277.930
559.548;45574.996;   -6.977;56459.641
560.132;44001.609;  -11.457;54434.543
560.716;42534.332;  -11.378;54800.617
561.300;43500.008;   -9.577;57606.945
561.884;44656.043;   -7.127;58972.445
562.467;42979.039;   -7.118;57327.570
563.051;42283.516;  -13.358;54962.434
563.635;43380.801;  -10.178;52594.473
564.219;43685.289;   -7.837;50610.410
564.802;44573.164;  -11.398;49551.180
565.386;44383.914;  -12.788;48370.953
565.969;43598.930;   -9.077;48178.871
566.553;42830.895;   -6.207;49957.305
567.136;43499.035;   -8.568;50369.594
567.720;40000.305;  -11.868;49492.004
568.303;38027.250;   -8.268;50616.352
568.887;38113.020;   -8.698;50727.148
569.470;38383.934;   -6.808;51698.379
570.053;36952.750;  -13.188;52122.078
570.637;35378.398;  -12.037;52536.438
571.220;35347.578;   -8.577;51186.098
571.803;36015.516;   -8.498;51032.762
572.386;38039.133;  -10.498;49609.887
572.969;40425.586;   -9.388;48285.926
573.552;38792.645;   -8.338;47624.285
574.135;37551.984;   -8.518;45498.641
574.718;35196.504;  -13.628;41970.434
575.301;34193.117;  -10.893;41447.137
575.884;33189.730;   -8.158;40923.836
576.467;34376.801;  -10.328;45267.723
577.050;36230.250;  -13.058;48175.543
577.633;37610.926;   -9.458;47729.328
578.216;36764.211;   -8.928;47579.793
578.799;35865.785;   -9.358;47820.996
579.381;34657.465;  -11.388;48115.551
579.964;32710.908;  -11.718;47333.766
580.547;34388.738;   -8.588;46668.969
581.129;35692.098;   -8.859;44466.141
581.712;36729.852;  -10.729;44164.922
582.294;37305.996;  -11.118;46477.855
582.877;36958.820;   -5.218;48244.254
583.459;34595.648;   -8.679;47437.895
584.042;32639.855;  -10.709;46943.219
584.624;33079.234;  -11.669;46792.227
585.206;32649.975;   -8.218;46557.250
585.789;32638.746;  -10.569;45793.773
586.371;35460.488;  -11.859;43836.391
586.953;36063.836;  -10.719;42972.492
587.536;37348.688;   -7.198;42487.211
588.118;37442.945;   -8.720;42086.414
588.700;33741.785;  -10.439;43389.930
589.282;32851.891;   -9.198;43646.039
589.864;33901.414;   -9.199;43438.109
590.446;35007.594;  -11.319;43151.926
591.028;34945.395;  -11.159;42781.867
591.610;33853.121;  -11.779;42839.098
592.192;31168.900;   -7.668;42820.402
592.774;29565.992;  -11.949;40724.277
593.356;28344.154;  -12.129;39874.789
593.937;27331.570;  -10.669;39980.648
594.519;29469.170;   -6.509;42069.633
595.101;31596.574;  -10.849;42976.031
595.683;31729.854;  -11.679;44084.441
596.264;32738.512;   -9.049;43478.797
596.846;32194.564;   -8.849;43803.672
597.427;32188.313;   -9.570;42986.934
598.009;33834.336;  -12.620;42832.219
598.591;34195.625;  -10.039;42580.086
599.172;33452.188;  -10.369;43061.805
599.753;33659.102;   -9.140;41691.469
600.335;35252.613;  -11.430;40692.520
600.916;33470.789;   -9.939;39982.422
601.498;30844.184;   -8.479;40318.617
602.079;29326.916;  -10.920;40670.609
602.660;29181.732;  -11.480;41450.898
603.241;30715.896;  -11.699;41137.738
603.823;29523.959;   -9.579;38868.797
604.404;28991.439;  -10.620;38182.785
604.985;30652.539;  -10.450;38078.047
605.566;30560.758;   -9.129;38056.633
606.147;30743.053;   -7.510;37020.418
606.728;32218.336;  -10.660;37883.359
607.309;30766.576;  -11.740;38748.273
607.890;30290.975;   -9.759;38850.230
608.471;29841.295;   -8.250;37457.918
609.051;29022.969;   -9.240;36066.457
609.632;27969.301;  -12.120;35991.074
610.213;28687.941;   -9.110;37402.641
610.794;29400.021;   -8.030;38383.363
611.374;29012.965;   -8.110;40562.387
611.955;29603.580;  -13.560;38533.727
612.536;30873.623;  -11.400;36951.789
613.116;30660.277;   -8.070;37197.891
613.697;30961.828;  -10.830;38411.125
614.277;29359.023;  -11.641;38673.938
614.858;30261.166;  -13.310;37075.863
615.438;29481.645;   -7.460;35092.906
616.019;26888.133;   -7.601;33666.301
616.599;27485.936;  -12.020;34189.023
617.179;29314.064;  -11.780;36952.047
617.760;30299.699;   -8.570;39582.574
618.340;31272.225;  -11.471;38943.977
618.920;32471.242;  -11.170;37594.156
619.500;32307.883;  -11.071;37866.938
620.080;31353.715;   -7.750;37869.043
620.660;32454.268;  -12.711;36868.617
621.241;33838.391;  -10.211;36352.309
621.821;34197.957;  -10.961;35459.520
622.401;33218.199;   -7.720;35207.414
622.980;32451.113;   -8.981;35980.422
623.560;30914.080;   -9.331;37351.328
624.140;29641.740;   -9.850;34388.582
624.720;24646.586;   -7.451;32368.764
625.300;21307.166;   -9.070;32638.629
625.880;24676.879;  -12.601;34599.035
626.459;28503.590;  -11.751;36831.738
627.039;31512.459;   -9.281;38299.098
627.619;31419.139;   -8.801;38289.574
628.198;29917.867;  -12.071;37220.695
628.778;29101.994;   -9.461;37632.563
629.357;29773.316;   -8.491;38003.012
629.937;29775.857;   -9.721;38402.039
630.516;29404.340;   -9.951;37868.801
631.096;29265.744;  -11.731;35760.410
631.675;31635.283;   -8.572;35225.219
632.254;36567.730;  -11.282;35130.289
632.834;35973.313;  -13.322;35794.570
633.413;34187.570;  -10.301;35788.922
633.992;31483.305;   -8.582;34532.863
634.571;32298.758;   -8.352;33590.113
635.151;35340.535;  -11.912;34943.863
635.730;33767.344;  -10.511;35352.523
636.309;30196.639;   -7.731;35366.605
636.888;27662.439;   -9.952;36165.637
637.467;28381.021;  -11.672;37515.902
638.046;30059.674;   -8.901;39288.695
638.625;33235.480;   -7.912;38279.699
639.204;32941.180;  -10.022;37741.598
639.782;31427.330;  -12.252;38364.551
640.361;27926.826;  -10.041;36740.621
640.940;25234.537;  -11.161;34950.082
641.519;25985.348;   -9.701;34137.398
642.097;28798.031;  -11.271;35654.258
642.676;31446.418;   -8.651;35637.957
643.255;32174.795;   -8.711;36567.074
643.833;31349.018;   -9.581;37809.434
644.412;31296.723;  -13.711;37337.293
644.990;30287.533;  -11.811;37018.531
645.569;30241.342;   -9.411;36518.469
646.147;29263.557;  -10.291;36186.430
646.726;29134.311;  -12.401;36267.688
647.304;30397.834;  -10.411;36647.625
647.882;32161.736;   -9.651;39286.742
648.461;33780.215;   -9.631;39157.703
649.039;32078.789;  -11.881;35412.883
649.617;31413.814;   -9.661;34744.918
650.195;31072.414;   -9.301;35403.098
650.773;29601.881;  -10.511;35053.797
651.352;27092.900;  -11.521;33756.816
651.930;24828.600;  -12.211;31868.773
652.508;23468.500;   -9.171;33121.551
653.086;27446.969;   -9.371;33564.793
653.663;30273.078;  -13.161;34054.668
654.241;28985.537;  -13.031;35693.309
654.819;30572.543;   -9.371;36422.906
655.397;30748.221;  -10.511;38213.484
655.975;30377.234;  -10.371;39507.625
656.553;30178.688;  -10.051;39498.223
657.130;28583.852;  -10.061;40395.480
657.708;27826.945;   -9.561;39242.020
658.286;27941.574;  -11.511;38920.020
658.863;29360.203;  -10.261;40202.898
659.441;32527.432;   -7.531;39677.938
660.018;32044.711;   -9.501;40413.355
660.596;30766.361;  -13.301;39931.414
661.173;32540.313;  -11.211;39604.531
661.750;32583.098;   -9.951;39700.070
662.328;31371.029;   -9.390;39292.809
662.905;30566.111;  -11.330;38235.648
663.482;26392.238;   -9.050;36212.305
664.060;24588.186;   -8.240;35944.945
664.637;27369.080;  -10.050;35170.785
665.214;29220.613;  -11.760;34197.523
665.791;30848.502;  -10.530;34549.520
666.368;29620.025;   -9.690;35118.578
666.945;30169.930;   -9.320;36019.418
667.522;31738.408;  -11.860;36048.438
668.099;31449.596;  -10.770;36243.914
668.676;30225.645;   -6.260;35958.875
669.253;28872.779;   -7.000;37384.730
669.830;29593.965;  -10.190;36779.629
670.407;29452.023;   -9.550;35231.289
670.984;29318.746;   -9.260;35544.270
671.560;29827.773;   -9.280;35466.867
672.137;29113.576;  -11.810;34280.863
672.714;29935.488;  -11.490;34632.863
673.290;30473.771;   -7.740;35135.422
673.867;30706.328;  -10.660;36114.480
674.443;30701.201;  -12.230;36152.859
675.020;28865.764;  -10.450;35327.238
675.596;29817.643;   -9.260;35795.176
676.173;30196.074;  -10.780;35430.355
676.749;29970.846;  -13.690;33549.516
677.326;30020.820;  -11.980;32210.012
677.902;30006.674;   -8.630;32068.871
678.478;29376.721;  -10.730;32583.891
679.054;28756.164;  -10.520;32088.928
679.631;29025.543;  -11.920;30978.848
680.207;30654.326;   -7.490;33160.887
680.783;32307.803;   -9.860;35570.363
681.359;31358.795;  -13.380;36125.184
681.935;30754.166;  -12.480;35240.922
682.511;30076.455;   -7.900;34429.961
683.087;30273.166;   -7.710;34463.680
683.663;29819.744;  -11.480;34648.898
684.239;28546.119;  -14.090;34546.457
684.815;28109.086;   -7.560;35586.375
685.390;28388.891;   -9.910;35821.895
685.966;28861.672;  -11.159;35085.871
686.542;31246.814;  -11.169;34198.230
687.118;33515.945;   -5.959;32847.707
687.693;33893.453;  -10.329;32794.027
688.269;33572.594;  -12.059;33072.367
688.844;31672.674;  -10.909;33141.664
689.420;29431.963;   -8.019;33965.742
689.995;27157.189;   -8.399;34655.523
690.571;25767.551;  -10.949;33576.742
691.146;26200.174;   -9.619;32657.219
691.722;25735.018;   -8.999;32526.979
692.297;25535.102;  -11.589;33014.617
692.872;27341.150;  -11.739;34012.254
693.448;26971.184;  -11.059;34237.434
694.023;26224.049;  -10.139;34142.672
694.598;28198.346;   -9.029;34132.031
695.173;28519.014;  -13.319;34205.250
695.748;27738.426;  -10.169;32882.488
696.323;27839.807;   -8.339;32864.906
696.898;28062.520;   -8.169;33170.004
697.473;28005.717;  -12.309;32432.984
698.048;27525.244;  -10.989;31649.303
698.623;27420.490;   -9.329;30778.141
699.198;29325.188;   -9.849;31140.119
699.773;30277.912;  -12.329;31764.299
700.348;28565.363;  -10.389;31780.816
700.922;28599.334;   -9.269;32046.375
701.497;29546.844;   -9.329;32603.574
702.072;29820.057;  -10.789;34799.871
702.646;28446.143;  -10.839;35793.172
703.221;26304.063;   -9.099;35201.590
703.795;28417.809;  -10.939;34764.527
704.370;28807.021;  -12.859;34307.367
704.944;29191.484;  -11.559;33509.887
705.519;30045.826;   -7.939;31388.584
706.093;31437.469;  -10.499;31340.104
706.668;31752.691;  -11.289;32630.281
707.242;30724.150;  -11.509;32728.779
707.816;29144.449;   -9.639;32947.238
708.390;27568.207;  -11.429;33277.855
708.965;28021.797;  -11.869;33834.336
709.539;27979.932;  -11.689;33709.273
710.113;28455.426;  -10.478;33044.313
710.687;28030.680;  -10.228;31953.992
711.261;26336.748;  -13.698;30505.949
711.835;26091.654;  -13.378;30262.369
712.409;26830.537;   -9.698;31254.447
712.983;28851.482;  -11.898;32754.986
713.557;29862.785;  -15.138;34018.824
714.131;29512.080;  -14.098;34579.625
714.704;28617.418;   -9.958;33890.262
715.278;26347.828;  -10.028;33531.102
715.852;25302.951;  -11.148;33601.660
716.425;26085.830;   -9.068;33515.117
716.999;26816.539;  -10.038;33185.555
717.573;27851.172;   -9.798;33905.996
718.146;28941.455;  -12.378;35199.293
718.720;29022.758;  -11.918;35060.551
719.293;28451.121;   -8.088;34973.230
719.867;31240.615;  -10.888;36394.449
720.440;30957.307;  -11.938;36663.008
721.013;29309.043;  -12.818;35102.426
721.587;27954.248;  -10.298;33985.266
722.160;26942.383;  -10.048;33524.965
722.733;25848.063;  -12.108;32987.043
723.306;26092.369;  -10.818;33066.301
723.880;28548.957;   -8.908;33399.500
724.453;30672.270;   -9.878;33468.297
725.026;29868.383;  -11.188;33816.637
725.599;27125.545;  -11.678;32797.996
726.172;27235.381;   -9.618;33187.434
726.745;28102.301;   -8.258;35136.613
727.318;29224.580;  -12.978;35751.730
727.891;29667.031;  -12.148;35890.430
728.463;29405.246;   -8.968;34822.090
729.036;28548.990;  -10.188;32895.086
729.609;29159.039;  -11.788;31823.225
730.182;26198.324;  -11.788;31445.283
730.754;23752.273;  -10.268;32373.223
731.327;23789.119;   -9.998;33676.820
731.900;24050.326;  -12.228;33417.000
732.472;25310.246;  -13.848;31978.498
733.045;27275.102;   -8.698;30368.777
733.617;27378.146;  -10.607;30574.215
734.190;27078.439;  -11.507;31280.975
734.762;24222.111;  -13.647;31674.412
735.334;22398.996;   -9.767;31247.291
735.907;23023.094;   -9.897;29876.211
736.479;23200.203;  -11.637;29808.488
737.051;22922.623;   -9.567;30233.547
737.623;23860.994;   -8.187;31469.086
738.195;24526.971;  -11.187;31784.225
738.768;26335.203;  -12.337;32120.523
739.340;26711.104;  -12.227;32094.342
739.912;25649.742;  -11.057;31312.680
740.484;24144.572;  -10.207;31946.238
741.056;22904.428;  -10.047;32984.059
741.628;24683.945;  -13.627;33897.715
742.199;26937.693;   -7.177;33213.016
742.771;25221.885;  -10.797;31369.113
743.343;22881.998;  -11.997;31865.473
743.915;21927.748;  -12.867;32388.631
744.487;22039.068;   -7.617;31079.568
745.058;22280.148;   -9.557;30570.107
745.630;22718.555;   -9.877;29970.127
746.201;23517.305;  -14.177;29186.766
746.773;23937.383;   -9.237;28805.723
747.344;23691.998;   -9.847;29591.223
747.916;22300.730;  -11.657;31412.201
748.487;22500.492;  -10.587;32194.898
749.059;23658.781;   -8.707;32533.719
749.630;24309.178;  -10.537;32158.518
750.201;23358.654;  -11.687;30855.395
750.773;21647.426;  -11.647;28622.555
751.344;21533.023;   -7.147;28405.732
751.915;22784.820;   -9.757;28461.551
752.486;22850.863;  -12.427;27842.850
753.057;20600.734;  -12.227;27845.008
753.628;19354.580;  -10.417;27728.107
754.199;20469.611;  -11.767;27381.086
754.770;21474.771;  -11.187;25882.203
755.341;21454.939;  -10.507;25886.184
755.912;21558.445;   -9.387;26050.861
756.483;21129.035;  -10.647;26798.779
757.054;19404.479;  -11.837;27048.238
757.625;18097.041;  -12.716;26294.838
758.195;17736.168;   -9.666;26142.076
758.766;17445.066;   -8.656;26392.234
759.337;18222.184;  -12.856;26334.594
759.907;19855.875;  -13.366;27579.652
760.478;20780.943;   -8.576;28352.770
761.048;20216.025;  -10.526;27325.088
761.619;19394.467;  -11.116;26460.428
762.189;19413.174;  -12.136;26029.826
762.760;20470.646;   -9.456;26430.145
763.330;21594.578;   -7.136;26670.902
763.900;21100.074;  -11.786;26603.021
764.471;18533.855;  -11.546;25542.740
765.041;17239.289;   -8.096;24358.459
765.611;17292.955;   -8.876;23991.297
766.181;17674.738;  -12.196;24470.236
766.751;18661.000;  -11.636;24845.975
767.321;18450.025;  -10.156;24533.633
767.891;16544.453;  -11.766;24916.492
768.461;15998.860;  -14.936;24776.771
769.031;16489.008;  -12.356;24757.988
769.601;18069.102;   -7.526;24181.088
770.171;17946.641;  -10.766;23670.387
770.741;17162.852;  -13.176;22960.045
771.311;17317.297;  -10.616;22917.523
771.880;17732.283;   -9.576;23562.941
772.450;17456.205;  -10.336;24216.500
773.020;17375.873;  -13.516;24140.398
773.589;16600.035;  -13.466;24414.857
774.159;15897.910;   -8.686;23858.717
774.729;15581.354;   -9.476;22942.135
775.298;15185.123;  -13.666;22324.033
775.867;14814.290;  -11.716;21140.313
776.437;14878.303;   -9.906;20838.092
777.006;14682.604;  -12.166;20599.510
777.576;14539.983;  -12.356;20508.809
778.145;14621.776;  -11.646;20732.947
778.714;14514.934;   -8.226;21062.465
779.283;13784.796;   -9.556;20949.664
779.853;13268.197;  -14.116;20508.623
780.422;13762.452;  -11.506;20649.082
780.991;13336.008;   -9.556;21527.520
781.560;12166.129;   -9.095;22632.658
782.129;12015.319;  -12.135;23048.277
782.698;12047.613;  -10.865;23438.555
783.267;11643.537;   -9.335;23267.734
783.836;11572.569;  -11.045;22415.133
784.404;12605.415;  -13.865;20443.152
784.973;13231.896;  -13.095;19699.150
785.542;13150.316;  -11.575;19763.828
786.111;12966.241;   -9.705;20341.408
786.679;12458.051;  -12.105;20207.967
787.248;12175.451;  -12.455;19516.465
787.817;11990.886;  -11.535;18900.363
788.385;11627.766;   -9.765;17879.121
788.954;11069.374;  -14.005;17658.301
789.522;10549.715;  -11.955;17788.879
790.090;11112.929;  -10.135;18118.277
790.659;11537.875;  -10.975;18338.736
791.227;11030.254;  -13.375;18508.615
791.795;11468.469;  -12.375;17898.254
792.364;11863.693;  -10.725;17295.133
792.932;12189.858;   -9.715;16822.051
793.500;12351.671;  -12.675;17040.148
794.068;12560.425;  -13.495;17179.787
794.636;12691.217;  -10.885;16664.246
795.204;12058.741;  -11.045;16524.545
795.772;12104.921;  -13.175;17274.564
796.340;11638.816;  -12.445;17891.002
796.908;11453.333;   -9.735;17648.561
797.476;11385.171;   -9.815;17064.080
798.044;10958.378;  -13.985;16672.777
798.612;10117.166;  -13.115;17023.996
799.180; 9703.769;  -10.185;16561.615
799.747; 9637.404;   -9.055;15962.773
800.315; 9375.389;  -12.385;15296.992
800.883; 9037.297;  -15.035;14801.771
801.450; 9061.317;  -10.365;14534.430
802.018; 9132.400;   -9.855;14173.248
802.585; 9254.898;  -11.905;14029.547
803.153; 9282.527;  -11.585;13836.846
803.720; 9120.373;   -9.095;13567.324
804.287; 8695.601;   -9.135;13360.622
804.855; 8264.591;  -11.604;13681.981
805.422; 8144.205;  -11.794;13536.560
805.989; 8183.200;  -10.734;13355.958
806.556; 8356.041;  -10.444;13747.896
807.124; 8591.093;  -12.764;13987.376
807.691; 8550.423;  -12.964;14038.674
808.258; 8357.257;  -11.134;14120.152
808.825; 8060.809;   -9.854;13860.111
809.392; 8125.296;  -10.504;13268.790
809.959; 7633.235;  -13.054;12680.389
810.526; 7178.939;   -8.294;12427.308
811.093; 7237.454;   -8.394;12030.105
811.659; 7894.351;  -12.304;11653.664
812.226; 8408.595;  -13.944;11637.183
812.793; 8087.483;  -10.484;11611.521
813.360; 7450.039;  -10.144;11885.181
813.926; 7133.954;  -11.684;12770.539
814.493; 6913.854;  -13.644;12677.638
815.060; 6505.835;   -9.724;11974.336
815.626; 6507.952;   -9.854;11594.715
816.193; 6919.207;  -13.254;11579.474
816.759; 6929.065;  -13.204;11666.972
817.325; 6991.012;   -9.434;11325.530
817.892; 7368.547;  -10.134;11105.369
818.458; 7812.841;  -13.474;10843.928
819.024; 7447.250;  -11.854;10714.406
819.591; 7135.688;  -10.244;10469.165
820.157; 6898.317;  -10.704;10235.523
820.723; 6360.487;  -12.324;10847.563
821.289; 6034.055;   -9.444;11040.980
821.855; 5942.706;   -8.374;10357.100
822.421; 5937.130;  -10.234; 9978.918
822.987; 5957.618;  -13.294; 9754.177
823.553; 5637.180;  -10.884;10065.755
824.119; 5446.149;   -8.884;10036.294
824.685; 5540.550;   -6.784;10029.192
825.251; 5644.002;  -12.004;10199.230
825.816; 5611.159;  -11.474; 9820.189
826.382; 5377.016;   -9.174; 9297.248
826.948; 5576.957;   -9.214; 9381.347
827.513; 5968.512;  -10.774; 9450.726
828.079; 5780.236;  -11.924; 9472.444
828.645; 5183.077;  -10.543; 9292.643
829.210; 5076.813;  -10.533; 9065.341
829.776; 5059.545;  -10.753; 9132.620
830.341; 4943.774;  -10.173; 9092.878
830.906; 5138.790;  -10.743; 9078.557
831.472; 5494.253;  -11.113; 8534.535
832.037; 5245.627;  -10.603; 8677.874
832.602; 4684.512;  -13.323; 8628.692
833.167; 4422.387;  -10.823; 8879.031
833.733; 4367.313;  -10.113; 9189.790
834.298; 4503.918;  -13.583; 9052.608
834.863; 4574.958;  -12.703; 8895.087
835.428; 4550.476;  -10.523; 8824.266
835.993; 4405.299;   -6.963; 8845.385
836.558; 4231.472;  -10.763; 8888.563
837.123; 4349.970;   -9.903; 8966.582
837.688; 4577.530;   -9.913; 8617.860
838.253; 4830.724;  -10.283; 8590.699
838.817; 5050.310;  -12.963; 8443.797
839.382; 4959.332;  -14.243; 8799.356
839.947; 4646.284;  -10.733; 8810.595
840.511; 4356.761;   -9.383; 8796.394
841.076; 3976.827;  -12.563; 8347.231
841.641; 4029.389;  -12.953; 8224.330
842.205; 4125.287;   -7.043; 8223.349
842.770; 4221.827;   -8.163; 8622.107
843.334; 4380.670;  -12.503; 8410.386
843.898; 4314.213;  -11.693; 8337.465
844.463; 4317.602;  -10.203; 8506.283
845.027; 4086.667;   -9.533; 8280.962
845.591; 3896.171;  -13.443; 8231.141
846.156; 3889.706;  -13.143; 7969.179
846.720; 3785.446;   -9.433; 7768.278
847.284; 3660.743;  -11.033; 7630.957
847.848; 3531.125;  -10.403; 7472.395
848.412; 3451.006;  -11.553; 7437.394
848.976; 3501.028;   -8.393; 7674.592
849.540; 3422.231;   -8.713; 7836.011
850.104; 3532.746;  -12.463; 7913.669
850.668; 3897.531;  -12.973; 7694.508
851.232; 3998.803;  -10.793; 7756.887
851.796; 3828.323;  -10.662; 7926.545
852.359; 3531.514;  -13.082; 7827.844
852.923; 3368.911;  -12.192; 7641.163
853.487; 3190.555;  -11.912; 7342.501
854.050; 3154.274;  -10.892; 7042.820
854.614; 3298.125;  -13.992; 7151.338
855.177; 3421.823;  -11.732; 7105.077
855.741; 3450.713;   -8.962; 6989.675
856.304; 3324.850;   -9.442; 6596.634
856.868; 3275.301;  -14.192; 6356.272
857.431; 3370.060;  -12.702; 6468.571
857.995; 3478.034;   -9.942; 6373.210
858.558; 3481.013;   -9.112; 6324.448
859.121; 3209.790;  -12.932; 6408.327
859.684; 3090.747;  -13.442; 6347.886
860.247; 3213.478;  -10.632; 6321.264
860.810; 3223.625;  -11.272; 6301.903
861.374; 2968.699;   -9.832; 6607.881
861.937; 2709.272;  -11.762; 6408.200
862.500; 2701.980;   -9.722; 6572.639
863.062; 2884.720;  -10.512; 6387.297
863.625; 3070.659;  -11.232; 6190.836
864.188; 3240.139;  -14.112; 5807.254
864.751; 3300.836;  -11.302; 5682.413
865.314; 3187.145;  -10.112; 5547.492
865.876; 2964.247;  -12.182; 5500.150
866.439; 2940.092;  -10.722; 5415.909
867.002; 2889.146;   -9.252; 5501.567
867.564; 2685.637;   -9.572; 5413.946
868.127; 2468.478;  -13.142; 5160.325
868.689; 2366.426;  -12.902; 5133.183
869.252; 2268.933;   -9.732; 5252.382
869.814; 2172.182;   -9.432; 5297.141
870.377; 2179.946;  -11.552; 5390.919
870.939; 2245.994;   -9.052; 5599.898
871.501; 2312.278;  -10.982; 5248.336
872.063; 2320.839;  -12.292; 4854.235
872.626; 2282.808;  -14.912; 4817.074
873.188; 2312.683;  -13.112; 4987.732
873.750; 2281.707;  -13.442; 4868.651
874.312; 2176.569;   -9.402; 4779.330
874.874; 2083.534;  -11.062; 4866.348
875.436; 1994.777;  -13.931; 4718.887
875.998; 1984.755;   -9.561; 4660.005
876.560; 2008.111;  -11.321; 4462.964
877.122; 1952.745;  -12.221; 4145.042
877.683; 1860.406;  -12.191; 4056.481
878.245; 1793.087;  -12.101; 3950.740
878.807; 1848.435;   -8.971; 4058.958
879.369; 1885.982;  -12.071; 3954.677
879.930; 1785.644;  -14.621; 3941.495
880.492; 1710.891;  -10.311; 4067.014
881.053; 1663.670;  -10.901; 3859.633
881.615; 1563.025;  -14.411; 3776.071
882.176; 1510.234;  -13.761; 3734.750
882.738; 1540.799;   -9.181; 3678.489
883.299; 1569.986;  -11.791; 3405.407
883.860; 1526.201;  -13.121; 3351.106
884.422; 1328.588;  -11.211; 3394.044
884.983; 1015.540;  -10.091; 3166.443
885.544;  768.385;   -8.461; 3189.802
886.105;  666.880;  -12.361; 3160.360
886.666;  652.823;  -14.141; 3093.059
887.227;  666.547;  -11.361; 2941.957
887.788;  673.591;  -11.401; 2974.836
888.349;  673.173;  -13.791; 2721.214
888.910;  702.768;  -13.191; 2696.493
889.471;  732.171;   -9.881; 2560.172
890.032;  733.585;   -9.881; 2558.190
890.593;  727.774;  -10.371; 2567.669
891.153;  714.488;  -13.301; 2460.307
891.714;  678.072;  -11.431; 2372.046
892.275;  650.492;  -11.291; 2309.505
892.835;  620.398;  -11.471; 2382.543
893.396;  576.781;  -11.541; 2295.502
893.956;  528.010;  -11.181; 2162.420
894.517;  495.488;  -11.741; 2125.439
895.077;  492.301;  -11.671; 2086.978
895.638;  493.843;  -11.311; 2126.316
896.198;  467.605;   -9.831; 1838.275
896.758;  427.962;   -8.421; 1892.813
897.319;  401.079;  -12.351; 1792.232
897.879;  386.171;  -13.511; 1762.751
898.439;  362.433;  -12.001; 1661.149
898.999;  340.243;  -10.180; 1781.468
899.559;  332.991;  -12.030; 1703.347
900.119;  330.649;  -15.710; 1537.525
900.679;  325.468;   -8.900; 1638.384
901.239;  312.323;   -8.340; 1527.902
901.799;  302.172;  -13.910; 1456.441
902.359;  297.143;  -13.460; 1357.140
902.919;  290.081;  -11.490; 1331.118
903.479;  279.166;  -12.110; 1317.257
904.038;  258.460;  -11.720; 1262.595
904.598;  245.552;  -13.610; 1152.034
905.158;  240.642;  -11.040; 1240.893
905.717;  233.981;  -10.900; 1233.691
906.277;  224.844;  -15.080; 1217.330
906.836;  214.137;  -13.380; 1222.408
907.396;  205.703;  -10.780; 1193.047
907.955;  198.106;   -8.500; 1182.526
908.515;  191.496;  -12.760; 1099.364
909.074;  183.313;  -11.900; 1092.863
909.633;  175.638;   -8.950; 1069.121
910.192;  171.932;   -8.770; 1196.460
910.752;  167.812;  -12.390; 1029.960
911.311;  163.893;  -13.680; 1009.780
911.870;  162.515;  -12.370;  971.460
912.429;  163.786;  -10.900; 1094.080
912.988;  162.716;  -11.690; 1081.060
913.547;  158.133;  -13.240;  940.380
914.106;  153.990;  -11.990;  999.420
914.665;  151.447;   -9.990;  984.020
915.224;  151.069;  -12.880; 1035.760
915.782;  151.221;  -12.350;  922.560
916.341;  150.240;   -9.110; 1049.840
916.900;  146.411;   -9.270;  925.260
917.458;  145.469;  -13.240;  884.220
918.017;  144.850;  -13.550;  942.600
918.576;  144.573;  -12.320;  904.440
919.134;  142.471;  -11.490;  837.980
919.693;  139.941;  -13.670;  893.060
920.251;  139.033;  -15.470;  876.500
920.809;  137.328;  -11.290;  839.580
921.368;  137.612;  -10.210;  885.360
921.926;  136.185;  -12.140;  842.940
922.484;  135.009;  -13.080;  903.360
923.042;  134.381;  -11.720;  880.340
923.601;  137.779;   -7.480;  998.680
924.159;  135.858;  -11.570;  935.560
924.717;  132.481;  -13.840;  841.080
925.275;  132.944;  -10.640;  903.240
925.833;  132.539;  -11.540;  779.320
926.391;  133.875;  -12.960;  938.380
926.949;  131.364;  -14.130;  857.680
927.506;  132.199;  -11.750;  903.500
928.064;  132.288;  -10.250;  877.580
928.622;  131.732;  -13.030;  880.100
929.180;  131.357;  -13.400;  814.180
929.737;  132.093;  -10.700;  808.540
930.295;  135.815;  -10.070;  928.480
930.853;  138.129;  -11.960;  849.100
931.410;  138.007;  -13.120;  821.120
931.968;  136.916;  -10.770;  940.660
932.525;  136.765;  -10.680;  909.380
933.082;  137.022;  -13.130;  811.440
933.640;  138.980;  -13.210;  925.900
934.197;  135.959;  -11.060;  886.360
934.754;  137.012;   -9.580;  897.780
935.312;  140.426;  -14.000;  863.340
935.869;  144.847;  -10.710; 1012.980
936.426;  144.938;   -9.860;  872.800
936.983;  146.135;   -9.710;  889.020
937.540;  145.914;  -13.990;  838.280
938.097;  143.954;  -14.040;  940.120
938.654;  144.283;  -10.310;  898.860
939.211;  146.751;  -10.560;  952.480
939.768;  150.833;  -13.900;  915.420
940.324;  153.608;  -14.760;  904.200
940.881;  154.233;  -10.370;  878.500
941.438;  155.381;   -8.260; 1021.200
941.995;  151.572;  -12.540;  992.560
942.551;  149.246;  -14.670;  875.620
943.108;  149.205;  -10.450;  937.920
943.664;  152.043;  -10.750;  869.340
944.221;  155.550;  -11.550; 1088.140
944.777;  153.031;  -14.770;  869.680
945.334;  153.238;  -12.820;  884.840
945.890;  155.573;  -10.130;  946.480
946.446;  156.007;  -13.470;  947.020
947.003;  157.109;  -12.120;  964.940
947.559;  159.175;   -9.980; 1063.040
948.115;  159.643;   -9.080; 1026.540
948.671;  156.585;  -10.830;  967.300
949.227;  154.346;  -12.440;  859.560
949.783;  151.082;  -12.910;  858.900
950.339;  153.313;  -10.270;  991.000
950.895;  153.041;  -13.630; 1023.840
951.451;  152.928;  -15.100;  925.280
952.007;  153.434;  -11.330;  998.540
952.563;  154.320;  -10.580;  937.780
953.118;  152.383;  -13.440;  904.940
953.674;  151.775;  -12.710;  935.780
954.230;  151.435;  -10.350;  949.640
954.785;  149.048;   -9.190;  936.640
955.341;  147.413;  -11.200;  998.160
955.897;  145.050;  -16.560;  834.660
956.452;  145.819;  -12.570;  953.840
957.008;  145.659;   -7.970; 1083.640
957.563;  143.238;  -11.940; 1009.540
958.118;  137.740;  -13.450;  877.700
958.674;  137.317;  -12.030;  946.780
959.229;  139.618;   -9.410; 1013.980
959.784;  137.257;  -12.000;  832.400
960.339;  137.043;  -14.780; 1001.280
960.894;  132.553;   -9.860;  963.760
961.449;  129.528;   -9.970;  859.960
962.004;  130.422;  -10.900; 1212.840
962.559;  123.999;  -13.150;  860.140
963.114;  122.196;  -13.740;  742.480
963.669;  121.403;   -9.820;  915.500
964.224;  120.480;  -13.890;  874.340
964.779;  118.882;  -12.600;  828.420
965.334;  119.734;  -10.950; 1017.860
965.888;  119.704;  -11.170;  875.360
966.443;  122.340;  -12.540;  972.380
966.998;  121.668;  -15.780;  819.460
967.552;  120.363;   -9.760;  908.380
968.107;  117.020;   -9.060;  868.300
968.661;  118.562;  -11.950;  922.440
969.216;  118.445;  -12.800;  856.280
969.770;  118.699;  -11.210;  917.200
970.324;  117.754;  -11.610;  923.140
970.879;  114.839;  -11.370;  947.180
971.433;  111.371;  -12.540;  952.720
971.987;  106.120;  -11.320;  895.340
972.541;  103.407;  -10.720;  917.100
973.095;  103.668;   -9.680; 1009.460
973.649;  102.388;  -11.440;  809.480
974.203;  100.750;  -11.210;  829.040
974.757;  100.739;  -10.240;  855.220
975.311;  101.229;  -13.720;  872.600
975.865;  100.170;  -13.770;  881.820
976.419;   98.824;  -11.690;  857.400
976.973;   98.571;   -9.510;  849.620
977.526;   99.896;  -12.620;  949.920
978.080;   99.589;  -12.010;  796.780
978.634;  101.009;  -10.170;  921.320
979.187;   97.159;   -9.020;  905.400
979.741;   95.716;   -9.820; 1018.380
980.294;   90.689;  -14.870;  789.160
980.848;   88.629;  -12.380;  717.220
981.401;   90.635;  -10.350;  816.540
981.955;   92.936;  -13.720;  844.300
982.508;   92.385;  -11.490;  746.340
983.061;   92.377;  -10.000;  915.260
983.615;   88.283;  -11.480;  798.800
984.168;   85.505;  -13.220;  770.080
984.721;   84.643;  -13.960;  880.760
985.274;   83.562;  -10.870;  867.500
985.827;   83.031;   -9.790;  834.220
986.380;   80.198;  -13.120;  721.340
986.933;   78.746;  -12.450;  864.800
987.486;   76.890;  -10.210;  861.920
988.039;   76.389;   -8.430;  863.100
988.591;   75.100;  -10.520;  893.260
989.144;   72.413;  -14.860;  737.260
989.697;   70.841;  -13.080;  758.740
990.250;   72.360;  -10.150;  858.100
990.802;   71.441;  -13.430;  755.860
991.355;   71.428;  -12.750;  974.880
991.907;   69.491;  -12.040;  864.320
992.460;   67.553;  -11.330;  753.760
993.012;   67.281;  -13.610;  749.540
993.565;   65.262;  -13.460;  711.360
994.117;   67.124;   -9.360;  950.780
994.669;   63.321;  -11.300;  701.320
995.221;   61.661;  -13.540;  791.920
995.774;   60.246;  -13.430;  787.580
996.326;   58.217;  -12.520;  740.220
996.878;   58.575;  -10.950;  838.420
997.430;   55.664;  -14.300;  699.860
997.982;   55.003;  -13.760;  750.140
998.534;   54.838;  -11.530;  739.060
999.086;   53.455;  -10.310;  738.220
999.638;   52.700;  -12.530;  661.380
1000.190;   51.552;  -11.840;  699.320
1000.741;   51.425;  -10.260;  742.700
1001.293;   50.908;   -8.860;  686.020
1001.845;   50.521;  -13.700;  676.640
1002.396;   50.215;  -12.100;  743.400
1002.948;   49.245;  -12.760;  737.400
1003.500;   47.482;  -10.380;  723.780
1004.051;   48.719;  -11.900;  907.580
1004.603;   46.473;  -12.250;  791.820
1005.154;   43.250;  -13.210;  608.980
1005.705;   41.877;  -10.950;  723.960
1006.257;   41.608;  -13.880;  707.220
1006.808;   41.371;  -12.840;  685.460
1007.359;   40.644;  -10.570;  763.240
1007.910;   39.347;   -9.620;  646.640
1008.461;   39.325;  -13.630;  732.940
1009.013;   38.225;  -17.200;  588.340
1009.564;   39.173;  -10.200;  793.520
1010.115;   36.949;  -12.570;  597.040
1010.665;   37.454;  -15.150;  602.160
1011.216;   36.840;  -14.480;  667.920
1011.767;   36.212;  -11.340;  697.920
1012.318;   36.149;   -9.780;  736.980
1012.869;   35.729;  -12.380;  679.000
1013.419;   34.813;  -15.560;  603.120
1013.970;   35.410;  -11.010;  666.640
1014.521;   34.927;  -11.610;  620.620
1015.071;   35.288;  -13.450;  670.380
1015.622;   35.170;  -13.870;  635.460
1016.172;   33.209;  -11.610;  596.820
1016.723;   33.655;  -12.120;  614.380
1017.273;   33.383;  -13.620;  604.160
1017.823;   32.359;  -14.140;  650.340
1018.374;   32.948;  -12.800;  611.760
1018.924;   32.712;  -12.340;  716.880
1019.474;   33.300;  -11.410;  718.880
1020.024;   31.956;  -14.770;  657.580
1020.574;   32.581;   -9.780;  726.160
1021.124;   32.942;   -8.560;  673.580
1021.674;   31.135;  -15.190;  559.120
1022.224;   33.593;  -13.530;  708.940
1022.774;   31.588;  -13.280;  668.820
1023.324;   31.936;  -10.690;  753.520
1023.874;   33.858;  -10.240;  875.760
1024.423;   30.704;  -12.540;  613.700
1024.973;   30.520;  -10.010;  610.760
1025.523;   29.728;  -10.550;  620.960
1026.072;   29.226;  -13.560;  606.420
1026.622;   29.059;  -15.120;  675.740
1027.172;   30.752;  -11.260;  715.660
1027.721;   29.271;  -11.410;  601.220
1028.270;   29.877;  -13.530;  663.400
1028.820;   29.350;  -13.680;  638.080
1029.369;   28.224;  -13.520;  612.700
1029.918;   28.721;  -10.980;  649.840
1030.468;   28.900;  -13.530;  564.780
1031.017;   28.964;  -13.170;  634.800
1031.566;   26.972;  -12.200;  608.900
1032.115;   28.517;   -9.960;  694.500
1032.664;   27.344;  -13.210;  596.480
1033.213;   27.573;  -12.500;  735.420
1033.762;   27.442;  -11.910;  635.620
1034.311;   27.261;   -9.640;  677.220
1034.860;   26.643;  -13.310;  691.000
1035.408;   26.976;  -11.830;  722.720
1035.957;   27.050;  -12.000;  719.540
1036.506;   25.483;  -11.690;  530.800
1037.055;   27.767;  -10.990;  844.320
1037.603;   26.031;  -15.120;  664.000
1038.152;   24.995;  -12.450;  534.760
1038.700;   24.436;  -10.560;  585.740
1039.249;   24.903;  -11.080;  681.220
1039.797;   25.602;  -12.540;  633.360
1040.345;   24.845;  -11.920;  705.420
1040.894;   25.029;  -11.410;  625.300
1041.442;   24.614;  -14.320;  632.200
1041.990;   23.757;  -16.240;  559.160
1042.538;   23.995;  -11.680;  536.180
1043.087;   23.547;  -10.760;  570.860
1043.635;   25.284;  -11.850;  670.500
1044.183;   23.774;  -15.480;  586.400
1044.731;   23.299;  -11.770;  576.000
1045.279;   23.030;  -13.090;  674.920
1045.827;   25.134;  -12.440;  892.400
1046.374;   21.820;  -13.840;  515.420
1046.922;   21.885;  -13.220;  590.580
1047.470;   24.281;  -10.230;  691.300
1048.018;   23.158;  -14.590;  647.960
1048.565;   23.661;  -12.050;  708.600
1049.113;   22.322;  -11.650;  557.000
1049.660;   22.216;  -10.510;  629.660
1050.208;   22.077;  -13.310;  675.640
1050.755;   21.296;  -15.900;  606.580
1051.303;   21.743;  -11.430;  686.820
1051.850;   21.580;   -8.480;  635.120
1052.397;   19.888;  -15.010;  473.960
1052.945;   20.093;  -13.960;  617.760
1053.492;   21.789;  -13.150;  741.840
1054.039;   21.163;   -9.630;  720.180
1054.586;   19.909;  -13.680;  557.240
1055.133;   21.236;  -14.570;  693.140
1055.680;   21.892;  -13.820;  646.620
1056.227;   19.806;  -11.730;  542.780
1056.774;   21.467;  -12.480;  794.980
1057.321;   19.353;  -13.930;  523.260
1057.868;   19.677;  -11.690;  651.320
1058.415;   19.660;   -9.520;  651.980
1058.961;   20.210;  -13.160;  678.940
1059.508;   19.084;  -12.920;  643.820
1060.055;   19.419;  -11.920;  581.780
1060.601;   19.177;  -11.500;  624.300
1061.148;   19.420;  -14.330;  616.820
1061.694;   18.425;  -16.870;  592.580
1062.241;   18.525;  -10.330;  596.320
1062.787;   18.923;  -10.620;  663.140
1063.334;   20.284;  -10.110;  808.560
1063.880;   18.848;  -13.400;  668.360
1064.426;   18.903;  -10.680;  706.820
1064.972;   17.449;   -9.920;  601.340
1065.518;   17.050;  -10.980;  566.640
1066.065;   18.266;  -14.890;  624.460
1066.611;   16.625;  -12.870;  598.800
1067.157;   17.712;  -12.950;  641.860
1067.703;   18.222;  -13.540;  668.480
1068.249;   17.884;  -13.540;  605.220
1068.794;   17.246;  -12.600;  626.880
1069.340;   16.300;  -10.620;  578.960
1069.886;   16.454;  -12.830;  590.700
1070.432;   15.470;  -14.870;  541.720
1070.977;   16.290;  -11.980;  601.080
1071.523;   16.204;   -8.200;  573.060
1072.068;   16.280;  -12.330;  582.000
1072.614;   16.164;  -16.370;  527.760
1073.160;   16.971;  -11.100;  687.040
1073.705;   14.913;  -10.480;  572.520
1074.250;   15.639;  -14.520;  559.900
1074.796;   16.752;  -11.460;  655.160
1075.341;   16.226;  -11.950;  664.100
1075.886;   16.100;  -11.460;  594.240
1076.431;   15.081;  -13.770;  649.880
1076.976;   15.646;  -12.680;  639.220
1077.521;   14.713;  -13.170;  583.080
1078.067;   14.092;  -10.860;  579.400
1078.612;   15.621;  -13.920;  661.620
1079.156;   15.511;  -13.880;  601.540
1079.701;   14.955;  -13.120;  693.260
1080.246;   15.136;   -9.940;  696.300
1080.791;   14.615;  -14.740;  625.020
1081.336;   14.947;  -13.750;  659.320
1081.880;   14.945;  -13.400;  649.680
1082.425;   13.403;  -12.220;  573.480
1082.970;   15.285;  -11.610;  717.040
1083.514;   13.801;  -13.580;  597.000
1084.059;   12.527;  -12.810;  586.720
1084.603;   13.073;  -12.320;  565.840
1085.147;   13.920;  -13.190;  645.220
1085.692;   14.850;  -12.480;  716.800
1086.236;   12.022;  -13.020;  503.140
1086.780;   13.982;   -9.190;  751.440
1087.325;   13.388;  -12.480;  654.620
1087.869;   12.982;  -12.450;  610.700
1088.413;   13.444;  -12.240;  705.040
1088.957;   11.379;   -9.020;  543.400
1089.501;   13.304;  -10.320;  766.640
1090.045;   13.552;  -12.720;  726.480
1090.589;   10.712;  -13.690;  569.920
1091.133;   12.813;  -10.020;  673.340
1091.676;   12.604;  -12.330;  591.940
1092.220;   11.838;  -14.970;  600.920
1092.764;   12.755;  -12.430;  706.960
1093.307;   12.831;   -9.800;  673.780
1093.851;   11.016;  -14.970;  556.540
1094.395;   11.737;  -15.310;  683.140
1094.938;   11.155;  -10.370;  632.520
1095.482;   11.349;  -11.050;  559.800
1096.025;   11.161;  -11.840;  710.880
1096.568;   12.897;  -12.840;  779.280
1097.112;    9.926;  -14.700;  508.180
1097.655;   10.964;   -8.720;  603.000
1098.198;   10.226;  -13.610;  600.180
1098.741;    9.975;  -13.350;  612.860
1099.285;   11.587;  -11.230;  657.300
1099.828;    8.689;  -11.840;  439.400
1100.371;   10.337;  -10.840;  608.160
1100.914;   10.640;  -14.190;  682.660
1101.457;   10.073;  -11.240;  679.900
1101.999;    9.609;  -11.270;  584.680
1102.542;    9.608;  -11.480;  641.440
1103.085;    9.622;  -11.750;  658.500
1103.628;   10.009;  -11.400;  762.060
1104.170;    9.805;  -10.490;  588.280
1104.713;    9.401;  -10.600;  646.700
1105.256;    9.162;  -14.360;  557.440
1105.798;    8.375;  -13.210;  499.980
1106.341;   10.205;  -10.270;  728.900
1106.883;    8.557;  -12.200;  521.340
1107.425;    9.164;  -13.110;  668.180
1107.968;    8.703;  -12.840;  612.380
1108.510;    9.119;   -6.480;  684.960
1109.052;    7.882;  -13.940;  612.620
1109.594;    8.194;  -13.690;  554.440
1110.136;    8.808;  -11.880;  643.220
1110.679;    8.394;   -9.500;  633.080
1111.221;    8.646;  -14.160;  604.460
1111.763;    6.636;  -13.980;  559.220
1112.304;    7.163;  -13.880;  547.140
1112.846;    7.950;  -12.210;  666.240
1113.388;   10.481;  -11.390;  942.180
1113.930;    7.957;  -14.540;  694.200
1114.472;    7.257;  -12.640;  606.540
1115.013;    6.682;  -11.620;  551.280
1115.555;    6.019;  -13.640;  587.100
1116.097;    6.492;  -15.380;  579.480
1116.638;    7.736;  -12.640;  684.600
1117.180;    7.098;   -9.850;  667.740
1117.721;    7.133;  -13.690;  568.580
1118.262;    7.963;  -12.680;  677.960
1118.804;    7.702;  -12.530;  637.340
1119.345;    6.398;  -11.690;  578.400
1119.886;    7.565;  -13.380;  704.040
1120.427;    6.061;  -14.070;  589.020
1120.969;    5.247;  -13.500;  597.920
1121.510;    4.732;  -11.480;  563.060
1122.051;    6.632;  -12.830;  723.580
1122.592;    5.625;  -14.290;  655.420
1123.133;    4.563;  -12.400;  547.940
1123.673;    6.191;  -10.130;  706.480
1124.214;    5.540;  -12.930;  612.460
1124.755;    6.109;  -14.380;  639.460
1125.296;    6.168;  -14.000;  627.320
1125.836;    6.073;  -10.070;  691.500
1126.377;    5.000;  -12.640;  599.660
1126.918;    5.612;  -12.960;  614.980
1127.458;    4.587;  -13.350;  622.220
1127.999;    5.616;  -10.750;  656.980
1128.539;    5.293;  -12.350;  694.240
1129.079;    4.284;  -14.860;  632.720
1129.620;    4.456;  -13.840;  558.100
1130.160;    3.968;  -12.330;  539.480
1130.700;    5.463;  -14.530;  640.840
1131.240;    5.498;  -12.530;  643.700
1131.781;    4.039;  -14.450;  619.680
1132.321;    3.628;   -9.790;  599.120
1132.861;    3.212;  -14.860;  564.200
1133.401;    3.888;  -14.290;  593.940
1133.941;    4.388;  -11.750;  626.280
1134.481;    3.191;   -9.920;  597.580
1135.020;    3.282;  -12.290;  609.160
1135.560;    4.880;  -11.650;  674.940
1136.100;    3.510;  -16.270;  501.160
1136.640;    3.605;  -10.890;  510.480
1137.179;    3.524;  -14.180;  537.960
1137.719;    3.864;  -16.250;  605.400
1138.258;    3.478;  -14.230;  587.360
1138.798;    3.797;   -9.090;  663.780
1139.337;    2.081;  -15.130;  482.840
1139.877;    3.221;  -13.680;  642.360
1140.416;    5.374;  -11.320;  878.060
1140.955;    2.392;  -10.860;  535.380
1141.494;    3.011;  -12.920;  669.280
1142.034;    2.094;  -13.930;  583.520
1142.573;    3.666;  -11.440;  646.280
1143.112;    2.103;  -12.000;  553.480
1143.651;    2.654;  -13.670;  536.480
1144.190;    3.284;  -12.730;  691.640
1144.729;    2.259;  -14.560;  607.420
1145.267;    1.904;  -11.830;  584.900
1145.806;    3.265;  -12.230;  637.040
1146.345;    2.012;  -14.130;  635.020
1146.884;    1.719;  -11.590;  622.500
1147.422;    1.263;  -12.550;  533.060
1147.961;    3.170;  -11.180;  708.460
1148.500;    2.586;  -11.510;  669.720
1149.038;    2.831;  -11.640;  632.500
1149.577;    2.137;  -10.130;  698.640
1150.115;    0.270;  -13.970;  452.280
1150.653;    1.632;  -14.520;  607.340
1151.192;    1.824;  -12.810;  552.920
1151.730;    0.808;   -9.100;  652.560
1152.268;    1.532;  -12.220;  589.520
1152.806;    1.098;  -14.140;  571.180
1153.344;    0.391;  -12.350;  577.640
1153.882;    0.153;   -8.980;  600.060
1154.421;   -0.211;  -15.190;  470.620
1154.958;    0.249;  -15.210;  595.240
1155.496;    1.487;  -12.850;  645.280
1156.034;    0.867;   -9.940;  721.880
1156.572;    1.839;  -13.570;  667.060
1157.110;   -0.167;  -14.590;  473.940
1157.647;    1.224;  -13.030;  676.960
1158.185;    0.154;  -12.140;  564.320
1158.723;   -0.588;  -14.390;  509.200
1159.260;    0.247;  -14.090;  701.700
1159.798;    0.659;  -11.920;  658.160
1160.335;    0.474;  -11.110;  631.820

