
Integration time [ms]:   3.276
Averaging Nr. [scans]: 1000
Smoothing Nr. [pixels]: 0
Data measured with spectrometer [name]: 7414430SP
Wave   ;Sample   ;Dark     ;Reference
[nm]   ;[counts] ;[counts] ;[counts] 

288.544;  148.554;    7.793;  793.890
289.143;  152.581;    7.462;  681.602
289.742;  154.182;    8.602;  828.814
290.341;  140.497;    1.321;  789.841
290.940;  127.303;   -0.709;  730.702
291.538;  128.943;    0.881;  881.108
292.137;  129.626;    0.122;  792.581
292.736;  134.253;   -1.929;  975.101
293.335;  131.119;   -8.229;  735.086
293.934;  130.579;   -5.279;  781.677
294.532;  130.034;   -1.369; 1031.958
295.131;  116.198;   -7.641;  834.394
295.730;  115.051;   -8.420;  809.588
296.328;  114.582;   -5.611;  783.442
296.927;  115.352;   -5.781;  779.652
297.525;  116.495;   -6.361;  781.236
298.124;  106.529;  -11.382;  654.009
298.722;  109.806;   -7.641;  761.933
299.321;  108.252;   -6.811;  708.597
299.919;  106.470;   -6.991;  751.918
300.518;  102.822;  -10.362;  689.338
301.116;  104.968;   -9.581;  691.381
301.715;  104.882;   -4.891;  730.222
302.313;  104.155;   -8.801;  704.943
302.911;   99.298;   -8.522;  733.830
303.509;  104.028;   -6.171;  925.627
304.108;  102.317;   -7.311;  760.383
304.706;  101.470;   -8.321;  801.664
305.304;   95.670;  -10.222;  796.707
305.902;  101.026;   -6.021;  784.484
306.500;   96.998;   -4.971;  728.200
307.098;   95.814;   -7.061;  746.560
307.696;   92.486;   -8.801;  780.432
308.294;   93.732;   -6.411;  731.359
308.892;   95.775;   -2.901;  759.769
309.490;   92.939;   -5.041;  712.161
310.088;   89.493;   -5.002;  788.444
310.686;   94.273;   -2.041;  821.749
311.284;   90.364;   -2.351;  766.040
311.882;   88.059;   -4.422;  731.225
312.480;   85.018;   -4.192;  697.167
313.078;   86.119;   -1.172;  808.331
313.675;   87.531;   -2.601;  691.600
314.273;   82.681;   -1.312;  797.837
314.871;   81.620;   -3.942;  589.829
315.468;   79.216;   -2.802;  652.090
316.066;   83.329;   -0.701;  694.427
316.664;   76.375;   -4.362;  656.351
317.261;   78.881;   -2.872;  910.128
317.859;   74.469;   -2.022;  768.735
318.456;   75.755;   -0.531;  830.096
319.054;   71.654;   -3.912;  787.828
319.651;   70.795;   -4.752;  759.928
320.249;   68.487;   -2.602;  810.188
320.846;   67.185;   -0.821;  714.286
321.443;   64.079;   -4.642;  832.135
322.041;   61.421;   -5.002;  812.315
322.638;   58.816;   -3.982;  701.456
323.235;   60.844;   -3.411;  665.683
323.833;   57.119;   -7.361;  740.354
324.430;   53.301;   -8.611;  615.900
325.027;   53.428;   -4.061;  876.855
325.624;   53.910;   -4.031;  644.532
326.221;   51.320;   -7.481;  689.717
326.818;   49.954;   -5.281;  818.332
327.415;   53.391;   -7.460;  748.828
328.012;   53.479;   -5.510;  690.585
328.609;   52.436;   -7.880;  731.389
329.206;   49.147;   -8.331;  778.621
329.803;   48.826;   -5.121;  737.841
330.400;   51.872;   -4.510;  704.260
330.997;   54.424;   -6.441;  817.147
331.594;   52.227;   -8.831;  788.185
332.191;   57.329;   -7.621;  728.722
332.787;   60.499;   -4.591;  844.463
333.384;   59.562;   -7.412;  763.093
333.981;   57.321;   -8.293;  815.687
334.578;   60.210;   -7.052;  708.378
335.174;   63.469;   -3.102;  731.469
335.771;   63.930;   -5.943;  836.456
336.367;   59.672;   -7.393;  710.631
336.964;   63.589;   -4.063;  793.266
337.561;   61.078;   -3.813;  731.112
338.157;   57.105;   -4.654;  911.916
338.754;   54.965;   -7.934;  796.589
339.350;   52.629;   -4.414;  722.493
339.946;   55.695;   -4.664;  773.135
340.543;   47.740;   -6.375;  846.136
341.139;   41.905;   -9.815;  720.836
341.735;   39.308;   -4.526;  772.593
342.332;   38.092;   -4.895;  691.472
342.928;   38.415;   -4.295;  795.394
343.524;   32.377;   -5.476;  761.684
344.120;   28.852;   -5.856;  738.562
344.716;   32.906;   -2.155;  723.717
345.313;   30.343;   -6.275;  795.342
345.909;   24.262;   -8.815;  627.336
346.505;   26.162;   -5.305;  740.247
347.101;   26.880;   -2.674;  827.864
347.697;   27.666;   -4.344;  785.398
348.293;   21.475;   -9.975;  627.244
348.889;   21.891;   -5.774;  745.914
349.485;   22.554;   -5.004;  688.205
350.081;   22.527;   -4.704;  772.592
350.676;   17.793;   -6.635;  691.606
351.272;   21.222;   -4.504;  809.530
351.868;   22.558;   -3.914;  780.497
352.464;   19.603;   -9.044;  723.932
353.059;   14.947;   -8.314;  646.017
353.655;   18.014;   -7.024;  777.063
354.251;   19.567;   -5.343;  759.845
354.846;   14.281;   -8.604;  740.646
355.442;   11.488;   -6.945;  753.071
356.038;   13.961;   -7.564;  751.708
356.633;   14.551;   -5.814;  728.594
357.229;   12.898;   -7.364;  724.757
357.824;    9.637;   -8.024;  703.600
358.420;    9.120;   -9.384;  679.726
359.015;    9.955;   -5.104;  695.357
359.610;   11.253;   -6.854;  763.920
360.206;    4.410;  -10.185;  603.240
360.801;    7.788;   -7.054;  646.503
361.396;    9.324;   -5.034;  725.975
361.992;    5.966;   -8.284;  668.220
362.587;    2.625;   -8.625;  670.160
363.182;    4.238;   -7.674;  689.631
363.777;    5.308;   -5.164;  738.242
364.372;    4.754;   -8.604;  737.314
364.967;    1.218;   -9.055;  680.744
365.563;    5.271;   -6.114;  815.567
366.158;    2.396;   -5.814;  685.161
366.753;    3.428;   -7.854;  649.263
367.348;    1.503;   -7.804;  746.056
367.942;    1.366;   -7.954;  697.298
368.537;    1.089;   -4.984;  754.245
369.132;    0.728;   -8.564;  703.428
369.727;   -3.648;   -8.855;  638.079
370.322;   -2.159;   -6.245;  580.186
370.917;   -2.222;   -6.425;  710.646
371.511;    0.719;   -6.294;  861.834
372.106;   -3.421;   -7.685;  776.964
372.701;   -6.390;   -7.335;  585.988
373.296;   -0.990;   -4.564;  863.135
373.890;   -5.057;  -10.235;  647.840
374.485;   -7.615;   -7.885;  691.199
375.079;   -3.921;   -7.324;  738.685
375.674;   -1.256;   -3.494;  812.970
376.268;   -6.016;   -8.525;  691.759
376.863;  -13.111;  -10.086;  580.327
377.457;   -6.943;   -7.025;  662.490
378.052;   -7.610;   -3.585;  764.884
378.646;   -8.765;   -7.595;  741.167
379.240;   -9.443;   -8.335;  721.176
379.835;   -8.406;   -5.785;  636.978
380.429;   -9.513;   -4.335;  562.557
381.023;  -10.527;   -6.805;  779.205
381.617;  -13.382;   -9.195;  680.106
382.212;   -8.835;   -6.905;  685.303
382.806;   -8.166;   -3.745;  760.690
383.400;  -12.176;   -7.745;  672.281
383.994;  -13.724;   -9.765;  664.870
384.588;   -9.789;   -6.564;  697.701
385.182;   -8.057;   -5.344;  726.624
385.776;   -9.401;   -8.514;  706.875
386.370;  -13.172;   -9.555;  681.968
386.964;  -12.691;   -8.715;  684.155
387.558;  -10.589;   -6.174;  598.360
388.152;  -14.083;   -8.725;  681.959
388.745;  -12.273;   -7.965;  814.707
389.339;   -9.850;   -5.924;  747.642
389.933;   -9.391;   -5.524;  695.370
390.527;  -10.336;   -7.114;  859.029
391.120;  -17.202;  -10.725;  595.318
391.714;  -14.000;   -8.035;  711.633
392.308;  -10.367;   -3.574;  780.253
392.901;  -13.602;   -7.245;  642.460
393.495;  -16.474;   -9.285;  595.414
394.089;  -13.982;   -5.895;  760.452
394.682;  -14.374;   -4.295;  697.188
395.275;  -14.784;   -9.875;  719.927
395.869;  -16.618;   -8.485;  667.314
396.462;  -15.203;   -7.455;  616.609
397.056;  -10.645;   -5.424;  776.621
397.649;  -15.298;   -6.605;  731.575
398.242;  -13.012;   -8.224;  712.645
398.836;  -13.343;   -7.474;  766.408
399.429;  -12.937;   -7.094;  631.041
400.022;  -16.336;   -9.475;  665.902
400.615;  -13.814;   -7.145;  805.609
401.208;  -13.063;   -7.174;  691.451
401.802;  -14.865;   -5.515;  699.329
402.395;  -16.176;   -9.875;  683.502
402.988;  -17.566;   -8.845;  696.627
403.581;  -13.643;   -8.874;  646.878
404.174;  -11.797;   -5.324;  686.568
404.767;  -13.694;   -9.575;  638.583
405.360;  -17.273;  -10.965;  621.445
405.953;  -11.126;   -8.764;  759.034
406.545;  -10.388;   -7.514;  725.342
407.138;  -14.306;  -10.025;  618.350
407.731;  -13.683;  -10.034;  613.303
408.324;  -10.137;   -9.374;  660.554
408.917;  -11.527;   -6.534;  681.864
409.509;  -12.640;   -8.004;  740.396
410.102;  -14.254;   -9.875;  643.948
410.695;   -9.529;   -8.604;  665.758
411.287;   -9.698;   -6.794;  599.821
411.880;  -10.391;   -9.334;  585.421
412.472;  -14.075;  -10.254;  613.092
413.065;  -12.062;   -6.714;  629.408
413.657;   -9.119;   -7.234;  576.678
414.250;   -8.512;  -10.544;  646.681
414.842;  -10.970;   -9.744;  676.353
415.434;   -8.958;   -6.994;  570.463
416.027;   -4.404;   -5.893;  652.196
416.619;   -5.839;   -7.264;  713.400
417.211;   -7.675;  -10.374;  599.352
417.804;   -4.140;   -7.993;  628.499
418.396;   -7.257;   -7.234;  607.643
418.988;   -5.461;   -9.443;  659.238
419.580;   -8.759;  -10.724;  568.276
420.172;   -6.591;  -10.323;  536.196
420.764;   -2.311;   -8.793;  672.482
421.356;   -2.877;  -11.143;  636.898
421.948;   -4.643;   -8.293;  677.661
422.540;    0.229;   -7.893;  680.027
423.132;    0.288;   -7.082;  600.641
423.724;   -2.900;   -8.653;  561.267
424.316;   -1.712;  -10.213;  621.345
424.908;    1.980;   -9.762;  591.517
425.500;    3.256;   -5.572;  647.978
426.092;    3.522;   -8.422;  648.268
426.683;    2.039;   -9.283;  684.836
427.275;    4.351;   -7.852;  641.471
427.867;    6.620;   -5.272;  668.948
428.458;    7.664;   -7.682;  732.344
429.050;    5.143;  -10.612;  680.749
429.642;    7.568;   -9.882;  743.124
430.233;    9.033;   -6.962;  569.356
430.825;    9.132;   -6.842;  724.809
431.416;    6.609;   -9.672;  698.241
432.008;    9.476;   -6.552;  651.723
432.599;   11.201;   -6.891;  656.073
433.190;    8.325;  -10.912;  637.670
433.782;    6.796;  -11.172;  590.395
434.373;   14.199;   -6.061;  884.765
434.964;   14.016;   -8.251;  602.920
435.556;   11.401;   -9.722;  634.537
436.147;   13.446;   -9.082;  758.490
436.738;   13.728;   -8.041;  701.099
437.329;   19.863;   -7.341;  721.723
437.920;   12.315;   -8.162;  666.688
438.511;   11.998;  -11.802;  564.526
439.103;   18.069;  -10.191;  623.998
439.694;   20.633;   -7.601;  681.583
440.285;   22.087;   -8.541;  764.432
440.876;   18.818;   -9.751;  845.738
441.466;   18.266;   -9.401;  575.162
442.057;   24.564;   -7.760;  665.814
442.648;   23.131;   -9.971;  746.255
443.239;   20.852;  -11.001;  620.477
443.830;   25.430;   -7.990;  704.958
444.421;   28.152;   -7.910;  655.474
445.011;   24.485;   -8.131;  693.619
445.602;   23.966;   -7.111;  743.126
446.193;   25.389;  -10.920;  488.117
446.783;   30.441;   -6.500;  640.397
447.374;   25.873;   -8.671;  692.759
447.964;   26.144;  -10.781;  713.770
448.555;   34.483;   -9.650;  822.742
449.145;   31.097;   -8.660;  662.853
449.736;   32.162;   -8.990;  803.179
450.326;   32.126;   -9.500;  713.626
450.917;   37.028;   -8.680;  675.324
451.507;   35.992;   -7.520;  600.661
452.097;   36.734;   -8.590;  746.267
452.688;   37.256;  -11.340;  742.160
453.278;   36.749;  -10.100;  566.840
453.868;   42.699;   -6.019;  793.550
454.458;   39.519;   -9.440;  651.141
455.048;   39.080;  -10.560;  711.783
455.639;   41.307;  -11.799;  567.096
456.229;   45.096;   -6.899;  710.694
456.819;   47.101;   -7.389;  751.158
457.409;   46.927;  -11.119;  773.993
457.999;   49.239;   -9.289;  737.505
458.589;   49.779;   -6.139;  686.606
459.179;   50.352;   -8.729;  717.658
459.769;   47.382;   -9.789;  627.099
460.358;   52.096;  -10.259;  797.262
460.948;   52.511;   -7.299;  689.503
461.538;   54.908;  -10.289;  660.677
462.128;   52.043;  -11.269;  664.934
462.717;   58.740;   -9.368;  710.326
463.307;   62.264;   -7.908;  705.846
463.897;   57.673;   -9.599;  656.942
464.486;   56.572;   -9.769;  837.128
465.076;   61.317;   -8.048;  733.776
465.666;   64.189;   -9.358;  652.900
466.255;   62.498;   -7.919;  785.651
466.845;   61.244;  -11.689;  666.749
467.434;   63.783;   -7.818;  725.873
468.023;   65.379;   -7.678;  658.357
468.613;   64.129;  -10.939;  713.946
469.202;   66.795;  -10.118;  646.507
469.791;   70.418;   -9.108;  737.811
470.381;   73.044;   -6.058;  742.813
470.970;   73.447;  -10.428;  711.099
471.559;   72.488;  -10.268;  733.291
472.148;   75.860;   -8.448;  675.737
472.738;   78.831;   -6.917;  765.466
473.327;   78.000;  -11.978;  637.529
473.916;   77.719;  -11.888;  737.446
474.505;   81.166;   -9.437;  751.703
475.094;   84.804;   -6.747;  806.570
475.683;   84.959;   -9.367;  797.699
476.272;   84.882;  -12.637;  730.632
476.861;   87.551;  -10.027;  706.754
477.449;   94.594;   -8.716;  728.487
478.038;   88.933;   -9.577;  692.513
478.627;   89.845;   -9.718;  714.852
479.216;   95.204;   -8.947;  769.441
479.805;   98.905;   -6.256;  783.375
480.393;   99.622;   -7.937; 1008.945
480.982;   98.307;   -7.717;  874.501
481.571;  104.091;   -9.266;  858.333
482.159;  104.678;   -7.636;  705.386
482.748;  104.935;   -9.667;  821.385
483.336;  108.925;  -10.376;  858.209
483.925;  110.268;   -7.147;  774.373
484.513;  116.872;   -7.996;  758.962
485.102;  113.143;  -10.027;  810.965
485.690;  121.788;  -10.446; 1011.050
486.278;  122.553;   -8.446;  979.329
486.867;  124.108;   -6.356;  809.662
487.455;  126.157;   -9.136;  898.229
488.043;  127.300;  -10.646;  748.361
488.631;  135.665;   -7.456; 1005.079
489.220;  139.711;   -6.636;  908.626
489.808;  139.409;  -11.036;  741.415
490.396;  147.513;  -10.246;  914.645
490.984;  152.177;   -8.556;  830.161
491.572;  161.331;   -5.886;  940.315
492.160;  168.018;   -9.486;  919.081
492.748;  178.058;  -10.976;  884.341
493.336;  200.277;   -8.776; 1019.693
493.924;  226.736;   -5.465;  958.077
494.512;  251.216;   -9.986; 1066.638
495.100;  286.102;  -10.636; 1103.280
495.687;  337.635;  -10.885; 1206.373
496.275;  397.861;   -8.126; 1150.796
496.863;  466.611;  -10.586; 1281.171
497.451;  564.534;  -11.926; 1386.805
498.038;  688.410;  -10.885; 1556.729
498.626;  791.266;   -6.315; 1741.407
499.214;  932.631;   -7.326; 2016.609
499.801; 1121.524;  -11.906; 2220.633
500.389; 1357.279;  -10.466; 2312.494
500.976; 1652.695;   -5.236; 2744.849
501.564; 2067.754;   -8.936; 3148.565
502.151; 2425.345;  -13.176; 3515.999
502.738; 2860.127;  -10.646; 3971.274
503.326; 3231.372;   -9.525; 4403.796
503.913; 3600.377;  -10.856; 5161.749
504.500; 3958.145;  -11.586; 5986.420
505.088; 4377.810;  -10.336; 6381.201
505.675; 4882.104;   -6.355; 6925.547
506.262; 5573.820;   -9.046; 7619.060
506.849; 6264.123;  -10.416; 8733.969
507.436; 6729.508;  -10.305; 9790.121
508.023; 7302.117;   -5.496; 9985.472
508.610; 7551.061;   -7.856;10434.618
509.197; 8157.971;  -10.097;11198.435
509.784; 9481.817;  -10.886;12391.194
510.371;10496.436;   -9.315;13603.713
510.958;11218.637;   -9.936;14426.586
511.545;11974.657;   -9.326;15243.775
512.132;12802.034;  -10.075;15945.876
512.719;13370.274;   -7.796;16340.369
513.305;14292.514;  -10.606;18011.766
513.892;15058.689;  -11.486;19754.971
514.479;16375.900;   -9.126;20967.805
515.066;17807.148;   -6.026;22299.793
515.652;19083.859;   -8.466;22908.660
516.239;20305.805;  -10.886;23798.875
516.825;21316.553;  -11.496;25567.275
517.412;22352.279;   -5.796;28154.959
517.998;22978.436;  -10.506;28344.111
518.585;23061.686;  -10.076;27134.219
519.171;23581.781;   -8.315;27268.576
519.758;25026.535;   -8.596;28964.129
520.344;26785.658;   -8.466;30664.494
520.930;26753.609;  -11.006;32550.605
521.516;28117.516;  -10.495;35422.895
522.103;30384.473;   -5.526;38280.004
522.689;30947.975;   -8.746;37835.117
523.275;30408.318;  -11.376;37288.613
523.861;31608.248;  -11.156;37281.395
524.447;33056.070;   -8.135;37846.949
525.033;32937.367;   -7.896;38321.949
525.619;33174.480;  -12.476;38579.285
526.205;34716.840;   -9.516;40622.875
526.791;36980.336;   -6.926;42258.836
527.377;37104.129;   -8.346;42966.902
527.963;38652.121;   -8.717;42018.949
528.549;37214.402;  -11.016;42476.828
529.135;35917.027;   -8.536;41854.852
529.721;35260.371;   -9.666;41237.711
530.306;34596.570;  -10.066;41259.445
530.892;34428.598;  -11.356;41506.047
531.478;35806.703;   -6.596;43559.613
532.063;38783.688;   -8.836;47695.563
532.649;39291.023;  -10.047;50808.324
533.235;40155.480;   -9.746;51787.500
533.820;40804.445;   -6.566;52145.035
534.406;42302.684;  -10.817;51133.488
534.991;42101.105;   -9.416;49996.805
535.576;40696.324;   -9.036;48882.852
536.162;41160.477;   -6.156;46942.285
536.747;42091.203;  -11.607;45711.746
537.333;45701.609;  -11.787;48510.180
537.918;48601.688;  -12.437;50439.891
538.503;47207.234;   -7.196;50863.711
539.088;43860.973;  -10.556;50906.922
539.673;43769.477;   -8.767;52621.965
540.259;43986.324;  -10.026;52368.094
540.844;41472.023;   -7.416;50879.109
541.429;42695.199;   -9.467;52077.777
542.014;45388.809;   -9.527;52716.695
542.599;44736.969;   -9.946;52363.281
543.184;42479.082;   -7.927;53187.137
543.769;43895.070;   -9.297;54697.605
544.354;43448.309;  -10.127;53913.914
544.938;42268.566;   -9.267;49680.164
545.523;44044.688;   -6.506;47386.277
546.108;46656.547;   -9.787;49151.949
546.693;48656.738;  -11.587;51384.637
547.278;48527.969;  -10.986;51853.254
547.862;45655.492;   -8.206;51173.750
548.447;41224.406;  -10.067;51691.395
549.031;40910.883;   -9.637;52456.703
549.616;45689.414;   -9.926;52714.516
550.201;44914.980;   -6.347;52414.598
550.785;46108.133;   -7.917;52355.059
551.370;45259.004;  -10.867;54589.453
551.954;44978.035;   -9.047;58267.348
552.538;45638.469;   -7.827;59062.176
553.123;44020.211;  -10.287;58115.285
553.707;42078.992;  -12.178;56556.285
554.291;43625.141;   -8.717;56201.668
554.876;45897.230;   -7.457;55335.762
555.460;45974.254;  -10.387;54155.703
556.044;46894.715;   -9.618;53721.484
556.628;45549.383;  -11.567;53731.016
557.212;44314.293;   -8.097;54312.531
557.796;42812.086;  -11.077;53797.773
558.380;42763.273;  -11.108;56145.984
558.964;43203.684;   -9.057;57277.930
559.548;44337.590;   -6.977;56459.641
560.132;42803.957;  -11.457;54434.543
560.716;41439.313;  -11.378;54800.617
561.300;42504.340;   -9.577;57606.945
561.884;43657.715;   -7.127;58972.445
562.467;42044.336;   -7.118;57327.570
563.051;41260.324;  -13.358;54962.434
563.635;42252.039;  -10.178;52594.473
564.219;42675.078;   -7.837;50610.410
564.802;43572.102;  -11.398;49551.180
565.386;43399.984;  -12.788;48370.953
565.969;42655.254;   -9.077;48178.871
566.553;42076.820;   -6.207;49957.305
567.136;42705.039;   -8.568;50369.594
567.720;39140.789;  -11.868;49492.004
568.303;37205.324;   -8.268;50616.352
568.887;37283.301;   -8.698;50727.148
569.470;37473.805;   -6.808;51698.379
570.053;36083.832;  -13.188;52122.078
570.637;34495.660;  -12.037;52536.438
571.220;34383.027;   -8.577;51186.098
571.803;34967.992;   -8.498;51032.762
572.386;37037.656;  -10.498;49609.887
572.969;39359.332;   -9.388;48285.926
573.552;37623.219;   -8.338;47624.285
574.135;36375.875;   -8.518;45498.641
574.718;34078.992;  -13.628;41970.434
575.301;32950.496;  -10.893;41447.137
575.884;31821.998;   -8.158;40923.836
576.467;32877.289;  -10.328;45267.723
577.050;34532.355;  -13.058;48175.543
577.633;35311.031;   -9.458;47729.328
578.216;33781.469;   -8.928;47579.793
578.799;32821.922;   -9.358;47820.996
579.381;32201.652;  -11.388;48115.551
579.964;31256.680;  -11.718;47333.766
580.547;33333.348;   -8.588;46668.969
581.129;34742.480;   -8.859;44466.141
581.712;35693.262;  -10.729;44164.922
582.294;36232.602;  -11.118;46477.855
582.877;35906.855;   -5.218;48244.254
583.459;33537.887;   -8.679;47437.895
584.042;31598.777;  -10.709;46943.219
584.624;32085.598;  -11.669;46792.227
585.206;31601.617;   -8.218;46557.250
585.789;31539.068;  -10.569;45793.773
586.371;34044.559;  -11.859;43836.391
586.953;34236.309;  -10.719;42972.492
587.536;34929.773;   -7.198;42487.211
588.118;33909.137;   -8.720;42086.414
588.700;28894.010;  -10.439;43389.930
589.282;26485.580;   -9.198;43646.039
589.864;27488.705;   -9.199;43438.109
590.446;30796.523;  -11.319;43151.926
591.028;33050.145;  -11.159;42781.867
591.610;33182.336;  -11.779;42839.098
592.192;31035.967;   -7.668;42820.402
592.774;29590.182;  -11.949;40724.277
593.356;28390.064;  -12.129;39874.789
593.937;27391.137;  -10.669;39980.648
594.519;29573.262;   -6.509;42069.633
595.101;31634.986;  -10.849;42976.031
595.683;31724.598;  -11.679;44084.441
596.264;32738.695;   -9.049;43478.797
596.846;32062.158;   -8.849;43803.672
597.427;31999.158;   -9.570;42986.934
598.009;33674.574;  -12.620;42832.219
598.591;34005.832;  -10.039;42580.086
599.172;33123.844;  -10.369;43061.805
599.753;33264.203;   -9.140;41691.469
600.335;34916.820;  -11.430;40692.520
600.916;33217.578;   -9.939;39982.422
601.498;30626.217;   -8.479;40318.617
602.079;29142.020;  -10.920;40670.609
602.660;29093.416;  -11.480;41450.898
603.241;30612.539;  -11.699;41137.738
603.823;29381.145;   -9.579;38868.797
604.404;28976.068;  -10.620;38182.785
604.985;30571.576;  -10.450;38078.047
605.566;30308.514;   -9.129;38056.633
606.147;30450.357;   -7.510;37020.418
606.728;31981.529;  -10.660;37883.359
607.309;30550.541;  -11.740;38748.273
607.890;30004.771;   -9.759;38850.230
608.471;29574.258;   -8.250;37457.918
609.051;28800.387;   -9.240;36066.457
609.632;27786.668;  -12.120;35991.074
610.213;28544.334;   -9.110;37402.641
610.794;29222.338;   -8.030;38383.363
611.374;28833.289;   -8.110;40562.387
611.955;29393.186;  -13.560;38533.727
612.536;30657.031;  -11.400;36951.789
613.116;30500.121;   -8.070;37197.891
613.697;30727.211;  -10.830;38411.125
614.277;29202.543;  -11.641;38673.938
614.858;30103.348;  -13.310;37075.863
615.438;29272.977;   -7.460;35092.906
616.019;26642.486;   -7.601;33666.301
616.599;27250.252;  -12.020;34189.023
617.179;29048.170;  -11.780;36952.047
617.760;30017.197;   -8.570;39582.574
618.340;31002.170;  -11.471;38943.977
618.920;32223.510;  -11.170;37594.156
619.500;32123.844;  -11.071;37866.938
620.080;31223.238;   -7.750;37869.043
620.660;32341.342;  -12.711;36868.617
621.241;33743.664;  -10.211;36352.309
621.821;34052.363;  -10.961;35459.520
622.401;33047.125;   -7.720;35207.414
622.980;32290.395;   -8.981;35980.422
623.560;30768.951;   -9.331;37351.328
624.140;29551.361;   -9.850;34388.582
624.720;24511.250;   -7.451;32368.764
625.300;21155.416;   -9.070;32638.629
625.880;24514.516;  -12.601;34599.035
626.459;28404.697;  -11.751;36831.738
627.039;31456.865;   -9.281;38299.098
627.619;31323.760;   -8.801;38289.574
628.198;29788.781;  -12.071;37220.695
628.778;28974.826;   -9.461;37632.563
629.357;29638.797;   -8.491;38003.012
629.937;29667.652;   -9.721;38402.039
630.516;29276.648;   -9.951;37868.801
631.096;29055.436;  -11.731;35760.410
631.675;31634.063;   -8.572;35225.219
632.254;36550.695;  -11.282;35130.289
632.834;35882.516;  -13.322;35794.570
633.413;34037.410;  -10.301;35788.922
633.992;31221.549;   -8.582;34532.863
634.571;32103.969;   -8.352;33590.113
635.151;35081.473;  -11.912;34943.863
635.730;33500.844;  -10.511;35352.523
636.309;30034.389;   -7.731;35366.605
636.888;27590.406;   -9.952;36165.637
637.467;28401.490;  -11.672;37515.902
638.046;30049.178;   -8.901;39288.695
638.625;33201.203;   -7.912;38279.699
639.204;32895.965;  -10.022;37741.598
639.782;31386.506;  -12.252;38364.551
640.361;27795.508;  -10.041;36740.621
640.940;25023.408;  -11.161;34950.082
641.519;25727.273;   -9.701;34137.398
642.097;28631.346;  -11.271;35654.258
642.676;31298.020;   -8.651;35637.957
643.255;31934.059;   -8.711;36567.074
643.833;31132.256;   -9.581;37809.434
644.412;31171.568;  -13.711;37337.293
644.990;30244.641;  -11.811;37018.531
645.569;30316.070;   -9.411;36518.469
646.147;29304.320;  -10.291;36186.430
646.726;29033.834;  -12.401;36267.688
647.304;30235.152;  -10.411;36647.625
647.882;32076.666;   -9.651;39286.742
648.461;33700.934;   -9.631;39157.703
649.039;31935.518;  -11.881;35412.883
649.617;31218.654;   -9.661;34744.918
650.195;30898.947;   -9.301;35403.098
650.773;29434.887;  -10.511;35053.797
651.352;27004.240;  -11.521;33756.816
651.930;24799.775;  -12.211;31868.773
652.508;23357.783;   -9.171;33121.551
653.086;27317.262;   -9.371;33564.793
653.663;30112.049;  -13.161;34054.668
654.241;28958.922;  -13.031;35693.309
654.819;30582.490;   -9.371;36422.906
655.397;30704.877;  -10.511;38213.484
655.975;30379.215;  -10.371;39507.625
656.553;30147.063;  -10.051;39498.223
657.130;28538.518;  -10.061;40395.480
657.708;27816.553;   -9.561;39242.020
658.286;27867.098;  -11.511;38920.020
658.863;29239.842;  -10.261;40202.898
659.441;32425.748;   -7.531;39677.938
660.018;31910.316;   -9.501;40413.355
660.596;30675.193;  -13.301;39931.414
661.173;32489.162;  -11.211;39604.531
661.750;32559.715;   -9.951;39700.070
662.328;31465.432;   -9.390;39292.809
662.905;30635.705;  -11.330;38235.648
663.482;26292.846;   -9.050;36212.305
664.060;24469.609;   -8.240;35944.945
664.637;27271.588;  -10.050;35170.785
665.214;29180.775;  -11.760;34197.523
665.791;30751.666;  -10.530;34549.520
666.368;29430.506;   -9.690;35118.578
666.945;30078.334;   -9.320;36019.418
667.522;31676.398;  -11.860;36048.438
668.099;31454.725;  -10.770;36243.914
668.676;30229.717;   -6.260;35958.875
669.253;28843.965;   -7.000;37384.730
669.830;29535.184;  -10.190;36779.629
670.407;29332.535;   -9.550;35231.289
670.984;29291.289;   -9.260;35544.270
671.560;29749.354;   -9.280;35466.867
672.137;28971.357;  -11.810;34280.863
672.714;29859.170;  -11.490;34632.863
673.290;30367.801;   -7.740;35135.422
673.867;30643.146;  -10.660;36114.480
674.443;30524.906;  -12.230;36152.859
675.020;28683.887;  -10.450;35327.238
675.596;29747.947;   -9.260;35795.176
676.173;30180.506;  -10.780;35430.355
676.749;29994.361;  -13.690;33549.516
677.326;30056.885;  -11.980;32210.012
677.902;30073.365;   -8.630;32068.871
678.478;29424.215;  -10.730;32583.891
679.054;28824.684;  -10.520;32088.928
679.631;29090.656;  -11.920;30978.848
680.207;30701.258;   -7.490;33160.887
680.783;32287.578;   -9.860;35570.363
681.359;31276.689;  -13.380;36125.184
681.935;30679.592;  -12.480;35240.922
682.511;29956.309;   -7.900;34429.961
683.087;30163.811;   -7.710;34463.680
683.663;29723.482;  -11.480;34648.898
684.239;28424.637;  -14.090;34546.457
684.815;28009.611;   -7.560;35586.375
685.390;28325.127;   -9.910;35821.895
685.966;28783.674;  -11.159;35085.871
686.542;31213.719;  -11.169;34198.230
687.118;33448.383;   -5.959;32847.707
687.693;33683.258;  -10.329;32794.027
688.269;33347.719;  -12.059;33072.367
688.844;31430.229;  -10.909;33141.664
689.420;29186.736;   -8.019;33965.742
689.995;26892.115;   -8.399;34655.523
690.571;25573.889;  -10.949;33576.742
691.146;26049.547;   -9.619;32657.219
691.722;25575.564;   -8.999;32526.979
692.297;25492.158;  -11.589;33014.617
692.872;27290.834;  -11.739;34012.254
693.448;26860.723;  -11.059;34237.434
694.023;26118.988;  -10.139;34142.672
694.598;28148.016;   -9.029;34132.031
695.173;28433.289;  -13.319;34205.250
695.748;27622.254;  -10.169;32882.488
696.323;27609.137;   -8.339;32864.906
696.898;27841.887;   -8.169;33170.004
697.473;27804.096;  -12.309;32432.984
698.048;27317.332;  -10.989;31649.303
698.623;27263.557;   -9.329;30778.141
699.198;29207.221;   -9.849;31140.119
699.773;30132.311;  -12.329;31764.299
700.348;28460.875;  -10.389;31780.816
700.922;28498.168;   -9.269;32046.375
701.497;29369.607;   -9.329;32603.574
702.072;29559.770;  -10.789;34799.871
702.646;28242.529;  -10.839;35793.172
703.221;26192.184;   -9.099;35201.590
703.795;28217.961;  -10.939;34764.527
704.370;28555.027;  -12.859;34307.367
704.944;29039.676;  -11.559;33509.887
705.519;29947.246;   -7.939;31388.584
706.093;31314.898;  -10.499;31340.104
706.668;31559.100;  -11.289;32630.281
707.242;30551.063;  -11.509;32728.779
707.816;29004.570;   -9.639;32947.238
708.390;27415.908;  -11.429;33277.855
708.965;27946.240;  -11.869;33834.336
709.539;28036.164;  -11.689;33709.273
710.113;28516.844;  -10.478;33044.313
710.687;27967.979;  -10.228;31953.992
711.261;26226.344;  -13.698;30505.949
711.835;26024.986;  -13.378;30262.369
712.409;26855.031;   -9.698;31254.447
712.983;28852.408;  -11.898;32754.986
713.557;29835.313;  -15.138;34018.824
714.131;29489.229;  -14.098;34579.625
714.704;28587.914;   -9.958;33890.262
715.278;26285.838;  -10.028;33531.102
715.852;25282.750;  -11.148;33601.660
716.425;26133.869;   -9.068;33515.117
716.999;26877.832;  -10.038;33185.555
717.573;27907.484;   -9.798;33905.996
718.146;28973.057;  -12.378;35199.293
718.720;28941.689;  -11.918;35060.551
719.293;28404.197;   -8.088;34973.230
719.867;31255.148;  -10.888;36394.449
720.440;30855.102;  -11.938;36663.008
721.013;29184.719;  -12.818;35102.426
721.587;27863.391;  -10.298;33985.266
722.160;26893.725;  -10.048;33524.965
722.733;25826.479;  -12.108;32987.043
723.306;26103.541;  -10.818;33066.301
723.880;28532.867;   -8.908;33399.500
724.453;30508.654;   -9.878;33468.297
725.026;29588.355;  -11.188;33816.637
725.599;26921.961;  -11.678;32797.996
726.172;27265.168;   -9.618;33187.434
726.745;28338.635;   -8.258;35136.613
727.318;29700.535;  -12.978;35751.730
727.891;30122.260;  -12.148;35890.430
728.463;29740.359;   -8.968;34822.090
729.036;28757.391;  -10.188;32895.086
729.609;29217.666;  -11.788;31823.225
730.182;26167.703;  -11.788;31445.283
730.754;23742.828;  -10.268;32373.223
731.327;23798.496;   -9.998;33676.820
731.900;24078.443;  -12.228;33417.000
732.472;25351.559;  -13.848;31978.498
733.045;27235.084;   -8.698;30368.777
733.617;27340.965;  -10.607;30574.215
734.190;27022.025;  -11.507;31280.975
734.762;24075.311;  -13.647;31674.412
735.334;22299.199;   -9.767;31247.291
735.907;23031.119;   -9.897;29876.211
736.479;23163.488;  -11.637;29808.488
737.051;22839.035;   -9.567;30233.547
737.623;23792.814;   -8.187;31469.086
738.195;24551.100;  -11.187;31784.225
738.768;26432.018;  -12.337;32120.523
739.340;26665.555;  -12.227;32094.342
739.912;25522.514;  -11.057;31312.680
740.484;24037.688;  -10.207;31946.238
741.056;22899.662;  -10.047;32984.059
741.628;24719.137;  -13.627;33897.715
742.199;26983.705;   -7.177;33213.016
742.771;25257.539;  -10.797;31369.113
743.343;22890.438;  -11.997;31865.473
743.915;21904.805;  -12.867;32388.631
744.487;22017.928;   -7.617;31079.568
745.058;22243.096;   -9.557;30570.107
745.630;22677.762;   -9.877;29970.127
746.201;23470.768;  -14.177;29186.766
746.773;23923.664;   -9.237;28805.723
747.344;23783.965;   -9.847;29591.223
747.916;22507.061;  -11.657;31412.201
748.487;22751.803;  -10.587;32194.898
749.059;23874.928;   -8.707;32533.719
749.630;24463.604;  -10.537;32158.518
750.201;23472.203;  -11.687;30855.395
750.773;21738.740;  -11.647;28622.555
751.344;21672.797;   -7.147;28405.732
751.915;22904.063;   -9.757;28461.551
752.486;22845.793;  -12.427;27842.850
753.057;20607.432;  -12.227;27845.008
753.628;19413.918;  -10.417;27728.107
754.199;20543.951;  -11.767;27381.086
754.770;21545.123;  -11.187;25882.203
755.341;21513.117;  -10.507;25886.184
755.912;21551.338;   -9.387;26050.861
756.483;21108.947;  -10.647;26798.779
757.054;19341.053;  -11.837;27048.238
757.625;18014.096;  -12.716;26294.838
758.195;17729.885;   -9.666;26142.076
758.766;17488.305;   -8.656;26392.234
759.337;18299.078;  -12.856;26334.594
759.907;19982.551;  -13.366;27579.652
760.478;20887.367;   -8.576;28352.770
761.048;20238.342;  -10.526;27325.088
761.619;19395.094;  -11.116;26460.428
762.189;19455.775;  -12.136;26029.826
762.760;20594.908;   -9.456;26430.145
763.330;21689.709;   -7.136;26670.902
763.900;21123.418;  -11.786;26603.021
764.471;18522.889;  -11.546;25542.740
765.041;17207.230;   -8.096;24358.459
765.611;17259.301;   -8.876;23991.297
766.181;17673.590;  -12.196;24470.236
766.751;18674.137;  -11.636;24845.975
767.321;18416.326;  -10.156;24533.633
767.891;16432.986;  -11.766;24916.492
768.461;15908.639;  -14.936;24776.771
769.031;16454.359;  -12.356;24757.988
769.601;18033.297;   -7.526;24181.088
770.171;17904.754;  -10.766;23670.387
770.741;17191.877;  -13.176;22960.045
771.311;17387.098;  -10.616;22917.523
771.880;17752.002;   -9.576;23562.941
772.450;17446.830;  -10.336;24216.500
773.020;17415.813;  -13.516;24140.398
773.589;16676.111;  -13.466;24414.857
774.159;15992.918;   -8.686;23858.717
774.729;15669.272;   -9.476;22942.135
775.298;15241.344;  -13.666;22324.033
775.867;14855.352;  -11.716;21140.313
776.437;14900.396;   -9.906;20838.092
777.006;14690.904;  -12.166;20599.510
777.576;14561.636;  -12.356;20508.809
778.145;14680.757;  -11.646;20732.947
778.714;14570.140;   -8.226;21062.465
779.283;13834.193;   -9.556;20949.664
779.853;13335.016;  -14.116;20508.623
780.422;13839.633;  -11.506;20649.082
780.991;13408.185;   -9.556;21527.520
781.560;12235.267;   -9.095;22632.658
782.129;12070.140;  -12.135;23048.277
782.698;12104.464;  -10.865;23438.555
783.267;11706.584;   -9.335;23267.734
783.836;11663.592;  -11.045;22415.133
784.404;12704.243;  -13.865;20443.152
784.973;13298.161;  -13.095;19699.150
785.542;13231.454;  -11.575;19763.828
786.111;13075.416;   -9.705;20341.408
786.679;12559.125;  -12.105;20207.967
787.248;12276.218;  -12.455;19516.465
787.817;12086.452;  -11.535;18900.363
788.385;11701.446;   -9.765;17879.121
788.954;11122.956;  -14.005;17658.301
789.522;10607.958;  -11.955;17788.879
790.090;11175.853;  -10.135;18118.277
790.659;11575.882;  -10.975;18338.736
791.227;11066.252;  -13.375;18508.615
791.795;11523.993;  -12.375;17898.254
792.364;11897.747;  -10.725;17295.133
792.932;12192.282;   -9.715;16822.051
793.500;12365.066;  -12.675;17040.148
794.068;12612.003;  -13.495;17179.787
794.636;12733.914;  -10.885;16664.246
795.204;12120.631;  -11.045;16524.545
795.772;12160.224;  -13.175;17274.564
796.340;11676.759;  -12.445;17891.002
796.908;11507.520;   -9.735;17648.561
797.476;11440.181;   -9.815;17064.080
798.044;11011.401;  -13.985;16672.777
798.612;10177.875;  -13.115;17023.996
799.180; 9763.831;  -10.185;16561.615
799.747; 9688.317;   -9.055;15962.773
800.315; 9426.608;  -12.385;15296.992
800.883; 9077.694;  -15.035;14801.771
801.450; 9092.130;  -10.365;14534.430
802.018; 9161.724;   -9.855;14173.248
802.585; 9285.176;  -11.905;14029.547
803.153; 9321.930;  -11.585;13836.846
803.720; 9156.954;   -9.095;13567.324
804.287; 8717.124;   -9.135;13360.622
804.855; 8287.904;  -11.604;13681.981
805.422; 8172.030;  -11.794;13536.560
805.989; 8199.622;  -10.734;13355.958
806.556; 8380.640;  -10.444;13747.896
807.124; 8630.924;  -12.764;13987.376
807.691; 8590.668;  -12.964;14038.674
808.258; 8382.808;  -11.134;14120.152
808.825; 8066.485;   -9.854;13860.111
809.392; 8136.425;  -10.504;13268.790
809.959; 7655.026;  -13.054;12680.389
810.526; 7205.873;   -8.294;12427.308
811.093; 7266.691;   -8.394;12030.105
811.659; 7898.640;  -12.304;11653.664
812.226; 8397.152;  -13.944;11637.183
812.793; 8065.448;  -10.484;11611.521
813.360; 7422.479;  -10.144;11885.181
813.926; 7122.834;  -11.684;12770.539
814.493; 6922.369;  -13.644;12677.638
815.060; 6530.270;   -9.724;11974.336
815.626; 6532.858;   -9.854;11594.715
816.193; 6918.101;  -13.254;11579.474
816.759; 6889.466;  -13.204;11666.972
817.325; 6925.587;   -9.434;11325.530
817.892; 7292.263;  -10.134;11105.369
818.458; 7746.521;  -13.474;10843.928
819.024; 7402.077;  -11.854;10714.406
819.591; 7124.509;  -10.244;10469.165
820.157; 6912.641;  -10.704;10235.523
820.723; 6387.036;  -12.324;10847.563
821.289; 6065.708;   -9.444;11040.980
821.855; 5960.864;   -8.374;10357.100
822.421; 5936.322;  -10.234; 9978.918
822.987; 5939.511;  -13.294; 9754.177
823.553; 5625.849;  -10.884;10065.755
824.119; 5448.388;   -8.884;10036.294
824.685; 5541.530;   -6.784;10029.192
825.251; 5639.308;  -12.004;10199.230
825.816; 5606.530;  -11.474; 9820.189
826.382; 5386.449;   -9.174; 9297.248
826.948; 5602.500;   -9.214; 9381.347
827.513; 5988.354;  -10.774; 9450.726
828.079; 5781.001;  -11.924; 9472.444
828.645; 5187.563;  -10.543; 9292.643
829.210; 5101.860;  -10.533; 9065.341
829.776; 5085.662;  -10.753; 9132.620
830.341; 4961.139;  -10.173; 9092.878
830.906; 5157.027;  -10.743; 9078.557
831.472; 5509.575;  -11.113; 8534.535
832.037; 5236.648;  -10.603; 8677.874
832.602; 4667.762;  -13.323; 8628.692
833.167; 4405.406;  -10.823; 8879.031
833.733; 4357.850;  -10.113; 9189.790
834.298; 4497.393;  -13.583; 9052.608
834.863; 4563.567;  -12.703; 8895.087
835.428; 4543.305;  -10.523; 8824.266
835.993; 4403.287;   -6.963; 8845.385
836.558; 4237.863;  -10.763; 8888.563
837.123; 4371.651;   -9.903; 8966.582
837.688; 4609.113;   -9.913; 8617.860
838.253; 4863.285;  -10.283; 8590.699
838.817; 5073.653;  -12.963; 8443.797
839.382; 4972.158;  -14.243; 8799.356
839.947; 4637.819;  -10.733; 8810.595
840.511; 4318.938;   -9.383; 8796.394
841.076; 3919.755;  -12.563; 8347.231
841.641; 3965.145;  -12.953; 8224.330
842.205; 4064.559;   -7.043; 8223.349
842.770; 4181.438;   -8.163; 8622.107
843.334; 4367.172;  -12.503; 8410.386
843.898; 4317.745;  -11.693; 8337.465
844.463; 4337.996;  -10.203; 8506.283
845.027; 4102.876;   -9.533; 8280.962
845.591; 3916.639;  -13.443; 8231.141
846.156; 3897.903;  -13.143; 7969.179
846.720; 3787.636;   -9.433; 7768.278
847.284; 3662.269;  -11.033; 7630.957
847.848; 3531.470;  -10.403; 7472.395
848.412; 3441.441;  -11.553; 7437.394
848.976; 3489.720;   -8.393; 7674.592
849.540; 3419.742;   -8.713; 7836.011
850.104; 3534.761;  -12.463; 7913.669
850.668; 3891.332;  -12.973; 7694.508
851.232; 3987.870;  -10.793; 7756.887
851.796; 3820.918;  -10.662; 7926.545
852.359; 3529.430;  -13.082; 7827.844
852.923; 3370.145;  -12.192; 7641.163
853.487; 3194.822;  -11.912; 7342.501
854.050; 3160.118;  -10.892; 7042.820
854.614; 3296.125;  -13.992; 7151.338
855.177; 3416.890;  -11.732; 7105.077
855.741; 3444.773;   -8.962; 6989.675
856.304; 3322.617;   -9.442; 6596.634
856.868; 3273.635;  -14.192; 6356.272
857.431; 3369.092;  -12.702; 6468.571
857.995; 3480.135;   -9.942; 6373.210
858.558; 3483.232;   -9.112; 6324.448
859.121; 3211.294;  -12.932; 6408.327
859.684; 3093.946;  -13.442; 6347.886
860.247; 3213.570;  -10.632; 6321.264
860.810; 3211.863;  -11.272; 6301.903
861.374; 2953.234;   -9.832; 6607.881
861.937; 2699.051;  -11.762; 6408.200
862.500; 2698.330;   -9.722; 6572.639
863.062; 2877.411;  -10.512; 6387.297
863.625; 3055.731;  -11.232; 6190.836
864.188; 3225.857;  -14.112; 5807.254
864.751; 3288.906;  -11.302; 5682.413
865.314; 3172.312;  -10.112; 5547.492
865.876; 2952.262;  -12.182; 5500.150
866.439; 2932.488;  -10.722; 5415.909
867.002; 2874.029;   -9.252; 5501.567
867.564; 2665.328;   -9.572; 5413.946
868.127; 2443.844;  -13.142; 5160.325
868.689; 2341.462;  -12.902; 5133.183
869.252; 2237.575;   -9.732; 5252.382
869.814; 2141.232;   -9.432; 5297.141
870.377; 2150.441;  -11.552; 5390.919
870.939; 2219.673;   -9.052; 5599.898
871.501; 2281.453;  -10.982; 5248.336
872.063; 2283.405;  -12.292; 4854.235
872.626; 2243.460;  -14.912; 4817.074
873.188; 2269.214;  -13.112; 4987.732
873.750; 2235.652;  -13.442; 4868.651
874.312; 2137.701;   -9.402; 4779.330
874.874; 2046.210;  -11.062; 4866.348
875.436; 1954.450;  -13.931; 4718.887
875.998; 1944.644;   -9.561; 4660.005
876.560; 1970.862;  -11.321; 4462.964
877.122; 1912.101;  -12.221; 4145.042
877.683; 1817.673;  -12.191; 4056.481
878.245; 1746.082;  -12.101; 3950.740
878.807; 1789.687;   -8.971; 4058.958
879.369; 1818.311;  -12.071; 3954.677
879.930; 1721.087;  -14.621; 3941.495
880.492; 1656.864;  -10.311; 4067.014
881.053; 1614.931;  -10.901; 3859.633
881.615; 1501.248;  -14.411; 3776.071
882.176; 1399.851;  -13.761; 3734.750
882.738; 1351.235;   -9.181; 3678.489
883.299; 1326.761;  -11.791; 3405.407
883.860; 1330.692;  -13.121; 3351.106
884.422; 1332.950;  -11.211; 3394.044
884.983; 1287.776;  -10.091; 3166.443
885.544; 1207.940;   -8.461; 3189.802
886.105; 1126.447;  -12.361; 3160.360
886.666; 1056.896;  -14.141; 3093.059
887.227;  998.201;  -11.361; 2941.957
887.788;  934.396;  -11.401; 2974.836
888.349;  873.946;  -13.791; 2721.214
888.910;  871.669;  -13.191; 2696.493
889.471;  879.333;   -9.881; 2560.172
890.032;  861.110;   -9.881; 2558.190
890.593;  836.719;  -10.371; 2567.669
891.153;  809.094;  -13.301; 2460.307
891.714;  760.159;  -11.431; 2372.046
892.275;  721.961;  -11.291; 2309.505
892.835;  681.969;  -11.471; 2382.543
893.396;  625.487;  -11.541; 2295.502
893.956;  568.493;  -11.181; 2162.420
894.517;  530.795;  -11.741; 2125.439
895.077;  526.605;  -11.671; 2086.978
895.638;  525.829;  -11.311; 2126.316
896.198;  497.069;   -9.831; 1838.275
896.758;  453.832;   -8.421; 1892.813
897.319;  422.901;  -12.351; 1792.232
897.879;  405.756;  -13.511; 1762.751
898.439;  379.622;  -12.001; 1661.149
898.999;  356.092;  -10.180; 1781.468
899.559;  348.301;  -12.030; 1703.347
900.119;  341.420;  -15.710; 1537.525
900.679;  337.652;   -8.900; 1638.384
901.239;  322.654;   -8.340; 1527.902
901.799;  312.698;  -13.910; 1456.441
902.359;  307.214;  -13.460; 1357.140
902.919;  299.130;  -11.490; 1331.118
903.479;  287.558;  -12.110; 1317.257
904.038;  266.115;  -11.720; 1262.595
904.598;  250.007;  -13.610; 1152.034
905.158;  245.548;  -11.040; 1240.893
905.717;  240.076;  -10.900; 1233.691
906.277;  227.582;  -15.080; 1217.330
906.836;  216.901;  -13.380; 1222.408
907.396;  208.422;  -10.780; 1193.047
907.955;  201.930;   -8.500; 1182.526
908.515;  196.311;  -12.760; 1099.364
909.074;  189.611;  -11.900; 1092.863
909.633;  184.292;   -8.950; 1069.121
910.192;  179.362;   -8.770; 1196.460
910.752;  174.077;  -12.390; 1029.960
911.311;  169.744;  -13.680; 1009.780
911.870;  167.050;  -12.370;  971.460
912.429;  169.063;  -10.900; 1094.080
912.988;  168.041;  -11.690; 1081.060
913.547;  162.572;  -13.240;  940.380
914.106;  155.991;  -11.990;  999.420
914.665;  154.219;   -9.990;  984.020
915.224;  154.335;  -12.880; 1035.760
915.782;  154.015;  -12.350;  922.560
916.341;  153.544;   -9.110; 1049.840
916.900;  149.538;   -9.270;  925.260
917.458;  147.927;  -13.240;  884.220
918.017;  146.224;  -13.550;  942.600
918.576;  145.922;  -12.320;  904.440
919.134;  143.984;  -11.490;  837.980
919.693;  143.265;  -13.670;  893.060
920.251;  141.247;  -15.470;  876.500
920.809;  139.577;  -11.290;  839.580
921.368;  139.520;  -10.210;  885.360
921.926;  138.067;  -12.140;  842.940
922.484;  136.918;  -13.080;  903.360
923.042;  136.022;  -11.720;  880.340
923.601;  140.288;   -7.480;  998.680
924.159;  138.315;  -11.570;  935.560
924.717;  134.221;  -13.840;  841.080
925.275;  134.596;  -10.640;  903.240
925.833;  134.967;  -11.540;  779.320
926.391;  135.597;  -12.960;  938.380
926.949;  133.049;  -14.130;  857.680
927.506;  133.514;  -11.750;  903.500
928.064;  134.615;  -10.250;  877.580
928.622;  133.694;  -13.030;  880.100
929.180;  132.074;  -13.400;  814.180
929.737;  134.033;  -10.700;  808.540
930.295;  137.919;  -10.070;  928.480
930.853;  139.961;  -11.960;  849.100
931.410;  138.472;  -13.120;  821.120
931.968;  138.832;  -10.770;  940.660
932.525;  139.868;  -10.680;  909.380
933.082;  139.730;  -13.130;  811.440
933.640;  139.692;  -13.210;  925.900
934.197;  138.825;  -11.060;  886.360
934.754;  139.812;   -9.580;  897.780
935.312;  143.183;  -14.000;  863.340
935.869;  146.686;  -10.710; 1012.980
936.426;  147.378;   -9.860;  872.800
936.983;  149.670;   -9.710;  889.020
937.540;  149.003;  -13.990;  838.280
938.097;  146.845;  -14.040;  940.120
938.654;  146.917;  -10.310;  898.860
939.211;  150.480;  -10.560;  952.480
939.768;  155.252;  -13.900;  915.420
940.324;  156.641;  -14.760;  904.200
940.881;  157.556;  -10.370;  878.500
941.438;  159.291;   -8.260; 1021.200
941.995;  155.835;  -12.540;  992.560
942.551;  152.408;  -14.670;  875.620
943.108;  153.224;  -10.450;  937.920
943.664;  156.700;  -10.750;  869.340
944.221;  159.846;  -11.550; 1088.140
944.777;  156.852;  -14.770;  869.680
945.334;  157.635;  -12.820;  884.840
945.890;  159.587;  -10.130;  946.480
946.446;  159.282;  -13.470;  947.020
947.003;  161.155;  -12.120;  964.940
947.559;  164.260;   -9.980; 1063.040
948.115;  163.842;   -9.080; 1026.540
948.671;  161.707;  -10.830;  967.300
949.227;  157.908;  -12.440;  859.560
949.783;  156.014;  -12.910;  858.900
950.339;  158.134;  -10.270;  991.000
950.895;  158.408;  -13.630; 1023.840
951.451;  157.672;  -15.100;  925.280
952.007;  158.000;  -11.330;  998.540
952.563;  159.541;  -10.580;  937.780
953.118;  158.837;  -13.440;  904.940
953.674;  157.310;  -12.710;  935.780
954.230;  157.223;  -10.350;  949.640
954.785;  154.461;   -9.190;  936.640
955.341;  152.452;  -11.200;  998.160
955.897;  151.082;  -16.560;  834.660
956.452;  152.139;  -12.570;  953.840
957.008;  151.177;   -7.970; 1083.640
957.563;  149.618;  -11.940; 1009.540
958.118;  143.622;  -13.450;  877.700
958.674;  144.537;  -12.030;  946.780
959.229;  146.035;   -9.410; 1013.980
959.784;  143.922;  -12.000;  832.400
960.339;  142.561;  -14.780; 1001.280
960.894;  138.691;   -9.860;  963.760
961.449;  135.463;   -9.970;  859.960
962.004;  135.287;  -10.900; 1212.840
962.559;  130.562;  -13.150;  860.140
963.114;  126.873;  -13.740;  742.480
963.669;  127.653;   -9.820;  915.500
964.224;  126.431;  -13.890;  874.340
964.779;  125.186;  -12.600;  828.420
965.334;  126.380;  -10.950; 1017.860
965.888;  126.051;  -11.170;  875.360
966.443;  130.209;  -12.540;  972.380
966.998;  129.353;  -15.780;  819.460
967.552;  127.529;   -9.760;  908.380
968.107;  124.270;   -9.060;  868.300
968.661;  125.789;  -11.950;  922.440
969.216;  126.516;  -12.800;  856.280
969.770;  125.657;  -11.210;  917.200
970.324;  125.612;  -11.610;  923.140
970.879;  122.813;  -11.370;  947.180
971.433;  119.912;  -12.540;  952.720
971.987;  114.879;  -11.320;  895.340
972.541;  112.369;  -10.720;  917.100
973.095;  107.263;   -9.680; 1009.460
973.649;   98.552;  -11.440;  809.480
974.203;   90.459;  -11.210;  829.040
974.757;   84.988;  -10.240;  855.220
975.311;   81.595;  -13.720;  872.600
975.865;   81.197;  -13.770;  881.820
976.419;   82.492;  -11.690;  857.400
976.973;   85.752;   -9.510;  849.620
977.526;   89.024;  -12.620;  949.920
978.080;   89.083;  -12.010;  796.780
978.634;   91.300;  -10.170;  921.320
979.187;   89.870;   -9.020;  905.400
979.741;   89.357;   -9.820; 1018.380
980.294;   84.528;  -14.870;  789.160
980.848;   82.955;  -12.380;  717.220
981.401;   85.644;  -10.350;  816.540
981.955;   89.064;  -13.720;  844.300
982.508;   86.970;  -11.490;  746.340
983.061;   88.356;  -10.000;  915.260
983.615;   85.968;  -11.480;  798.800
984.168;   82.532;  -13.220;  770.080
984.721;   81.913;  -13.960;  880.760
985.274;   81.418;  -10.870;  867.500
985.827;   81.442;   -9.790;  834.220
986.380;   78.825;  -13.120;  721.340
986.933;   77.960;  -12.450;  864.800
987.486;   75.882;  -10.210;  861.920
988.039;   76.429;   -8.430;  863.100
988.591;   74.469;  -10.520;  893.260
989.144;   71.692;  -14.860;  737.260
989.697;   70.626;  -13.080;  758.740
990.250;   72.794;  -10.150;  858.100
990.802;   70.595;  -13.430;  755.860
991.355;   71.329;  -12.750;  974.880
991.907;   69.512;  -12.040;  864.320
992.460;   67.695;  -11.330;  753.760
993.012;   66.838;  -13.610;  749.540
993.565;   65.370;  -13.460;  711.360
994.117;   67.261;   -9.360;  950.780
994.669;   64.480;  -11.300;  701.320
995.221;   61.803;  -13.540;  791.920
995.774;   60.583;  -13.430;  787.580
996.326;   58.753;  -12.520;  740.220
996.878;   59.454;  -10.950;  838.420
997.430;   56.705;  -14.300;  699.860
997.982;   54.715;  -13.760;  750.140
998.534;   53.101;  -11.530;  739.060
999.086;   51.587;  -10.310;  738.220
999.638;   49.719;  -12.530;  661.380
1000.190;   49.425;  -11.840;  699.320
1000.741;   49.372;  -10.260;  742.700
1001.293;   50.727;   -8.860;  686.020
1001.845;   49.810;  -13.700;  676.640
1002.396;   48.470;  -12.100;  743.400
1002.948;   48.448;  -12.760;  737.400
1003.500;   47.382;  -10.380;  723.780
1004.051;   48.092;  -11.900;  907.580
1004.603;   45.965;  -12.250;  791.820
1005.154;   42.318;  -13.210;  608.980
1005.705;   42.868;  -10.950;  723.960
1006.257;   41.759;  -13.880;  707.220
1006.808;   39.953;  -12.840;  685.460
1007.359;   40.306;  -10.570;  763.240
1007.910;   39.967;   -9.620;  646.640
1008.461;   39.506;  -13.630;  732.940
1009.013;   38.106;  -17.200;  588.340
1009.564;   40.121;  -10.200;  793.520
1010.115;   38.305;  -12.570;  597.040
1010.665;   36.950;  -15.150;  602.160
1011.216;   36.755;  -14.480;  667.920
1011.767;   35.959;  -11.340;  697.920
1012.318;   37.483;   -9.780;  736.980
1012.869;   35.914;  -12.380;  679.000
1013.419;   35.111;  -15.560;  603.120
1013.970;   35.552;  -11.010;  666.640
1014.521;   35.611;  -11.610;  620.620
1015.071;   35.746;  -13.450;  670.380
1015.622;   34.159;  -13.870;  635.460
1016.172;   33.915;  -11.610;  596.820
1016.723;   34.168;  -12.120;  614.380
1017.273;   33.811;  -13.620;  604.160
1017.823;   33.559;  -14.140;  650.340
1018.374;   33.223;  -12.800;  611.760
1018.924;   33.394;  -12.340;  716.880
1019.474;   33.745;  -11.410;  718.880
1020.024;   32.167;  -14.770;  657.580
1020.574;   32.566;   -9.780;  726.160
1021.124;   33.351;   -8.560;  673.580
1021.674;   31.491;  -15.190;  559.120
1022.224;   31.940;  -13.530;  708.940
1022.774;   31.759;  -13.280;  668.820
1023.324;   33.133;  -10.690;  753.520
1023.874;   33.693;  -10.240;  875.760
1024.423;   30.496;  -12.540;  613.700
1024.973;   30.646;  -10.010;  610.760
1025.523;   30.015;  -10.550;  620.960
1026.072;   30.170;  -13.560;  606.420
1026.622;   29.278;  -15.120;  675.740
1027.172;   30.636;  -11.260;  715.660
1027.721;   29.458;  -11.410;  601.220
1028.270;   29.865;  -13.530;  663.400
1028.820;   28.879;  -13.680;  638.080
1029.369;   28.705;  -13.520;  612.700
1029.918;   28.973;  -10.980;  649.840
1030.468;   28.456;  -13.530;  564.780
1031.017;   28.666;  -13.170;  634.800
1031.566;   27.761;  -12.200;  608.900
1032.115;   28.359;   -9.960;  694.500
1032.664;   27.271;  -13.210;  596.480
1033.213;   27.643;  -12.500;  735.420
1033.762;   27.037;  -11.910;  635.620
1034.311;   27.247;   -9.640;  677.220
1034.860;   27.957;  -13.310;  691.000
1035.408;   27.033;  -11.830;  722.720
1035.957;   27.086;  -12.000;  719.540
1036.506;   24.826;  -11.690;  530.800
1037.055;   28.132;  -10.990;  844.320
1037.603;   25.957;  -15.120;  664.000
1038.152;   24.263;  -12.450;  534.760
1038.700;   25.129;  -10.560;  585.740
1039.249;   25.050;  -11.080;  681.220
1039.797;   25.327;  -12.540;  633.360
1040.345;   24.876;  -11.920;  705.420
1040.894;   25.362;  -11.410;  625.300
1041.442;   25.316;  -14.320;  632.200
1041.990;   23.085;  -16.240;  559.160
1042.538;   23.318;  -11.680;  536.180
1043.087;   24.234;  -10.760;  570.860
1043.635;   25.847;  -11.850;  670.500
1044.183;   23.630;  -15.480;  586.400
1044.731;   22.874;  -11.770;  576.000
1045.279;   23.005;  -13.090;  674.920
1045.827;   25.457;  -12.440;  892.400
1046.374;   22.919;  -13.840;  515.420
1046.922;   21.631;  -13.220;  590.580
1047.470;   24.049;  -10.230;  691.300
1048.018;   23.604;  -14.590;  647.960
1048.565;   23.354;  -12.050;  708.600
1049.113;   21.114;  -11.650;  557.000
1049.660;   22.290;  -10.510;  629.660
1050.208;   22.612;  -13.310;  675.640
1050.755;   21.492;  -15.900;  606.580
1051.303;   21.972;  -11.430;  686.820
1051.850;   21.401;   -8.480;  635.120
1052.397;   20.312;  -15.010;  473.960
1052.945;   20.617;  -13.960;  617.760
1053.492;   22.156;  -13.150;  741.840
1054.039;   21.572;   -9.630;  720.180
1054.586;   21.137;  -13.680;  557.240
1055.133;   20.745;  -14.570;  693.140
1055.680;   20.751;  -13.820;  646.620
1056.227;   19.913;  -11.730;  542.780
1056.774;   21.295;  -12.480;  794.980
1057.321;   18.743;  -13.930;  523.260
1057.868;   19.746;  -11.690;  651.320
1058.415;   20.056;   -9.520;  651.980
1058.961;   20.239;  -13.160;  678.940
1059.508;   19.915;  -12.920;  643.820
1060.055;   19.032;  -11.920;  581.780
1060.601;   20.886;  -11.500;  624.300
1061.148;   19.682;  -14.330;  616.820
1061.694;   18.471;  -16.870;  592.580
1062.241;   18.325;  -10.330;  596.320
1062.787;   19.609;  -10.620;  663.140
1063.334;   21.527;  -10.110;  808.560
1063.880;   18.290;  -13.400;  668.360
1064.426;   18.589;  -10.680;  706.820
1064.972;   17.816;   -9.920;  601.340
1065.518;   17.402;  -10.980;  566.640
1066.065;   18.473;  -14.890;  624.460
1066.611;   17.017;  -12.870;  598.800
1067.157;   18.612;  -12.950;  641.860
1067.703;   18.088;  -13.540;  668.480
1068.249;   17.857;  -13.540;  605.220
1068.794;   17.265;  -12.600;  626.880
1069.340;   16.777;  -10.620;  578.960
1069.886;   17.132;  -12.830;  590.700
1070.432;   15.944;  -14.870;  541.720
1070.977;   16.455;  -11.980;  601.080
1071.523;   16.294;   -8.200;  573.060
1072.068;   16.765;  -12.330;  582.000
1072.614;   16.270;  -16.370;  527.760
1073.160;   17.272;  -11.100;  687.040
1073.705;   16.020;  -10.480;  572.520
1074.250;   15.568;  -14.520;  559.900
1074.796;   16.034;  -11.460;  655.160
1075.341;   16.201;  -11.950;  664.100
1075.886;   16.058;  -11.460;  594.240
1076.431;   15.593;  -13.770;  649.880
1076.976;   15.182;  -12.680;  639.220
1077.521;   14.231;  -13.170;  583.080
1078.067;   14.727;  -10.860;  579.400
1078.612;   15.622;  -13.920;  661.620
1079.156;   14.771;  -13.880;  601.540
1079.701;   15.072;  -13.120;  693.260
1080.246;   15.613;   -9.940;  696.300
1080.791;   15.192;  -14.740;  625.020
1081.336;   14.600;  -13.750;  659.320
1081.880;   14.708;  -13.400;  649.680
1082.425;   14.524;  -12.220;  573.480
1082.970;   15.199;  -11.610;  717.040
1083.514;   13.789;  -13.580;  597.000
1084.059;   13.024;  -12.810;  586.720
1084.603;   13.114;  -12.320;  565.840
1085.147;   14.619;  -13.190;  645.220
1085.692;   14.206;  -12.480;  716.800
1086.236;   12.267;  -13.020;  503.140
1086.780;   15.079;   -9.190;  751.440
1087.325;   14.108;  -12.480;  654.620
1087.869;   13.093;  -12.450;  610.700
1088.413;   13.484;  -12.240;  705.040
1088.957;   12.448;   -9.020;  543.400
1089.501;   14.474;  -10.320;  766.640
1090.045;   12.179;  -12.720;  726.480
1090.589;   11.191;  -13.690;  569.920
1091.133;   12.185;  -10.020;  673.340
1091.676;   13.178;  -12.330;  591.940
1092.220;   11.642;  -14.970;  600.920
1092.764;   12.848;  -12.430;  706.960
1093.307;   12.835;   -9.800;  673.780
1093.851;   11.002;  -14.970;  556.540
1094.395;   11.905;  -15.310;  683.140
1094.938;   11.220;  -10.370;  632.520
1095.482;   11.112;  -11.050;  559.800
1096.025;   11.925;  -11.840;  710.880
1096.568;   12.286;  -12.840;  779.280
1097.112;    9.355;  -14.700;  508.180
1097.655;   11.831;   -8.720;  603.000
1098.198;   10.336;  -13.610;  600.180
1098.741;    9.381;  -13.350;  612.860
1099.285;   10.283;  -11.230;  657.300
1099.828;    9.277;  -11.840;  439.400
1100.371;   10.830;  -10.840;  608.160
1100.914;    9.879;  -14.190;  682.660
1101.457;    9.746;  -11.240;  679.900
1101.999;    9.876;  -11.270;  584.680
1102.542;   10.868;  -11.480;  641.440
1103.085;    9.402;  -11.750;  658.500
1103.628;   10.244;  -11.400;  762.060
1104.170;    9.998;  -10.490;  588.280
1104.713;   10.116;  -10.600;  646.700
1105.256;    8.714;  -14.360;  557.440
1105.798;    7.565;  -13.210;  499.980
1106.341;   10.194;  -10.270;  728.900
1106.883;    9.320;  -12.200;  521.340
1107.425;    7.937;  -13.110;  668.180
1107.968;    8.377;  -12.840;  612.380
1108.510;    9.491;   -6.480;  684.960
1109.052;    7.560;  -13.940;  612.620
1109.594;    7.251;  -13.690;  554.440
1110.136;    8.231;  -11.880;  643.220
1110.679;    7.731;   -9.500;  633.080
1111.221;    8.995;  -14.160;  604.460
1111.763;    7.540;  -13.980;  559.220
1112.304;    6.244;  -13.880;  547.140
1112.846;    8.243;  -12.210;  666.240
1113.388;   10.798;  -11.390;  942.180
1113.930;    7.501;  -14.540;  694.200
1114.472;    7.602;  -12.640;  606.540
1115.013;    6.359;  -11.620;  551.280
1115.555;    6.665;  -13.640;  587.100
1116.097;    6.117;  -15.380;  579.480
1116.638;    6.805;  -12.640;  684.600
1117.180;    7.291;   -9.850;  667.740
1117.721;    7.124;  -13.690;  568.580
1118.262;    7.203;  -12.680;  677.960
1118.804;    6.697;  -12.530;  637.340
1119.345;    6.949;  -11.690;  578.400
1119.886;    7.376;  -13.380;  704.040
1120.427;    5.368;  -14.070;  589.020
1120.969;    5.244;  -13.500;  597.920
1121.510;    4.985;  -11.480;  563.060
1122.051;    7.125;  -12.830;  723.580
1122.592;    5.166;  -14.290;  655.420
1123.133;    4.615;  -12.400;  547.940
1123.673;    6.866;  -10.130;  706.480
1124.214;    6.550;  -12.930;  612.460
1124.755;    6.671;  -14.380;  639.460
1125.296;    5.173;  -14.000;  627.320
1125.836;    6.056;  -10.070;  691.500
1126.377;    5.384;  -12.640;  599.660
1126.918;    5.592;  -12.960;  614.980
1127.458;    4.741;  -13.350;  622.220
1127.999;    5.508;  -10.750;  656.980
1128.539;    6.523;  -12.350;  694.240
1129.079;    4.665;  -14.860;  632.720
1129.620;    3.554;  -13.840;  558.100
1130.160;    4.441;  -12.330;  539.480
1130.700;    5.211;  -14.530;  640.840
1131.240;    4.928;  -12.530;  643.700
1131.781;    3.632;  -14.450;  619.680
1132.321;    4.686;   -9.790;  599.120
1132.861;    3.780;  -14.860;  564.200
1133.401;    2.728;  -14.290;  593.940
1133.941;    4.136;  -11.750;  626.280
1134.481;    4.021;   -9.920;  597.580
1135.020;    3.405;  -12.290;  609.160
1135.560;    3.630;  -11.650;  674.940
1136.100;    2.781;  -16.270;  501.160
1136.640;    2.819;  -10.890;  510.480
1137.179;    3.496;  -14.180;  537.960
1137.719;    2.975;  -16.250;  605.400
1138.258;    3.402;  -14.230;  587.360
1138.798;    3.642;   -9.090;  663.780
1139.337;    2.672;  -15.130;  482.840
1139.877;    3.079;  -13.680;  642.360
1140.416;    4.398;  -11.320;  878.060
1140.955;    2.167;  -10.860;  535.380
1141.494;    3.679;  -12.920;  669.280
1142.034;    2.161;  -13.930;  583.520
1142.573;    3.469;  -11.440;  646.280
1143.112;    2.401;  -12.000;  553.480
1143.651;    2.696;  -13.670;  536.480
1144.190;    2.982;  -12.730;  691.640
1144.729;    2.135;  -14.560;  607.420
1145.267;    2.995;  -11.830;  584.900
1145.806;    3.401;  -12.230;  637.040
1146.345;    2.232;  -14.130;  635.020
1146.884;    1.358;  -11.590;  622.500
1147.422;    1.515;  -12.550;  533.060
1147.961;    3.853;  -11.180;  708.460
1148.500;    2.439;  -11.510;  669.720
1149.038;    2.851;  -11.640;  632.500
1149.577;    2.441;  -10.130;  698.640
1150.115;    0.448;  -13.970;  452.280
1150.653;    1.497;  -14.520;  607.340
1151.192;    1.430;  -12.810;  552.920
1151.730;    1.900;   -9.100;  652.560
1152.268;    1.083;  -12.220;  589.520
1152.806;    1.248;  -14.140;  571.180
1153.344;   -1.027;  -12.350;  577.640
1153.882;    2.026;   -8.980;  600.060
1154.421;    0.771;  -15.190;  470.620
1154.958;    0.277;  -15.210;  595.240
1155.496;    1.610;  -12.850;  645.280
1156.034;    1.234;   -9.940;  721.880
1156.572;    2.495;  -13.570;  667.060
1157.110;   -0.332;  -14.590;  473.940
1157.647;    1.082;  -13.030;  676.960
1158.185;    0.562;  -12.140;  564.320
1158.723;    0.078;  -14.390;  509.200
1159.260;    0.025;  -14.090;  701.700
1159.798;    0.306;  -11.920;  658.160
1160.335;    0.366;  -11.110;  631.820

