
Integration time [ms]:   3.276
Averaging Nr. [scans]: 1000
Smoothing Nr. [pixels]: 0
Data measured with spectrometer [name]: 7414430SP
Wave   ;Sample   ;Dark     ;Reference
[nm]   ;[counts] ;[counts] ;[counts] 

288.544;  150.571;    7.793;  793.890
289.143;  154.471;    7.462;  681.602
289.742;  153.913;    8.602;  828.814
290.341;  140.750;    1.321;  789.841
290.940;  129.860;   -0.709;  730.702
291.538;  130.569;    0.881;  881.108
292.137;  130.095;    0.122;  792.581
292.736;  134.919;   -1.929;  975.101
293.335;  131.466;   -8.229;  735.086
293.934;  131.660;   -5.279;  781.677
294.532;  129.370;   -1.369; 1031.958
295.131;  116.146;   -7.641;  834.394
295.730;  116.708;   -8.420;  809.588
296.328;  114.616;   -5.611;  783.442
296.927;  114.230;   -5.781;  779.652
297.525;  116.830;   -6.361;  781.236
298.124;  108.057;  -11.382;  654.009
298.722;  110.676;   -7.641;  761.933
299.321;  108.500;   -6.811;  708.597
299.919;  106.990;   -6.991;  751.918
300.518;  104.163;  -10.362;  689.338
301.116;  105.011;   -9.581;  691.381
301.715;  105.625;   -4.891;  730.222
302.313;  104.582;   -8.801;  704.943
302.911;  100.461;   -8.522;  733.830
303.509;  105.640;   -6.171;  925.627
304.108;  102.761;   -7.311;  760.383
304.706;  102.045;   -8.321;  801.664
305.304;   96.668;  -10.222;  796.707
305.902;  101.686;   -6.021;  784.484
306.500;   97.139;   -4.971;  728.200
307.098;   96.236;   -7.061;  746.560
307.696;   94.295;   -8.801;  780.432
308.294;   94.670;   -6.411;  731.359
308.892;   95.996;   -2.901;  759.769
309.490;   93.194;   -5.041;  712.161
310.088;   91.144;   -5.002;  788.444
310.686;   94.208;   -2.041;  821.749
311.284;   90.433;   -2.351;  766.040
311.882;   89.038;   -4.422;  731.225
312.480;   86.253;   -4.192;  697.167
313.078;   87.144;   -1.172;  808.331
313.675;   86.780;   -2.601;  691.600
314.273;   83.491;   -1.312;  797.837
314.871;   82.415;   -3.942;  589.829
315.468;   81.174;   -2.802;  652.090
316.066;   82.661;   -0.701;  694.427
316.664;   76.658;   -4.362;  656.351
317.261;   80.337;   -2.872;  910.128
317.859;   74.915;   -2.022;  768.735
318.456;   75.133;   -0.531;  830.096
319.054;   71.532;   -3.912;  787.828
319.651;   71.689;   -4.752;  759.928
320.249;   69.739;   -2.602;  810.188
320.846;   67.322;   -0.821;  714.286
321.443;   65.294;   -4.642;  832.135
322.041;   62.823;   -5.002;  812.315
322.638;   59.671;   -3.982;  701.456
323.235;   60.163;   -3.411;  665.683
323.833;   58.768;   -7.361;  740.354
324.430;   53.392;   -8.611;  615.900
325.027;   53.856;   -4.061;  876.855
325.624;   53.634;   -4.031;  644.532
326.221;   51.901;   -7.481;  689.717
326.818;   51.594;   -5.281;  818.332
327.415;   54.230;   -7.460;  748.828
328.012;   53.555;   -5.510;  690.585
328.609;   52.643;   -7.880;  731.389
329.206;   50.649;   -8.331;  778.621
329.803;   49.726;   -5.121;  737.841
330.400;   52.593;   -4.510;  704.260
330.997;   54.436;   -6.441;  817.147
331.594;   53.760;   -8.831;  788.185
332.191;   58.658;   -7.621;  728.722
332.787;   60.625;   -4.591;  844.463
333.384;   59.823;   -7.412;  763.093
333.981;   57.931;   -8.293;  815.687
334.578;   61.289;   -7.052;  708.378
335.174;   63.010;   -3.102;  731.469
335.771;   63.219;   -5.943;  836.456
336.367;   59.855;   -7.393;  710.631
336.964;   64.087;   -4.063;  793.266
337.561;   62.504;   -3.813;  731.112
338.157;   57.623;   -4.654;  911.916
338.754;   56.109;   -7.934;  796.589
339.350;   53.412;   -4.414;  722.493
339.946;   55.490;   -4.664;  773.135
340.543;   47.768;   -6.375;  846.136
341.139;   42.354;   -9.815;  720.836
341.735;   40.612;   -4.526;  772.593
342.332;   37.919;   -4.895;  691.472
342.928;   39.268;   -4.295;  795.394
343.524;   33.769;   -5.476;  761.684
344.120;   29.342;   -5.856;  738.562
344.716;   31.994;   -2.155;  723.717
345.313;   30.235;   -6.275;  795.342
345.909;   25.738;   -8.815;  627.336
346.505;   26.863;   -5.305;  740.247
347.101;   27.933;   -2.674;  827.864
347.697;   28.202;   -4.344;  785.398
348.293;   22.912;   -9.975;  627.244
348.889;   22.556;   -5.774;  745.914
349.485;   22.008;   -5.004;  688.205
350.081;   23.330;   -4.704;  772.592
350.676;   18.172;   -6.635;  691.606
351.272;   23.153;   -4.504;  809.530
351.868;   22.056;   -3.914;  780.497
352.464;   19.546;   -9.044;  723.932
353.059;   15.630;   -8.314;  646.017
353.655;   18.465;   -7.024;  777.063
354.251;   20.019;   -5.343;  759.845
354.846;   14.249;   -8.604;  740.646
355.442;   12.176;   -6.945;  753.071
356.038;   14.383;   -7.564;  751.708
356.633;   15.045;   -5.814;  728.594
357.229;   12.694;   -7.364;  724.757
357.824;   11.164;   -8.024;  703.600
358.420;   10.113;   -9.384;  679.726
359.015;    9.806;   -5.104;  695.357
359.610;   10.898;   -6.854;  763.920
360.206;    4.984;  -10.185;  603.240
360.801;    8.372;   -7.054;  646.503
361.396;   10.444;   -5.034;  725.975
361.992;    5.775;   -8.284;  668.220
362.587;    2.743;   -8.625;  670.160
363.182;    4.990;   -7.674;  689.631
363.777;    5.849;   -5.164;  738.242
364.372;    5.774;   -8.604;  737.314
364.967;    1.938;   -9.055;  680.744
365.563;    5.350;   -6.114;  815.567
366.158;    2.212;   -5.814;  685.161
366.753;    3.854;   -7.854;  649.263
367.348;    2.552;   -7.804;  746.056
367.942;    1.695;   -7.954;  697.298
368.537;    1.002;   -4.984;  754.245
369.132;    1.838;   -8.564;  703.428
369.727;   -2.361;   -8.855;  638.079
370.322;   -1.889;   -6.245;  580.186
370.917;   -2.339;   -6.425;  710.646
371.511;    0.603;   -6.294;  861.834
372.106;   -2.194;   -7.685;  776.964
372.701;   -6.226;   -7.335;  585.988
373.296;   -0.453;   -4.564;  863.135
373.890;   -5.139;  -10.235;  647.840
374.485;   -6.807;   -7.885;  691.199
375.079;   -3.298;   -7.324;  738.685
375.674;   -2.210;   -3.494;  812.970
376.268;   -6.770;   -8.525;  691.759
376.863;  -11.472;  -10.086;  580.327
377.457;   -5.743;   -7.025;  662.490
378.052;   -7.586;   -3.585;  764.884
378.646;   -8.444;   -7.595;  741.167
379.240;   -8.486;   -8.335;  721.176
379.835;   -8.017;   -5.785;  636.978
380.429;   -9.962;   -4.335;  562.557
381.023;   -9.754;   -6.805;  779.205
381.617;  -11.653;   -9.195;  680.106
382.212;   -8.659;   -6.905;  685.303
382.806;   -7.857;   -3.745;  760.690
383.400;  -12.010;   -7.745;  672.281
383.994;  -12.355;   -9.765;  664.870
384.588;   -9.614;   -6.564;  697.701
385.182;   -8.762;   -5.344;  726.624
385.776;   -9.674;   -8.514;  706.875
386.370;  -12.562;   -9.555;  681.968
386.964;  -11.175;   -8.715;  684.155
387.558;  -10.246;   -6.174;  598.360
388.152;  -12.795;   -8.725;  681.959
388.745;  -11.731;   -7.965;  814.707
389.339;   -9.442;   -5.924;  747.642
389.933;   -9.201;   -5.524;  695.370
390.527;  -10.397;   -7.114;  859.029
391.120;  -16.507;  -10.725;  595.318
391.714;  -13.006;   -8.035;  711.633
392.308;  -10.366;   -3.574;  780.253
392.901;  -13.826;   -7.245;  642.460
393.495;  -15.598;   -9.285;  595.414
394.089;  -13.386;   -5.895;  760.452
394.682;  -14.004;   -4.295;  697.188
395.275;  -14.746;   -9.875;  719.927
395.869;  -15.551;   -8.485;  667.314
396.462;  -14.656;   -7.455;  616.609
397.056;  -10.481;   -5.424;  776.621
397.649;  -15.343;   -6.605;  731.575
398.242;  -11.776;   -8.224;  712.645
398.836;  -11.591;   -7.474;  766.408
399.429;  -13.106;   -7.094;  631.041
400.022;  -17.195;   -9.475;  665.902
400.615;  -14.611;   -7.145;  805.609
401.208;  -12.490;   -7.174;  691.451
401.802;  -15.050;   -5.515;  699.329
402.395;  -15.209;   -9.875;  683.502
402.988;  -15.868;   -8.845;  696.627
403.581;  -13.041;   -8.874;  646.878
404.174;  -11.113;   -5.324;  686.568
404.767;  -13.672;   -9.575;  638.583
405.360;  -16.084;  -10.965;  621.445
405.953;  -11.089;   -8.764;  759.034
406.545;  -11.154;   -7.514;  725.342
407.138;  -15.277;  -10.025;  618.350
407.731;  -12.496;  -10.034;  613.303
408.324;   -9.642;   -9.374;  660.554
408.917;  -10.435;   -6.534;  681.864
409.509;  -11.808;   -8.004;  740.396
410.102;  -14.304;   -9.875;  643.948
410.695;   -8.370;   -8.604;  665.758
411.287;   -9.151;   -6.794;  599.821
411.880;  -10.773;   -9.334;  585.421
412.472;  -13.278;  -10.254;  613.092
413.065;  -10.615;   -6.714;  629.408
413.657;   -8.967;   -7.234;  576.678
414.250;   -8.314;  -10.544;  646.681
414.842;  -10.110;   -9.744;  676.353
415.434;   -7.879;   -6.994;  570.463
416.027;   -4.180;   -5.893;  652.196
416.619;   -5.985;   -7.264;  713.400
417.211;   -6.303;  -10.374;  599.352
417.804;   -3.268;   -7.993;  628.499
418.396;   -7.678;   -7.234;  607.643
418.988;   -4.968;   -9.443;  659.238
419.580;   -7.729;  -10.724;  568.276
420.172;   -6.099;  -10.323;  536.196
420.764;   -1.572;   -8.793;  672.482
421.356;   -2.858;  -11.143;  636.898
421.948;   -3.717;   -8.293;  677.661
422.540;    1.338;   -7.893;  680.027
423.132;    0.159;   -7.082;  600.641
423.724;   -2.324;   -8.653;  561.267
424.316;   -0.527;  -10.213;  621.345
424.908;    2.865;   -9.762;  591.517
425.500;    2.989;   -5.572;  647.978
426.092;    3.265;   -8.422;  648.268
426.683;    2.726;   -9.283;  684.836
427.275;    5.882;   -7.852;  641.471
427.867;    6.629;   -5.272;  668.948
428.458;    8.044;   -7.682;  732.344
429.050;    6.888;  -10.612;  680.749
429.642;    8.398;   -9.882;  743.124
430.233;    8.786;   -6.962;  569.356
430.825;   10.561;   -6.842;  724.809
431.416;    7.620;   -9.672;  698.241
432.008;   11.221;   -6.552;  651.723
432.599;   11.632;   -6.891;  656.073
433.190;    9.560;  -10.912;  637.670
433.782;    8.200;  -11.172;  590.395
434.373;   15.662;   -6.061;  884.765
434.964;   13.571;   -8.251;  602.920
435.556;   11.912;   -9.722;  634.537
436.147;   14.668;   -9.082;  758.490
436.738;   14.540;   -8.041;  701.099
437.329;   19.581;   -7.341;  721.723
437.920;   13.198;   -8.162;  666.688
438.511;   13.238;  -11.802;  564.526
439.103;   19.216;  -10.191;  623.998
439.694;   21.880;   -7.601;  681.583
440.285;   22.467;   -8.541;  764.432
440.876;   20.934;   -9.751;  845.738
441.466;   19.754;   -9.401;  575.162
442.057;   24.448;   -7.760;  665.814
442.648;   24.036;   -9.971;  746.255
443.239;   22.368;  -11.001;  620.477
443.830;   27.077;   -7.990;  704.958
444.421;   27.454;   -7.910;  655.474
445.011;   24.951;   -8.131;  693.619
445.602;   24.698;   -7.111;  743.126
446.193;   26.913;  -10.920;  488.117
446.783;   31.396;   -6.500;  640.397
447.374;   26.563;   -8.671;  692.759
447.964;   27.672;  -10.781;  713.770
448.555;   36.467;   -9.650;  822.742
449.145;   31.597;   -8.660;  662.853
449.736;   33.003;   -8.990;  803.179
450.326;   33.677;   -9.500;  713.626
450.917;   37.087;   -8.680;  675.324
451.507;   36.127;   -7.520;  600.661
452.097;   38.272;   -8.590;  746.267
452.688;   39.193;  -11.340;  742.160
453.278;   38.732;  -10.100;  566.840
453.868;   42.435;   -6.019;  793.550
454.458;   40.968;   -9.440;  651.141
455.048;   41.480;  -10.560;  711.783
455.639;   43.022;  -11.799;  567.096
456.229;   45.881;   -6.899;  710.694
456.819;   48.329;   -7.389;  751.158
457.409;   48.424;  -11.119;  773.993
457.999;   51.776;   -9.289;  737.505
458.589;   50.845;   -6.139;  686.606
459.179;   51.501;   -8.729;  717.658
459.769;   50.523;   -9.789;  627.099
460.358;   54.306;  -10.259;  797.262
460.948;   53.931;   -7.299;  689.503
461.538;   55.700;  -10.289;  660.677
462.128;   53.520;  -11.269;  664.934
462.717;   60.119;   -9.368;  710.326
463.307;   62.552;   -7.908;  705.846
463.897;   58.889;   -9.599;  656.942
464.486;   58.918;   -9.769;  837.128
465.076;   63.426;   -8.048;  733.776
465.666;   65.929;   -9.358;  652.900
466.255;   64.175;   -7.919;  785.651
466.845;   63.507;  -11.689;  666.749
467.434;   65.908;   -7.818;  725.873
468.023;   67.352;   -7.678;  658.357
468.613;   64.688;  -10.939;  713.946
469.202;   68.661;  -10.118;  646.507
469.791;   73.410;   -9.108;  737.811
470.381;   74.399;   -6.058;  742.813
470.970;   74.422;  -10.428;  711.099
471.559;   74.801;  -10.268;  733.291
472.148;   78.100;   -8.448;  675.737
472.738;   79.445;   -6.917;  765.466
473.327;   79.137;  -11.978;  637.529
473.916;   79.107;  -11.888;  737.446
474.505;   83.057;   -9.437;  751.703
475.094;   85.776;   -6.747;  806.570
475.683;   85.827;   -9.367;  797.699
476.272;   87.149;  -12.637;  730.632
476.861;   89.637;  -10.027;  706.754
477.449;   95.452;   -8.716;  728.487
478.038;   90.828;   -9.577;  692.513
478.627;   91.339;   -9.718;  714.852
479.216;   98.554;   -8.947;  769.441
479.805;  100.185;   -6.256;  783.375
480.393;  101.407;   -7.937; 1008.945
480.982;  100.180;   -7.717;  874.501
481.571;  106.431;   -9.266;  858.333
482.159;  107.015;   -7.636;  705.386
482.748;  107.003;   -9.667;  821.385
483.336;  111.219;  -10.376;  858.209
483.925;  112.260;   -7.147;  774.373
484.513;  117.991;   -7.996;  758.962
485.102;  115.461;  -10.027;  810.965
485.690;  123.911;  -10.446; 1011.050
486.278;  126.341;   -8.446;  979.329
486.867;  126.304;   -6.356;  809.662
487.455;  128.130;   -9.136;  898.229
488.043;  130.233;  -10.646;  748.361
488.631;  138.961;   -7.456; 1005.079
489.220;  141.626;   -6.636;  908.626
489.808;  142.468;  -11.036;  741.415
490.396;  151.116;  -10.246;  914.645
490.984;  156.265;   -8.556;  830.161
491.572;  165.594;   -5.886;  940.315
492.160;  172.187;   -9.486;  919.081
492.748;  183.379;  -10.976;  884.341
493.336;  206.331;   -8.776; 1019.693
493.924;  231.707;   -5.465;  958.077
494.512;  258.667;   -9.986; 1066.638
495.100;  297.457;  -10.636; 1103.280
495.687;  352.253;  -10.885; 1206.373
496.275;  414.363;   -8.126; 1150.796
496.863;  483.401;  -10.586; 1281.171
497.451;  585.292;  -11.926; 1386.805
498.038;  714.191;  -10.885; 1556.729
498.626;  818.761;   -6.315; 1741.407
499.214;  958.849;   -7.326; 2016.609
499.801; 1161.066;  -11.906; 2220.633
500.389; 1402.876;  -10.466; 2312.494
500.976; 1717.684;   -5.236; 2744.849
501.564; 2145.997;   -8.936; 3148.565
502.151; 2524.206;  -13.176; 3515.999
502.738; 2978.882;  -10.646; 3971.274
503.326; 3350.162;   -9.525; 4403.796
503.913; 3726.843;  -10.856; 5161.749
504.500; 4076.525;  -11.586; 5986.420
505.088; 4478.545;  -10.336; 6381.201
505.675; 5009.468;   -6.355; 6925.547
506.262; 5726.741;   -9.046; 7619.060
506.849; 6412.000;  -10.416; 8733.969
507.436; 6870.740;  -10.305; 9790.121
508.023; 7453.551;   -5.496; 9985.472
508.610; 7706.479;   -7.856;10434.618
509.197; 8333.704;  -10.097;11198.435
509.784; 9711.202;  -10.886;12391.194
510.371;10699.935;   -9.315;13603.713
510.958;11383.477;   -9.936;14426.586
511.545;12153.646;   -9.326;15243.775
512.132;13103.374;  -10.075;15945.876
512.719;13772.126;   -7.796;16340.369
513.305;14653.295;  -10.606;18011.766
513.892;15383.803;  -11.486;19754.971
514.479;16709.814;   -9.126;20967.805
515.066;18051.795;   -6.026;22299.793
515.652;19252.230;   -8.466;22908.660
516.239;20650.498;  -10.886;23798.875
516.825;21819.434;  -11.496;25567.275
517.412;22963.500;   -5.796;28154.959
517.998;23492.686;  -10.506;28344.111
518.585;23389.797;  -10.076;27134.219
519.171;23900.600;   -8.315;27268.576
519.758;25324.166;   -8.596;28964.129
520.344;26964.268;   -8.466;30664.494
520.930;26969.672;  -11.006;32550.605
521.516;28693.078;  -10.495;35422.895
522.103;31104.213;   -5.526;38280.004
522.689;31790.775;   -8.746;37835.117
523.275;31031.459;  -11.376;37288.613
523.861;31762.783;  -11.156;37281.395
524.447;33001.699;   -8.135;37846.949
525.033;32768.434;   -7.896;38321.949
525.619;32870.789;  -12.476;38579.285
526.205;34516.293;   -9.516;40622.875
526.791;36607.133;   -6.926;42258.836
527.377;36445.555;   -8.346;42966.902
527.963;37507.109;   -8.717;42018.949
528.549;34813.703;  -11.016;42476.828
529.135;31463.563;   -8.536;41854.852
529.721;29308.746;   -9.666;41237.711
530.306;30191.168;  -10.066;41259.445
530.892;33050.176;  -11.356;41506.047
531.478;36260.113;   -6.596;43559.613
532.063;39666.535;   -8.836;47695.563
532.649;39783.926;  -10.047;50808.324
533.235;40688.660;   -9.746;51787.500
533.820;41382.406;   -6.566;52145.035
534.406;42265.188;  -10.817;51133.488
534.991;41429.617;   -9.416;49996.805
535.576;39196.910;   -9.036;48882.852
536.162;37834.422;   -6.156;46942.285
536.747;35746.918;  -11.607;45711.746
537.333;35771.441;  -11.787;48510.180
537.918;37671.230;  -12.437;50439.891
538.503;40923.262;   -7.196;50863.711
539.088;43554.195;  -10.556;50906.922
539.673;46451.164;   -8.767;52621.965
540.259;47018.531;  -10.026;52368.094
540.844;44261.773;   -7.416;50879.109
541.429;45322.621;   -9.467;52077.777
542.014;48321.793;   -9.527;52716.695
542.599;47545.746;   -9.946;52363.281
543.184;45264.543;   -7.927;53187.137
543.769;46920.395;   -9.297;54697.605
544.354;45994.148;  -10.127;53913.914
544.938;44681.453;   -9.267;49680.164
545.523;46520.379;   -6.506;47386.277
546.108;48883.656;   -9.787;49151.949
546.693;51093.617;  -11.587;51384.637
547.278;50895.465;  -10.986;51853.254
547.862;47754.215;   -8.206;51173.750
548.447;43145.055;  -10.067;51691.395
549.031;42749.941;   -9.637;52456.703
549.616;47755.715;   -9.926;52714.516
550.201;46582.773;   -6.347;52414.598
550.785;47758.637;   -7.917;52355.059
551.370;47059.832;  -10.867;54589.453
551.954;47182.500;   -9.047;58267.348
552.538;47939.250;   -7.827;59062.176
553.123;46300.797;  -10.287;58115.285
553.707;44316.309;  -12.178;56556.285
554.291;45395.102;   -8.717;56201.668
554.876;47299.266;   -7.457;55335.762
555.460;47734.695;  -10.387;54155.703
556.044;48984.586;   -9.618;53721.484
556.628;47442.488;  -11.567;53731.016
557.212;45995.266;   -8.097;54312.531
557.796;44539.820;  -11.077;53797.773
558.380;44203.527;  -11.108;56145.984
558.964;44473.797;   -9.057;57277.930
559.548;45465.238;   -6.977;56459.641
560.132;44130.105;  -11.457;54434.543
560.716;43085.340;  -11.378;54800.617
561.300;44406.289;   -9.577;57606.945
561.884;45460.555;   -7.127;58972.445
562.467;44051.227;   -7.118;57327.570
563.051;43152.434;  -13.358;54962.434
563.635;43832.145;  -10.178;52594.473
564.219;44255.352;   -7.837;50610.410
564.802;45163.352;  -11.398;49551.180
565.386;45330.355;  -12.788;48370.953
565.969;44823.207;   -9.077;48178.871
566.553;44406.035;   -6.207;49957.305
567.136;44483.602;   -8.568;50369.594
567.720;40474.109;  -11.868;49492.004
568.303;38529.395;   -8.268;50616.352
568.887;38739.813;   -8.698;50727.148
569.470;38909.715;   -6.808;51698.379
570.053;37462.980;  -13.188;52122.078
570.637;35907.188;  -12.037;52536.438
571.220;35549.672;   -8.577;51186.098
571.803;35986.445;   -8.498;51032.762
572.386;38545.633;  -10.498;49609.887
572.969;40981.379;   -9.388;48285.926
573.552;38821.543;   -8.338;47624.285
574.135;37578.133;   -8.518;45498.641
574.718;35172.914;  -13.628;41970.434
575.301;33930.660;  -10.893;41447.137
575.884;32688.406;   -8.158;40923.836
576.467;34066.465;  -10.328;45267.723
577.050;36624.727;  -13.058;48175.543
577.633;38003.020;   -9.458;47729.328
578.216;36708.781;   -8.928;47579.793
578.799;35763.102;   -9.358;47820.996
579.381;34510.723;  -11.388;48115.551
579.964;33121.164;  -11.718;47333.766
580.547;34802.238;   -8.588;46668.969
581.129;35947.672;   -8.859;44466.141
581.712;36466.609;  -10.729;44164.922
582.294;37097.801;  -11.118;46477.855
582.877;36987.160;   -5.218;48244.254
583.459;34386.004;   -8.679;47437.895
584.042;32655.896;  -10.709;46943.219
584.624;33648.992;  -11.669;46792.227
585.206;33092.141;   -8.218;46557.250
585.789;33258.801;  -10.569;45793.773
586.371;35959.105;  -11.859;43836.391
586.953;36192.730;  -10.719;42972.492
587.536;37486.051;   -7.198;42487.211
588.118;37081.758;   -8.720;42086.414
588.700;33920.742;  -10.439;43389.930
589.282;33221.324;   -9.198;43646.039
589.864;34028.152;   -9.199;43438.109
590.446;34754.215;  -11.319;43151.926
591.028;34445.422;  -11.159;42781.867
591.610;33546.867;  -11.779;42839.098
592.192;31287.342;   -7.668;42820.402
592.774;29931.775;  -11.949;40724.277
593.356;28678.631;  -12.129;39874.789
593.937;27748.664;  -10.669;39980.648
594.519;29994.150;   -6.509;42069.633
595.101;32124.328;  -10.849;42976.031
595.683;32133.080;  -11.679;44084.441
596.264;33333.184;   -9.049;43478.797
596.846;32517.732;   -8.849;43803.672
597.427;32201.693;   -9.570;42986.934
598.009;33848.707;  -12.620;42832.219
598.591;34133.949;  -10.039;42580.086
599.172;33036.645;  -10.369;43061.805
599.753;33138.777;   -9.140;41691.469
600.335;34783.391;  -11.430;40692.520
600.916;33281.668;   -9.939;39982.422
601.498;30817.330;   -8.479;40318.617
602.079;29331.428;  -10.920;40670.609
602.660;29481.660;  -11.480;41450.898
603.241;30989.051;  -11.699;41137.738
603.823;29816.402;   -9.579;38868.797
604.404;29834.352;  -10.620;38182.785
604.985;31184.369;  -10.450;38078.047
605.566;30585.449;   -9.129;38056.633
606.147;30739.664;   -7.510;37020.418
606.728;32493.117;  -10.660;37883.359
607.309;31269.332;  -11.740;38748.273
607.890;30697.176;   -9.759;38850.230
608.471;30180.584;   -8.250;37457.918
609.051;29144.588;   -9.240;36066.457
609.632;28127.305;  -12.120;35991.074
610.213;29092.311;   -9.110;37402.641
610.794;29644.330;   -8.030;38383.363
611.374;29074.496;   -8.110;40562.387
611.955;29446.467;  -13.560;38533.727
612.536;30715.859;  -11.400;36951.789
613.116;30843.549;   -8.070;37197.891
613.697;31037.846;  -10.830;38411.125
614.277;29697.885;  -11.641;38673.938
614.858;30640.012;  -13.310;37075.863
615.438;29651.355;   -7.460;35092.906
616.019;26760.297;   -7.601;33666.301
616.599;27539.049;  -12.020;34189.023
617.179;29349.188;  -11.780;36952.047
617.760;30238.861;   -8.570;39582.574
618.340;31360.918;  -11.471;38943.977
618.920;32665.916;  -11.170;37594.156
619.500;32507.887;  -11.071;37866.938
620.080;31810.664;   -7.750;37869.043
620.660;33005.102;  -12.711;36868.617
621.241;34357.758;  -10.211;36352.309
621.821;34425.430;  -10.961;35459.520
622.401;33364.953;   -7.720;35207.414
622.980;32654.131;   -8.981;35980.422
623.560;31263.895;   -9.331;37351.328
624.140;30197.350;   -9.850;34388.582
624.720;24890.902;   -7.451;32368.764
625.300;21353.248;   -9.070;32638.629
625.880;24822.301;  -12.601;34599.035
626.459;28920.564;  -11.751;36831.738
627.039;32082.869;   -9.281;38299.098
627.619;32006.693;   -8.801;38289.574
628.198;30277.193;  -12.071;37220.695
628.778;29354.088;   -9.461;37632.563
629.357;30142.879;   -8.491;38003.012
629.937;30259.418;   -9.721;38402.039
630.516;29602.984;   -9.951;37868.801
631.096;29154.750;  -11.731;35760.410
631.675;32310.088;   -8.572;35225.219
632.254;37259.145;  -11.282;35130.289
632.834;36603.574;  -13.322;35794.570
633.413;34617.648;  -10.301;35788.922
633.992;31531.563;   -8.582;34532.863
634.571;32446.016;   -8.352;33590.113
635.151;35321.141;  -11.912;34943.863
635.730;33685.051;  -10.511;35352.523
636.309;30420.914;   -7.731;35366.605
636.888;28188.332;   -9.952;36165.637
637.467;29266.553;  -11.672;37515.902
638.046;30926.943;   -8.901;39288.695
638.625;34029.766;   -7.912;38279.699
639.204;33664.949;  -10.022;37741.598
639.782;32005.457;  -12.252;38364.551
640.361;28112.576;  -10.041;36740.621
640.940;25249.324;  -11.161;34950.082
641.519;25901.811;   -9.701;34137.398
642.097;29078.287;  -11.271;35654.258
642.676;31964.412;   -8.651;35637.957
643.255;32310.932;   -8.711;36567.074
643.833;31407.611;   -9.581;37809.434
644.412;31635.344;  -13.711;37337.293
644.990;30959.902;  -11.811;37018.531
645.569;31258.391;   -9.411;36518.469
646.147;29926.010;  -10.291;36186.430
646.726;29166.207;  -12.401;36267.688
647.304;30200.818;  -10.411;36647.625
647.882;32351.746;   -9.651;39286.742
648.461;34140.875;   -9.631;39157.703
649.039;32216.305;  -11.881;35412.883
649.617;31595.330;   -9.661;34744.918
650.195;31319.275;   -9.301;35403.098
650.773;29740.734;  -10.511;35053.797
651.352;27476.678;  -11.521;33756.816
651.930;25250.936;  -12.211;31868.773
652.508;23633.420;   -9.171;33121.551
653.086;27575.162;   -9.371;33564.793
653.663;30190.197;  -13.161;34054.668
654.241;29301.682;  -13.031;35693.309
654.819;31081.395;   -9.371;36422.906
655.397;31172.158;  -10.511;38213.484
655.975;31002.326;  -10.371;39507.625
656.553;30589.742;  -10.051;39498.223
657.130;28941.490;  -10.061;40395.480
657.708;28430.951;   -9.561;39242.020
658.286;28432.428;  -11.511;38920.020
658.863;29561.609;  -10.261;40202.898
659.441;32618.109;   -7.531;39677.938
660.018;31970.986;   -9.501;40413.355
660.596;30927.383;  -13.301;39931.414
661.173;33044.160;  -11.211;39604.531
661.750;33179.117;   -9.951;39700.070
662.328;32066.926;   -9.390;39292.809
662.905;31020.412;  -11.330;38235.648
663.482;26448.379;   -9.050;36212.305
664.060;24647.654;   -8.240;35944.945
664.637;27518.773;  -10.050;35170.785
665.214;29474.164;  -11.760;34197.523
665.791;30718.389;  -10.530;34549.520
666.368;29367.756;   -9.690;35118.578
666.945;30431.436;   -9.320;36019.418
667.522;32025.389;  -11.860;36048.438
668.099;31855.139;  -10.770;36243.914
668.676;30794.248;   -6.260;35958.875
669.253;29384.131;   -7.000;37384.730
669.830;30083.570;  -10.190;36779.629
670.407;29791.707;   -9.550;35231.289
670.984;29965.273;   -9.260;35544.270
671.560;30332.797;   -9.280;35466.867
672.137;29223.502;  -11.810;34280.863
672.714;30026.660;  -11.490;34632.863
673.290;30479.936;   -7.740;35135.422
673.867;30821.955;  -10.660;36114.480
674.443;30484.107;  -12.230;36152.859
675.020;28850.734;  -10.450;35327.238
675.596;30084.805;   -9.260;35795.176
676.173;30526.395;  -10.780;35430.355
676.749;30409.576;  -13.690;33549.516
677.326;30469.578;  -11.980;32210.012
677.902;30388.553;   -8.630;32068.871
678.478;29643.027;  -10.730;32583.891
679.054;29242.354;  -10.520;32088.928
679.631;29467.898;  -11.920;30978.848
680.207;30976.432;   -7.490;33160.887
680.783;32624.133;   -9.860;35570.363
681.359;31743.441;  -13.380;36125.184
681.935;31076.057;  -12.480;35240.922
682.511;30003.912;   -7.900;34429.961
683.087;30070.766;   -7.710;34463.680
683.663;29834.857;  -11.480;34648.898
684.239;28545.465;  -14.090;34546.457
684.815;28256.668;   -7.560;35586.375
685.390;28681.625;   -9.910;35821.895
685.966;29120.291;  -11.159;35085.871
686.542;31690.650;  -11.169;34198.230
687.118;33657.559;   -5.959;32847.707
687.693;33650.734;  -10.329;32794.027
688.269;33378.168;  -12.059;33072.367
688.844;31514.541;  -10.909;33141.664
689.420;29206.340;   -8.019;33965.742
689.995;26796.574;   -8.399;34655.523
690.571;25511.885;  -10.949;33576.742
691.146;26108.332;   -9.619;32657.219
691.722;25556.045;   -8.999;32526.979
692.297;25864.744;  -11.589;33014.617
692.872;27837.150;  -11.739;34012.254
693.448;27148.607;  -11.059;34237.434
694.023;26366.578;  -10.139;34142.672
694.598;28427.771;   -9.029;34132.031
695.173;28587.719;  -13.319;34205.250
695.748;27892.676;  -10.169;32882.488
696.323;27889.992;   -8.339;32864.906
696.898;28166.678;   -8.169;33170.004
697.473;27891.314;  -12.309;32432.984
698.048;27338.051;  -10.989;31649.303
698.623;27533.746;   -9.329;30778.141
699.198;29696.537;   -9.849;31140.119
699.773;30367.930;  -12.329;31764.299
700.348;28593.586;  -10.389;31780.816
700.922;28555.305;   -9.269;32046.375
701.497;29176.678;   -9.329;32603.574
702.072;29163.988;  -10.789;34799.871
702.646;27969.986;  -10.839;35793.172
703.221;26264.564;   -9.099;35201.590
703.795;28293.254;  -10.939;34764.527
704.370;28531.650;  -12.859;34307.367
704.944;29060.129;  -11.559;33509.887
705.519;30075.324;   -7.939;31388.584
706.093;31640.004;  -10.499;31340.104
706.668;31733.242;  -11.289;32630.281
707.242;30652.311;  -11.509;32728.779
707.816;29079.283;   -9.639;32947.238
708.390;27544.586;  -11.429;33277.855
708.965;28287.012;  -11.869;33834.336
709.539;28710.355;  -11.689;33709.273
710.113;29253.010;  -10.478;33044.313
710.687;28330.602;  -10.228;31953.992
711.261;26470.607;  -13.698;30505.949
711.835;26444.023;  -13.378;30262.369
712.409;27463.121;   -9.698;31254.447
712.983;29225.943;  -11.898;32754.986
713.557;29982.922;  -15.138;34018.824
714.131;29578.357;  -14.098;34579.625
714.704;28657.020;   -9.958;33890.262
715.278;26463.992;  -10.028;33531.102
715.852;25671.785;  -11.148;33601.660
716.425;26603.020;   -9.068;33515.117
716.999;27214.084;  -10.038;33185.555
717.573;28189.514;   -9.798;33905.996
718.146;29248.766;  -12.378;35199.293
718.720;28982.967;  -11.918;35060.551
719.293;28387.016;   -8.088;34973.230
719.867;31281.203;  -10.888;36394.449
720.440;30762.775;  -11.938;36663.008
721.013;29003.793;  -12.818;35102.426
721.587;27767.271;  -10.298;33985.266
722.160;26992.963;  -10.048;33524.965
722.733;26024.754;  -12.108;32987.043
723.306;26388.898;  -10.818;33066.301
723.880;28644.297;   -8.908;33399.500
724.453;30079.521;   -9.878;33468.297
725.026;28974.820;  -11.188;33816.637
725.599;26729.959;  -11.678;32797.996
726.172;27667.588;   -9.618;33187.434
726.745;28855.361;   -8.258;35136.613
727.318;30084.326;  -12.978;35751.730
727.891;30012.104;  -12.148;35890.430
728.463;29399.635;   -8.968;34822.090
729.036;28495.119;  -10.188;32895.086
729.609;28956.436;  -11.788;31823.225
730.182;26031.516;  -11.788;31445.283
730.754;23639.246;  -10.268;32373.223
731.327;23697.744;   -9.998;33676.820
731.900;24168.791;  -12.228;33417.000
732.472;25677.895;  -13.848;31978.498
733.045;27490.369;   -8.698;30368.777
733.617;27603.443;  -10.607;30574.215
734.190;27024.080;  -11.507;31280.975
734.762;23930.553;  -13.647;31674.412
735.334;22408.557;   -9.767;31247.291
735.907;23214.967;   -9.897;29876.211
736.479;23151.025;  -11.637;29808.488
737.051;22735.668;   -9.567;30233.547
737.623;23731.477;   -8.187;31469.086
738.195;24844.008;  -11.187;31784.225
738.768;27000.627;  -12.337;32120.523
739.340;26776.059;  -12.227;32094.342
739.912;25319.604;  -11.057;31312.680
740.484;23909.115;  -10.207;31946.238
741.056;23025.229;  -10.047;32984.059
741.628;24931.361;  -13.627;33897.715
742.199;27167.258;   -7.177;33213.016
742.771;25476.676;  -10.797;31369.113
743.343;23115.137;  -11.997;31865.473
743.915;22145.846;  -12.867;32388.631
744.487;22304.465;   -7.617;31079.568
745.058;22428.330;   -9.557;30570.107
745.630;22845.826;   -9.877;29970.127
746.201;23341.266;  -14.177;29186.766
746.773;23401.566;   -9.237;28805.723
747.344;23270.727;   -9.847;29591.223
747.916;22195.719;  -11.657;31412.201
748.487;22701.189;  -10.587;32194.898
749.059;23918.871;   -8.707;32533.719
749.630;24581.203;  -10.537;32158.518
750.201;23710.881;  -11.687;30855.395
750.773;21975.402;  -11.647;28622.555
751.344;22046.752;   -7.147;28405.732
751.915;23261.795;   -9.757;28461.551
752.486;22811.969;  -12.427;27842.850
753.057;20533.633;  -12.227;27845.008
753.628;19480.219;  -10.417;27728.107
754.199;20756.248;  -11.767;27381.086
754.770;21746.266;  -11.187;25882.203
755.341;21690.396;  -10.507;25886.184
755.912;21553.264;   -9.387;26050.861
756.483;20934.787;  -10.647;26798.779
757.054;19118.395;  -11.837;27048.238
757.625;17914.834;  -12.716;26294.838
758.195;17802.139;   -9.666;26142.076
758.766;17566.688;   -8.656;26392.234
759.337;18412.051;  -12.856;26334.594
759.907;20259.111;  -13.366;27579.652
760.478;21086.676;   -8.576;28352.770
761.048;20304.650;  -10.526;27325.088
761.619;19477.627;  -11.116;26460.428
762.189;19620.930;  -12.136;26029.826
762.760;20901.123;   -9.456;26430.145
763.330;21838.908;   -7.136;26670.902
763.900;21073.650;  -11.786;26603.021
764.471;18406.666;  -11.546;25542.740
765.041;17188.197;   -8.096;24358.459
765.611;17312.994;   -8.876;23991.297
766.181;17762.791;  -12.196;24470.236
766.751;18718.828;  -11.636;24845.975
767.321;18381.949;  -10.156;24533.633
767.891;16354.510;  -11.766;24916.492
768.461;15893.182;  -14.936;24776.771
769.031;16477.875;  -12.356;24757.988
769.601;17968.748;   -7.526;24181.088
770.171;17695.486;  -10.766;23670.387
770.741;17075.416;  -13.176;22960.045
771.311;17400.896;  -10.616;22917.523
771.880;17644.035;   -9.576;23562.941
772.450;17310.920;  -10.336;24216.500
773.020;17483.287;  -13.516;24140.398
773.589;16916.400;  -13.466;24414.857
774.159;16288.185;   -8.686;23858.717
774.729;15842.772;   -9.476;22942.135
775.298;15260.594;  -13.666;22324.033
775.867;14874.337;  -11.716;21140.313
776.437;14893.282;   -9.906;20838.092
777.006;14618.780;  -12.166;20599.510
777.576;14557.251;  -12.356;20508.809
778.145;14766.391;  -11.646;20732.947
778.714;14602.646;   -8.226;21062.465
779.283;13819.615;   -9.556;20949.664
779.853;13411.954;  -14.116;20508.623
780.422;13902.795;  -11.506;20649.082
780.991;13487.649;   -9.556;21527.520
781.560;12351.821;   -9.095;22632.658
782.129;12193.801;  -12.135;23048.277
782.698;12210.816;  -10.865;23438.555
783.267;11803.354;   -9.335;23267.734
783.836;11816.921;  -11.045;22415.133
784.404;12916.791;  -13.865;20443.152
784.973;13434.947;  -13.095;19699.150
785.542;13347.720;  -11.575;19763.828
786.111;13196.349;   -9.705;20341.408
786.679;12618.986;  -12.105;20207.967
787.248;12360.323;  -12.455;19516.465
787.817;12185.397;  -11.535;18900.363
788.385;11771.563;   -9.765;17879.121
788.954;11163.791;  -14.005;17658.301
789.522;10651.711;  -11.955;17788.879
790.090;11223.910;  -10.135;18118.277
790.659;11564.408;  -10.975;18338.736
791.227;11067.416;  -13.375;18508.615
791.795;11567.041;  -12.375;17898.254
792.364;11884.283;  -10.725;17295.133
792.932;12122.782;   -9.715;16822.051
793.500;12312.987;  -12.675;17040.148
794.068;12598.543;  -13.495;17179.787
794.636;12699.671;  -10.885;16664.246
795.204;12201.374;  -11.045;16524.545
795.772;12289.758;  -13.175;17274.564
796.340;11802.813;  -12.445;17891.002
796.908;11640.158;   -9.735;17648.561
797.476;11503.254;   -9.815;17064.080
798.044;11032.449;  -13.985;16672.777
798.612;10202.999;  -13.115;17023.996
799.180; 9812.685;  -10.185;16561.615
799.747; 9742.724;   -9.055;15962.773
800.315; 9496.592;  -12.385;15296.992
800.883; 9120.735;  -15.035;14801.771
801.450; 9079.817;  -10.365;14534.430
802.018; 9137.325;   -9.855;14173.248
802.585; 9309.359;  -11.905;14029.547
803.153; 9407.057;  -11.585;13836.846
803.720; 9230.139;   -9.095;13567.324
804.287; 8760.187;   -9.135;13360.622
804.855; 8349.092;  -11.604;13681.981
805.422; 8228.248;  -11.794;13536.560
805.989; 8218.546;  -10.734;13355.958
806.556; 8425.410;  -10.444;13747.896
807.124; 8696.564;  -12.764;13987.376
807.691; 8659.955;  -12.964;14038.674
808.258; 8428.337;  -11.134;14120.152
808.825; 8047.335;   -9.854;13860.111
809.392; 8082.367;  -10.504;13268.790
809.959; 7620.068;  -13.054;12680.389
810.526; 7238.704;   -8.294;12427.308
811.093; 7318.314;   -8.394;12030.105
811.659; 7888.756;  -12.304;11653.664
812.226; 8325.357;  -13.944;11637.183
812.793; 7963.296;  -10.484;11611.521
813.360; 7315.275;  -10.144;11885.181
813.926; 7034.214;  -11.684;12770.539
814.493; 6837.313;  -13.644;12677.638
815.060; 6474.985;   -9.724;11974.336
815.626; 6520.052;   -9.854;11594.715
816.193; 6931.410;  -13.254;11579.474
816.759; 6960.674;  -13.204;11666.972
817.325; 7057.253;   -9.434;11325.530
817.892; 7434.494;  -10.134;11105.369
818.458; 7861.196;  -13.474;10843.928
819.024; 7423.486;  -11.854;10714.406
819.591; 7070.179;  -10.244;10469.165
820.157; 6862.324;  -10.704;10235.523
820.723; 6392.182;  -12.324;10847.563
821.289; 6087.749;   -9.444;11040.980
821.855; 5960.019;   -8.374;10357.100
822.421; 5867.381;  -10.234; 9978.918
822.987; 5824.907;  -13.294; 9754.177
823.553; 5552.799;  -10.884;10065.755
824.119; 5407.449;   -8.884;10036.294
824.685; 5473.002;   -6.784;10029.192
825.251; 5544.335;  -12.004;10199.230
825.816; 5517.195;  -11.474; 9820.189
826.382; 5320.395;   -9.174; 9297.248
826.948; 5570.336;   -9.214; 9381.347
827.513; 5936.296;  -10.774; 9450.726
828.079; 5712.437;  -11.924; 9472.444
828.645; 5156.490;  -10.543; 9292.643
829.210; 5119.823;  -10.533; 9065.341
829.776; 5104.773;  -10.753; 9132.620
830.341; 4975.570;  -10.173; 9092.878
830.906; 5171.733;  -10.743; 9078.557
831.472; 5483.323;  -11.113; 8534.535
832.037; 5160.682;  -10.603; 8677.874
832.602; 4592.771;  -13.323; 8628.692
833.167; 4353.208;  -10.823; 8879.031
833.733; 4293.689;  -10.113; 9189.790
834.298; 4411.027;  -13.583; 9052.608
834.863; 4451.623;  -12.703; 8895.087
835.428; 4437.151;  -10.523; 8824.266
835.993; 4328.061;   -6.963; 8845.385
836.558; 4205.875;  -10.763; 8888.563
837.123; 4363.850;   -9.903; 8966.582
837.688; 4590.886;   -9.913; 8617.860
838.253; 4799.318;  -10.283; 8590.699
838.817; 4993.347;  -12.963; 8443.797
839.382; 4895.346;  -14.243; 8799.356
839.947; 4574.516;  -10.733; 8810.595
840.511; 4259.131;   -9.383; 8796.394
841.076; 3892.575;  -12.563; 8347.231
841.641; 3973.671;  -12.953; 8224.330
842.205; 4071.038;   -7.043; 8223.349
842.770; 4210.253;   -8.163; 8622.107
843.334; 4403.401;  -12.503; 8410.386
843.898; 4369.981;  -11.693; 8337.465
844.463; 4395.371;  -10.203; 8506.283
845.027; 4159.293;   -9.533; 8280.962
845.591; 3980.385;  -13.443; 8231.141
846.156; 3933.955;  -13.143; 7969.179
846.720; 3801.587;   -9.433; 7768.278
847.284; 3669.069;  -11.033; 7630.957
847.848; 3535.731;  -10.403; 7472.395
848.412; 3432.509;  -11.553; 7437.394
848.976; 3471.540;   -8.393; 7674.592
849.540; 3425.854;   -8.713; 7836.011
850.104; 3570.739;  -12.463; 7913.669
850.668; 3920.198;  -12.973; 7694.508
851.232; 3992.560;  -10.793; 7756.887
851.796; 3820.879;  -10.662; 7926.545
852.359; 3527.327;  -13.082; 7827.844
852.923; 3381.362;  -12.192; 7641.163
853.487; 3207.285;  -11.912; 7342.501
854.050; 3151.077;  -10.892; 7042.820
854.614; 3275.257;  -13.992; 7151.338
855.177; 3390.649;  -11.732; 7105.077
855.741; 3428.575;   -8.962; 6989.675
856.304; 3331.522;   -9.442; 6596.634
856.868; 3283.339;  -14.192; 6356.272
857.431; 3394.262;  -12.702; 6468.571
857.995; 3528.614;   -9.942; 6373.210
858.558; 3535.448;   -9.112; 6324.448
859.121; 3259.515;  -12.932; 6408.327
859.684; 3143.651;  -13.442; 6347.886
860.247; 3242.161;  -10.632; 6321.264
860.810; 3216.311;  -11.272; 6301.903
861.374; 2954.671;   -9.832; 6607.881
861.937; 2708.687;  -11.762; 6408.200
862.500; 2716.760;   -9.722; 6572.639
863.062; 2907.159;  -10.512; 6387.297
863.625; 3076.719;  -11.232; 6190.836
864.188; 3238.000;  -14.112; 5807.254
864.751; 3298.884;  -11.302; 5682.413
865.314; 3181.962;  -10.112; 5547.492
865.876; 2983.858;  -12.182; 5500.150
866.439; 2985.092;  -10.722; 5415.909
867.002; 2926.841;   -9.252; 5501.567
867.564; 2707.643;   -9.572; 5413.946
868.127; 2469.747;  -13.142; 5160.325
868.689; 2360.339;  -12.902; 5133.183
869.252; 2253.456;   -9.732; 5252.382
869.814; 2158.179;   -9.432; 5297.141
870.377; 2183.861;  -11.552; 5390.919
870.939; 2265.407;   -9.052; 5599.898
871.501; 2325.236;  -10.982; 5248.336
872.063; 2320.514;  -12.292; 4854.235
872.626; 2286.219;  -14.912; 4817.074
873.188; 2324.786;  -13.112; 4987.732
873.750; 2292.632;  -13.442; 4868.651
874.312; 2198.864;   -9.402; 4779.330
874.874; 2106.549;  -11.062; 4866.348
875.436; 2013.955;  -13.931; 4718.887
875.998; 2003.419;   -9.561; 4660.005
876.560; 2027.321;  -11.321; 4462.964
877.122; 1975.663;  -12.221; 4145.042
877.683; 1898.777;  -12.191; 4056.481
878.245; 1834.692;  -12.101; 3950.740
878.807; 1886.170;   -8.971; 4058.958
879.369; 1910.524;  -12.071; 3954.677
879.930; 1805.427;  -14.621; 3941.495
880.492; 1738.715;  -10.311; 4067.014
881.053; 1692.258;  -10.901; 3859.633
881.615; 1580.907;  -14.411; 3776.071
882.176; 1520.283;  -13.761; 3734.750
882.738; 1548.109;   -9.181; 3678.489
883.299; 1600.214;  -11.791; 3405.407
883.860; 1619.026;  -13.121; 3351.106
884.422; 1485.202;  -11.211; 3394.044
884.983; 1165.488;  -10.091; 3166.443
885.544;  837.526;   -8.461; 3189.802
886.105;  664.089;  -12.361; 3160.360
886.666;  630.707;  -14.141; 3093.059
887.227;  648.284;  -11.361; 2941.957
887.788;  657.778;  -11.401; 2974.836
888.349;  660.193;  -13.791; 2721.214
888.910;  692.696;  -13.191; 2696.493
889.471;  727.016;   -9.881; 2560.172
890.032;  728.841;   -9.881; 2558.190
890.593;  725.170;  -10.371; 2567.669
891.153;  714.050;  -13.301; 2460.307
891.714;  677.217;  -11.431; 2372.046
892.275;  647.495;  -11.291; 2309.505
892.835;  615.157;  -11.471; 2382.543
893.396;  569.762;  -11.541; 2295.502
893.956;  521.656;  -11.181; 2162.420
894.517;  492.237;  -11.741; 2125.439
895.077;  492.602;  -11.671; 2086.978
895.638;  493.695;  -11.311; 2126.316
896.198;  468.866;   -9.831; 1838.275
896.758;  428.357;   -8.421; 1892.813
897.319;  402.286;  -12.351; 1792.232
897.879;  386.995;  -13.511; 1762.751
898.439;  363.256;  -12.001; 1661.149
898.999;  339.510;  -10.180; 1781.468
899.559;  332.832;  -12.030; 1703.347
900.119;  328.462;  -15.710; 1537.525
900.679;  324.818;   -8.900; 1638.384
901.239;  312.436;   -8.340; 1527.902
901.799;  302.537;  -13.910; 1456.441
902.359;  297.557;  -13.460; 1357.140
902.919;  290.593;  -11.490; 1331.118
903.479;  277.952;  -12.110; 1317.257
904.038;  259.984;  -11.720; 1262.595
904.598;  245.305;  -13.610; 1152.034
905.158;  240.775;  -11.040; 1240.893
905.717;  234.655;  -10.900; 1233.691
906.277;  223.272;  -15.080; 1217.330
906.836;  214.771;  -13.380; 1222.408
907.396;  205.686;  -10.780; 1193.047
907.955;  197.509;   -8.500; 1182.526
908.515;  189.543;  -12.760; 1099.364
909.074;  180.679;  -11.900; 1092.863
909.633;  174.873;   -8.950; 1069.121
910.192;  171.810;   -8.770; 1196.460
910.752;  167.674;  -12.390; 1029.960
911.311;  164.949;  -13.680; 1009.780
911.870;  163.428;  -12.370;  971.460
912.429;  165.327;  -10.900; 1094.080
912.988;  165.547;  -11.690; 1081.060
913.547;  160.680;  -13.240;  940.380
914.106;  155.422;  -11.990;  999.420
914.665;  151.866;   -9.990;  984.020
915.224;  152.550;  -12.880; 1035.760
915.782;  151.982;  -12.350;  922.560
916.341;  150.824;   -9.110; 1049.840
916.900;  147.279;   -9.270;  925.260
917.458;  146.339;  -13.240;  884.220
918.017;  146.040;  -13.550;  942.600
918.576;  144.806;  -12.320;  904.440
919.134;  142.781;  -11.490;  837.980
919.693;  140.154;  -13.670;  893.060
920.251;  140.170;  -15.470;  876.500
920.809;  137.717;  -11.290;  839.580
921.368;  138.387;  -10.210;  885.360
921.926;  136.691;  -12.140;  842.940
922.484;  135.300;  -13.080;  903.360
923.042;  135.624;  -11.720;  880.340
923.601;  138.562;   -7.480;  998.680
924.159;  136.822;  -11.570;  935.560
924.717;  134.309;  -13.840;  841.080
925.275;  133.200;  -10.640;  903.240
925.833;  132.994;  -11.540;  779.320
926.391;  134.871;  -12.960;  938.380
926.949;  132.587;  -14.130;  857.680
927.506;  132.598;  -11.750;  903.500
928.064;  133.024;  -10.250;  877.580
928.622;  131.606;  -13.030;  880.100
929.180;  131.693;  -13.400;  814.180
929.737;  133.133;  -10.700;  808.540
930.295;  136.290;  -10.070;  928.480
930.853;  137.991;  -11.960;  849.100
931.410;  138.998;  -13.120;  821.120
931.968;  138.456;  -10.770;  940.660
932.525;  137.742;  -10.680;  909.380
933.082;  139.128;  -13.130;  811.440
933.640;  140.145;  -13.210;  925.900
934.197;  136.445;  -11.060;  886.360
934.754;  138.497;   -9.580;  897.780
935.312;  141.943;  -14.000;  863.340
935.869;  144.869;  -10.710; 1012.980
936.426;  145.674;   -9.860;  872.800
936.983;  147.553;   -9.710;  889.020
937.540;  146.364;  -13.990;  838.280
938.097;  143.360;  -14.040;  940.120
938.654;  144.016;  -10.310;  898.860
939.211;  146.829;  -10.560;  952.480
939.768;  151.096;  -13.900;  915.420
940.324;  154.385;  -14.760;  904.200
940.881;  154.857;  -10.370;  878.500
941.438;  154.521;   -8.260; 1021.200
941.995;  151.285;  -12.540;  992.560
942.551;  149.136;  -14.670;  875.620
943.108;  150.114;  -10.450;  937.920
943.664;  151.377;  -10.750;  869.340
944.221;  155.398;  -11.550; 1088.140
944.777;  154.197;  -14.770;  869.680
945.334;  153.906;  -12.820;  884.840
945.890;  155.105;  -10.130;  946.480
946.446;  155.879;  -13.470;  947.020
947.003;  158.265;  -12.120;  964.940
947.559;  160.564;   -9.980; 1063.040
948.115;  158.922;   -9.080; 1026.540
948.671;  157.019;  -10.830;  967.300
949.227;  155.722;  -12.440;  859.560
949.783;  152.601;  -12.910;  858.900
950.339;  154.068;  -10.270;  991.000
950.895;  154.693;  -13.630; 1023.840
951.451;  154.833;  -15.100;  925.280
952.007;  154.150;  -11.330;  998.540
952.563;  154.571;  -10.580;  937.780
953.118;  153.182;  -13.440;  904.940
953.674;  152.915;  -12.710;  935.780
954.230;  152.012;  -10.350;  949.640
954.785;  150.007;   -9.190;  936.640
955.341;  148.631;  -11.200;  998.160
955.897;  145.956;  -16.560;  834.660
956.452;  147.100;  -12.570;  953.840
957.008;  145.725;   -7.970; 1083.640
957.563;  144.559;  -11.940; 1009.540
958.118;  139.963;  -13.450;  877.700
958.674;  140.754;  -12.030;  946.780
959.229;  142.007;   -9.410; 1013.980
959.784;  139.349;  -12.000;  832.400
960.339;  140.331;  -14.780; 1001.280
960.894;  134.926;   -9.860;  963.760
961.449;  130.904;   -9.970;  859.960
962.004;  131.031;  -10.900; 1212.840
962.559;  125.611;  -13.150;  860.140
963.114;  123.419;  -13.740;  742.480
963.669;  122.104;   -9.820;  915.500
964.224;  121.504;  -13.890;  874.340
964.779;  120.410;  -12.600;  828.420
965.334;  120.589;  -10.950; 1017.860
965.888;  120.881;  -11.170;  875.360
966.443;  123.835;  -12.540;  972.380
966.998;  122.647;  -15.780;  819.460
967.552;  120.686;   -9.760;  908.380
968.107;  117.550;   -9.060;  868.300
968.661;  119.261;  -11.950;  922.440
969.216;  120.406;  -12.800;  856.280
969.770;  119.549;  -11.210;  917.200
970.324;  118.975;  -11.610;  923.140
970.879;  116.667;  -11.370;  947.180
971.433;  112.646;  -12.540;  952.720
971.987;  106.588;  -11.320;  895.340
972.541;  103.613;  -10.720;  917.100
973.095;  104.375;   -9.680; 1009.460
973.649;  102.879;  -11.440;  809.480
974.203;  101.674;  -11.210;  829.040
974.757;  100.997;  -10.240;  855.220
975.311;  100.811;  -13.720;  872.600
975.865;  100.579;  -13.770;  881.820
976.419;   98.849;  -11.690;  857.400
976.973;   98.085;   -9.510;  849.620
977.526;  101.051;  -12.620;  949.920
978.080;  100.559;  -12.010;  796.780
978.634;  100.941;  -10.170;  921.320
979.187;   97.426;   -9.020;  905.400
979.741;   96.127;   -9.820; 1018.380
980.294;   91.761;  -14.870;  789.160
980.848;   89.200;  -12.380;  717.220
981.401;   91.190;  -10.350;  816.540
981.955;   93.581;  -13.720;  844.300
982.508;   92.994;  -11.490;  746.340
983.061;   92.565;  -10.000;  915.260
983.615;   88.277;  -11.480;  798.800
984.168;   85.479;  -13.220;  770.080
984.721;   85.300;  -13.960;  880.760
985.274;   83.551;  -10.870;  867.500
985.827;   82.869;   -9.790;  834.220
986.380;   81.583;  -13.120;  721.340
986.933;   79.992;  -12.450;  864.800
987.486;   78.946;  -10.210;  861.920
988.039;   76.729;   -8.430;  863.100
988.591;   74.770;  -10.520;  893.260
989.144;   72.424;  -14.860;  737.260
989.697;   71.772;  -13.080;  758.740
990.250;   72.758;  -10.150;  858.100
990.802;   72.490;  -13.430;  755.860
991.355;   72.987;  -12.750;  974.880
991.907;   70.604;  -12.040;  864.320
992.460;   68.222;  -11.330;  753.760
993.012;   67.172;  -13.610;  749.540
993.565;   66.911;  -13.460;  711.360
994.117;   67.852;   -9.360;  950.780
994.669;   63.538;  -11.300;  701.320
995.221;   61.987;  -13.540;  791.920
995.774;   60.200;  -13.430;  787.580
996.326;   58.303;  -12.520;  740.220
996.878;   58.529;  -10.950;  838.420
997.430;   56.660;  -14.300;  699.860
997.982;   56.486;  -13.760;  750.140
998.534;   55.431;  -11.530;  739.060
999.086;   54.091;  -10.310;  738.220
999.638;   52.799;  -12.530;  661.380
1000.190;   52.154;  -11.840;  699.320
1000.741;   51.914;  -10.260;  742.700
1001.293;   50.632;   -8.860;  686.020
1001.845;   50.055;  -13.700;  676.640
1002.396;   50.896;  -12.100;  743.400
1002.948;   49.814;  -12.760;  737.400
1003.500;   47.983;  -10.380;  723.780
1004.051;   49.056;  -11.900;  907.580
1004.603;   47.270;  -12.250;  791.820
1005.154;   42.891;  -13.210;  608.980
1005.705;   42.149;  -10.950;  723.960
1006.257;   42.280;  -13.880;  707.220
1006.808;   41.024;  -12.840;  685.460
1007.359;   40.482;  -10.570;  763.240
1007.910;   39.620;   -9.620;  646.640
1008.461;   39.007;  -13.630;  732.940
1009.013;   38.578;  -17.200;  588.340
1009.564;   39.798;  -10.200;  793.520
1010.115;   37.951;  -12.570;  597.040
1010.665;   36.992;  -15.150;  602.160
1011.216;   37.455;  -14.480;  667.920
1011.767;   37.069;  -11.340;  697.920
1012.318;   36.269;   -9.780;  736.980
1012.869;   35.525;  -12.380;  679.000
1013.419;   35.443;  -15.560;  603.120
1013.970;   36.323;  -11.010;  666.640
1014.521;   34.256;  -11.610;  620.620
1015.071;   35.428;  -13.450;  670.380
1015.622;   34.692;  -13.870;  635.460
1016.172;   34.542;  -11.610;  596.820
1016.723;   33.160;  -12.120;  614.380
1017.273;   33.238;  -13.620;  604.160
1017.823;   34.111;  -14.140;  650.340
1018.374;   32.528;  -12.800;  611.760
1018.924;   32.941;  -12.340;  716.880
1019.474;   33.893;  -11.410;  718.880
1020.024;   32.572;  -14.770;  657.580
1020.574;   33.001;   -9.780;  726.160
1021.124;   32.940;   -8.560;  673.580
1021.674;   31.308;  -15.190;  559.120
1022.224;   32.628;  -13.530;  708.940
1022.774;   32.290;  -13.280;  668.820
1023.324;   31.819;  -10.690;  753.520
1023.874;   33.396;  -10.240;  875.760
1024.423;   30.581;  -12.540;  613.700
1024.973;   30.394;  -10.010;  610.760
1025.523;   29.674;  -10.550;  620.960
1026.072;   29.494;  -13.560;  606.420
1026.622;   30.211;  -15.120;  675.740
1027.172;   30.075;  -11.260;  715.660
1027.721;   29.109;  -11.410;  601.220
1028.270;   29.278;  -13.530;  663.400
1028.820;   30.262;  -13.680;  638.080
1029.369;   29.066;  -13.520;  612.700
1029.918;   28.925;  -10.980;  649.840
1030.468;   28.348;  -13.530;  564.780
1031.017;   29.403;  -13.170;  634.800
1031.566;   27.728;  -12.200;  608.900
1032.115;   27.510;   -9.960;  694.500
1032.664;   26.706;  -13.210;  596.480
1033.213;   28.245;  -12.500;  735.420
1033.762;   27.898;  -11.910;  635.620
1034.311;   27.153;   -9.640;  677.220
1034.860;   27.936;  -13.310;  691.000
1035.408;   28.067;  -11.830;  722.720
1035.957;   27.504;  -12.000;  719.540
1036.506;   24.967;  -11.690;  530.800
1037.055;   27.839;  -10.990;  844.320
1037.603;   25.832;  -15.120;  664.000
1038.152;   24.693;  -12.450;  534.760
1038.700;   25.487;  -10.560;  585.740
1039.249;   25.641;  -11.080;  681.220
1039.797;   25.415;  -12.540;  633.360
1040.345;   25.469;  -11.920;  705.420
1040.894;   24.277;  -11.410;  625.300
1041.442;   25.655;  -14.320;  632.200
1041.990;   24.111;  -16.240;  559.160
1042.538;   23.962;  -11.680;  536.180
1043.087;   23.125;  -10.760;  570.860
1043.635;   25.065;  -11.850;  670.500
1044.183;   24.618;  -15.480;  586.400
1044.731;   23.007;  -11.770;  576.000
1045.279;   23.147;  -13.090;  674.920
1045.827;   24.918;  -12.440;  892.400
1046.374;   23.141;  -13.840;  515.420
1046.922;   21.633;  -13.220;  590.580
1047.470;   23.849;  -10.230;  691.300
1048.018;   23.109;  -14.590;  647.960
1048.565;   23.939;  -12.050;  708.600
1049.113;   22.042;  -11.650;  557.000
1049.660;   21.024;  -10.510;  629.660
1050.208;   22.468;  -13.310;  675.640
1050.755;   22.226;  -15.900;  606.580
1051.303;   22.387;  -11.430;  686.820
1051.850;   21.212;   -8.480;  635.120
1052.397;   20.280;  -15.010;  473.960
1052.945;   21.194;  -13.960;  617.760
1053.492;   21.916;  -13.150;  741.840
1054.039;   22.248;   -9.630;  720.180
1054.586;   20.335;  -13.680;  557.240
1055.133;   21.272;  -14.570;  693.140
1055.680;   21.040;  -13.820;  646.620
1056.227;   19.798;  -11.730;  542.780
1056.774;   20.858;  -12.480;  794.980
1057.321;   19.840;  -13.930;  523.260
1057.868;   19.652;  -11.690;  651.320
1058.415;   19.276;   -9.520;  651.980
1058.961;   19.880;  -13.160;  678.940
1059.508;   19.835;  -12.920;  643.820
1060.055;   20.130;  -11.920;  581.780
1060.601;   19.738;  -11.500;  624.300
1061.148;   19.567;  -14.330;  616.820
1061.694;   18.807;  -16.870;  592.580
1062.241;   19.483;  -10.330;  596.320
1062.787;   18.804;  -10.620;  663.140
1063.334;   20.401;  -10.110;  808.560
1063.880;   19.624;  -13.400;  668.360
1064.426;   18.682;  -10.680;  706.820
1064.972;   18.165;   -9.920;  601.340
1065.518;   16.998;  -10.980;  566.640
1066.065;   18.238;  -14.890;  624.460
1066.611;   17.685;  -12.870;  598.800
1067.157;   17.876;  -12.950;  641.860
1067.703;   17.880;  -13.540;  668.480
1068.249;   18.681;  -13.540;  605.220
1068.794;   17.802;  -12.600;  626.880
1069.340;   15.450;  -10.620;  578.960
1069.886;   16.726;  -12.830;  590.700
1070.432;   16.430;  -14.870;  541.720
1070.977;   16.156;  -11.980;  601.080
1071.523;   16.091;   -8.200;  573.060
1072.068;   16.558;  -12.330;  582.000
1072.614;   16.170;  -16.370;  527.760
1073.160;   17.206;  -11.100;  687.040
1073.705;   15.455;  -10.480;  572.520
1074.250;   15.943;  -14.520;  559.900
1074.796;   16.411;  -11.460;  655.160
1075.341;   16.810;  -11.950;  664.100
1075.886;   15.479;  -11.460;  594.240
1076.431;   15.532;  -13.770;  649.880
1076.976;   15.696;  -12.680;  639.220
1077.521;   15.004;  -13.170;  583.080
1078.067;   14.214;  -10.860;  579.400
1078.612;   14.582;  -13.920;  661.620
1079.156;   14.676;  -13.880;  601.540
1079.701;   15.898;  -13.120;  693.260
1080.246;   14.866;   -9.940;  696.300
1080.791;   14.436;  -14.740;  625.020
1081.336;   15.212;  -13.750;  659.320
1081.880;   14.265;  -13.400;  649.680
1082.425;   13.626;  -12.220;  573.480
1082.970;   14.930;  -11.610;  717.040
1083.514;   14.587;  -13.580;  597.000
1084.059;   13.114;  -12.810;  586.720
1084.603;   13.050;  -12.320;  565.840
1085.147;   13.669;  -13.190;  645.220
1085.692;   15.311;  -12.480;  716.800
1086.236;   13.461;  -13.020;  503.140
1086.780;   14.233;   -9.190;  751.440
1087.325;   13.167;  -12.480;  654.620
1087.869;   13.640;  -12.450;  610.700
1088.413;   14.237;  -12.240;  705.040
1088.957;   10.638;   -9.020;  543.400
1089.501;   13.825;  -10.320;  766.640
1090.045;   12.964;  -12.720;  726.480
1090.589;   11.026;  -13.690;  569.920
1091.133;   12.108;  -10.020;  673.340
1091.676;   12.492;  -12.330;  591.940
1092.220;   12.418;  -14.970;  600.920
1092.764;   12.378;  -12.430;  706.960
1093.307;   12.360;   -9.800;  673.780
1093.851;   11.979;  -14.970;  556.540
1094.395;   11.966;  -15.310;  683.140
1094.938;   11.206;  -10.370;  632.520
1095.482;   10.934;  -11.050;  559.800
1096.025;   11.986;  -11.840;  710.880
1096.568;   12.630;  -12.840;  779.280
1097.112;    9.366;  -14.700;  508.180
1097.655;   11.463;   -8.720;  603.000
1098.198;    9.819;  -13.610;  600.180
1098.741;   10.670;  -13.350;  612.860
1099.285;   11.382;  -11.230;  657.300
1099.828;    9.183;  -11.840;  439.400
1100.371;   10.366;  -10.840;  608.160
1100.914;   10.359;  -14.190;  682.660
1101.457;   11.019;  -11.240;  679.900
1101.999;    8.189;  -11.270;  584.680
1102.542;    9.922;  -11.480;  641.440
1103.085;    9.745;  -11.750;  658.500
1103.628;   11.038;  -11.400;  762.060
1104.170;    9.276;  -10.490;  588.280
1104.713;    9.740;  -10.600;  646.700
1105.256;    9.540;  -14.360;  557.440
1105.798;    8.241;  -13.210;  499.980
1106.341;   10.342;  -10.270;  728.900
1106.883;    8.600;  -12.200;  521.340
1107.425;    9.573;  -13.110;  668.180
1107.968;    8.878;  -12.840;  612.380
1108.510;    8.382;   -6.480;  684.960
1109.052;    7.894;  -13.940;  612.620
1109.594;    8.227;  -13.690;  554.440
1110.136;    8.939;  -11.880;  643.220
1110.679;    7.494;   -9.500;  633.080
1111.221;    7.901;  -14.160;  604.460
1111.763;    8.244;  -13.980;  559.220
1112.304;    7.740;  -13.880;  547.140
1112.846;    8.139;  -12.210;  666.240
1113.388;   10.614;  -11.390;  942.180
1113.930;    7.827;  -14.540;  694.200
1114.472;    7.125;  -12.640;  606.540
1115.013;    5.828;  -11.620;  551.280
1115.555;    6.295;  -13.640;  587.100
1116.097;    6.746;  -15.380;  579.480
1116.638;    7.361;  -12.640;  684.600
1117.180;    6.992;   -9.850;  667.740
1117.721;    6.643;  -13.690;  568.580
1118.262;    8.112;  -12.680;  677.960
1118.804;    7.498;  -12.530;  637.340
1119.345;    5.826;  -11.690;  578.400
1119.886;    7.116;  -13.380;  704.040
1120.427;    6.594;  -14.070;  589.020
1120.969;    5.403;  -13.500;  597.920
1121.510;    4.919;  -11.480;  563.060
1122.051;    6.103;  -12.830;  723.580
1122.592;    6.334;  -14.290;  655.420
1123.133;    4.462;  -12.400;  547.940
1123.673;    5.725;  -10.130;  706.480
1124.214;    5.862;  -12.930;  612.460
1124.755;    6.470;  -14.380;  639.460
1125.296;    5.598;  -14.000;  627.320
1125.836;    5.891;  -10.070;  691.500
1126.377;    4.310;  -12.640;  599.660
1126.918;    6.380;  -12.960;  614.980
1127.458;    4.310;  -13.350;  622.220
1127.999;    5.585;  -10.750;  656.980
1128.539;    5.187;  -12.350;  694.240
1129.079;    4.803;  -14.860;  632.720
1129.620;    4.061;  -13.840;  558.100
1130.160;    3.863;  -12.330;  539.480
1130.700;    5.726;  -14.530;  640.840
1131.240;    5.513;  -12.530;  643.700
1131.781;    4.384;  -14.450;  619.680
1132.321;    3.780;   -9.790;  599.120
1132.861;    2.985;  -14.860;  564.200
1133.401;    3.173;  -14.290;  593.940
1133.941;    4.607;  -11.750;  626.280
1134.481;    3.315;   -9.920;  597.580
1135.020;    3.467;  -12.290;  609.160
1135.560;    4.546;  -11.650;  674.940
1136.100;    3.082;  -16.270;  501.160
1136.640;    2.460;  -10.890;  510.480
1137.179;    3.321;  -14.180;  537.960
1137.719;    3.681;  -16.250;  605.400
1138.258;    2.560;  -14.230;  587.360
1138.798;    3.352;   -9.090;  663.780
1139.337;    1.621;  -15.130;  482.840
1139.877;    3.441;  -13.680;  642.360
1140.416;    4.921;  -11.320;  878.060
1140.955;    1.523;  -10.860;  535.380
1141.494;    2.954;  -12.920;  669.280
1142.034;    2.760;  -13.930;  583.520
1142.573;    3.165;  -11.440;  646.280
1143.112;    2.068;  -12.000;  553.480
1143.651;    3.025;  -13.670;  536.480
1144.190;    3.154;  -12.730;  691.640
1144.729;    2.560;  -14.560;  607.420
1145.267;    2.011;  -11.830;  584.900
1145.806;    2.491;  -12.230;  637.040
1146.345;    1.890;  -14.130;  635.020
1146.884;    2.936;  -11.590;  622.500
1147.422;    1.209;  -12.550;  533.060
1147.961;    2.995;  -11.180;  708.460
1148.500;    2.797;  -11.510;  669.720
1149.038;    2.997;  -11.640;  632.500
1149.577;    2.101;  -10.130;  698.640
1150.115;   -0.080;  -13.970;  452.280
1150.653;    2.729;  -14.520;  607.340
1151.192;    1.880;  -12.810;  552.920
1151.730;    0.609;   -9.100;  652.560
1152.268;    0.453;  -12.220;  589.520
1152.806;    1.264;  -14.140;  571.180
1153.344;    0.349;  -12.350;  577.640
1153.882;    1.317;   -8.980;  600.060
1154.421;   -0.288;  -15.190;  470.620
1154.958;    0.634;  -15.210;  595.240
1155.496;    1.769;  -12.850;  645.280
1156.034;    1.333;   -9.940;  721.880
1156.572;    1.850;  -13.570;  667.060
1157.110;    0.148;  -14.590;  473.940
1157.647;    1.353;  -13.030;  676.960
1158.185;   -0.538;  -12.140;  564.320
1158.723;   -0.551;  -14.390;  509.200
1159.260;    1.290;  -14.090;  701.700
1159.798;    0.551;  -11.920;  658.160
1160.335;   -0.243;  -11.110;  631.820

