
Integration time [ms]:   3.276
Averaging Nr. [scans]: 1000
Smoothing Nr. [pixels]: 0
Data measured with spectrometer [name]: 7414430SP
Wave   ;Sample   ;Dark     ;Reference
[nm]   ;[counts] ;[counts] ;[counts] 

288.544;  150.650;    7.793;  793.890
289.143;  154.786;    7.462;  681.602
289.742;  155.328;    8.602;  828.814
290.341;  139.556;    1.321;  789.841
290.940;  129.293;   -0.709;  730.702
291.538;  131.325;    0.881;  881.108
292.137;  131.347;    0.122;  792.581
292.736;  134.747;   -1.929;  975.101
293.335;  131.418;   -8.229;  735.086
293.934;  132.196;   -5.279;  781.677
294.532;  130.913;   -1.369; 1031.958
295.131;  115.630;   -7.641;  834.394
295.730;  115.408;   -8.420;  809.588
296.328;  115.818;   -5.611;  783.442
296.927;  116.149;   -5.781;  779.652
297.525;  116.952;   -6.361;  781.236
298.124;  107.195;  -11.382;  654.009
298.722;  110.838;   -7.641;  761.933
299.321;  109.739;   -6.811;  708.597
299.919;  107.306;   -6.991;  751.918
300.518;  103.450;  -10.362;  689.338
301.116;  105.747;   -9.581;  691.381
301.715;  106.327;   -4.891;  730.222
302.313;  104.518;   -8.801;  704.943
302.911;  100.005;   -8.522;  733.830
303.509;  105.095;   -6.171;  925.627
304.108;  103.326;   -7.311;  760.383
304.706;  102.570;   -8.321;  801.664
305.304;   96.017;  -10.222;  796.707
305.902;  101.723;   -6.021;  784.484
306.500;   97.688;   -4.971;  728.200
307.098;   95.804;   -7.061;  746.560
307.696;   94.287;   -8.801;  780.432
308.294;   94.749;   -6.411;  731.359
308.892;   96.964;   -2.901;  759.769
309.490;   93.139;   -5.041;  712.161
310.088;   90.755;   -5.002;  788.444
310.686;   95.455;   -2.041;  821.749
311.284;   91.053;   -2.351;  766.040
311.882;   88.959;   -4.422;  731.225
312.480;   86.472;   -4.192;  697.167
313.078;   87.100;   -1.172;  808.331
313.675;   88.557;   -2.601;  691.600
314.273;   82.854;   -1.312;  797.837
314.871;   82.026;   -3.942;  589.829
315.468;   80.223;   -2.802;  652.090
316.066;   83.515;   -0.701;  694.427
316.664;   76.529;   -4.362;  656.351
317.261;   79.968;   -2.872;  910.128
317.859;   75.857;   -2.022;  768.735
318.456;   76.580;   -0.531;  830.096
319.054;   72.133;   -3.912;  787.828
319.651;   71.539;   -4.752;  759.928
320.249;   69.494;   -2.602;  810.188
320.846;   68.648;   -0.821;  714.286
321.443;   65.370;   -4.642;  832.135
322.041;   61.931;   -5.002;  812.315
322.638;   60.005;   -3.982;  701.456
323.235;   61.949;   -3.411;  665.683
323.833;   58.848;   -7.361;  740.354
324.430;   53.774;   -8.611;  615.900
325.027;   54.975;   -4.061;  876.855
325.624;   55.497;   -4.031;  644.532
326.221;   51.999;   -7.481;  689.717
326.818;   51.454;   -5.281;  818.332
327.415;   55.161;   -7.460;  748.828
328.012;   54.082;   -5.510;  690.585
328.609;   52.976;   -7.880;  731.389
329.206;   50.840;   -8.331;  778.621
329.803;   51.232;   -5.121;  737.841
330.400;   53.891;   -4.510;  704.260
330.997;   55.146;   -6.441;  817.147
331.594;   53.921;   -8.831;  788.185
332.191;   59.266;   -7.621;  728.722
332.787;   62.911;   -4.591;  844.463
333.384;   59.682;   -7.412;  763.093
333.981;   58.771;   -8.293;  815.687
334.578;   62.268;   -7.052;  708.378
335.174;   65.085;   -3.102;  731.469
335.771;   63.742;   -5.943;  836.456
336.367;   60.136;   -7.393;  710.631
336.964;   64.896;   -4.063;  793.266
337.561;   63.250;   -3.813;  731.112
338.157;   58.552;   -4.654;  911.916
338.754;   55.885;   -7.934;  796.589
339.350;   53.714;   -4.414;  722.493
339.946;   56.624;   -4.664;  773.135
340.543;   47.880;   -6.375;  846.136
341.139;   42.984;   -9.815;  720.836
341.735;   40.915;   -4.526;  772.593
342.332;   39.637;   -4.895;  691.472
342.928;   39.802;   -4.295;  795.394
343.524;   33.651;   -5.476;  761.684
344.120;   30.605;   -5.856;  738.562
344.716;   33.665;   -2.155;  723.717
345.313;   31.601;   -6.275;  795.342
345.909;   25.651;   -8.815;  627.336
346.505;   27.292;   -5.305;  740.247
347.101;   29.630;   -2.674;  827.864
347.697;   28.865;   -4.344;  785.398
348.293;   22.921;   -9.975;  627.244
348.889;   24.879;   -5.774;  745.914
349.485;   24.560;   -5.004;  688.205
350.081;   23.684;   -4.704;  772.592
350.676;   19.929;   -6.635;  691.606
351.272;   23.942;   -4.504;  809.530
351.868;   23.707;   -3.914;  780.497
352.464;   20.652;   -9.044;  723.932
353.059;   16.820;   -8.314;  646.017
353.655;   19.838;   -7.024;  777.063
354.251;   21.370;   -5.343;  759.845
354.846;   15.771;   -8.604;  740.646
355.442;   13.280;   -6.945;  753.071
356.038;   15.971;   -7.564;  751.708
356.633;   16.357;   -5.814;  728.594
357.229;   14.335;   -7.364;  724.757
357.824;   12.332;   -8.024;  703.600
358.420;   11.645;   -9.384;  679.726
359.015;   12.263;   -5.104;  695.357
359.610;   12.188;   -6.854;  763.920
360.206;    7.103;  -10.185;  603.240
360.801;    9.804;   -7.054;  646.503
361.396;   11.932;   -5.034;  725.975
361.992;    6.894;   -8.284;  668.220
362.587;    4.591;   -8.625;  670.160
363.182;    7.303;   -7.674;  689.631
363.777;    8.011;   -5.164;  738.242
364.372;    7.550;   -8.604;  737.314
364.967;    3.499;   -9.055;  680.744
365.563;    8.132;   -6.114;  815.567
366.158;    6.373;   -5.814;  685.161
366.753;    5.005;   -7.854;  649.263
367.348;    3.487;   -7.804;  746.056
367.942;    3.723;   -7.954;  697.298
368.537;    2.983;   -4.984;  754.245
369.132;    2.319;   -8.564;  703.428
369.727;   -0.867;   -8.855;  638.079
370.322;    0.250;   -6.245;  580.186
370.917;   -0.292;   -6.425;  710.646
371.511;    3.257;   -6.294;  861.834
372.106;   -0.845;   -7.685;  776.964
372.701;   -3.501;   -7.335;  585.988
373.296;    2.298;   -4.564;  863.135
373.890;   -3.344;  -10.235;  647.840
374.485;   -5.207;   -7.885;  691.199
375.079;   -1.168;   -7.324;  738.685
375.674;    1.212;   -3.494;  812.970
376.268;   -4.100;   -8.525;  691.759
376.863;   -9.719;  -10.086;  580.327
377.457;   -3.320;   -7.025;  662.490
378.052;   -4.867;   -3.585;  764.884
378.646;   -5.660;   -7.595;  741.167
379.240;   -7.030;   -8.335;  721.176
379.835;   -5.608;   -5.785;  636.978
380.429;   -8.161;   -4.335;  562.557
381.023;   -8.396;   -6.805;  779.205
381.617;   -9.675;   -9.195;  680.106
382.212;   -6.964;   -6.905;  685.303
382.806;   -3.748;   -3.745;  760.690
383.400;   -9.494;   -7.745;  672.281
383.994;  -10.957;   -9.765;  664.870
384.588;   -7.316;   -6.564;  697.701
385.182;   -5.164;   -5.344;  726.624
385.776;   -7.530;   -8.514;  706.875
386.370;  -11.118;   -9.555;  681.968
386.964;   -9.509;   -8.715;  684.155
387.558;   -6.850;   -6.174;  598.360
388.152;  -11.226;   -8.725;  681.959
388.745;   -9.588;   -7.965;  814.707
389.339;   -7.648;   -5.924;  747.642
389.933;   -5.751;   -5.524;  695.370
390.527;   -7.004;   -7.114;  859.029
391.120;  -13.629;  -10.725;  595.318
391.714;  -10.924;   -8.035;  711.633
392.308;   -6.960;   -3.574;  780.253
392.901;  -11.326;   -7.245;  642.460
393.495;  -13.101;   -9.285;  595.414
394.089;  -10.670;   -5.895;  760.452
394.682;  -10.879;   -4.295;  697.188
395.275;  -11.785;   -9.875;  719.927
395.869;  -13.618;   -8.485;  667.314
396.462;  -11.427;   -7.455;  616.609
397.056;   -7.324;   -5.424;  776.621
397.649;  -12.757;   -6.605;  731.575
398.242;  -10.204;   -8.224;  712.645
398.836;   -9.091;   -7.474;  766.408
399.429;   -9.920;   -7.094;  631.041
400.022;  -13.746;   -9.475;  665.902
400.615;  -10.750;   -7.145;  805.609
401.208;   -8.892;   -7.174;  691.451
401.802;  -10.930;   -5.515;  699.329
402.395;  -12.678;   -9.875;  683.502
402.988;  -14.515;   -8.845;  696.627
403.581;   -9.847;   -8.874;  646.878
404.174;   -7.757;   -5.324;  686.568
404.767;  -10.593;   -9.575;  638.583
405.360;  -13.543;  -10.965;  621.445
405.953;   -8.380;   -8.764;  759.034
406.545;   -7.128;   -7.514;  725.342
407.138;  -11.327;  -10.025;  618.350
407.731;  -10.907;  -10.034;  613.303
408.324;   -6.105;   -9.374;  660.554
408.917;   -6.771;   -6.534;  681.864
409.509;   -9.269;   -8.004;  740.396
410.102;  -11.595;   -9.875;  643.948
410.695;   -5.174;   -8.604;  665.758
411.287;   -5.664;   -6.794;  599.821
411.880;   -7.532;   -9.334;  585.421
412.472;   -9.834;  -10.254;  613.092
413.065;   -7.304;   -6.714;  629.408
413.657;   -5.136;   -7.234;  576.678
414.250;   -5.825;  -10.544;  646.681
414.842;   -7.795;   -9.744;  676.353
415.434;   -4.988;   -6.994;  570.463
416.027;   -0.550;   -5.893;  652.196
416.619;   -2.726;   -7.264;  713.400
417.211;   -3.747;  -10.374;  599.352
417.804;    0.714;   -7.993;  628.499
418.396;   -3.056;   -7.234;  607.643
418.988;   -0.732;   -9.443;  659.238
419.580;   -3.886;  -10.724;  568.276
420.172;   -2.489;  -10.323;  536.196
420.764;    1.860;   -8.793;  672.482
421.356;    1.117;  -11.143;  636.898
421.948;   -0.273;   -8.293;  677.661
422.540;    5.179;   -7.893;  680.027
423.132;    4.855;   -7.082;  600.641
423.724;    0.928;   -8.653;  561.267
424.316;    2.971;  -10.213;  621.345
424.908;    6.177;   -9.762;  591.517
425.500;    7.774;   -5.572;  647.978
426.092;    6.511;   -8.422;  648.268
426.683;    6.788;   -9.283;  684.836
427.275;    9.122;   -7.852;  641.471
427.867;   11.637;   -5.272;  668.948
428.458;   11.052;   -7.682;  732.344
429.050;   10.131;  -10.612;  680.749
429.642;   11.869;   -9.882;  743.124
430.233;   13.399;   -6.962;  569.356
430.825;   14.066;   -6.842;  724.809
431.416;   11.438;   -9.672;  698.241
432.008;   14.581;   -6.552;  651.723
432.599;   16.248;   -6.891;  656.073
433.190;   12.893;  -10.912;  637.670
433.782;   11.841;  -11.172;  590.395
434.373;   19.388;   -6.061;  884.765
434.964;   18.436;   -8.251;  602.920
435.556;   15.890;   -9.722;  634.537
436.147;   19.469;   -9.082;  758.490
436.738;   19.315;   -8.041;  701.099
437.329;   24.613;   -7.341;  721.723
437.920;   17.546;   -8.162;  666.688
438.511;   16.739;  -11.802;  564.526
439.103;   23.215;  -10.191;  623.998
439.694;   25.703;   -7.601;  681.583
440.285;   26.433;   -8.541;  764.432
440.876;   23.614;   -9.751;  845.738
441.466;   24.289;   -9.401;  575.162
442.057;   29.545;   -7.760;  665.814
442.648;   28.262;   -9.971;  746.255
443.239;   26.267;  -11.001;  620.477
443.830;   30.791;   -7.990;  704.958
444.421;   33.189;   -7.910;  655.474
445.011;   29.762;   -8.131;  693.619
445.602;   28.565;   -7.111;  743.126
446.193;   31.342;  -10.920;  488.117
446.783;   36.362;   -6.500;  640.397
447.374;   31.947;   -8.671;  692.759
447.964;   31.771;  -10.781;  713.770
448.555;   39.894;   -9.650;  822.742
449.145;   36.835;   -8.660;  662.853
449.736;   38.172;   -8.990;  803.179
450.326;   36.853;   -9.500;  713.626
450.917;   42.856;   -8.680;  675.324
451.507;   42.112;   -7.520;  600.661
452.097;   43.026;   -8.590;  746.267
452.688;   43.795;  -11.340;  742.160
453.278;   43.470;  -10.100;  566.840
453.868;   49.185;   -6.019;  793.550
454.458;   45.557;   -9.440;  651.141
455.048;   45.254;  -10.560;  711.783
455.639;   47.730;  -11.799;  567.096
456.229;   52.283;   -6.899;  710.694
456.819;   53.734;   -7.389;  751.158
457.409;   53.225;  -11.119;  773.993
457.999;   56.216;   -9.289;  737.505
458.589;   56.082;   -6.139;  686.606
459.179;   55.826;   -8.729;  717.658
459.769;   53.566;   -9.789;  627.099
460.358;   60.144;  -10.259;  797.262
460.948;   59.963;   -7.299;  689.503
461.538;   60.564;  -10.289;  660.677
462.128;   58.841;  -11.269;  664.934
462.717;   66.016;   -9.368;  710.326
463.307;   68.770;   -7.908;  705.846
463.897;   64.274;   -9.599;  656.942
464.486;   62.979;   -9.769;  837.128
465.076;   68.268;   -8.048;  733.776
465.666;   72.250;   -9.358;  652.900
466.255;   68.983;   -7.919;  785.651
466.845;   68.169;  -11.689;  666.749
467.434;   72.178;   -7.818;  725.873
468.023;   74.053;   -7.678;  658.357
468.613;   70.783;  -10.939;  713.946
469.202;   75.117;  -10.118;  646.507
469.791;   78.393;   -9.108;  737.811
470.381;   81.657;   -6.058;  742.813
470.970;   80.654;  -10.428;  711.099
471.559;   80.273;  -10.268;  733.291
472.148;   84.212;   -8.448;  675.737
472.738;   87.002;   -6.917;  765.466
473.327;   85.981;  -11.978;  637.529
473.916;   86.016;  -11.888;  737.446
474.505;   90.716;   -9.437;  751.703
475.094;   94.326;   -6.747;  806.570
475.683;   92.836;   -9.367;  797.699
476.272;   94.195;  -12.637;  730.632
476.861;   97.265;  -10.027;  706.754
477.449;  103.390;   -8.716;  728.487
478.038;   97.929;   -9.577;  692.513
478.627;   98.623;   -9.718;  714.852
479.216;  105.633;   -8.947;  769.441
479.805;  109.296;   -6.256;  783.375
480.393;  108.836;   -7.937; 1008.945
480.982;  107.174;   -7.717;  874.501
481.571;  113.626;   -9.266;  858.333
482.159;  114.936;   -7.636;  705.386
482.748;  114.721;   -9.667;  821.385
483.336;  118.419;  -10.376;  858.209
483.925;  120.235;   -7.147;  774.373
484.513;  127.255;   -7.996;  758.962
485.102;  123.017;  -10.027;  810.965
485.690;  132.162;  -10.446; 1011.050
486.278;  134.511;   -8.446;  979.329
486.867;  136.084;   -6.356;  809.662
487.455;  137.390;   -9.136;  898.229
488.043;  138.800;  -10.646;  748.361
488.631;  147.576;   -7.456; 1005.079
489.220;  152.319;   -6.636;  908.626
489.808;  151.820;  -11.036;  741.415
490.396;  159.455;  -10.246;  914.645
490.984;  166.432;   -8.556;  830.161
491.572;  177.967;   -5.886;  940.315
492.160;  184.473;   -9.486;  919.081
492.748;  196.415;  -10.976;  884.341
493.336;  220.484;   -8.776; 1019.693
493.924;  249.299;   -5.465;  958.077
494.512;  278.485;   -9.986; 1066.638
495.100;  320.137;  -10.636; 1103.280
495.687;  377.904;  -10.885; 1206.373
496.275;  447.292;   -8.126; 1150.796
496.863;  521.392;  -10.586; 1281.171
497.451;  630.146;  -11.926; 1386.805
498.038;  768.957;  -10.885; 1556.729
498.626;  881.980;   -6.315; 1741.407
499.214; 1033.004;   -7.326; 2016.609
499.801; 1251.089;  -11.906; 2220.633
500.389; 1508.637;  -10.466; 2312.494
500.976; 1848.218;   -5.236; 2744.849
501.564; 2304.539;   -8.936; 3148.565
502.151; 2716.169;  -13.176; 3515.999
502.738; 3213.404;  -10.646; 3971.274
503.326; 3609.268;   -9.525; 4403.796
503.913; 4012.231;  -10.856; 5161.749
504.500; 4404.062;  -11.586; 5986.420
505.088; 4838.171;  -10.336; 6381.201
505.675; 5398.193;   -6.355; 6925.547
506.262; 6157.222;   -9.046; 7619.060
506.849; 6888.467;  -10.416; 8733.969
507.436; 7396.303;  -10.305; 9790.121
508.023; 8036.761;   -5.496; 9985.472
508.610; 8306.074;   -7.856;10434.618
509.197; 8971.892;  -10.097;11198.435
509.784;10425.898;  -10.886;12391.194
510.371;11473.958;   -9.315;13603.713
510.958;12219.689;   -9.936;14426.586
511.545;13051.686;   -9.326;15243.775
512.132;14089.163;  -10.075;15945.876
512.719;14854.359;   -7.796;16340.369
513.305;15811.584;  -10.606;18011.766
513.892;16693.260;  -11.486;19754.971
514.479;18103.412;   -9.126;20967.805
515.066;19437.941;   -6.026;22299.793
515.652;20659.727;   -8.466;22908.660
516.239;22243.041;  -10.886;23798.875
516.825;23561.301;  -11.496;25567.275
517.412;24829.666;   -5.796;28154.959
517.998;25382.799;  -10.506;28344.111
518.585;25234.615;  -10.076;27134.219
519.171;25795.561;   -8.315;27268.576
519.758;27513.463;   -8.596;28964.129
520.344;29277.420;   -8.466;30664.494
520.930;29203.803;  -11.006;32550.605
521.516;31182.512;  -10.495;35422.895
522.103;33813.184;   -5.526;38280.004
522.689;34591.605;   -8.746;37835.117
523.275;33674.012;  -11.376;37288.613
523.861;34366.391;  -11.156;37281.395
524.447;35784.320;   -8.135;37846.949
525.033;35613.750;   -7.896;38321.949
525.619;35868.926;  -12.476;38579.285
526.205;37736.879;   -9.516;40622.875
526.791;40178.887;   -6.926;42258.836
527.377;40245.629;   -8.346;42966.902
527.963;42061.484;   -8.717;42018.949
528.549;40297.461;  -11.016;42476.828
529.135;39000.766;   -8.536;41854.852
529.721;38608.539;   -9.666;41237.711
530.306;38037.477;  -10.066;41259.445
530.892;37753.340;  -11.356;41506.047
531.478;39243.953;   -6.596;43559.613
532.063;42249.656;   -8.836;47695.563
532.649;42299.293;  -10.047;50808.324
533.235;43472.879;   -9.746;51787.500
533.820;44761.508;   -6.566;52145.035
534.406;46254.430;  -10.817;51133.488
534.991;46025.133;   -9.416;49996.805
535.576;44567.305;   -9.036;48882.852
536.162;44849.047;   -6.156;46942.285
536.747;46049.031;  -11.607;45711.746
537.333;50315.035;  -11.787;48510.180
537.918;52833.949;  -12.437;50439.891
538.503;51040.301;   -7.196;50863.711
539.088;48132.820;  -10.556;50906.922
539.673;48186.023;   -8.767;52621.965
540.259;47902.891;  -10.026;52368.094
540.844;44888.715;   -7.416;50879.109
541.429;46028.465;   -9.467;52077.777
542.014;49282.383;   -9.527;52716.695
542.599;48600.410;   -9.946;52363.281
543.184;46332.723;   -7.927;53187.137
543.769;48217.930;   -9.297;54697.605
544.354;47284.277;  -10.127;53913.914
544.938;45977.586;   -9.267;49680.164
545.523;47783.664;   -6.506;47386.277
546.108;49944.145;   -9.787;49151.949
546.693;52325.863;  -11.587;51384.637
547.278;52465.973;  -10.986;51853.254
547.862;49168.500;   -8.206;51173.750
548.447;44265.547;  -10.067;51691.395
549.031;44020.270;   -9.637;52456.703
549.616;49228.398;   -9.926;52714.516
550.201;47864.621;   -6.347;52414.598
550.785;49027.250;   -7.917;52355.059
551.370;48366.750;  -10.867;54589.453
551.954;48648.566;   -9.047;58267.348
552.538;49382.133;   -7.827;59062.176
553.123;47733.840;  -10.287;58115.285
553.707;45976.461;  -12.178;56556.285
554.291;47082.684;   -8.717;56201.668
554.876;48929.711;   -7.457;55335.762
555.460;49329.871;  -10.387;54155.703
556.044;50720.012;   -9.618;53721.484
556.628;49159.809;  -11.567;53731.016
557.212;47574.227;   -8.097;54312.531
557.796;46033.438;  -11.077;53797.773
558.380;45661.383;  -11.108;56145.984
558.964;46038.574;   -9.057;57277.930
559.548;46891.039;   -6.977;56459.641
560.132;45520.461;  -11.457;54434.543
560.716;44454.828;  -11.378;54800.617
561.300;45777.305;   -9.577;57606.945
561.884;46866.145;   -7.127;58972.445
562.467;45416.363;   -7.118;57327.570
563.051;44326.148;  -13.358;54962.434
563.635;45023.004;  -10.178;52594.473
564.219;45769.008;   -7.837;50610.410
564.802;46800.289;  -11.398;49551.180
565.386;46851.301;  -12.788;48370.953
565.969;46234.574;   -9.077;48178.871
566.553;45973.465;   -6.207;49957.305
567.136;45912.473;   -8.568;50369.594
567.720;41721.449;  -11.868;49492.004
568.303;39818.875;   -8.268;50616.352
568.887;40082.555;   -8.698;50727.148
569.470;40126.391;   -6.808;51698.379
570.053;38552.813;  -13.188;52122.078
570.637;36911.832;  -12.037;52536.438
571.220;36549.461;   -8.577;51186.098
571.803;36891.688;   -8.498;51032.762
572.386;39544.250;  -10.498;49609.887
572.969;42010.578;   -9.388;48285.926
573.552;39831.262;   -8.338;47624.285
574.135;38617.840;   -8.518;45498.641
574.718;36154.988;  -13.628;41970.434
575.301;34735.309;  -10.893;41447.137
575.884;33315.633;   -8.158;40923.836
576.467;34886.859;  -10.328;45267.723
577.050;37636.199;  -13.058;48175.543
577.633;38962.922;   -9.458;47729.328
578.216;37565.742;   -8.928;47579.793
578.799;36604.539;   -9.358;47820.996
579.381;35180.352;  -11.388;48115.551
579.964;33765.801;  -11.718;47333.766
580.547;35452.762;   -8.588;46668.969
581.129;36709.863;   -8.859;44466.141
581.712;37254.191;  -10.729;44164.922
582.294;37857.980;  -11.118;46477.855
582.877;37683.441;   -5.218;48244.254
583.459;35077.395;   -8.679;47437.895
584.042;33326.355;  -10.709;46943.219
584.624;34424.625;  -11.669;46792.227
585.206;33935.441;   -8.218;46557.250
585.789;34202.188;  -10.569;45793.773
586.371;36973.293;  -11.859;43836.391
586.953;37114.754;  -10.719;42972.492
587.536;38349.867;   -7.198;42487.211
588.118;37723.266;   -8.720;42086.414
588.700;34636.660;  -10.439;43389.930
589.282;34012.082;   -9.198;43646.039
589.864;34903.293;   -9.199;43438.109
590.446;35590.035;  -11.319;43151.926
591.028;35175.422;  -11.159;42781.867
591.610;34290.145;  -11.779;42839.098
592.192;32058.176;   -7.668;42820.402
592.774;30621.787;  -11.949;40724.277
593.356;29408.947;  -12.129;39874.789
593.937;28559.803;  -10.669;39980.648
594.519;30909.180;   -6.509;42069.633
595.101;32892.938;  -10.849;42976.031
595.683;32858.289;  -11.679;44084.441
596.264;34087.434;   -9.049;43478.797
596.846;33129.969;   -8.849;43803.672
597.427;32732.582;   -9.570;42986.934
598.009;34399.652;  -12.620;42832.219
598.591;34601.309;  -10.039;42580.086
599.172;33386.539;  -10.369;43061.805
599.753;33464.336;   -9.140;41691.469
600.335;35215.430;  -11.430;40692.520
600.916;33782.684;   -9.939;39982.422
601.498;31346.352;   -8.479;40318.617
602.079;29925.730;  -10.920;40670.609
602.660;30197.945;  -11.480;41450.898
603.241;31615.836;  -11.699;41137.738
603.823;30324.867;   -9.579;38868.797
604.404;30496.641;  -10.620;38182.785
604.985;31783.631;  -10.450;38078.047
605.566;31093.109;   -9.129;38056.633
606.147;31259.098;   -7.510;37020.418
606.728;33063.242;  -10.660;37883.359
607.309;31665.191;  -11.740;38748.273
607.890;30948.289;   -9.759;38850.230
608.471;30562.959;   -8.250;37457.918
609.051;29645.463;   -9.240;36066.457
609.632;28677.338;  -12.120;35991.074
610.213;29638.736;   -9.110;37402.641
610.794;30112.271;   -8.030;38383.363
611.374;29580.430;   -8.110;40562.387
611.955;29938.496;  -13.560;38533.727
612.536;31180.625;  -11.400;36951.789
613.116;31331.238;   -8.070;37197.891
613.697;31454.859;  -10.830;38411.125
614.277;30175.717;  -11.641;38673.938
614.858;31183.869;  -13.310;37075.863
615.438;30122.324;   -7.460;35092.906
616.019;27064.154;   -7.601;33666.301
616.599;27848.246;  -12.020;34189.023
617.179;29694.139;  -11.780;36952.047
617.760;30415.311;   -8.570;39582.574
618.340;31497.246;  -11.471;38943.977
618.920;32879.813;  -11.170;37594.156
619.500;32860.992;  -11.071;37866.938
620.080;32218.137;   -7.750;37869.043
620.660;33440.098;  -12.711;36868.617
621.241;34865.102;  -10.211;36352.309
621.821;34909.613;  -10.961;35459.520
622.401;33779.879;   -7.720;35207.414
622.980;32948.629;   -8.981;35980.422
623.560;31523.734;   -9.331;37351.328
624.140;30574.885;   -9.850;34388.582
624.720;25203.172;   -7.451;32368.764
625.300;21626.863;   -9.070;32638.629
625.880;25040.232;  -12.601;34599.035
626.459;29148.045;  -11.751;36831.738
627.039;32404.293;   -9.281;38299.098
627.619;32320.301;   -8.801;38289.574
628.198;30530.225;  -12.071;37220.695
628.778;29537.637;   -9.461;37632.563
629.357;30302.875;   -8.491;38003.012
629.937;30500.773;   -9.721;38402.039
630.516;29899.695;   -9.951;37868.801
631.096;29391.156;  -11.731;35760.410
631.675;32736.129;   -8.572;35225.219
632.254;37757.379;  -11.282;35130.289
632.834;37041.305;  -13.322;35794.570
633.413;34914.754;  -10.301;35788.922
633.992;31628.895;   -8.582;34532.863
634.571;32593.098;   -8.352;33590.113
635.151;35366.355;  -11.912;34943.863
635.730;33813.199;  -10.511;35352.523
636.309;30633.174;   -7.731;35366.605
636.888;28504.752;   -9.952;36165.637
637.467;29708.289;  -11.672;37515.902
638.046;31374.516;   -8.901;39288.695
638.625;34465.867;   -7.912;38279.699
639.204;33995.313;  -10.022;37741.598
639.782;32251.965;  -12.252;38364.551
640.361;28289.557;  -10.041;36740.621
640.940;25468.869;  -11.161;34950.082
641.519;26146.889;   -9.701;34137.398
642.097;29317.711;  -11.271;35654.258
642.676;32050.391;   -8.651;35637.957
643.255;32344.227;   -8.711;36567.074
643.833;31465.822;   -9.581;37809.434
644.412;31736.080;  -13.711;37337.293
644.990;31135.299;  -11.811;37018.531
645.569;31649.031;   -9.411;36518.469
646.147;30319.754;  -10.291;36186.430
646.726;29368.889;  -12.401;36267.688
647.304;30250.738;  -10.411;36647.625
647.882;32511.254;   -9.651;39286.742
648.461;34350.293;   -9.631;39157.703
649.039;32242.881;  -11.881;35412.883
649.617;31509.604;   -9.661;34744.918
650.195;31289.967;   -9.301;35403.098
650.773;29728.979;  -10.511;35053.797
651.352;27540.346;  -11.521;33756.816
651.930;25398.436;  -12.211;31868.773
652.508;23783.080;   -9.171;33121.551
653.086;27777.184;   -9.371;33564.793
653.663;30348.643;  -13.161;34054.668
654.241;29569.311;  -13.031;35693.309
654.819;31287.164;   -9.371;36422.906
655.397;31245.619;  -10.511;38213.484
655.975;31148.311;  -10.371;39507.625
656.553;30664.461;  -10.051;39498.223
657.130;29006.623;  -10.061;40395.480
657.708;28582.443;   -9.561;39242.020
658.286;28532.936;  -11.511;38920.020
658.863;29600.498;  -10.261;40202.898
659.441;32729.797;   -7.531;39677.938
660.018;32014.367;   -9.501;40413.355
660.596;30923.105;  -13.301;39931.414
661.173;33003.656;  -11.211;39604.531
661.750;33194.563;   -9.951;39700.070
662.328;32371.090;   -9.390;39292.809
662.905;31270.033;  -11.330;38235.648
663.482;26390.510;   -9.050;36212.305
664.060;24589.352;   -8.240;35944.945
664.637;27593.387;  -10.050;35170.785
665.214;29580.373;  -11.760;34197.523
665.791;30814.332;  -10.530;34549.520
666.368;29401.992;   -9.690;35118.578
666.945;30540.502;   -9.320;36019.418
667.522;32084.055;  -11.860;36048.438
668.099;31936.209;  -10.770;36243.914
668.676;30823.336;   -6.260;35958.875
669.253;29285.070;   -7.000;37384.730
669.830;29976.547;  -10.190;36779.629
670.407;29740.271;   -9.550;35231.289
670.984;30083.727;   -9.260;35544.270
671.560;30330.162;   -9.280;35466.867
672.137;29101.211;  -11.810;34280.863
672.714;29901.688;  -11.490;34632.863
673.290;30347.133;   -7.740;35135.422
673.867;30816.920;  -10.660;36114.480
674.443;30414.701;  -12.230;36152.859
675.020;28691.514;  -10.450;35327.238
675.596;29970.328;   -9.260;35795.176
676.173;30445.686;  -10.780;35430.355
676.749;30376.895;  -13.690;33549.516
677.326;30466.533;  -11.980;32210.012
677.902;30426.865;   -8.630;32068.871
678.478;29614.350;  -10.730;32583.891
679.054;29225.822;  -10.520;32088.928
679.631;29444.301;  -11.920;30978.848
680.207;30946.830;   -7.490;33160.887
680.783;32504.545;   -9.860;35570.363
681.359;31548.035;  -13.380;36125.184
681.935;30856.131;  -12.480;35240.922
682.511;29820.674;   -7.900;34429.961
683.087;29977.691;   -7.710;34463.680
683.663;29809.074;  -11.480;34648.898
684.239;28469.641;  -14.090;34546.457
684.815;28128.191;   -7.560;35586.375
685.390;28556.783;   -9.910;35821.895
685.966;29011.582;  -11.159;35085.871
686.542;31573.348;  -11.169;34198.230
687.118;33456.691;   -5.959;32847.707
687.693;33302.082;  -10.329;32794.027
688.269;32964.555;  -12.059;33072.367
688.844;31045.482;  -10.909;33141.664
689.420;28742.416;   -8.019;33965.742
689.995;26403.348;   -8.399;34655.523
690.571;25217.514;  -10.949;33576.742
691.146;25807.852;   -9.619;32657.219
691.722;25228.689;   -8.999;32526.979
692.297;25700.023;  -11.589;33014.617
692.872;27630.529;  -11.739;34012.254
693.448;26894.320;  -11.059;34237.434
694.023;26154.813;  -10.139;34142.672
694.598;28247.973;   -9.029;34132.031
695.173;28384.512;  -13.319;34205.250
695.748;27691.334;  -10.169;32882.488
696.323;27502.350;   -8.339;32864.906
696.898;27747.490;   -8.169;33170.004
697.473;27543.088;  -12.309;32432.984
698.048;27022.705;  -10.989;31649.303
698.623;27274.100;   -9.329;30778.141
699.198;29423.418;   -9.849;31140.119
699.773;30036.238;  -12.329;31764.299
700.348;28304.844;  -10.389;31780.816
700.922;28254.523;   -9.269;32046.375
701.497;28759.205;   -9.329;32603.574
702.072;28722.088;  -10.789;34799.871
702.646;27652.658;  -10.839;35793.172
703.221;26099.766;   -9.099;35201.590
703.795;27994.354;  -10.939;34764.527
704.370;28117.578;  -12.859;34307.367
704.944;28687.703;  -11.559;33509.887
705.519;29755.678;   -7.939;31388.584
706.093;31284.574;  -10.499;31340.104
706.668;31249.461;  -11.289;32630.281
707.242;30252.363;  -11.509;32728.779
707.816;28749.365;   -9.639;32947.238
708.390;27169.471;  -11.429;33277.855
708.965;28012.617;  -11.869;33834.336
709.539;28579.898;  -11.689;33709.273
710.113;29038.609;  -10.478;33044.313
710.687;28017.676;  -10.228;31953.992
711.261;26104.547;  -13.698;30505.949
711.835;26105.879;  -13.378;30262.369
712.409;27145.182;   -9.698;31254.447
712.983;28806.043;  -11.898;32754.986
713.557;29494.779;  -15.138;34018.824
714.131;29186.844;  -14.098;34579.625
714.704;28382.551;   -9.958;33890.262
715.278;26219.074;  -10.028;33531.102
715.852;25499.715;  -11.148;33601.660
716.425;26408.865;   -9.068;33515.117
716.999;27028.758;  -10.038;33185.555
717.573;28090.078;   -9.798;33905.996
718.146;29137.891;  -12.378;35199.293
718.720;28722.732;  -11.918;35060.551
719.293;28091.252;   -8.088;34973.230
719.867;30917.588;  -10.888;36394.449
720.440;30241.479;  -11.938;36663.008
721.013;28463.240;  -12.818;35102.426
721.587;27365.533;  -10.298;33985.266
722.160;26670.938;  -10.048;33524.965
722.733;25733.945;  -12.108;32987.043
723.306;26126.895;  -10.818;33066.301
723.880;28257.559;   -8.908;33399.500
724.453;29477.621;   -9.878;33468.297
725.026;28371.350;  -11.188;33816.637
725.599;26297.852;  -11.678;32797.996
726.172;27288.799;   -9.618;33187.434
726.745;28528.533;   -8.258;35136.613
727.318;29934.031;  -12.978;35751.730
727.891;29922.854;  -12.148;35890.430
728.463;29447.072;   -8.968;34822.090
729.036;28674.395;  -10.188;32895.086
729.609;29060.971;  -11.788;31823.225
730.182;25958.012;  -11.788;31445.283
730.754;23485.957;  -10.268;32373.223
731.327;23475.508;   -9.998;33676.820
731.900;23937.328;  -12.228;33417.000
732.472;25411.654;  -13.848;31978.498
733.045;27107.100;   -8.698;30368.777
733.617;27174.498;  -10.607;30574.215
734.190;26509.408;  -11.507;31280.975
734.762;23337.121;  -13.647;31674.412
735.334;21914.412;   -9.767;31247.291
735.907;22846.791;   -9.897;29876.211
736.479;22769.391;  -11.637;29808.488
737.051;22308.732;   -9.567;30233.547
737.623;23275.283;   -8.187;31469.086
738.195;24423.111;  -11.187;31784.225
738.768;26562.146;  -12.337;32120.523
739.340;26190.629;  -12.227;32094.342
739.912;24728.029;  -11.057;31312.680
740.484;23450.889;  -10.207;31946.238
741.056;22647.398;  -10.047;32984.059
741.628;24540.619;  -13.627;33897.715
742.199;26804.207;   -7.177;33213.016
742.771;25097.086;  -10.797;31369.113
743.343;22690.453;  -11.997;31865.473
743.915;21754.883;  -12.867;32388.631
744.487;21939.955;   -7.617;31079.568
745.058;22046.971;   -9.557;30570.107
745.630;22440.760;   -9.877;29970.127
746.201;22953.670;  -14.177;29186.766
746.773;23053.613;   -9.237;28805.723
747.344;23023.430;   -9.847;29591.223
747.916;22030.971;  -11.657;31412.201
748.487;22484.789;  -10.587;32194.898
749.059;23606.473;   -8.707;32533.719
749.630;24276.715;  -10.537;32158.518
750.201;23483.049;  -11.687;30855.395
750.773;21778.527;  -11.647;28622.555
751.344;21790.436;   -7.147;28405.732
751.915;22852.381;   -9.757;28461.551
752.486;22300.025;  -12.427;27842.850
753.057;20165.471;  -12.227;27845.008
753.628;19210.164;  -10.417;27728.107
754.199;20483.453;  -11.767;27381.086
754.770;21397.574;  -11.187;25882.203
755.341;21304.760;  -10.507;25886.184
755.912;21107.943;   -9.387;26050.861
756.483;20501.996;  -10.647;26798.779
757.054;18675.361;  -11.837;27048.238
757.625;17466.684;  -12.716;26294.838
758.195;17432.936;   -9.666;26142.076
758.766;17264.527;   -8.656;26392.234
759.337;18088.527;  -12.856;26334.594
759.907;19877.648;  -13.366;27579.652
760.478;20647.469;   -8.576;28352.770
761.048;19801.229;  -10.526;27325.088
761.619;18965.203;  -11.116;26460.428
762.189;19152.439;  -12.136;26029.826
762.760;20517.598;   -9.456;26430.145
763.330;21391.541;   -7.136;26670.902
763.900;20605.252;  -11.786;26603.021
764.471;17990.807;  -11.546;25542.740
765.041;16749.574;   -8.096;24358.459
765.611;16858.918;   -8.876;23991.297
766.181;17338.926;  -12.196;24470.236
766.751;18305.635;  -11.636;24845.975
767.321;17923.369;  -10.156;24533.633
767.891;15827.729;  -11.766;24916.492
768.461;15378.966;  -14.936;24776.771
769.031;15994.575;  -12.356;24757.988
769.601;17431.520;   -7.526;24181.088
770.171;17176.270;  -10.766;23670.387
770.741;16636.205;  -13.176;22960.045
771.311;17012.258;  -10.616;22917.523
771.880;17233.270;   -9.576;23562.941
772.450;16915.309;  -10.336;24216.500
773.020;17076.238;  -13.516;24140.398
773.589;16496.318;  -13.466;24414.857
774.159;15890.108;   -8.686;23858.717
774.729;15478.885;   -9.476;22942.135
775.298;14923.193;  -13.666;22324.033
775.867;14525.213;  -11.716;21140.313
776.437;14506.729;   -9.906;20838.092
777.006;14233.119;  -12.166;20599.510
777.576;14178.002;  -12.356;20508.809
778.145;14426.025;  -11.646;20732.947
778.714;14296.829;   -8.226;21062.465
779.283;13540.981;   -9.556;20949.664
779.853;13128.591;  -14.116;20508.623
780.422;13585.273;  -11.506;20649.082
780.991;13188.541;   -9.556;21527.520
781.560;12098.876;   -9.095;22632.658
782.129;11919.474;  -12.135;23048.277
782.698;11915.777;  -10.865;23438.555
783.267;11510.649;   -9.335;23267.734
783.836;11557.293;  -11.045;22415.133
784.404;12617.294;  -13.865;20443.152
784.973;13090.894;  -13.095;19699.150
785.542;13033.966;  -11.575;19763.828
786.111;12924.037;   -9.705;20341.408
786.679;12349.416;  -12.105;20207.967
787.248;12079.475;  -12.455;19516.465
787.817;11879.932;  -11.535;18900.363
788.385;11432.735;   -9.765;17879.121
788.954;10821.886;  -14.005;17658.301
789.522;10361.774;  -11.955;17788.879
790.090;10929.360;  -10.135;18118.277
790.659;11238.611;  -10.975;18338.736
791.227;10730.035;  -13.375;18508.615
791.795;11206.449;  -12.375;17898.254
792.364;11490.431;  -10.725;17295.133
792.932;11674.544;   -9.715;16822.051
793.500;11896.495;  -12.675;17040.148
794.068;12227.472;  -13.495;17179.787
794.636;12319.338;  -10.885;16664.246
795.204;11843.476;  -11.045;16524.545
795.772;11899.537;  -13.175;17274.564
796.340;11408.395;  -12.445;17891.002
796.908;11258.049;   -9.735;17648.561
797.476;11135.139;   -9.815;17064.080
798.044;10699.310;  -13.985;16672.777
798.612; 9912.330;  -13.115;17023.996
799.180; 9527.396;  -10.185;16561.615
799.747; 9439.724;   -9.055;15962.773
800.315; 9190.588;  -12.385;15296.992
800.883; 8804.810;  -15.035;14801.771
801.450; 8750.674;  -10.365;14534.430
802.018; 8813.210;   -9.855;14173.248
802.585; 8989.902;  -11.905;14029.547
803.153; 9093.995;  -11.585;13836.846
803.720; 8938.937;   -9.095;13567.324
804.287; 8484.719;   -9.135;13360.622
804.855; 8087.146;  -11.604;13681.981
805.422; 7962.688;  -11.794;13536.560
805.989; 7935.858;  -10.734;13355.958
806.556; 8160.773;  -10.444;13747.896
807.124; 8452.540;  -12.764;13987.376
807.691; 8421.781;  -12.964;14038.674
808.258; 8162.401;  -11.134;14120.152
808.825; 7765.011;   -9.854;13860.111
809.392; 7794.618;  -10.504;13268.790
809.959; 7378.181;  -13.054;12680.389
810.526; 7023.761;   -8.294;12427.308
811.093; 7097.929;   -8.394;12030.105
811.659; 7625.679;  -12.304;11653.664
812.226; 8016.156;  -13.944;11637.183
812.793; 7648.006;  -10.484;11611.521
813.360; 7031.319;  -10.144;11885.181
813.926; 6761.466;  -11.684;12770.539
814.493; 6581.063;  -13.644;12677.638
815.060; 6238.186;   -9.724;11974.336
815.626; 6293.105;   -9.854;11594.715
816.193; 6692.970;  -13.254;11579.474
816.759; 6707.488;  -13.204;11666.972
817.325; 6808.392;   -9.434;11325.530
817.892; 7185.849;  -10.134;11105.369
818.458; 7592.256;  -13.474;10843.928
819.024; 7162.283;  -11.854;10714.406
819.591; 6840.743;  -10.244;10469.165
820.157; 6643.002;  -10.704;10235.523
820.723; 6183.871;  -12.324;10847.563
821.289; 5890.306;   -9.444;11040.980
821.855; 5742.812;   -8.374;10357.100
822.421; 5630.264;  -10.234; 9978.918
822.987; 5578.781;  -13.294; 9754.177
823.553; 5331.159;  -10.884;10065.755
824.119; 5209.225;   -8.884;10036.294
824.685; 5277.501;   -6.784;10029.192
825.251; 5338.678;  -12.004;10199.230
825.816; 5318.879;  -11.474; 9820.189
826.382; 5134.309;   -9.174; 9297.248
826.948; 5387.841;   -9.214; 9381.347
827.513; 5720.299;  -10.774; 9450.726
828.079; 5494.542;  -11.924; 9472.444
828.645; 4988.891;  -10.543; 9292.643
829.210; 4966.112;  -10.533; 9065.341
829.776; 4937.324;  -10.753; 9132.620
830.341; 4798.036;  -10.173; 9092.878
830.906; 4989.719;  -10.743; 9078.557
831.472; 5287.773;  -11.113; 8534.535
832.037; 4962.452;  -10.603; 8677.874
832.602; 4406.306;  -13.323; 8628.692
833.167; 4174.698;  -10.823; 8879.031
833.733; 4127.901;  -10.113; 9189.790
834.298; 4237.843;  -13.583; 9052.608
834.863; 4264.530;  -12.703; 8895.087
835.428; 4258.727;  -10.523; 8824.266
835.993; 4172.949;   -6.963; 8845.385
836.558; 4061.788;  -10.763; 8888.563
837.123; 4216.093;   -9.903; 8966.582
837.688; 4423.520;   -9.913; 8617.860
838.253; 4611.582;  -10.283; 8590.699
838.817; 4799.110;  -12.963; 8443.797
839.382; 4706.612;  -14.243; 8799.356
839.947; 4400.000;  -10.733; 8810.595
840.511; 4094.394;   -9.383; 8796.394
841.076; 3745.120;  -12.563; 8347.231
841.641; 3833.120;  -12.953; 8224.330
842.205; 3930.014;   -7.043; 8223.349
842.770; 4059.937;   -8.163; 8622.107
843.334; 4253.375;  -12.503; 8410.386
843.898; 4232.498;  -11.693; 8337.465
844.463; 4257.165;  -10.203; 8506.283
845.027; 4025.677;   -9.533; 8280.962
845.591; 3845.844;  -13.443; 8231.141
846.156; 3789.395;  -13.143; 7969.179
846.720; 3665.273;   -9.433; 7768.278
847.284; 3526.340;  -11.033; 7630.957
847.848; 3389.031;  -10.403; 7472.395
848.412; 3286.745;  -11.553; 7437.394
848.976; 3320.672;   -8.393; 7674.592
849.540; 3285.330;   -8.713; 7836.011
850.104; 3430.068;  -12.463; 7913.669
850.668; 3754.707;  -12.973; 7694.508
851.232; 3819.260;  -10.793; 7756.887
851.796; 3653.706;  -10.662; 7926.545
852.359; 3373.403;  -13.082; 7827.844
852.923; 3237.533;  -12.192; 7641.163
853.487; 3076.296;  -11.912; 7342.501
854.050; 3022.058;  -10.892; 7042.820
854.614; 3127.940;  -13.992; 7151.338
855.177; 3227.918;  -11.732; 7105.077
855.741; 3263.218;   -8.962; 6989.675
856.304; 3171.172;   -9.442; 6596.634
856.868; 3126.645;  -14.192; 6356.272
857.431; 3237.728;  -12.702; 6468.571
857.995; 3364.873;   -9.942; 6373.210
858.558; 3369.164;   -9.112; 6324.448
859.121; 3102.953;  -12.932; 6408.327
859.684; 2992.071;  -13.442; 6347.886
860.247; 3083.180;  -10.632; 6321.264
860.810; 3055.830;  -11.272; 6301.903
861.374; 2802.412;   -9.832; 6607.881
861.937; 2567.348;  -11.762; 6408.200
862.500; 2578.335;   -9.722; 6572.639
863.062; 2760.121;  -10.512; 6387.297
863.625; 2920.677;  -11.232; 6190.836
864.188; 3075.601;  -14.112; 5807.254
864.751; 3138.851;  -11.302; 5682.413
865.314; 3018.685;  -10.112; 5547.492
865.876; 2828.985;  -12.182; 5500.150
866.439; 2834.164;  -10.722; 5415.909
867.002; 2768.321;   -9.252; 5501.567
867.564; 2551.010;   -9.572; 5413.946
868.127; 2323.532;  -13.142; 5160.325
868.689; 2223.363;  -12.902; 5133.183
869.252; 2121.991;   -9.732; 5252.382
869.814; 2030.574;   -9.432; 5297.141
870.377; 2054.892;  -11.552; 5390.919
870.939; 2134.033;   -9.052; 5599.898
871.501; 2188.322;  -10.982; 5248.336
872.063; 2182.170;  -12.292; 4854.235
872.626; 2144.561;  -14.912; 4817.074
873.188; 2180.682;  -13.112; 4987.732
873.750; 2147.113;  -13.442; 4868.651
874.312; 2063.433;   -9.402; 4779.330
874.874; 1967.423;  -11.062; 4866.348
875.436; 1876.700;  -13.931; 4718.887
875.998; 1863.255;   -9.561; 4660.005
876.560; 1879.600;  -11.321; 4462.964
877.122; 1825.705;  -12.221; 4145.042
877.683; 1745.782;  -12.191; 4056.481
878.245; 1680.413;  -12.101; 3950.740
878.807; 1719.899;   -8.971; 4058.958
879.369; 1739.265;  -12.071; 3954.677
879.930; 1648.244;  -14.621; 3941.495
880.492; 1594.404;  -10.311; 4067.014
881.053; 1545.735;  -10.901; 3859.633
881.615; 1425.439;  -14.411; 3776.071
882.176; 1337.937;  -13.761; 3734.750
882.738; 1299.321;   -9.181; 3678.489
883.299; 1277.079;  -11.791; 3405.407
883.860; 1289.015;  -13.121; 3351.106
884.422; 1288.736;  -11.211; 3394.044
884.983; 1239.976;  -10.091; 3166.443
885.544; 1155.434;   -8.461; 3189.802
886.105; 1078.996;  -12.361; 3160.360
886.666; 1016.274;  -14.141; 3093.059
887.227;  965.253;  -11.361; 2941.957
887.788;  905.616;  -11.401; 2974.836
888.349;  845.429;  -13.791; 2721.214
888.910;  843.560;  -13.191; 2696.493
889.471;  852.261;   -9.881; 2560.172
890.032;  831.870;   -9.881; 2558.190
890.593;  809.230;  -10.371; 2567.669
891.153;  782.262;  -13.301; 2460.307
891.714;  732.915;  -11.431; 2372.046
892.275;  691.863;  -11.291; 2309.505
892.835;  647.356;  -11.471; 2382.543
893.396;  593.320;  -11.541; 2295.502
893.956;  539.045;  -11.181; 2162.420
894.517;  505.980;  -11.741; 2125.439
895.077;  504.083;  -11.671; 2086.978
895.638;  504.589;  -11.311; 2126.316
896.198;  476.430;   -9.831; 1838.275
896.758;  435.132;   -8.421; 1892.813
897.319;  406.816;  -12.351; 1792.232
897.879;  389.641;  -13.511; 1762.751
898.439;  364.430;  -12.001; 1661.149
898.999;  342.206;  -10.180; 1781.468
899.559;  331.866;  -12.030; 1703.347
900.119;  325.196;  -15.710; 1537.525
900.679;  324.103;   -8.900; 1638.384
901.239;  309.582;   -8.340; 1527.902
901.799;  298.162;  -13.910; 1456.441
902.359;  294.362;  -13.460; 1357.140
902.919;  288.436;  -11.490; 1331.118
903.479;  274.674;  -12.110; 1317.257
904.038;  254.930;  -11.720; 1262.595
904.598;  241.223;  -13.610; 1152.034
905.158;  238.070;  -11.040; 1240.893
905.717;  230.279;  -10.900; 1233.691
906.277;  218.273;  -15.080; 1217.330
906.836;  208.428;  -13.380; 1222.408
907.396;  200.769;  -10.780; 1193.047
907.955;  194.435;   -8.500; 1182.526
908.515;  188.443;  -12.760; 1099.364
909.074;  182.714;  -11.900; 1092.863
909.633;  178.187;   -8.950; 1069.121
910.192;  173.626;   -8.770; 1196.460
910.752;  167.692;  -12.390; 1029.960
911.311;  163.814;  -13.680; 1009.780
911.870;  162.371;  -12.370;  971.460
912.429;  165.119;  -10.900; 1094.080
912.988;  162.056;  -11.690; 1081.060
913.547;  156.369;  -13.240;  940.380
914.106;  153.104;  -11.990;  999.420
914.665;  150.363;   -9.990;  984.020
915.224;  148.710;  -12.880; 1035.760
915.782;  149.373;  -12.350;  922.560
916.341;  149.105;   -9.110; 1049.840
916.900;  145.380;   -9.270;  925.260
917.458;  143.026;  -13.240;  884.220
918.017;  141.487;  -13.550;  942.600
918.576;  142.768;  -12.320;  904.440
919.134;  140.667;  -11.490;  837.980
919.693;  137.437;  -13.670;  893.060
920.251;  136.137;  -15.470;  876.500
920.809;  135.383;  -11.290;  839.580
921.368;  135.189;  -10.210;  885.360
921.926;  133.534;  -12.140;  842.940
922.484;  131.816;  -13.080;  903.360
923.042;  133.610;  -11.720;  880.340
923.601;  135.526;   -7.480;  998.680
924.159;  133.727;  -11.570;  935.560
924.717;  129.799;  -13.840;  841.080
925.275;  130.884;  -10.640;  903.240
925.833;  130.392;  -11.540;  779.320
926.391;  131.009;  -12.960;  938.380
926.949;  127.521;  -14.130;  857.680
927.506;  129.775;  -11.750;  903.500
928.064;  129.631;  -10.250;  877.580
928.622;  128.756;  -13.030;  880.100
929.180;  127.902;  -13.400;  814.180
929.737;  129.263;  -10.700;  808.540
930.295;  134.782;  -10.070;  928.480
930.853;  134.544;  -11.960;  849.100
931.410;  134.811;  -13.120;  821.120
931.968;  135.246;  -10.770;  940.660
932.525;  134.801;  -10.680;  909.380
933.082;  134.596;  -13.130;  811.440
933.640;  135.326;  -13.210;  925.900
934.197;  134.455;  -11.060;  886.360
934.754;  135.611;   -9.580;  897.780
935.312;  137.739;  -14.000;  863.340
935.869;  141.768;  -10.710; 1012.980
936.426;  142.319;   -9.860;  872.800
936.983;  143.477;   -9.710;  889.020
937.540;  141.968;  -13.990;  838.280
938.097;  140.427;  -14.040;  940.120
938.654;  141.520;  -10.310;  898.860
939.211;  144.339;  -10.560;  952.480
939.768;  147.191;  -13.900;  915.420
940.324;  149.920;  -14.760;  904.200
940.881;  152.159;  -10.370;  878.500
941.438;  151.903;   -8.260; 1021.200
941.995;  147.230;  -12.540;  992.560
942.551;  144.544;  -14.670;  875.620
943.108;  146.018;  -10.450;  937.920
943.664;  149.192;  -10.750;  869.340
944.221;  151.994;  -11.550; 1088.140
944.777;  148.989;  -14.770;  869.680
945.334;  150.801;  -12.820;  884.840
945.890;  152.080;  -10.130;  946.480
946.446;  151.936;  -13.470;  947.020
947.003;  152.773;  -12.120;  964.940
947.559;  155.225;   -9.980; 1063.040
948.115;  155.467;   -9.080; 1026.540
948.671;  153.968;  -10.830;  967.300
949.227;  151.354;  -12.440;  859.560
949.783;  148.828;  -12.910;  858.900
950.339;  151.330;  -10.270;  991.000
950.895;  151.367;  -13.630; 1023.840
951.451;  149.299;  -15.100;  925.280
952.007;  150.892;  -11.330;  998.540
952.563;  150.234;  -10.580;  937.780
953.118;  148.754;  -13.440;  904.940
953.674;  148.468;  -12.710;  935.780
954.230;  148.856;  -10.350;  949.640
954.785;  146.869;   -9.190;  936.640
955.341;  144.135;  -11.200;  998.160
955.897;  141.908;  -16.560;  834.660
956.452;  143.956;  -12.570;  953.840
957.008;  143.117;   -7.970; 1083.640
957.563;  140.651;  -11.940; 1009.540
958.118;  135.952;  -13.450;  877.700
958.674;  137.499;  -12.030;  946.780
959.229;  138.452;   -9.410; 1013.980
959.784;  136.073;  -12.000;  832.400
960.339;  135.301;  -14.780; 1001.280
960.894;  131.719;   -9.860;  963.760
961.449;  128.123;   -9.970;  859.960
962.004;  127.593;  -10.900; 1212.840
962.559;  122.012;  -13.150;  860.140
963.114;  120.685;  -13.740;  742.480
963.669;  120.219;   -9.820;  915.500
964.224;  118.004;  -13.890;  874.340
964.779;  116.921;  -12.600;  828.420
965.334;  118.005;  -10.950; 1017.860
965.888;  117.620;  -11.170;  875.360
966.443;  119.602;  -12.540;  972.380
966.998;  118.635;  -15.780;  819.460
967.552;  118.559;   -9.760;  908.380
968.107;  114.770;   -9.060;  868.300
968.661;  115.057;  -11.950;  922.440
969.216;  116.646;  -12.800;  856.280
969.770;  116.799;  -11.210;  917.200
970.324;  116.630;  -11.610;  923.140
970.879;  112.152;  -11.370;  947.180
971.433;  108.527;  -12.540;  952.720
971.987;  104.619;  -11.320;  895.340
972.541;  101.344;  -10.720;  917.100
973.095;  101.363;   -9.680; 1009.460
973.649;   99.192;  -11.440;  809.480
974.203;   99.342;  -11.210;  829.040
974.757;   98.935;  -10.240;  855.220
975.311;   98.418;  -13.720;  872.600
975.865;   97.230;  -13.770;  881.820
976.419;   96.420;  -11.690;  857.400
976.973;   96.968;   -9.510;  849.620
977.526;   98.666;  -12.620;  949.920
978.080;   96.818;  -12.010;  796.780
978.634;   99.327;  -10.170;  921.320
979.187;   96.514;   -9.020;  905.400
979.741;   93.259;   -9.820; 1018.380
980.294;   88.488;  -14.870;  789.160
980.848;   87.148;  -12.380;  717.220
981.401;   89.259;  -10.350;  816.540
981.955;   90.755;  -13.720;  844.300
982.508;   89.771;  -11.490;  746.340
983.061;   90.340;  -10.000;  915.260
983.615;   87.184;  -11.480;  798.800
984.168;   82.999;  -13.220;  770.080
984.721;   82.206;  -13.960;  880.760
985.274;   82.042;  -10.870;  867.500
985.827;   81.541;   -9.790;  834.220
986.380;   79.458;  -13.120;  721.340
986.933;   77.570;  -12.450;  864.800
987.486;   76.148;  -10.210;  861.920
988.039;   75.262;   -8.430;  863.100
988.591;   73.061;  -10.520;  893.260
989.144;   70.302;  -14.860;  737.260
989.697;   70.074;  -13.080;  758.740
990.250;   71.466;  -10.150;  858.100
990.802;   69.643;  -13.430;  755.860
991.355;   70.276;  -12.750;  974.880
991.907;   68.404;  -12.040;  864.320
992.460;   66.531;  -11.330;  753.760
993.012;   65.382;  -13.610;  749.540
993.565;   63.934;  -13.460;  711.360
994.117;   66.093;   -9.360;  950.780
994.669;   62.597;  -11.300;  701.320
995.221;   60.551;  -13.540;  791.920
995.774;   57.705;  -13.430;  787.580
996.326;   57.324;  -12.520;  740.220
996.878;   57.720;  -10.950;  838.420
997.430;   54.944;  -14.300;  699.860
997.982;   54.008;  -13.760;  750.140
998.534;   53.760;  -11.530;  739.060
999.086;   52.706;  -10.310;  738.220
999.638;   51.281;  -12.530;  661.380
1000.190;   50.340;  -11.840;  699.320
1000.741;   50.397;  -10.260;  742.700
1001.293;   50.586;   -8.860;  686.020
1001.845;   49.234;  -13.700;  676.640
1002.396;   48.283;  -12.100;  743.400
1002.948;   48.997;  -12.760;  737.400
1003.500;   46.858;  -10.380;  723.780
1004.051;   47.073;  -11.900;  907.580
1004.603;   45.724;  -12.250;  791.820
1005.154;   42.220;  -13.210;  608.980
1005.705;   41.283;  -10.950;  723.960
1006.257;   40.782;  -13.880;  707.220
1006.808;   39.411;  -12.840;  685.460
1007.359;   39.683;  -10.570;  763.240
1007.910;   39.174;   -9.620;  646.640
1008.461;   38.819;  -13.630;  732.940
1009.013;   37.103;  -17.200;  588.340
1009.564;   38.785;  -10.200;  793.520
1010.115;   36.288;  -12.570;  597.040
1010.665;   35.654;  -15.150;  602.160
1011.216;   36.246;  -14.480;  667.920
1011.767;   35.849;  -11.340;  697.920
1012.318;   36.112;   -9.780;  736.980
1012.869;   34.309;  -12.380;  679.000
1013.419;   33.649;  -15.560;  603.120
1013.970;   35.162;  -11.010;  666.640
1014.521;   33.938;  -11.610;  620.620
1015.071;   34.599;  -13.450;  670.380
1015.622;   32.922;  -13.870;  635.460
1016.172;   32.866;  -11.610;  596.820
1016.723;   33.077;  -12.120;  614.380
1017.273;   32.226;  -13.620;  604.160
1017.823;   32.412;  -14.140;  650.340
1018.374;   31.844;  -12.800;  611.760
1018.924;   31.855;  -12.340;  716.880
1019.474;   33.044;  -11.410;  718.880
1020.024;   30.838;  -14.770;  657.580
1020.574;   32.050;   -9.780;  726.160
1021.124;   32.054;   -8.560;  673.580
1021.674;   30.111;  -15.190;  559.120
1022.224;   31.685;  -13.530;  708.940
1022.774;   31.275;  -13.280;  668.820
1023.324;   31.663;  -10.690;  753.520
1023.874;   32.139;  -10.240;  875.760
1024.423;   29.340;  -12.540;  613.700
1024.973;   29.771;  -10.010;  610.760
1025.523;   28.852;  -10.550;  620.960
1026.072;   29.274;  -13.560;  606.420
1026.622;   27.921;  -15.120;  675.740
1027.172;   29.732;  -11.260;  715.660
1027.721;   28.744;  -11.410;  601.220
1028.270;   28.610;  -13.530;  663.400
1028.820;   28.022;  -13.680;  638.080
1029.369;   28.166;  -13.520;  612.700
1029.918;   28.446;  -10.980;  649.840
1030.468;   27.385;  -13.530;  564.780
1031.017;   27.323;  -13.170;  634.800
1031.566;   27.356;  -12.200;  608.900
1032.115;   27.644;   -9.960;  694.500
1032.664;   26.495;  -13.210;  596.480
1033.213;   26.450;  -12.500;  735.420
1033.762;   26.885;  -11.910;  635.620
1034.311;   26.669;   -9.640;  677.220
1034.860;   26.521;  -13.310;  691.000
1035.408;   25.946;  -11.830;  722.720
1035.957;   26.754;  -12.000;  719.540
1036.506;   25.191;  -11.690;  530.800
1037.055;   27.388;  -10.990;  844.320
1037.603;   24.823;  -15.120;  664.000
1038.152;   23.796;  -12.450;  534.760
1038.700;   24.490;  -10.560;  585.740
1039.249;   24.030;  -11.080;  681.220
1039.797;   24.766;  -12.540;  633.360
1040.345;   25.021;  -11.920;  705.420
1040.894;   24.336;  -11.410;  625.300
1041.442;   23.948;  -14.320;  632.200
1041.990;   22.202;  -16.240;  559.160
1042.538;   22.749;  -11.680;  536.180
1043.087;   23.163;  -10.760;  570.860
1043.635;   24.336;  -11.850;  670.500
1044.183;   22.661;  -15.480;  586.400
1044.731;   23.038;  -11.770;  576.000
1045.279;   23.028;  -13.090;  674.920
1045.827;   23.795;  -12.440;  892.400
1046.374;   21.288;  -13.840;  515.420
1046.922;   21.447;  -13.220;  590.580
1047.470;   23.199;  -10.230;  691.300
1048.018;   22.589;  -14.590;  647.960
1048.565;   22.490;  -12.050;  708.600
1049.113;   21.210;  -11.650;  557.000
1049.660;   21.515;  -10.510;  629.660
1050.208;   21.375;  -13.310;  675.640
1050.755;   20.260;  -15.900;  606.580
1051.303;   21.661;  -11.430;  686.820
1051.850;   20.984;   -8.480;  635.120
1052.397;   18.797;  -15.010;  473.960
1052.945;   18.958;  -13.960;  617.760
1053.492;   21.842;  -13.150;  741.840
1054.039;   21.967;   -9.630;  720.180
1054.586;   20.151;  -13.680;  557.240
1055.133;   19.949;  -14.570;  693.140
1055.680;   20.184;  -13.820;  646.620
1056.227;   19.574;  -11.730;  542.780
1056.774;   20.793;  -12.480;  794.980
1057.321;   18.844;  -13.930;  523.260
1057.868;   19.404;  -11.690;  651.320
1058.415;   19.220;   -9.520;  651.980
1058.961;   19.385;  -13.160;  678.940
1059.508;   18.484;  -12.920;  643.820
1060.055;   18.933;  -11.920;  581.780
1060.601;   19.439;  -11.500;  624.300
1061.148;   18.321;  -14.330;  616.820
1061.694;   17.024;  -16.870;  592.580
1062.241;   17.725;  -10.330;  596.320
1062.787;   18.682;  -10.620;  663.140
1063.334;   19.970;  -10.110;  808.560
1063.880;   17.525;  -13.400;  668.360
1064.426;   18.509;  -10.680;  706.820
1064.972;   17.553;   -9.920;  601.340
1065.518;   16.800;  -10.980;  566.640
1066.065;   16.870;  -14.890;  624.460
1066.611;   17.107;  -12.870;  598.800
1067.157;   18.309;  -12.950;  641.860
1067.703;   16.831;  -13.540;  668.480
1068.249;   16.387;  -13.540;  605.220
1068.794;   16.570;  -12.600;  626.880
1069.340;   16.212;  -10.620;  578.960
1069.886;   16.304;  -12.830;  590.700
1070.432;   15.219;  -14.870;  541.720
1070.977;   15.661;  -11.980;  601.080
1071.523;   15.920;   -8.200;  573.060
1072.068;   15.647;  -12.330;  582.000
1072.614;   15.488;  -16.370;  527.760
1073.160;   16.361;  -11.100;  687.040
1073.705;   15.301;  -10.480;  572.520
1074.250;   14.828;  -14.520;  559.900
1074.796;   15.983;  -11.460;  655.160
1075.341;   16.594;  -11.950;  664.100
1075.886;   15.360;  -11.460;  594.240
1076.431;   14.619;  -13.770;  649.880
1076.976;   14.069;  -12.680;  639.220
1077.521;   14.109;  -13.170;  583.080
1078.067;   13.671;  -10.860;  579.400
1078.612;   14.290;  -13.920;  661.620
1079.156;   13.579;  -13.880;  601.540
1079.701;   14.535;  -13.120;  693.260
1080.246;   15.330;   -9.940;  696.300
1080.791;   14.023;  -14.740;  625.020
1081.336;   13.643;  -13.750;  659.320
1081.880;   13.203;  -13.400;  649.680
1082.425;   13.743;  -12.220;  573.480
1082.970;   14.537;  -11.610;  717.040
1083.514;   12.996;  -13.580;  597.000
1084.059;   12.962;  -12.810;  586.720
1084.603;   13.305;  -12.320;  565.840
1085.147;   13.373;  -13.190;  645.220
1085.692;   13.210;  -12.480;  716.800
1086.236;   12.118;  -13.020;  503.140
1086.780;   14.696;   -9.190;  751.440
1087.325;   12.999;  -12.480;  654.620
1087.869;   12.984;  -12.450;  610.700
1088.413;   12.268;  -12.240;  705.040
1088.957;   11.323;   -9.020;  543.400
1089.501;   12.895;  -10.320;  766.640
1090.045;   11.540;  -12.720;  726.480
1090.589;   10.857;  -13.690;  569.920
1091.133;   12.434;  -10.020;  673.340
1091.676;   12.362;  -12.330;  591.940
1092.220;   10.962;  -14.970;  600.920
1092.764;   12.364;  -12.430;  706.960
1093.307;   12.112;   -9.800;  673.780
1093.851;   10.521;  -14.970;  556.540
1094.395;   11.124;  -15.310;  683.140
1094.938;   10.408;  -10.370;  632.520
1095.482;   10.845;  -11.050;  559.800
1096.025;   11.119;  -11.840;  710.880
1096.568;   11.646;  -12.840;  779.280
1097.112;    8.819;  -14.700;  508.180
1097.655;   10.904;   -8.720;  603.000
1098.198;    9.597;  -13.610;  600.180
1098.741;    8.979;  -13.350;  612.860
1099.285;   11.001;  -11.230;  657.300
1099.828;    8.292;  -11.840;  439.400
1100.371;   10.216;  -10.840;  608.160
1100.914;    9.602;  -14.190;  682.660
1101.457;    9.725;  -11.240;  679.900
1101.999;    8.902;  -11.270;  584.680
1102.542;    9.566;  -11.480;  641.440
1103.085;    8.413;  -11.750;  658.500
1103.628;   10.072;  -11.400;  762.060
1104.170;    9.473;  -10.490;  588.280
1104.713;    9.044;  -10.600;  646.700
1105.256;    7.506;  -14.360;  557.440
1105.798;    8.235;  -13.210;  499.980
1106.341;   10.114;  -10.270;  728.900
1106.883;    8.118;  -12.200;  521.340
1107.425;    7.724;  -13.110;  668.180
1107.968;    7.459;  -12.840;  612.380
1108.510;    8.760;   -6.480;  684.960
1109.052;    7.472;  -13.940;  612.620
1109.594;    6.973;  -13.690;  554.440
1110.136;    8.165;  -11.880;  643.220
1110.679;    7.218;   -9.500;  633.080
1111.221;    8.275;  -14.160;  604.460
1111.763;    6.569;  -13.980;  559.220
1112.304;    7.159;  -13.880;  547.140
1112.846;    8.025;  -12.210;  666.240
1113.388;    9.909;  -11.390;  942.180
1113.930;    6.894;  -14.540;  694.200
1114.472;    7.128;  -12.640;  606.540
1115.013;    5.866;  -11.620;  551.280
1115.555;    5.562;  -13.640;  587.100
1116.097;    5.357;  -15.380;  579.480
1116.638;    7.111;  -12.640;  684.600
1117.180;    7.760;   -9.850;  667.740
1117.721;    6.638;  -13.690;  568.580
1118.262;    6.018;  -12.680;  677.960
1118.804;    7.128;  -12.530;  637.340
1119.345;    6.167;  -11.690;  578.400
1119.886;    7.109;  -13.380;  704.040
1120.427;    4.786;  -14.070;  589.020
1120.969;    4.712;  -13.500;  597.920
1121.510;    5.338;  -11.480;  563.060
1122.051;    5.809;  -12.830;  723.580
1122.592;    4.654;  -14.290;  655.420
1123.133;    4.242;  -12.400;  547.940
1123.673;    6.604;  -10.130;  706.480
1124.214;    5.597;  -12.930;  612.460
1124.755;    5.482;  -14.380;  639.460
1125.296;    5.210;  -14.000;  627.320
1125.836;    5.795;  -10.070;  691.500
1126.377;    5.049;  -12.640;  599.660
1126.918;    4.797;  -12.960;  614.980
1127.458;    4.564;  -13.350;  622.220
1127.999;    5.207;  -10.750;  656.980
1128.539;    5.249;  -12.350;  694.240
1129.079;    3.490;  -14.860;  632.720
1129.620;    4.263;  -13.840;  558.100
1130.160;    4.209;  -12.330;  539.480
1130.700;    4.788;  -14.530;  640.840
1131.240;    4.409;  -12.530;  643.700
1131.781;    3.575;  -14.450;  619.680
1132.321;    4.124;   -9.790;  599.120
1132.861;    2.613;  -14.860;  564.200
1133.401;    2.049;  -14.290;  593.940
1133.941;    3.475;  -11.750;  626.280
1134.481;    4.032;   -9.920;  597.580
1135.020;    2.968;  -12.290;  609.160
1135.560;    3.159;  -11.650;  674.940
1136.100;    3.381;  -16.270;  501.160
1136.640;    2.546;  -10.890;  510.480
1137.179;    1.926;  -14.180;  537.960
1137.719;    2.780;  -16.250;  605.400
1138.258;    3.123;  -14.230;  587.360
1138.798;    3.861;   -9.090;  663.780
1139.337;    2.325;  -15.130;  482.840
1139.877;    2.488;  -13.680;  642.360
1140.416;    4.952;  -11.320;  878.060
1140.955;    2.986;  -10.860;  535.380
1141.494;    2.620;  -12.920;  669.280
1142.034;    1.522;  -13.930;  583.520
1142.573;    3.464;  -11.440;  646.280
1143.112;    2.378;  -12.000;  553.480
1143.651;    1.648;  -13.670;  536.480
1144.190;    2.440;  -12.730;  691.640
1144.729;    2.332;  -14.560;  607.420
1145.267;    2.006;  -11.830;  584.900
1145.806;    2.675;  -12.230;  637.040
1146.345;    0.821;  -14.130;  635.020
1146.884;    1.685;  -11.590;  622.500
1147.422;    1.592;  -12.550;  533.060
1147.961;    3.245;  -11.180;  708.460
1148.500;    1.914;  -11.510;  669.720
1149.038;    2.195;  -11.640;  632.500
1149.577;    2.271;  -10.130;  698.640
1150.115;    0.211;  -13.970;  452.280
1150.653;    0.333;  -14.520;  607.340
1151.192;    1.455;  -12.810;  552.920
1151.730;    1.387;   -9.100;  652.560
1152.268;    0.859;  -12.220;  589.520
1152.806;    0.317;  -14.140;  571.180
1153.344;   -0.250;  -12.350;  577.640
1153.882;    0.790;   -8.980;  600.060
1154.421;    0.160;  -15.190;  470.620
1154.958;    0.030;  -15.210;  595.240
1155.496;    1.270;  -12.850;  645.280
1156.034;    0.874;   -9.940;  721.880
1156.572;    2.022;  -13.570;  667.060
1157.110;   -1.220;  -14.590;  473.940
1157.647;    1.627;  -13.030;  676.960
1158.185;   -0.029;  -12.140;  564.320
1158.723;   -1.149;  -14.390;  509.200
1159.260;   -0.135;  -14.090;  701.700
1159.798;    0.492;  -11.920;  658.160
1160.335;   -0.159;  -11.110;  631.820

