
Integration time [ms]:   3.276
Averaging Nr. [scans]: 1000
Smoothing Nr. [pixels]: 0
Data measured with spectrometer [name]: 7414430SP
Wave   ;Sample   ;Dark     ;Reference
[nm]   ;[counts] ;[counts] ;[counts] 

288.544;  159.382;    7.793;  793.890
289.143;  162.474;    7.462;  681.602
289.742;  162.629;    8.602;  828.814
290.341;  148.550;    1.321;  789.841
290.940;  139.372;   -0.709;  730.702
291.538;  142.411;    0.881;  881.108
292.137;  141.190;    0.122;  792.581
292.736;  143.822;   -1.929;  975.101
293.335;  140.258;   -8.229;  735.086
293.934;  140.607;   -5.279;  781.677
294.532;  140.796;   -1.369; 1031.958
295.131;  128.880;   -7.641;  834.394
295.730;  129.240;   -8.420;  809.588
296.328;  125.344;   -5.611;  783.442
296.927;  124.230;   -5.781;  779.652
297.525;  125.113;   -6.361;  781.236
298.124;  118.199;  -11.382;  654.009
298.722;  122.228;   -7.641;  761.933
299.321;  119.149;   -6.811;  708.597
299.919;  114.940;   -6.991;  751.918
300.518;  112.152;  -10.362;  689.338
301.116;  113.977;   -9.581;  691.381
301.715;  115.435;   -4.891;  730.222
302.313;  113.724;   -8.801;  704.943
302.911;  107.775;   -8.522;  733.830
303.509;  113.451;   -6.171;  925.627
304.108;  111.369;   -7.311;  760.383
304.706;  111.363;   -8.321;  801.664
305.304;  105.327;  -10.222;  796.707
305.902;  108.975;   -6.021;  784.484
306.500;  105.617;   -4.971;  728.200
307.098;  104.345;   -7.061;  746.560
307.696;  102.621;   -8.801;  780.432
308.294;  101.207;   -6.411;  731.359
308.892;  104.751;   -2.901;  759.769
309.490;  100.918;   -5.041;  712.161
310.088;   98.677;   -5.002;  788.444
310.686;  101.949;   -2.041;  821.749
311.284;   99.435;   -2.351;  766.040
311.882;   96.852;   -4.422;  731.225
312.480;   92.876;   -4.192;  697.167
313.078;   94.830;   -1.172;  808.331
313.675;   95.474;   -2.601;  691.600
314.273;   91.145;   -1.312;  797.837
314.871;   89.401;   -3.942;  589.829
315.468;   87.384;   -2.802;  652.090
316.066;   91.154;   -0.701;  694.427
316.664;   84.039;   -4.362;  656.351
317.261;   87.805;   -2.872;  910.128
317.859;   82.617;   -2.022;  768.735
318.456;   82.452;   -0.531;  830.096
319.054;   80.412;   -3.912;  787.828
319.651;   78.010;   -4.752;  759.928
320.249;   76.139;   -2.602;  810.188
320.846;   73.435;   -0.821;  714.286
321.443;   72.168;   -4.642;  832.135
322.041;   68.398;   -5.002;  812.315
322.638;   66.592;   -3.982;  701.456
323.235;   67.521;   -3.411;  665.683
323.833;   63.934;   -7.361;  740.354
324.430;   60.162;   -8.611;  615.900
325.027;   60.413;   -4.061;  876.855
325.624;   60.336;   -4.031;  644.532
326.221;   57.928;   -7.481;  689.717
326.818;   56.513;   -5.281;  818.332
327.415;   59.734;   -7.460;  748.828
328.012;   59.376;   -5.510;  690.585
328.609;   57.246;   -7.880;  731.389
329.206;   55.691;   -8.331;  778.621
329.803;   55.572;   -5.121;  737.841
330.400;   57.445;   -4.510;  704.260
330.997;   59.305;   -6.441;  817.147
331.594;   56.968;   -8.831;  788.185
332.191;   62.074;   -7.621;  728.722
332.787;   66.841;   -4.591;  844.463
333.384;   65.985;   -7.412;  763.093
333.981;   63.527;   -8.293;  815.687
334.578;   66.391;   -7.052;  708.378
335.174;   69.461;   -3.102;  731.469
335.771;   69.665;   -5.943;  836.456
336.367;   66.705;   -7.393;  710.631
336.964;   70.848;   -4.063;  793.266
337.561;   69.101;   -3.813;  731.112
338.157;   64.684;   -4.654;  911.916
338.754;   62.603;   -7.934;  796.589
339.350;   62.361;   -4.414;  722.493
339.946;   63.867;   -4.664;  773.135
340.543;   54.157;   -6.375;  846.136
341.139;   49.376;   -9.815;  720.836
341.735;   47.633;   -4.526;  772.593
342.332;   46.293;   -4.895;  691.472
342.928;   46.299;   -4.295;  795.394
343.524;   38.132;   -5.476;  761.684
344.120;   35.020;   -5.856;  738.562
344.716;   39.393;   -2.155;  723.717
345.313;   35.837;   -6.275;  795.342
345.909;   31.155;   -8.815;  627.336
346.505;   32.192;   -5.305;  740.247
347.101;   31.544;   -2.674;  827.864
347.697;   32.452;   -4.344;  785.398
348.293;   27.086;   -9.975;  627.244
348.889;   28.173;   -5.774;  745.914
349.485;   28.151;   -5.004;  688.205
350.081;   28.141;   -4.704;  772.592
350.676;   23.507;   -6.635;  691.606
351.272;   27.611;   -4.504;  809.530
351.868;   27.163;   -3.914;  780.497
352.464;   24.187;   -9.044;  723.932
353.059;   20.250;   -8.314;  646.017
353.655;   23.770;   -7.024;  777.063
354.251;   24.478;   -5.343;  759.845
354.846;   18.781;   -8.604;  740.646
355.442;   17.286;   -6.945;  753.071
356.038;   18.683;   -7.564;  751.708
356.633;   19.392;   -5.814;  728.594
357.229;   17.331;   -7.364;  724.757
357.824;   15.924;   -8.024;  703.600
358.420;   14.032;   -9.384;  679.726
359.015;   14.840;   -5.104;  695.357
359.610;   15.397;   -6.854;  763.920
360.206;    9.635;  -10.185;  603.240
360.801;   11.994;   -7.054;  646.503
361.396;   14.300;   -5.034;  725.975
361.992;    9.561;   -8.284;  668.220
362.587;    7.183;   -8.625;  670.160
363.182;    8.977;   -7.674;  689.631
363.777;   10.242;   -5.164;  738.242
364.372;   10.143;   -8.604;  737.314
364.967;    5.392;   -9.055;  680.744
365.563;   10.332;   -6.114;  815.567
366.158;    6.770;   -5.814;  685.161
366.753;    6.882;   -7.854;  649.263
367.348;    4.815;   -7.804;  746.056
367.942;    5.347;   -7.954;  697.298
368.537;    4.819;   -4.984;  754.245
369.132;    4.777;   -8.564;  703.428
369.727;    1.115;   -8.855;  638.079
370.322;    1.987;   -6.245;  580.186
370.917;    2.132;   -6.425;  710.646
371.511;    4.450;   -6.294;  861.834
372.106;    0.394;   -7.685;  776.964
372.701;   -2.504;   -7.335;  585.988
373.296;    3.128;   -4.564;  863.135
373.890;   -1.976;  -10.235;  647.840
374.485;   -4.053;   -7.885;  691.199
375.079;    0.003;   -7.324;  738.685
375.674;    0.999;   -3.494;  812.970
376.268;   -3.016;   -8.525;  691.759
376.863;   -8.077;  -10.086;  580.327
377.457;   -2.454;   -7.025;  662.490
378.052;   -4.359;   -3.585;  764.884
378.646;   -4.854;   -7.595;  741.167
379.240;   -5.355;   -8.335;  721.176
379.835;   -4.815;   -5.785;  636.978
380.429;   -7.065;   -4.335;  562.557
381.023;   -6.928;   -6.805;  779.205
381.617;   -9.940;   -9.195;  680.106
382.212;   -6.147;   -6.905;  685.303
382.806;   -5.395;   -3.745;  760.690
383.400;   -8.956;   -7.745;  672.281
383.994;  -11.314;   -9.765;  664.870
384.588;   -6.171;   -6.564;  697.701
385.182;   -5.746;   -5.344;  726.624
385.776;   -7.340;   -8.514;  706.875
386.370;  -10.871;   -9.555;  681.968
386.964;   -9.658;   -8.715;  684.155
387.558;   -7.709;   -6.174;  598.360
388.152;  -11.041;   -8.725;  681.959
388.745;   -9.010;   -7.965;  814.707
389.339;   -7.644;   -5.924;  747.642
389.933;   -6.396;   -5.524;  695.370
390.527;   -7.408;   -7.114;  859.029
391.120;  -13.568;  -10.725;  595.318
391.714;  -10.113;   -8.035;  711.633
392.308;   -7.352;   -3.574;  780.253
392.901;  -11.881;   -7.245;  642.460
393.495;  -13.894;   -9.285;  595.414
394.089;  -11.420;   -5.895;  760.452
394.682;  -11.516;   -4.295;  697.188
395.275;  -12.641;   -9.875;  719.927
395.869;  -13.890;   -8.485;  667.314
396.462;  -11.914;   -7.455;  616.609
397.056;   -7.926;   -5.424;  776.621
397.649;  -12.745;   -6.605;  731.575
398.242;  -10.486;   -8.224;  712.645
398.836;   -9.363;   -7.474;  766.408
399.429;  -10.363;   -7.094;  631.041
400.022;  -14.358;   -9.475;  665.902
400.615;  -12.047;   -7.145;  805.609
401.208;   -9.879;   -7.174;  691.451
401.802;  -11.944;   -5.515;  699.329
402.395;  -13.366;   -9.875;  683.502
402.988;  -14.509;   -8.845;  696.627
403.581;  -10.753;   -8.874;  646.878
404.174;   -7.747;   -5.324;  686.568
404.767;  -11.592;   -9.575;  638.583
405.360;  -13.783;  -10.965;  621.445
405.953;   -8.810;   -8.764;  759.034
406.545;   -8.798;   -7.514;  725.342
407.138;  -12.847;  -10.025;  618.350
407.731;  -11.064;  -10.034;  613.303
408.324;   -7.271;   -9.374;  660.554
408.917;   -8.099;   -6.534;  681.864
409.509;   -9.587;   -8.004;  740.396
410.102;  -11.084;   -9.875;  643.948
410.695;   -5.953;   -8.604;  665.758
411.287;   -6.467;   -6.794;  599.821
411.880;   -8.259;   -9.334;  585.421
412.472;  -10.855;  -10.254;  613.092
413.065;   -8.107;   -6.714;  629.408
413.657;   -6.155;   -7.234;  576.678
414.250;   -6.930;  -10.544;  646.681
414.842;   -7.670;   -9.744;  676.353
415.434;   -5.351;   -6.994;  570.463
416.027;   -2.243;   -5.893;  652.196
416.619;   -3.426;   -7.264;  713.400
417.211;   -4.296;  -10.374;  599.352
417.804;   -0.693;   -7.993;  628.499
418.396;   -5.095;   -7.234;  607.643
418.988;   -2.265;   -9.443;  659.238
419.580;   -5.812;  -10.724;  568.276
420.172;   -3.837;  -10.323;  536.196
420.764;    0.402;   -8.793;  672.482
421.356;    0.085;  -11.143;  636.898
421.948;   -1.334;   -8.293;  677.661
422.540;    3.784;   -7.893;  680.027
423.132;    2.437;   -7.082;  600.641
423.724;   -0.728;   -8.653;  561.267
424.316;    1.367;  -10.213;  621.345
424.908;    5.263;   -9.762;  591.517
425.500;    5.101;   -5.572;  647.978
426.092;    5.774;   -8.422;  648.268
426.683;    4.182;   -9.283;  684.836
427.275;    7.213;   -7.852;  641.471
427.867;    9.262;   -5.272;  668.948
428.458;    9.712;   -7.682;  732.344
429.050;    7.611;  -10.612;  680.749
429.642;   10.436;   -9.882;  743.124
430.233;   10.915;   -6.962;  569.356
430.825;   11.613;   -6.842;  724.809
431.416;    9.319;   -9.672;  698.241
432.008;   13.457;   -6.552;  651.723
432.599;   13.535;   -6.891;  656.073
433.190;   10.823;  -10.912;  637.670
433.782;    9.499;  -11.172;  590.395
434.373;   17.508;   -6.061;  884.765
434.964;   15.995;   -8.251;  602.920
435.556;   14.284;   -9.722;  634.537
436.147;   15.962;   -9.082;  758.490
436.738;   16.634;   -8.041;  701.099
437.329;   21.396;   -7.341;  721.723
437.920;   14.260;   -8.162;  666.688
438.511;   14.289;  -11.802;  564.526
439.103;   20.789;  -10.191;  623.998
439.694;   23.271;   -7.601;  681.583
440.285;   23.636;   -8.541;  764.432
440.876;   22.433;   -9.751;  845.738
441.466;   21.236;   -9.401;  575.162
442.057;   26.645;   -7.760;  665.814
442.648;   25.707;   -9.971;  746.255
443.239;   23.492;  -11.001;  620.477
443.830;   28.530;   -7.990;  704.958
444.421;   30.474;   -7.910;  655.474
445.011;   27.187;   -8.131;  693.619
445.602;   25.887;   -7.111;  743.126
446.193;   28.248;  -10.920;  488.117
446.783;   32.587;   -6.500;  640.397
447.374;   27.763;   -8.671;  692.759
447.964;   28.153;  -10.781;  713.770
448.555;   37.180;   -9.650;  822.742
449.145;   33.797;   -8.660;  662.853
449.736;   34.337;   -8.990;  803.179
450.326;   33.905;   -9.500;  713.626
450.917;   39.323;   -8.680;  675.324
451.507;   38.813;   -7.520;  600.661
452.097;   39.252;   -8.590;  746.267
452.688;   40.490;  -11.340;  742.160
453.278;   40.128;  -10.100;  566.840
453.868;   44.385;   -6.019;  793.550
454.458;   41.903;   -9.440;  651.141
455.048;   42.656;  -10.560;  711.783
455.639;   44.365;  -11.799;  567.096
456.229;   47.769;   -6.899;  710.694
456.819;   49.891;   -7.389;  751.158
457.409;   50.398;  -11.119;  773.993
457.999;   52.934;   -9.289;  737.505
458.589;   52.667;   -6.139;  686.606
459.179;   52.056;   -8.729;  717.658
459.769;   51.257;   -9.789;  627.099
460.358;   55.395;  -10.259;  797.262
460.948;   54.972;   -7.299;  689.503
461.538;   56.928;  -10.289;  660.677
462.128;   54.562;  -11.269;  664.934
462.717;   61.050;   -9.368;  710.326
463.307;   64.665;   -7.908;  705.846
463.897;   60.529;   -9.599;  656.942
464.486;   59.980;   -9.769;  837.128
465.076;   64.673;   -8.048;  733.776
465.666;   68.070;   -9.358;  652.900
466.255;   65.147;   -7.919;  785.651
466.845;   64.370;  -11.689;  666.749
467.434;   67.786;   -7.818;  725.873
468.023;   68.200;   -7.678;  658.357
468.613;   66.006;  -10.939;  713.946
469.202;   70.468;  -10.118;  646.507
469.791;   74.197;   -9.108;  737.811
470.381;   77.033;   -6.058;  742.813
470.970;   75.301;  -10.428;  711.099
471.559;   76.213;  -10.268;  733.291
472.148;   79.387;   -8.448;  675.737
472.738;   82.084;   -6.917;  765.466
473.327;   80.597;  -11.978;  637.529
473.916;   80.212;  -11.888;  737.446
474.505;   85.496;   -9.437;  751.703
475.094;   87.710;   -6.747;  806.570
475.683;   87.540;   -9.367;  797.699
476.272;   88.790;  -12.637;  730.632
476.861;   90.966;  -10.027;  706.754
477.449;   97.370;   -8.716;  728.487
478.038;   92.028;   -9.577;  692.513
478.627;   93.632;   -9.718;  714.852
479.216;  100.142;   -8.947;  769.441
479.805;  103.543;   -6.256;  783.375
480.393;  102.324;   -7.937; 1008.945
480.982;  100.998;   -7.717;  874.501
481.571;  107.229;   -9.266;  858.333
482.159;  108.550;   -7.636;  705.386
482.748;  108.250;   -9.667;  821.385
483.336;  112.856;  -10.376;  858.209
483.925;  113.106;   -7.147;  774.373
484.513;  120.361;   -7.996;  758.962
485.102;  116.715;  -10.027;  810.965
485.690;  125.071;  -10.446; 1011.050
486.278;  127.697;   -8.446;  979.329
486.867;  127.496;   -6.356;  809.662
487.455;  129.970;   -9.136;  898.229
488.043;  131.468;  -10.646;  748.361
488.631;  140.444;   -7.456; 1005.079
489.220;  144.487;   -6.636;  908.626
489.808;  144.474;  -11.036;  741.415
490.396;  152.317;  -10.246;  914.645
490.984;  158.495;   -8.556;  830.161
491.572;  169.400;   -5.886;  940.315
492.160;  176.051;   -9.486;  919.081
492.748;  186.470;  -10.976;  884.341
493.336;  209.900;   -8.776; 1019.693
493.924;  234.166;   -5.465;  958.077
494.512;  264.904;   -9.986; 1066.638
495.100;  305.015;  -10.636; 1103.280
495.687;  358.801;  -10.885; 1206.373
496.275;  422.620;   -8.126; 1150.796
496.863;  504.852;  -10.586; 1281.171
497.451;  607.161;  -11.926; 1386.805
498.038;  719.174;  -10.885; 1556.729
498.626;  845.565;   -6.315; 1741.407
499.214;  987.293;   -7.326; 2016.609
499.801; 1164.024;  -11.906; 2220.633
500.389; 1352.360;  -10.466; 2312.494
500.976; 1592.221;   -5.236; 2744.849
501.564; 1969.215;   -8.936; 3148.565
502.151; 2516.543;  -13.176; 3515.999
502.738; 3080.858;  -10.646; 3971.274
503.326; 3531.044;   -9.525; 4403.796
503.913; 3818.238;  -10.856; 5161.749
504.500; 4288.010;  -11.586; 5986.420
505.088; 4906.906;  -10.336; 6381.201
505.675; 5089.369;   -6.355; 6925.547
506.262; 5494.352;   -9.046; 7619.060
506.849; 5969.188;  -10.416; 8733.969
507.436; 6292.442;  -10.305; 9790.121
508.023; 7038.754;   -5.496; 9985.472
508.610; 7714.253;   -7.856;10434.618
509.197; 9146.677;  -10.097;11198.435
509.784;10562.710;  -10.886;12391.194
510.371;11489.068;   -9.315;13603.713
510.958;12211.903;   -9.936;14426.586
511.545;12313.825;   -9.326;15243.775
512.132;12944.914;  -10.075;15945.876
512.719;14271.839;   -7.796;16340.369
513.305;16609.336;  -10.606;18011.766
513.892;17516.348;  -11.486;19754.971
514.479;18546.367;   -9.126;20967.805
515.066;19516.176;   -6.026;22299.793
515.652;19423.141;   -8.466;22908.660
516.239;20049.021;  -10.886;23798.875
516.825;21794.842;  -11.496;25567.275
517.412;23304.127;   -5.796;28154.959
517.998;23580.117;  -10.506;28344.111
518.585;23324.289;  -10.076;27134.219
519.171;23508.486;   -8.315;27268.576
519.758;24166.045;   -8.596;28964.129
520.344;25191.486;   -8.466;30664.494
520.930;27577.250;  -11.006;32550.605
521.516;29125.701;  -10.495;35422.895
522.103;29818.414;   -5.526;38280.004
522.689;30964.627;   -8.746;37835.117
523.275;31939.668;  -11.376;37288.613
523.861;33112.664;  -11.156;37281.395
524.447;33684.430;   -8.135;37846.949
525.033;34201.828;   -7.896;38321.949
525.619;36665.484;  -12.476;38579.285
526.205;37493.035;   -9.516;40622.875
526.791;36686.254;   -6.926;42258.836
527.377;37782.059;   -8.346;42966.902
527.963;39318.703;   -8.717;42018.949
528.549;39336.168;  -11.016;42476.828
529.135;38776.277;   -8.536;41854.852
529.721;37461.434;   -9.666;41237.711
530.306;36719.383;  -10.066;41259.445
530.892;35546.172;  -11.356;41506.047
531.478;36781.160;   -6.596;43559.613
532.063;39198.766;   -8.836;47695.563
532.649;41202.371;  -10.047;50808.324
533.235;42366.336;   -9.746;51787.500
533.820;44342.785;   -6.566;52145.035
534.406;46249.801;  -10.817;51133.488
534.991;47724.797;   -9.416;49996.805
535.576;43326.270;   -9.036;48882.852
536.162;41999.520;   -6.156;46942.285
536.747;42764.535;  -11.607;45711.746
537.333;44381.664;  -11.787;48510.180
537.918;44729.414;  -12.437;50439.891
538.503;43796.203;   -7.196;50863.711
539.088;45153.680;  -10.556;50906.922
539.673;46792.883;   -8.767;52621.965
540.259;44799.688;  -10.026;52368.094
540.844;43738.617;   -7.416;50879.109
541.429;45151.809;   -9.467;52077.777
542.014;47011.266;   -9.527;52716.695
542.599;48726.902;   -9.946;52363.281
543.184;47335.930;   -7.927;53187.137
543.769;45525.309;   -9.297;54697.605
544.354;43311.941;  -10.127;53913.914
544.938;41791.680;   -9.267;49680.164
545.523;42919.844;   -6.506;47386.277
546.108;45335.953;   -9.787;49151.949
546.693;46519.484;  -11.587;51384.637
547.278;45707.156;  -10.986;51853.254
547.862;43130.715;   -8.206;51173.750
548.447;42925.895;  -10.067;51691.395
549.031;46619.469;   -9.637;52456.703
549.616;48170.930;   -9.926;52714.516
550.201;46523.965;   -6.347;52414.598
550.785;44652.922;   -7.917;52355.059
551.370;39906.207;  -10.867;54589.453
551.954;42249.418;   -9.047;58267.348
552.538;45536.664;   -7.827;59062.176
553.123;45204.488;  -10.287;58115.285
553.707;43771.934;  -12.178;56556.285
554.291;44938.574;   -8.717;56201.668
554.876;45652.211;   -7.457;55335.762
555.460;46101.633;  -10.387;54155.703
556.044;45552.277;   -9.618;53721.484
556.628;44324.281;  -11.567;53731.016
557.212;45920.609;   -8.097;54312.531
557.796;45430.992;  -11.077;53797.773
558.380;43347.590;  -11.108;56145.984
558.964;40572.566;   -9.057;57277.930
559.548;39127.660;   -6.977;56459.641
560.132;39696.895;  -11.457;54434.543
560.716;40046.762;  -11.378;54800.617
561.300;41356.016;   -9.577;57606.945
561.884;43157.488;   -7.127;58972.445
562.467;45188.039;   -7.118;57327.570
563.051;43986.824;  -13.358;54962.434
563.635;43715.898;  -10.178;52594.473
564.219;44507.055;   -7.837;50610.410
564.802;43698.156;  -11.398;49551.180
565.386;43055.402;  -12.788;48370.953
565.969;41550.211;   -9.077;48178.871
566.553;41692.176;   -6.207;49957.305
567.136;41907.789;   -8.568;50369.594
567.720;42010.453;  -11.868;49492.004
568.303;42043.172;   -8.268;50616.352
568.887;40560.160;   -8.698;50727.148
569.470;40220.145;   -6.808;51698.379
570.053;38108.203;  -13.188;52122.078
570.637;36101.598;  -12.037;52536.438
571.220;35862.305;   -8.577;51186.098
571.803;36397.793;   -8.498;51032.762
572.386;34751.902;  -10.498;49609.887
572.969;33806.090;   -9.388;48285.926
573.552;33549.109;   -8.338;47624.285
574.135;35031.164;   -8.518;45498.641
574.718;36455.672;  -13.628;41970.434
575.301;34311.000;  -10.893;41447.137
575.884;32166.332;   -8.158;40923.836
576.467;35313.969;  -10.328;45267.723
577.050;35736.746;  -13.058;48175.543
577.633;36134.664;   -9.458;47729.328
578.216;35409.465;   -8.928;47579.793
578.799;34078.371;   -9.358;47820.996
579.381;33563.969;  -11.388;48115.551
579.964;32731.236;  -11.718;47333.766
580.547;34056.059;   -8.588;46668.969
581.129;35396.570;   -8.859;44466.141
581.712;33692.117;  -10.729;44164.922
582.294;33747.508;  -11.118;46477.855
582.877;34372.445;   -5.218;48244.254
583.459;34757.363;   -8.679;47437.895
584.042;33964.730;  -10.709;46943.219
584.624;33504.840;  -11.669;46792.227
585.206;36840.758;   -8.218;46557.250
585.789;35561.000;  -10.569;45793.773
586.371;33889.387;  -11.859;43836.391
586.953;31664.438;  -10.719;42972.492
587.536;29984.037;   -7.198;42487.211
588.118;31907.074;   -8.720;42086.414
588.700;33527.965;  -10.439;43389.930
589.282;33208.777;   -9.198;43646.039
589.864;32576.045;   -9.199;43438.109
590.446;31812.225;  -11.319;43151.926
591.028;32473.477;  -11.159;42781.867
591.610;32280.281;  -11.779;42839.098
592.192;29079.088;   -7.668;42820.402
592.774;27995.365;  -11.949;40724.277
593.356;27233.455;  -12.129;39874.789
593.937;27097.057;  -10.669;39980.648
594.519;26030.178;   -6.509;42069.633
595.101;27519.510;  -10.849;42976.031
595.683;30477.572;  -11.679;44084.441
596.264;31167.758;   -9.049;43478.797
596.846;33783.125;   -8.849;43803.672
597.427;36153.992;   -9.570;42986.934
598.009;33760.992;  -12.620;42832.219
598.591;30742.354;  -10.039;42580.086
599.172;30234.426;  -10.369;43061.805
599.753;31593.408;   -9.140;41691.469
600.335;31968.453;  -11.430;40692.520
600.916;30936.031;   -9.939;39982.422
601.498;32551.102;   -8.479;40318.617
602.079;32546.805;  -10.920;40670.609
602.660;32101.818;  -11.480;41450.898
603.241;32304.746;  -11.699;41137.738
603.823;32362.188;   -9.579;38868.797
604.404;31626.320;  -10.620;38182.785
604.985;30627.072;  -10.450;38078.047
605.566;30134.615;   -9.129;38056.633
606.147;31419.146;   -7.510;37020.418
606.728;31488.783;  -10.660;37883.359
607.309;30895.135;  -11.740;38748.273
607.890;29700.895;   -9.759;38850.230
608.471;27864.086;   -8.250;37457.918
609.051;28870.125;   -9.240;36066.457
609.632;29170.219;  -12.120;35991.074
610.213;28086.238;   -9.110;37402.641
610.794;28928.387;   -8.030;38383.363
611.374;29931.594;   -8.110;40562.387
611.955;30933.434;  -13.560;38533.727
612.536;30177.076;  -11.400;36951.789
613.116;30795.227;   -8.070;37197.891
613.697;31078.727;  -10.830;38411.125
614.277;29217.197;  -11.641;38673.938
614.858;27903.906;  -13.310;37075.863
615.438;28331.863;   -7.460;35092.906
616.019;28165.814;   -7.601;33666.301
616.599;28647.234;  -12.020;34189.023
617.179;28859.449;  -11.780;36952.047
617.760;30721.617;   -8.570;39582.574
618.340;32440.643;  -11.471;38943.977
618.920;31189.764;  -11.170;37594.156
619.500;29747.408;  -11.071;37866.938
620.080;30481.738;   -7.750;37869.043
620.660;31329.662;  -12.711;36868.617
621.241;29229.188;  -10.211;36352.309
621.821;28182.250;  -10.961;35459.520
622.401;29155.762;   -7.720;35207.414
622.980;30174.070;   -8.981;35980.422
623.560;31284.938;   -9.331;37351.328
624.140;28127.877;   -9.850;34388.582
624.720;24174.631;   -7.451;32368.764
625.300;22446.156;   -9.070;32638.629
625.880;25427.879;  -12.601;34599.035
626.459;29935.813;  -11.751;36831.738
627.039;31253.816;   -9.281;38299.098
627.619;31490.238;   -8.801;38289.574
628.198;32244.828;  -12.071;37220.695
628.778;33133.723;   -9.461;37632.563
629.357;33682.297;   -8.491;38003.012
629.937;32596.697;   -9.721;38402.039
630.516;32491.307;   -9.951;37868.801
631.096;31469.135;  -11.731;35760.410
631.675;31391.896;   -8.572;35225.219
632.254;32257.250;  -11.282;35130.289
632.834;32509.586;  -13.322;35794.570
633.413;33615.535;  -10.301;35788.922
633.992;34164.344;   -8.582;34532.863
634.571;32321.455;   -8.352;33590.113
635.151;31690.328;  -11.912;34943.863
635.730;30638.727;  -10.511;35352.523
636.309;30929.123;   -7.731;35366.605
636.888;31220.371;   -9.952;36165.637
637.467;31153.840;  -11.672;37515.902
638.046;32425.316;   -8.901;39288.695
638.625;31163.182;   -7.912;38279.699
639.204;31888.627;  -10.022;37741.598
639.782;31673.594;  -12.252;38364.551
640.361;29141.566;  -10.041;36740.621
640.940;27432.029;  -11.161;34950.082
641.519;27961.287;   -9.701;34137.398
642.097;30267.160;  -11.271;35654.258
642.676;30187.225;   -8.651;35637.957
643.255;32539.924;   -8.711;36567.074
643.833;34518.023;   -9.581;37809.434
644.412;33113.098;  -13.711;37337.293
644.990;30468.906;  -11.811;37018.531
645.569;30322.346;   -9.411;36518.469
646.147;31087.951;  -10.291;36186.430
646.726;30503.398;  -12.401;36267.688
647.304;29511.539;  -10.411;36647.625
647.882;30832.127;   -9.651;39286.742
648.461;32994.289;   -9.631;39157.703
649.039;33228.742;  -11.881;35412.883
649.617;33143.020;   -9.661;34744.918
650.195;33489.801;   -9.301;35403.098
650.773;32251.736;  -10.511;35053.797
651.352;31605.324;  -11.521;33756.816
651.930;29585.039;  -12.211;31868.773
652.508;24567.977;   -9.171;33121.551
653.086;23786.332;   -9.371;33564.793
653.663;28508.441;  -13.161;34054.668
654.241;30051.260;  -13.031;35693.309
654.819;32227.166;   -9.371;36422.906
655.397;31941.889;  -10.511;38213.484
655.975;31453.129;  -10.371;39507.625
656.553;32337.777;  -10.051;39498.223
657.130;31568.281;  -10.061;40395.480
657.708;30035.221;   -9.561;39242.020
658.286;29695.910;  -11.511;38920.020
658.863;28258.645;  -10.261;40202.898
659.441;29680.594;   -7.531;39677.938
660.018;31274.529;   -9.501;40413.355
660.596;30962.639;  -13.301;39931.414
661.173;29036.592;  -11.211;39604.531
661.750;28942.766;   -9.951;39700.070
662.328;30985.588;   -9.390;39292.809
662.905;30190.607;  -11.330;38235.648
663.482;26221.725;   -9.050;36212.305
664.060;23784.883;   -8.240;35944.945
664.637;27492.715;  -10.050;35170.785
665.214;30589.957;  -11.760;34197.523
665.791;31583.031;  -10.530;34549.520
666.368;31927.137;   -9.690;35118.578
666.945;32331.832;   -9.320;36019.418
667.522;30356.234;  -11.860;36048.438
668.099;30157.451;  -10.770;36243.914
668.676;32508.928;   -6.260;35958.875
669.253;33926.145;   -7.000;37384.730
669.830;34691.313;  -10.190;36779.629
670.407;33900.223;   -9.550;35231.289
670.984;32466.424;   -9.260;35544.270
671.560;29551.969;   -9.280;35466.867
672.137;25925.736;  -11.810;34280.863
672.714;24948.871;  -11.490;34632.863
673.290;29398.980;   -7.740;35135.422
673.867;32986.805;  -10.660;36114.480
674.443;32143.820;  -12.230;36152.859
675.020;30548.658;  -10.450;35327.238
675.596;29524.035;   -9.260;35795.176
676.173;30349.465;  -10.780;35430.355
676.749;30861.227;  -13.690;33549.516
677.326;29411.070;  -11.980;32210.012
677.902;27828.430;   -8.630;32068.871
678.478;27779.557;  -10.730;32583.891
679.054;29235.084;  -10.520;32088.928
679.631;30653.244;  -11.920;30978.848
680.207;30951.580;   -7.490;33160.887
680.783;30893.242;   -9.860;35570.363
681.359;32665.371;  -13.380;36125.184
681.935;32490.467;  -12.480;35240.922
682.511;29835.424;   -7.900;34429.961
683.087;28749.969;   -7.710;34463.680
683.663;29718.965;  -11.480;34648.898
684.239;30412.449;  -14.090;34546.457
684.815;29892.674;   -7.560;35586.375
685.390;28266.809;   -9.910;35821.895
685.966;28338.209;  -11.159;35085.871
686.542;27443.291;  -11.169;34198.230
687.118;28040.285;   -5.959;32847.707
687.693;31308.158;  -10.329;32794.027
688.269;31780.006;  -12.059;33072.367
688.844;32034.127;  -10.909;33141.664
689.420;34238.922;   -8.019;33965.742
689.995;32445.760;   -8.399;34655.523
690.571;30390.781;  -10.949;33576.742
691.146;29698.990;   -9.619;32657.219
691.722;30595.545;   -8.999;32526.979
692.297;30422.250;  -11.589;33014.617
692.872;29087.697;  -11.739;34012.254
693.448;29475.238;  -11.059;34237.434
694.023;29415.564;  -10.139;34142.672
694.598;26864.229;   -9.029;34132.031
695.173;26961.379;  -13.319;34205.250
695.748;29356.969;  -10.169;32882.488
696.323;28515.486;   -8.339;32864.906
696.898;27083.445;   -8.169;33170.004
697.473;27621.160;  -12.309;32432.984
698.048;27854.416;  -10.989;31649.303
698.623;27421.445;   -9.329;30778.141
699.198;27674.201;   -9.849;31140.119
699.773;28496.691;  -12.329;31764.299
700.348;31035.457;  -10.389;31780.816
700.922;30693.521;   -9.269;32046.375
701.497;28340.125;   -9.329;32603.574
702.072;29291.148;  -10.789;34799.871
702.646;28716.871;  -10.839;35793.172
703.221;29809.764;   -9.099;35201.590
703.795;30903.758;  -10.939;34764.527
704.370;30801.033;  -12.859;34307.367
704.944;30626.152;  -11.559;33509.887
705.519;29852.008;   -7.939;31388.584
706.093;31566.512;  -10.499;31340.104
706.668;31181.061;  -11.289;32630.281
707.242;30650.064;  -11.509;32728.779
707.816;29108.389;   -9.639;32947.238
708.390;27400.096;  -11.429;33277.855
708.965;27222.781;  -11.869;33834.336
709.539;28332.070;  -11.689;33709.273
710.113;28386.887;  -10.478;33044.313
710.687;28350.314;  -10.228;31953.992
711.261;28197.334;  -13.698;30505.949
711.835;28218.381;  -13.378;30262.369
712.409;28515.123;   -9.698;31254.447
712.983;27435.262;  -11.898;32754.986
713.557;27254.785;  -15.138;34018.824
714.131;25789.367;  -14.098;34579.625
714.704;24640.881;   -9.958;33890.262
715.278;25126.875;  -10.028;33531.102
715.852;25073.844;  -11.148;33601.660
716.425;25740.932;   -9.068;33515.117
716.999;25108.180;  -10.038;33185.555
717.573;24423.854;   -9.798;33905.996
718.146;25233.998;  -12.378;35199.293
718.720;26359.100;  -11.918;35060.551
719.293;27905.463;   -8.088;34973.230
719.867;28987.777;  -10.888;36394.449
720.440;28882.719;  -11.938;36663.008
721.013;29551.594;  -12.818;35102.426
721.587;28461.016;  -10.298;33985.266
722.160;27274.838;  -10.048;33524.965
722.733;26632.484;  -12.108;32987.043
723.306;26408.686;  -10.818;33066.301
723.880;27404.930;   -8.908;33399.500
724.453;26731.852;   -9.878;33468.297
725.026;25696.531;  -11.188;33816.637
725.599;26836.150;  -11.678;32797.996
726.172;28605.924;   -9.618;33187.434
726.745;27667.801;   -8.258;35136.613
727.318;26861.451;  -12.978;35751.730
727.891;25654.506;  -12.148;35890.430
728.463;24867.598;   -8.968;34822.090
729.036;24940.857;  -10.188;32895.086
729.609;26510.691;  -11.788;31823.225
730.182;26694.742;  -11.788;31445.283
730.754;24716.695;  -10.268;32373.223
731.327;23002.842;   -9.998;33676.820
731.900;22597.160;  -12.228;33417.000
732.472;23786.951;  -13.848;31978.498
733.045;25203.650;   -8.698;30368.777
733.617;24218.723;  -10.607;30574.215
734.190;25311.209;  -11.507;31280.975
734.762;27065.219;  -13.647;31674.412
735.334;24888.607;   -9.767;31247.291
735.907;23821.746;   -9.897;29876.211
736.479;24551.891;  -11.637;29808.488
737.051;25837.928;   -9.567;30233.547
737.623;25995.158;   -8.187;31469.086
738.195;25755.053;  -11.187;31784.225
738.768;26118.348;  -12.337;32120.523
739.340;24742.898;  -12.227;32094.342
739.912;23363.852;  -11.057;31312.680
740.484;22688.982;  -10.207;31946.238
741.056;20958.090;  -10.047;32984.059
741.628;20415.488;  -13.627;33897.715
742.199;21399.980;   -7.177;33213.016
742.771;24172.576;  -10.797;31369.113
743.343;26544.320;  -11.997;31865.473
743.915;26754.740;  -12.867;32388.631
744.487;25000.516;   -7.617;31079.568
745.058;23465.512;   -9.557;30570.107
745.630;23589.697;   -9.877;29970.127
746.201;23315.131;  -14.177;29186.766
746.773;22101.115;   -9.237;28805.723
747.344;22362.422;   -9.847;29591.223
747.916;22727.680;  -11.657;31412.201
748.487;22263.658;  -10.587;32194.898
749.059;22215.971;   -8.707;32533.719
749.630;22257.027;  -10.537;32158.518
750.201;23137.541;  -11.687;30855.395
750.773;23289.998;  -11.647;28622.555
751.344;22552.723;   -7.147;28405.732
751.915;21654.939;   -9.757;28461.551
752.486;21538.248;  -12.427;27842.850
753.057;21113.404;  -12.227;27845.008
753.628;20424.799;  -10.417;27728.107
754.199;19372.990;  -11.767;27381.086
754.770;19214.145;  -11.187;25882.203
755.341;20159.813;  -10.507;25886.184
755.912;20084.336;   -9.387;26050.861
756.483;18497.738;  -10.647;26798.779
757.054;18150.439;  -11.837;27048.238
757.625;18788.736;  -12.716;26294.838
758.195;19489.385;   -9.666;26142.076
758.766;21033.326;   -8.656;26392.234
759.337;21081.660;  -12.856;26334.594
759.907;20667.719;  -13.366;27579.652
760.478;21165.803;   -8.576;28352.770
761.048;20839.693;  -10.526;27325.088
761.619;20887.543;  -11.116;26460.428
762.189;20710.734;  -12.136;26029.826
762.760;19672.566;   -9.456;26430.145
763.330;18997.215;   -7.136;26670.902
763.900;19684.025;  -11.786;26603.021
764.471;19231.736;  -11.546;25542.740
765.041;17539.838;   -8.096;24358.459
765.611;16433.098;   -8.876;23991.297
766.181;15894.538;  -12.196;24470.236
766.751;16156.343;  -11.636;24845.975
767.321;17173.664;  -10.156;24533.633
767.891;17824.285;  -11.766;24916.492
768.461;17476.064;  -14.936;24776.771
769.031;17306.479;  -12.356;24757.988
769.601;17427.498;   -7.526;24181.088
770.171;17824.273;  -10.766;23670.387
770.741;17297.213;  -13.176;22960.045
771.311;16497.838;  -10.616;22917.523
771.880;16205.335;   -9.576;23562.941
772.450;15773.178;  -10.336;24216.500
773.020;16250.951;  -13.516;24140.398
773.589;16635.629;  -13.466;24414.857
774.159;16347.958;   -8.686;23858.717
774.729;16513.568;   -9.476;22942.135
775.298;16161.185;  -13.666;22324.033
775.867;15127.985;  -11.716;21140.313
776.437;14282.052;   -9.906;20838.092
777.006;14409.903;  -12.166;20599.510
777.576;13698.283;  -12.356;20508.809
778.145;13521.535;  -11.646;20732.947
778.714;13516.510;   -8.226;21062.465
779.283;13586.782;   -9.556;20949.664
779.853;14000.659;  -14.116;20508.623
780.422;13801.017;  -11.506;20649.082
780.991;13747.338;   -9.556;21527.520
781.560;13487.052;   -9.095;22632.658
782.129;12191.249;  -12.135;23048.277
782.698;11619.084;  -10.865;23438.555
783.267;11690.019;   -9.335;23267.734
783.836;12220.306;  -11.045;22415.133
784.404;13115.734;  -13.865;20443.152
784.973;13001.035;  -13.095;19699.150
785.542;12397.661;  -11.575;19763.828
786.111;12145.614;   -9.705;20341.408
786.679;12009.794;  -12.105;20207.967
787.248;11849.882;  -12.455;19516.465
787.817;11125.784;  -11.535;18900.363
788.385;11444.854;   -9.765;17879.121
788.954;12420.697;  -14.005;17658.301
789.522;12728.816;  -11.955;17788.879
790.090;12324.540;  -10.135;18118.277
790.659;12436.974;  -10.975;18338.736
791.227;12635.887;  -13.375;18508.615
791.795;12432.925;  -12.375;17898.254
792.364;12255.356;  -10.725;17295.133
792.932;12300.276;   -9.715;16822.051
793.500;12302.055;  -12.675;17040.148
794.068;12096.251;  -13.495;17179.787
794.636;10724.569;  -10.885;16664.246
795.204; 9752.677;  -11.045;16524.545
795.772; 9578.016;  -13.175;17274.564
796.340;10545.937;  -12.445;17891.002
796.908;10783.066;   -9.735;17648.561
797.476;10791.597;   -9.815;17064.080
798.044;10894.529;  -13.985;16672.777
798.612;10719.935;  -13.115;17023.996
799.180;10208.567;  -10.185;16561.615
799.747; 9373.932;   -9.055;15962.773
800.315; 8313.863;  -12.385;15296.992
800.883; 7997.757;  -15.035;14801.771
801.450; 8540.880;  -10.365;14534.430
802.018; 9388.774;   -9.855;14173.248
802.585;10126.292;  -11.905;14029.547
803.153; 9949.442;  -11.585;13836.846
803.720; 9195.813;   -9.095;13567.324
804.287; 8767.201;   -9.135;13360.622
804.855; 9103.029;  -11.604;13681.981
805.422; 9611.945;  -11.794;13536.560
805.989; 8947.213;  -10.734;13355.958
806.556; 8732.657;  -10.444;13747.896
807.124; 8793.062;  -12.764;13987.376
807.691; 8870.159;  -12.964;14038.674
808.258; 9176.513;  -11.134;14120.152
808.825; 9307.079;   -9.854;13860.111
809.392; 8720.987;  -10.504;13268.790
809.959; 8253.658;  -13.054;12680.389
810.526; 8061.316;   -8.294;12427.308
811.093; 8162.718;   -8.394;12030.105
811.659; 7900.195;  -12.304;11653.664
812.226; 7260.923;  -13.944;11637.183
812.793; 7140.201;  -10.484;11611.521
813.360; 7357.486;  -10.144;11885.181
813.926; 7272.555;  -11.684;12770.539
814.493; 7006.994;  -13.644;12677.638
815.060; 6671.188;   -9.724;11974.336
815.626; 6336.866;   -9.854;11594.715
816.193; 6421.450;  -13.254;11579.474
816.759; 6437.931;  -13.204;11666.972
817.325; 6712.978;   -9.434;11325.530
817.892; 6729.985;  -10.134;11105.369
818.458; 6407.138;  -13.474;10843.928
819.024; 6069.993;  -11.854;10714.406
819.591; 5855.622;  -10.244;10469.165
820.157; 5689.247;  -10.704;10235.523
820.723; 5838.746;  -12.324;10847.563
821.289; 6300.457;   -9.444;11040.980
821.855; 6617.950;   -8.374;10357.100
822.421; 6575.757;  -10.234; 9978.918
822.987; 6517.276;  -13.294; 9754.177
823.553; 6708.296;  -10.884;10065.755
824.119; 6664.222;   -8.884;10036.294
824.685; 6418.114;   -6.784;10029.192
825.251; 5994.772;  -12.004;10199.230
825.816; 5984.912;  -11.474; 9820.189
826.382; 6128.668;   -9.174; 9297.248
826.948; 6069.117;   -9.214; 9381.347
827.513; 5764.716;  -10.774; 9450.726
828.079; 5483.107;  -11.924; 9472.444
828.645; 5345.538;  -10.543; 9292.643
829.210; 5313.982;  -10.533; 9065.341
829.776; 5171.143;  -10.753; 9132.620
830.341; 5062.256;  -10.173; 9092.878
830.906; 4956.798;  -10.743; 9078.557
831.472; 5031.738;  -11.113; 8534.535
832.037; 5074.895;  -10.603; 8677.874
832.602; 5112.813;  -13.323; 8628.692
833.167; 5220.477;  -10.823; 8879.031
833.733; 4923.794;  -10.113; 9189.790
834.298; 4760.481;  -13.583; 9052.608
834.863; 4903.833;  -12.703; 8895.087
835.428; 4943.277;  -10.523; 8824.266
835.993; 4795.683;   -6.963; 8845.385
836.558; 4549.511;  -10.763; 8888.563
837.123; 4491.551;   -9.903; 8966.582
837.688; 4433.999;   -9.913; 8617.860
838.253; 4482.129;  -10.283; 8590.699
838.817; 4740.890;  -12.963; 8443.797
839.382; 4806.982;  -14.243; 8799.356
839.947; 4700.160;  -10.733; 8810.595
840.511; 4455.503;   -9.383; 8796.394
841.076; 4431.211;  -12.563; 8347.231
841.641; 4471.079;  -12.953; 8224.330
842.205; 4077.876;   -7.043; 8223.349
842.770; 3871.923;   -8.163; 8622.107
843.334; 3999.791;  -12.503; 8410.386
843.898; 4243.614;  -11.693; 8337.465
844.463; 4264.153;  -10.203; 8506.283
845.027; 4127.732;   -9.533; 8280.962
845.591; 4032.729;  -13.443; 8231.141
846.156; 4000.263;  -13.143; 7969.179
846.720; 3878.090;   -9.433; 7768.278
847.284; 3421.528;  -11.033; 7630.957
847.848; 3071.388;  -10.403; 7472.395
848.412; 3178.739;  -11.553; 7437.394
848.976; 3565.803;   -8.393; 7674.592
849.540; 3832.687;   -8.713; 7836.011
850.104; 3813.759;  -12.463; 7913.669
850.668; 3740.782;  -12.973; 7694.508
851.232; 3542.393;  -10.793; 7756.887
851.796; 3411.043;  -10.662; 7926.545
852.359; 3551.973;  -13.082; 7827.844
852.923; 3544.469;  -12.192; 7641.163
853.487; 3471.538;  -11.912; 7342.501
854.050; 3577.008;  -10.892; 7042.820
854.614; 3567.760;  -13.992; 7151.338
855.177; 3374.939;  -11.732; 7105.077
855.741; 3203.825;   -8.962; 6989.675
856.304; 3161.830;   -9.442; 6596.634
856.868; 3136.840;  -14.192; 6356.272
857.431; 3133.521;  -12.702; 6468.571
857.995; 3395.628;   -9.942; 6373.210
858.558; 3539.536;   -9.112; 6324.448
859.121; 3139.049;  -12.932; 6408.327
859.684; 2770.739;  -13.442; 6347.886
860.247; 2685.818;  -10.632; 6321.264
860.810; 2849.085;  -11.272; 6301.903
861.374; 3027.006;   -9.832; 6607.881
861.937; 3060.612;  -11.762; 6408.200
862.500; 3087.947;   -9.722; 6572.639
863.062; 3024.129;  -10.512; 6387.297
863.625; 2875.594;  -11.232; 6190.836
864.188; 2704.064;  -14.112; 5807.254
864.751; 2490.667;  -11.302; 5682.413
865.314; 2393.128;  -10.112; 5547.492
865.876; 2528.198;  -12.182; 5500.150
866.439; 2755.380;  -10.722; 5415.909
867.002; 2817.298;   -9.252; 5501.567
867.564; 2691.106;   -9.572; 5413.946
868.127; 2466.538;  -13.142; 5160.325
868.689; 2317.910;  -12.902; 5133.183
869.252; 2197.708;   -9.732; 5252.382
869.814; 2106.682;   -9.432; 5297.141
870.377; 2184.996;  -11.552; 5390.919
870.939; 2264.632;   -9.052; 5599.898
871.501; 2209.421;  -10.982; 5248.336
872.063; 2219.044;  -12.292; 4854.235
872.626; 2198.450;  -14.912; 4817.074
873.188; 2149.953;  -13.112; 4987.732
873.750; 2105.928;  -13.442; 4868.651
874.312; 2022.995;   -9.402; 4779.330
874.874; 1942.118;  -11.062; 4866.348
875.436; 1949.591;  -13.931; 4718.887
875.998; 1907.665;   -9.561; 4660.005
876.560; 1780.425;  -11.321; 4462.964
877.122; 1681.768;  -12.221; 4145.042
877.683; 1631.460;  -12.191; 4056.481
878.245; 1661.777;  -12.101; 3950.740
878.807; 1755.249;   -8.971; 4058.958
879.369; 1788.831;  -12.071; 3954.677
879.930; 1697.097;  -14.621; 3941.495
880.492; 1637.601;  -10.311; 4067.014
881.053; 1582.632;  -10.901; 3859.633
881.615; 1531.324;  -14.411; 3776.071
882.176; 1499.632;  -13.761; 3734.750
882.738; 1508.626;   -9.181; 3678.489
883.299; 1475.689;  -11.791; 3405.407
883.860; 1393.938;  -13.121; 3351.106
884.422; 1291.391;  -11.211; 3394.044
884.983; 1216.981;  -10.091; 3166.443
885.544; 1184.645;   -8.461; 3189.802
886.105; 1149.291;  -12.361; 3160.360
886.666; 1088.961;  -14.141; 3093.059
887.227; 1060.299;  -11.361; 2941.957
887.788; 1045.628;  -11.401; 2974.836
888.349;  981.398;  -13.791; 2721.214
888.910;  910.419;  -13.191; 2696.493
889.471;  851.095;   -9.881; 2560.172
890.032;  791.258;   -9.881; 2558.190
890.593;  747.893;  -10.371; 2567.669
891.153;  730.910;  -13.301; 2460.307
891.714;  707.330;  -11.431; 2372.046
892.275;  662.605;  -11.291; 2309.505
892.835;  653.670;  -11.471; 2382.543
893.396;  650.777;  -11.541; 2295.502
893.956;  618.975;  -11.181; 2162.420
894.517;  558.235;  -11.741; 2125.439
895.077;  490.792;  -11.671; 2086.978
895.638;  447.188;  -11.311; 2126.316
896.198;  434.075;   -9.831; 1838.275
896.758;  431.505;   -8.421; 1892.813
897.319;  413.389;  -12.351; 1792.232
897.879;  383.740;  -13.511; 1762.751
898.439;  362.939;  -12.001; 1661.149
898.999;  351.678;  -10.180; 1781.468
899.559;  340.550;  -12.030; 1703.347
900.119;  334.087;  -15.710; 1537.525
900.679;  327.681;   -8.900; 1638.384
901.239;  311.170;   -8.340; 1527.902
901.799;  286.784;  -13.910; 1456.441
902.359;  270.573;  -13.460; 1357.140
902.919;  261.008;  -11.490; 1331.118
903.479;  257.414;  -12.110; 1317.257
904.038;  251.601;  -11.720; 1262.595
904.598;  239.423;  -13.610; 1152.034
905.158;  227.340;  -11.040; 1240.893
905.717;  219.106;  -10.900; 1233.691
906.277;  212.800;  -15.080; 1217.330
906.836;  208.299;  -13.380; 1222.408
907.396;  205.911;  -10.780; 1193.047
907.955;  201.478;   -8.500; 1182.526
908.515;  194.207;  -12.760; 1099.364
909.074;  189.600;  -11.900; 1092.863
909.633;  185.726;   -8.950; 1069.121
910.192;  183.824;   -8.770; 1196.460
910.752;  178.150;  -12.390; 1029.960
911.311;  174.133;  -13.680; 1009.780
911.870;  171.406;  -12.370;  971.460
912.429;  169.765;  -10.900; 1094.080
912.988;  166.104;  -11.690; 1081.060
913.547;  161.193;  -13.240;  940.380
914.106;  159.407;  -11.990;  999.420
914.665;  159.370;   -9.990;  984.020
915.224;  155.727;  -12.880; 1035.760
915.782;  155.225;  -12.350;  922.560
916.341;  156.023;   -9.110; 1049.840
916.900;  153.477;   -9.270;  925.260
917.458;  150.840;  -13.240;  884.220
918.017;  148.094;  -13.550;  942.600
918.576;  146.916;  -12.320;  904.440
919.134;  146.876;  -11.490;  837.980
919.693;  146.639;  -13.670;  893.060
920.251;  145.406;  -15.470;  876.500
920.809;  145.862;  -11.290;  839.580
921.368;  144.892;  -10.210;  885.360
921.926;  142.661;  -12.140;  842.940
922.484;  140.138;  -13.080;  903.360
923.042;  139.284;  -11.720;  880.340
923.601;  140.421;   -7.480;  998.680
924.159;  139.440;  -11.570;  935.560
924.717;  137.973;  -13.840;  841.080
925.275;  139.927;  -10.640;  903.240
925.833;  139.527;  -11.540;  779.320
926.391;  140.060;  -12.960;  938.380
926.949;  140.686;  -14.130;  857.680
927.506;  142.588;  -11.750;  903.500
928.064;  141.646;  -10.250;  877.580
928.622;  139.851;  -13.030;  880.100
929.180;  139.576;  -13.400;  814.180
929.737;  140.701;  -10.700;  808.540
930.295;  141.687;  -10.070;  928.480
930.853;  141.529;  -11.960;  849.100
931.410;  143.646;  -13.120;  821.120
931.968;  145.589;  -10.770;  940.660
932.525;  146.010;  -10.680;  909.380
933.082;  147.536;  -13.130;  811.440
933.640;  153.115;  -13.210;  925.900
934.197;  157.807;  -11.060;  886.360
934.754;  161.136;   -9.580;  897.780
935.312;  159.856;  -14.000;  863.340
935.869;  158.490;  -10.710; 1012.980
936.426;  157.022;   -9.860;  872.800
936.983;  158.001;   -9.710;  889.020
937.540;  158.008;  -13.990;  838.280
938.097;  159.341;  -14.040;  940.120
938.654;  161.745;  -10.310;  898.860
939.211;  160.755;  -10.560;  952.480
939.768;  157.169;  -13.900;  915.420
940.324;  158.068;  -14.760;  904.200
940.881;  162.699;  -10.370;  878.500
941.438;  167.902;   -8.260; 1021.200
941.995;  167.013;  -12.540;  992.560
942.551;  166.654;  -14.670;  875.620
943.108;  165.779;  -10.450;  937.920
943.664;  166.459;  -10.750;  869.340
944.221;  171.132;  -11.550; 1088.140
944.777;  173.213;  -14.770;  869.680
945.334;  177.438;  -12.820;  884.840
945.890;  181.462;  -10.130;  946.480
946.446;  181.293;  -13.470;  947.020
947.003;  181.140;  -12.120;  964.940
947.559;  184.461;   -9.980; 1063.040
948.115;  186.047;   -9.080; 1026.540
948.671;  188.576;  -10.830;  967.300
949.227;  185.461;  -12.440;  859.560
949.783;  177.654;  -12.910;  858.900
950.339;  173.925;  -10.270;  991.000
950.895;  171.156;  -13.630; 1023.840
951.451;  170.393;  -15.100;  925.280
952.007;  172.252;  -11.330;  998.540
952.563;  172.107;  -10.580;  937.780
953.118;  171.706;  -13.440;  904.940
953.674;  168.775;  -12.710;  935.780
954.230;  167.881;  -10.350;  949.640
954.785;  170.187;   -9.190;  936.640
955.341;  169.457;  -11.200;  998.160
955.897;  161.322;  -16.560;  834.660
956.452;  157.212;  -12.570;  953.840
957.008;  152.686;   -7.970; 1083.640
957.563;  151.369;  -11.940; 1009.540
958.118;  153.464;  -13.450;  877.700
958.674;  158.056;  -12.030;  946.780
959.229;  160.736;   -9.410; 1013.980
959.784;  162.445;  -12.000;  832.400
960.339;  162.432;  -14.780; 1001.280
960.894;  149.904;   -9.860;  963.760
961.449;  137.366;   -9.970;  859.960
962.004;  129.011;  -10.900; 1212.840
962.559;  115.229;  -13.150;  860.140
963.114;  105.723;  -13.740;  742.480
963.669;  101.881;   -9.820;  915.500
964.224;  100.191;  -13.890;  874.340
964.779;  102.205;  -12.600;  828.420
965.334;  106.883;  -10.950; 1017.860
965.888;  105.815;  -11.170;  875.360
966.443;  106.450;  -12.540;  972.380
966.998;  107.027;  -15.780;  819.460
967.552;  110.732;   -9.760;  908.380
968.107;  108.069;   -9.060;  868.300
968.661;  108.317;  -11.950;  922.440
969.216;  106.773;  -12.800;  856.280
969.770;  106.789;  -11.210;  917.200
970.324;  106.076;  -11.610;  923.140
970.879;  105.420;  -11.370;  947.180
971.433;  104.951;  -12.540;  952.720
971.987;  103.453;  -11.320;  895.340
972.541;  103.632;  -10.720;  917.100
973.095;  105.506;   -9.680; 1009.460
973.649;  105.285;  -11.440;  809.480
974.203;  105.149;  -11.210;  829.040
974.757;  103.617;  -10.240;  855.220
975.311;  103.259;  -13.720;  872.600
975.865;  103.346;  -13.770;  881.820
976.419;  104.660;  -11.690;  857.400
976.973;  104.680;   -9.510;  849.620
977.526;  105.010;  -12.620;  949.920
978.080;   99.902;  -12.010;  796.780
978.634;   98.737;  -10.170;  921.320
979.187;   94.910;   -9.020;  905.400
979.741;   95.359;   -9.820; 1018.380
980.294;   92.893;  -14.870;  789.160
980.848;   91.404;  -12.380;  717.220
981.401;   92.555;  -10.350;  816.540
981.955;   91.714;  -13.720;  844.300
982.508;   89.873;  -11.490;  746.340
983.061;   91.067;  -10.000;  915.260
983.615;   88.394;  -11.480;  798.800
984.168;   85.871;  -13.220;  770.080
984.721;   85.184;  -13.960;  880.760
985.274;   82.867;  -10.870;  867.500
985.827;   80.066;   -9.790;  834.220
986.380;   78.171;  -13.120;  721.340
986.933;   78.165;  -12.450;  864.800
987.486;   77.162;  -10.210;  861.920
988.039;   77.261;   -8.430;  863.100
988.591;   76.447;  -10.520;  893.260
989.144;   74.197;  -14.860;  737.260
989.697;   73.240;  -13.080;  758.740
990.250;   73.480;  -10.150;  858.100
990.802;   70.873;  -13.430;  755.860
991.355;   71.406;  -12.750;  974.880
991.907;   67.998;  -12.040;  864.320
992.460;   64.590;  -11.330;  753.760
993.012;   63.192;  -13.610;  749.540
993.565;   61.556;  -13.460;  711.360
994.117;   63.255;   -9.360;  950.780
994.669;   60.131;  -11.300;  701.320
995.221;   59.170;  -13.540;  791.920
995.774;   59.032;  -13.430;  787.580
996.326;   58.018;  -12.520;  740.220
996.878;   58.401;  -10.950;  838.420
997.430;   56.553;  -14.300;  699.860
997.982;   56.097;  -13.760;  750.140
998.534;   55.259;  -11.530;  739.060
999.086;   53.972;  -10.310;  738.220
999.638;   52.316;  -12.530;  661.380
1000.190;   51.312;  -11.840;  699.320
1000.741;   51.614;  -10.260;  742.700
1001.293;   51.039;   -8.860;  686.020
1001.845;   49.811;  -13.700;  676.640
1002.396;   50.713;  -12.100;  743.400
1002.948;   50.386;  -12.760;  737.400
1003.500;   48.524;  -10.380;  723.780
1004.051;   49.221;  -11.900;  907.580
1004.603;   47.077;  -12.250;  791.820
1005.154;   44.428;  -13.210;  608.980
1005.705;   43.309;  -10.950;  723.960
1006.257;   43.135;  -13.880;  707.220
1006.808;   42.189;  -12.840;  685.460
1007.359;   42.028;  -10.570;  763.240
1007.910;   40.405;   -9.620;  646.640
1008.461;   40.175;  -13.630;  732.940
1009.013;   38.585;  -17.200;  588.340
1009.564;   40.431;  -10.200;  793.520
1010.115;   36.871;  -12.570;  597.040
1010.665;   37.522;  -15.150;  602.160
1011.216;   38.013;  -14.480;  667.920
1011.767;   37.663;  -11.340;  697.920
1012.318;   37.465;   -9.780;  736.980
1012.869;   35.882;  -12.380;  679.000
1013.419;   35.719;  -15.560;  603.120
1013.970;   36.015;  -11.010;  666.640
1014.521;   34.995;  -11.610;  620.620
1015.071;   35.273;  -13.450;  670.380
1015.622;   35.059;  -13.870;  635.460
1016.172;   34.634;  -11.610;  596.820
1016.723;   34.057;  -12.120;  614.380
1017.273;   34.246;  -13.620;  604.160
1017.823;   34.030;  -14.140;  650.340
1018.374;   33.692;  -12.800;  611.760
1018.924;   33.337;  -12.340;  716.880
1019.474;   34.465;  -11.410;  718.880
1020.024;   31.842;  -14.770;  657.580
1020.574;   32.746;   -9.780;  726.160
1021.124;   33.481;   -8.560;  673.580
1021.674;   31.832;  -15.190;  559.120
1022.224;   33.018;  -13.530;  708.940
1022.774;   32.561;  -13.280;  668.820
1023.324;   33.108;  -10.690;  753.520
1023.874;   33.564;  -10.240;  875.760
1024.423;   30.723;  -12.540;  613.700
1024.973;   30.947;  -10.010;  610.760
1025.523;   30.932;  -10.550;  620.960
1026.072;   30.442;  -13.560;  606.420
1026.622;   29.941;  -15.120;  675.740
1027.172;   31.670;  -11.260;  715.660
1027.721;   29.746;  -11.410;  601.220
1028.270;   29.929;  -13.530;  663.400
1028.820;   29.714;  -13.680;  638.080
1029.369;   28.867;  -13.520;  612.700
1029.918;   29.694;  -10.980;  649.840
1030.468;   28.591;  -13.530;  564.780
1031.017;   29.087;  -13.170;  634.800
1031.566;   28.505;  -12.200;  608.900
1032.115;   29.178;   -9.960;  694.500
1032.664;   27.873;  -13.210;  596.480
1033.213;   28.462;  -12.500;  735.420
1033.762;   27.746;  -11.910;  635.620
1034.311;   27.356;   -9.640;  677.220
1034.860;   28.378;  -13.310;  691.000
1035.408;   27.646;  -11.830;  722.720
1035.957;   28.138;  -12.000;  719.540
1036.506;   25.628;  -11.690;  530.800
1037.055;   28.201;  -10.990;  844.320
1037.603;   25.774;  -15.120;  664.000
1038.152;   25.721;  -12.450;  534.760
1038.700;   25.750;  -10.560;  585.740
1039.249;   25.448;  -11.080;  681.220
1039.797;   26.134;  -12.540;  633.360
1040.345;   25.286;  -11.920;  705.420
1040.894;   24.722;  -11.410;  625.300
1041.442;   24.603;  -14.320;  632.200
1041.990;   23.771;  -16.240;  559.160
1042.538;   24.109;  -11.680;  536.180
1043.087;   23.908;  -10.760;  570.860
1043.635;   24.783;  -11.850;  670.500
1044.183;   23.957;  -15.480;  586.400
1044.731;   24.160;  -11.770;  576.000
1045.279;   23.551;  -13.090;  674.920
1045.827;   25.706;  -12.440;  892.400
1046.374;   22.845;  -13.840;  515.420
1046.922;   22.558;  -13.220;  590.580
1047.470;   24.222;  -10.230;  691.300
1048.018;   23.358;  -14.590;  647.960
1048.565;   24.198;  -12.050;  708.600
1049.113;   22.197;  -11.650;  557.000
1049.660;   23.036;  -10.510;  629.660
1050.208;   22.703;  -13.310;  675.640
1050.755;   21.685;  -15.900;  606.580
1051.303;   22.842;  -11.430;  686.820
1051.850;   21.659;   -8.480;  635.120
1052.397;   19.804;  -15.010;  473.960
1052.945;   21.356;  -13.960;  617.760
1053.492;   22.509;  -13.150;  741.840
1054.039;   22.735;   -9.630;  720.180
1054.586;   20.341;  -13.680;  557.240
1055.133;   21.285;  -14.570;  693.140
1055.680;   21.194;  -13.820;  646.620
1056.227;   19.922;  -11.730;  542.780
1056.774;   22.304;  -12.480;  794.980
1057.321;   19.708;  -13.930;  523.260
1057.868;   19.877;  -11.690;  651.320
1058.415;   20.051;   -9.520;  651.980
1058.961;   20.903;  -13.160;  678.940
1059.508;   20.382;  -12.920;  643.820
1060.055;   20.245;  -11.920;  581.780
1060.601;   20.276;  -11.500;  624.300
1061.148;   20.051;  -14.330;  616.820
1061.694;   19.132;  -16.870;  592.580
1062.241;   20.053;  -10.330;  596.320
1062.787;   20.052;  -10.620;  663.140
1063.334;   21.272;  -10.110;  808.560
1063.880;   19.186;  -13.400;  668.360
1064.426;   19.955;  -10.680;  706.820
1064.972;   18.968;   -9.920;  601.340
1065.518;   17.882;  -10.980;  566.640
1066.065;   19.005;  -14.890;  624.460
1066.611;   17.797;  -12.870;  598.800
1067.157;   17.982;  -12.950;  641.860
1067.703;   17.757;  -13.540;  668.480
1068.249;   17.737;  -13.540;  605.220
1068.794;   18.543;  -12.600;  626.880
1069.340;   17.318;  -10.620;  578.960
1069.886;   17.917;  -12.830;  590.700
1070.432;   16.567;  -14.870;  541.720
1070.977;   16.651;  -11.980;  601.080
1071.523;   16.217;   -8.200;  573.060
1072.068;   16.326;  -12.330;  582.000
1072.614;   16.395;  -16.370;  527.760
1073.160;   17.491;  -11.100;  687.040
1073.705;   15.935;  -10.480;  572.520
1074.250;   16.657;  -14.520;  559.900
1074.796;   17.563;  -11.460;  655.160
1075.341;   17.708;  -11.950;  664.100
1075.886;   16.385;  -11.460;  594.240
1076.431;   16.139;  -13.770;  649.880
1076.976;   15.388;  -12.680;  639.220
1077.521;   15.144;  -13.170;  583.080
1078.067;   14.814;  -10.860;  579.400
1078.612;   15.261;  -13.920;  661.620
1079.156;   15.300;  -13.880;  601.540
1079.701;   15.408;  -13.120;  693.260
1080.246;   15.784;   -9.940;  696.300
1080.791;   15.005;  -14.740;  625.020
1081.336;   15.113;  -13.750;  659.320
1081.880;   15.480;  -13.400;  649.680
1082.425;   14.254;  -12.220;  573.480
1082.970;   16.257;  -11.610;  717.040
1083.514;   14.110;  -13.580;  597.000
1084.059;   13.639;  -12.810;  586.720
1084.603;   13.906;  -12.320;  565.840
1085.147;   14.500;  -13.190;  645.220
1085.692;   14.677;  -12.480;  716.800
1086.236;   12.516;  -13.020;  503.140
1086.780;   14.834;   -9.190;  751.440
1087.325;   13.759;  -12.480;  654.620
1087.869;   13.628;  -12.450;  610.700
1088.413;   14.218;  -12.240;  705.040
1088.957;   12.182;   -9.020;  543.400
1089.501;   13.831;  -10.320;  766.640
1090.045;   13.001;  -12.720;  726.480
1090.589;   12.115;  -13.690;  569.920
1091.133;   12.880;  -10.020;  673.340
1091.676;   12.410;  -12.330;  591.940
1092.220;   11.957;  -14.970;  600.920
1092.764;   13.475;  -12.430;  706.960
1093.307;   13.445;   -9.800;  673.780
1093.851;   11.070;  -14.970;  556.540
1094.395;   12.605;  -15.310;  683.140
1094.938;   11.984;  -10.370;  632.520
1095.482;   11.552;  -11.050;  559.800
1096.025;   12.755;  -11.840;  710.880
1096.568;   12.895;  -12.840;  779.280
1097.112;   10.032;  -14.700;  508.180
1097.655;   11.874;   -8.720;  603.000
1098.198;   10.272;  -13.610;  600.180
1098.741;   10.558;  -13.350;  612.860
1099.285;   11.554;  -11.230;  657.300
1099.828;    9.802;  -11.840;  439.400
1100.371;   10.760;  -10.840;  608.160
1100.914;   11.019;  -14.190;  682.660
1101.457;   11.117;  -11.240;  679.900
1101.999;    9.433;  -11.270;  584.680
1102.542;   10.685;  -11.480;  641.440
1103.085;    9.637;  -11.750;  658.500
1103.628;   11.451;  -11.400;  762.060
1104.170;   10.136;  -10.490;  588.280
1104.713;   10.063;  -10.600;  646.700
1105.256;    9.303;  -14.360;  557.440
1105.798;    8.931;  -13.210;  499.980
1106.341;   11.082;  -10.270;  728.900
1106.883;    9.159;  -12.200;  521.340
1107.425;    9.870;  -13.110;  668.180
1107.968;    9.766;  -12.840;  612.380
1108.510;    9.955;   -6.480;  684.960
1109.052;    8.446;  -13.940;  612.620
1109.594;    9.165;  -13.690;  554.440
1110.136;    9.761;  -11.880;  643.220
1110.679;    8.328;   -9.500;  633.080
1111.221;    9.022;  -14.160;  604.460
1111.763;    8.208;  -13.980;  559.220
1112.304;    8.294;  -13.880;  547.140
1112.846;    9.103;  -12.210;  666.240
1113.388;   11.555;  -11.390;  942.180
1113.930;    8.289;  -14.540;  694.200
1114.472;    7.342;  -12.640;  606.540
1115.013;    6.510;  -11.620;  551.280
1115.555;    6.788;  -13.640;  587.100
1116.097;    6.637;  -15.380;  579.480
1116.638;    7.766;  -12.640;  684.600
1117.180;    7.984;   -9.850;  667.740
1117.721;    7.641;  -13.690;  568.580
1118.262;    7.879;  -12.680;  677.960
1118.804;    7.640;  -12.530;  637.340
1119.345;    6.125;  -11.690;  578.400
1119.886;    7.498;  -13.380;  704.040
1120.427;    6.434;  -14.070;  589.020
1120.969;    6.382;  -13.500;  597.920
1121.510;    6.435;  -11.480;  563.060
1122.051;    7.064;  -12.830;  723.580
1122.592;    5.472;  -14.290;  655.420
1123.133;    5.651;  -12.400;  547.940
1123.673;    6.767;  -10.130;  706.480
1124.214;    6.250;  -12.930;  612.460
1124.755;    6.841;  -14.380;  639.460
1125.296;    6.077;  -14.000;  627.320
1125.836;    7.385;  -10.070;  691.500
1126.377;    5.775;  -12.640;  599.660
1126.918;    6.529;  -12.960;  614.980
1127.458;    5.549;  -13.350;  622.220
1127.999;    6.435;  -10.750;  656.980
1128.539;    6.166;  -12.350;  694.240
1129.079;    4.888;  -14.860;  632.720
1129.620;    4.978;  -13.840;  558.100
1130.160;    4.443;  -12.330;  539.480
1130.700;    5.642;  -14.530;  640.840
1131.240;    5.698;  -12.530;  643.700
1131.781;    4.809;  -14.450;  619.680
1132.321;    5.130;   -9.790;  599.120
1132.861;    4.047;  -14.860;  564.200
1133.401;    3.035;  -14.290;  593.940
1133.941;    4.722;  -11.750;  626.280
1134.481;    4.600;   -9.920;  597.580
1135.020;    4.314;  -12.290;  609.160
1135.560;    4.669;  -11.650;  674.940
1136.100;    3.268;  -16.270;  501.160
1136.640;    2.958;  -10.890;  510.480
1137.179;    3.296;  -14.180;  537.960
1137.719;    4.335;  -16.250;  605.400
1138.258;    4.028;  -14.230;  587.360
1138.798;    4.034;   -9.090;  663.780
1139.337;    3.212;  -15.130;  482.840
1139.877;    3.890;  -13.680;  642.360
1140.416;    5.741;  -11.320;  878.060
1140.955;    2.805;  -10.860;  535.380
1141.494;    3.861;  -12.920;  669.280
1142.034;    2.815;  -13.930;  583.520
1142.573;    3.892;  -11.440;  646.280
1143.112;    2.554;  -12.000;  553.480
1143.651;    2.336;  -13.670;  536.480
1144.190;    3.666;  -12.730;  691.640
1144.729;    2.555;  -14.560;  607.420
1145.267;    2.724;  -11.830;  584.900
1145.806;    3.598;  -12.230;  637.040
1146.345;    2.345;  -14.130;  635.020
1146.884;    2.075;  -11.590;  622.500
1147.422;    1.937;  -12.550;  533.060
1147.961;    3.054;  -11.180;  708.460
1148.500;    3.110;  -11.510;  669.720
1149.038;    2.901;  -11.640;  632.500
1149.577;    2.657;  -10.130;  698.640
1150.115;    0.128;  -13.970;  452.280
1150.653;    2.240;  -14.520;  607.340
1151.192;    2.529;  -12.810;  552.920
1151.730;    1.932;   -9.100;  652.560
1152.268;    1.127;  -12.220;  589.520
1152.806;    1.153;  -14.140;  571.180
1153.344;    0.615;  -12.350;  577.640
1153.882;    2.036;   -8.980;  600.060
1154.421;    0.259;  -15.190;  470.620
1154.958;    0.521;  -15.210;  595.240
1155.496;    2.097;  -12.850;  645.280
1156.034;    1.498;   -9.940;  721.880
1156.572;    2.883;  -13.570;  667.060
1157.110;    0.252;  -14.590;  473.940
1157.647;    1.400;  -13.030;  676.960
1158.185;    0.140;  -12.140;  564.320
1158.723;   -0.057;  -14.390;  509.200
1159.260;    0.937;  -14.090;  701.700
1159.798;    1.257;  -11.920;  658.160
1160.335;    0.085;  -11.110;  631.820

