
Integration time [ms]:   3.276
Averaging Nr. [scans]: 1000
Smoothing Nr. [pixels]: 0
Data measured with spectrometer [name]: 7414430SP
Wave   ;Sample   ;Dark     ;Reference
[nm]   ;[counts] ;[counts] ;[counts] 

288.544;  160.736;    7.793;  793.890
289.143;  163.959;    7.462;  681.602
289.742;  163.570;    8.602;  828.814
290.341;  150.186;    1.321;  789.841
290.940;  141.122;   -0.709;  730.702
291.538;  143.435;    0.881;  881.108
292.137;  142.599;    0.122;  792.581
292.736;  145.156;   -1.929;  975.101
293.335;  140.182;   -8.229;  735.086
293.934;  141.591;   -5.279;  781.677
294.532;  142.856;   -1.369; 1031.958
295.131;  129.853;   -7.641;  834.394
295.730;  129.467;   -8.420;  809.588
296.328;  127.132;   -5.611;  783.442
296.927;  125.640;   -5.781;  779.652
297.525;  126.737;   -6.361;  781.236
298.124;  119.058;  -11.382;  654.009
298.722;  124.148;   -7.641;  761.933
299.321;  120.505;   -6.811;  708.597
299.919;  116.537;   -6.991;  751.918
300.518;  112.600;  -10.362;  689.338
301.116;  115.429;   -9.581;  691.381
301.715;  116.488;   -4.891;  730.222
302.313;  115.054;   -8.801;  704.943
302.911;  108.962;   -8.522;  733.830
303.509;  115.035;   -6.171;  925.627
304.108;  112.527;   -7.311;  760.383
304.706;  112.754;   -8.321;  801.664
305.304;  106.339;  -10.222;  796.707
305.902;  111.042;   -6.021;  784.484
306.500;  106.426;   -4.971;  728.200
307.098;  106.091;   -7.061;  746.560
307.696;  103.809;   -8.801;  780.432
308.294;  103.009;   -6.411;  731.359
308.892;  105.685;   -2.901;  759.769
309.490;  102.458;   -5.041;  712.161
310.088;  100.449;   -5.002;  788.444
310.686;  104.059;   -2.041;  821.749
311.284;   99.463;   -2.351;  766.040
311.882;   97.636;   -4.422;  731.225
312.480;   93.932;   -4.192;  697.167
313.078;   95.270;   -1.172;  808.331
313.675;   97.012;   -2.601;  691.600
314.273;   91.896;   -1.312;  797.837
314.871;   90.035;   -3.942;  589.829
315.468;   88.382;   -2.802;  652.090
316.066;   91.316;   -0.701;  694.427
316.664;   83.689;   -4.362;  656.351
317.261;   88.632;   -2.872;  910.128
317.859;   83.663;   -2.022;  768.735
318.456;   84.433;   -0.531;  830.096
319.054;   80.241;   -3.912;  787.828
319.651;   78.295;   -4.752;  759.928
320.249;   77.453;   -2.602;  810.188
320.846;   75.310;   -0.821;  714.286
321.443;   73.255;   -4.642;  832.135
322.041;   70.226;   -5.002;  812.315
322.638;   67.940;   -3.982;  701.456
323.235;   68.440;   -3.411;  665.683
323.833;   65.617;   -7.361;  740.354
324.430;   60.630;   -8.611;  615.900
325.027;   61.326;   -4.061;  876.855
325.624;   61.041;   -4.031;  644.532
326.221;   58.168;   -7.481;  689.717
326.818;   57.812;   -5.281;  818.332
327.415;   60.066;   -7.460;  748.828
328.012;   60.451;   -5.510;  690.585
328.609;   57.657;   -7.880;  731.389
329.206;   56.111;   -8.331;  778.621
329.803;   56.945;   -5.121;  737.841
330.400;   59.062;   -4.510;  704.260
330.997;   60.160;   -6.441;  817.147
331.594;   58.425;   -8.831;  788.185
332.191;   64.018;   -7.621;  728.722
332.787;   67.337;   -4.591;  844.463
333.384;   66.884;   -7.412;  763.093
333.981;   65.104;   -8.293;  815.687
334.578;   67.520;   -7.052;  708.378
335.174;   71.070;   -3.102;  731.469
335.771;   70.713;   -5.943;  836.456
336.367;   67.654;   -7.393;  710.631
336.964;   71.585;   -4.063;  793.266
337.561;   70.777;   -3.813;  731.112
338.157;   66.032;   -4.654;  911.916
338.754;   63.437;   -7.934;  796.589
339.350;   62.875;   -4.414;  722.493
339.946;   64.663;   -4.664;  773.135
340.543;   55.609;   -6.375;  846.136
341.139;   50.473;   -9.815;  720.836
341.735;   47.518;   -4.526;  772.593
342.332;   46.864;   -4.895;  691.472
342.928;   45.979;   -4.295;  795.394
343.524;   39.299;   -5.476;  761.684
344.120;   36.451;   -5.856;  738.562
344.716;   38.785;   -2.155;  723.717
345.313;   35.416;   -6.275;  795.342
345.909;   31.170;   -8.815;  627.336
346.505;   32.647;   -5.305;  740.247
347.101;   32.719;   -2.674;  827.864
347.697;   32.942;   -4.344;  785.398
348.293;   27.537;   -9.975;  627.244
348.889;   28.193;   -5.774;  745.914
349.485;   28.082;   -5.004;  688.205
350.081;   29.106;   -4.704;  772.592
350.676;   23.645;   -6.635;  691.606
351.272;   27.858;   -4.504;  809.530
351.868;   28.355;   -3.914;  780.497
352.464;   24.923;   -9.044;  723.932
353.059;   21.428;   -8.314;  646.017
353.655;   25.039;   -7.024;  777.063
354.251;   25.261;   -5.343;  759.845
354.846;   19.828;   -8.604;  740.646
355.442;   17.500;   -6.945;  753.071
356.038;   19.305;   -7.564;  751.708
356.633;   19.799;   -5.814;  728.594
357.229;   17.138;   -7.364;  724.757
357.824;   15.753;   -8.024;  703.600
358.420;   15.121;   -9.384;  679.726
359.015;   15.388;   -5.104;  695.357
359.610;   16.020;   -6.854;  763.920
360.206;   10.425;  -10.185;  603.240
360.801;   13.657;   -7.054;  646.503
361.396;   15.042;   -5.034;  725.975
361.992;   10.721;   -8.284;  668.220
362.587;    7.738;   -8.625;  670.160
363.182;    9.751;   -7.674;  689.631
363.777;   10.977;   -5.164;  738.242
364.372;   10.075;   -8.604;  737.314
364.967;    6.155;   -9.055;  680.744
365.563;   10.059;   -6.114;  815.567
366.158;    7.161;   -5.814;  685.161
366.753;    7.337;   -7.854;  649.263
367.348;    6.379;   -7.804;  746.056
367.942;    6.472;   -7.954;  697.298
368.537;    4.841;   -4.984;  754.245
369.132;    5.114;   -8.564;  703.428
369.727;    1.473;   -8.855;  638.079
370.322;    2.724;   -6.245;  580.186
370.917;    2.883;   -6.425;  710.646
371.511;    5.264;   -6.294;  861.834
372.106;    1.389;   -7.685;  776.964
372.701;   -1.392;   -7.335;  585.988
373.296;    3.713;   -4.564;  863.135
373.890;   -0.987;  -10.235;  647.840
374.485;   -3.235;   -7.885;  691.199
375.079;    1.102;   -7.324;  738.685
375.674;    1.920;   -3.494;  812.970
376.268;   -2.229;   -8.525;  691.759
376.863;   -8.143;  -10.086;  580.327
377.457;   -1.864;   -7.025;  662.490
378.052;   -3.397;   -3.585;  764.884
378.646;   -3.983;   -7.595;  741.167
379.240;   -4.593;   -8.335;  721.176
379.835;   -3.649;   -5.785;  636.978
380.429;   -6.379;   -4.335;  562.557
381.023;   -5.931;   -6.805;  779.205
381.617;   -8.838;   -9.195;  680.106
382.212;   -5.300;   -6.905;  685.303
382.806;   -5.353;   -3.745;  760.690
383.400;   -8.398;   -7.745;  672.281
383.994;   -9.826;   -9.765;  664.870
384.588;   -5.852;   -6.564;  697.701
385.182;   -4.478;   -5.344;  726.624
385.776;   -6.668;   -8.514;  706.875
386.370;   -9.987;   -9.555;  681.968
386.964;   -7.730;   -8.715;  684.155
387.558;   -5.636;   -6.174;  598.360
388.152;   -9.962;   -8.725;  681.959
388.745;   -8.986;   -7.965;  814.707
389.339;   -7.027;   -5.924;  747.642
389.933;   -5.432;   -5.524;  695.370
390.527;   -6.454;   -7.114;  859.029
391.120;  -13.214;  -10.725;  595.318
391.714;  -10.396;   -8.035;  711.633
392.308;   -7.608;   -3.574;  780.253
392.901;  -11.054;   -7.245;  642.460
393.495;  -12.566;   -9.285;  595.414
394.089;  -10.415;   -5.895;  760.452
394.682;  -11.173;   -4.295;  697.188
395.275;  -12.369;   -9.875;  719.927
395.869;  -12.863;   -8.485;  667.314
396.462;  -10.883;   -7.455;  616.609
397.056;   -7.377;   -5.424;  776.621
397.649;  -11.646;   -6.605;  731.575
398.242;   -9.540;   -8.224;  712.645
398.836;   -9.107;   -7.474;  766.408
399.429;  -10.234;   -7.094;  631.041
400.022;  -14.270;   -9.475;  665.902
400.615;  -11.075;   -7.145;  805.609
401.208;   -9.017;   -7.174;  691.451
401.802;  -10.927;   -5.515;  699.329
402.395;  -12.078;   -9.875;  683.502
402.988;  -14.120;   -8.845;  696.627
403.581;  -10.602;   -8.874;  646.878
404.174;   -7.565;   -5.324;  686.568
404.767;  -10.777;   -9.575;  638.583
405.360;  -13.221;  -10.965;  621.445
405.953;   -7.701;   -8.764;  759.034
406.545;   -7.184;   -7.514;  725.342
407.138;  -11.863;  -10.025;  618.350
407.731;  -10.622;  -10.034;  613.303
408.324;   -6.577;   -9.374;  660.554
408.917;   -6.757;   -6.534;  681.864
409.509;   -8.478;   -8.004;  740.396
410.102;  -11.166;   -9.875;  643.948
410.695;   -4.700;   -8.604;  665.758
411.287;   -5.975;   -6.794;  599.821
411.880;   -7.573;   -9.334;  585.421
412.472;  -10.580;  -10.254;  613.092
413.065;   -7.940;   -6.714;  629.408
413.657;   -5.516;   -7.234;  576.678
414.250;   -5.548;  -10.544;  646.681
414.842;   -7.625;   -9.744;  676.353
415.434;   -4.978;   -6.994;  570.463
416.027;   -0.647;   -5.893;  652.196
416.619;   -2.887;   -7.264;  713.400
417.211;   -3.537;  -10.374;  599.352
417.804;    0.395;   -7.993;  628.499
418.396;   -3.697;   -7.234;  607.643
418.988;   -1.649;   -9.443;  659.238
419.580;   -5.553;  -10.724;  568.276
420.172;   -3.427;  -10.323;  536.196
420.764;    1.283;   -8.793;  672.482
421.356;   -0.258;  -11.143;  636.898
421.948;   -0.916;   -8.293;  677.661
422.540;    3.855;   -7.893;  680.027
423.132;    3.117;   -7.082;  600.641
423.724;    0.531;   -8.653;  561.267
424.316;    2.330;  -10.213;  621.345
424.908;    6.324;   -9.762;  591.517
425.500;    6.153;   -5.572;  647.978
426.092;    6.017;   -8.422;  648.268
426.683;    6.107;   -9.283;  684.836
427.275;    8.222;   -7.852;  641.471
427.867;   10.086;   -5.272;  668.948
428.458;   11.124;   -7.682;  732.344
429.050;    8.913;  -10.612;  680.749
429.642;   10.483;   -9.882;  743.124
430.233;   11.849;   -6.962;  569.356
430.825;   13.262;   -6.842;  724.809
431.416;   10.378;   -9.672;  698.241
432.008;   14.353;   -6.552;  651.723
432.599;   14.212;   -6.891;  656.073
433.190;   11.066;  -10.912;  637.670
433.782;   10.911;  -11.172;  590.395
434.373;   18.717;   -6.061;  884.765
434.964;   16.943;   -8.251;  602.920
435.556;   14.455;   -9.722;  634.537
436.147;   16.990;   -9.082;  758.490
436.738;   17.691;   -8.041;  701.099
437.329;   22.971;   -7.341;  721.723
437.920;   15.096;   -8.162;  666.688
438.511;   15.436;  -11.802;  564.526
439.103;   21.849;  -10.191;  623.998
439.694;   24.770;   -7.601;  681.583
440.285;   24.505;   -8.541;  764.432
440.876;   23.720;   -9.751;  845.738
441.466;   22.582;   -9.401;  575.162
442.057;   27.812;   -7.760;  665.814
442.648;   26.602;   -9.971;  746.255
443.239;   24.236;  -11.001;  620.477
443.830;   29.299;   -7.990;  704.958
444.421;   31.969;   -7.910;  655.474
445.011;   28.440;   -8.131;  693.619
445.602;   26.918;   -7.111;  743.126
446.193;   29.964;  -10.920;  488.117
446.783;   34.498;   -6.500;  640.397
447.374;   29.244;   -8.671;  692.759
447.964;   29.438;  -10.781;  713.770
448.555;   38.656;   -9.650;  822.742
449.145;   34.746;   -8.660;  662.853
449.736;   35.391;   -8.990;  803.179
450.326;   34.850;   -9.500;  713.626
450.917;   40.509;   -8.680;  675.324
451.507;   40.161;   -7.520;  600.661
452.097;   40.012;   -8.590;  746.267
452.688;   41.961;  -11.340;  742.160
453.278;   40.967;  -10.100;  566.840
453.868;   45.907;   -6.019;  793.550
454.458;   43.656;   -9.440;  651.141
455.048;   43.677;  -10.560;  711.783
455.639;   45.304;  -11.799;  567.096
456.229;   49.307;   -6.899;  710.694
456.819;   51.303;   -7.389;  751.158
457.409;   51.860;  -11.119;  773.993
457.999;   54.386;   -9.289;  737.505
458.589;   54.484;   -6.139;  686.606
459.179;   53.577;   -8.729;  717.658
459.769;   51.880;   -9.789;  627.099
460.358;   57.265;  -10.259;  797.262
460.948;   57.149;   -7.299;  689.503
461.538;   58.894;  -10.289;  660.677
462.128;   56.124;  -11.269;  664.934
462.717;   62.736;   -9.368;  710.326
463.307;   65.952;   -7.908;  705.846
463.897;   61.522;   -9.599;  656.942
464.486;   61.539;   -9.769;  837.128
465.076;   65.236;   -8.048;  733.776
465.666;   69.657;   -9.358;  652.900
466.255;   66.858;   -7.919;  785.651
466.845;   65.750;  -11.689;  666.749
467.434;   68.606;   -7.818;  725.873
468.023;   70.583;   -7.678;  658.357
468.613;   67.539;  -10.939;  713.946
469.202;   71.845;  -10.118;  646.507
469.791;   76.369;   -9.108;  737.811
470.381;   78.260;   -6.058;  742.813
470.970;   77.484;  -10.428;  711.099
471.559;   77.937;  -10.268;  733.291
472.148;   80.497;   -8.448;  675.737
472.738;   83.450;   -6.917;  765.466
473.327;   82.847;  -11.978;  637.529
473.916;   82.891;  -11.888;  737.446
474.505;   86.786;   -9.437;  751.703
475.094;   90.314;   -6.747;  806.570
475.683;   89.254;   -9.367;  797.699
476.272;   90.217;  -12.637;  730.632
476.861;   93.154;  -10.027;  706.754
477.449;   99.398;   -8.716;  728.487
478.038;   93.762;   -9.577;  692.513
478.627;   94.987;   -9.718;  714.852
479.216;  101.845;   -8.947;  769.441
479.805;  104.992;   -6.256;  783.375
480.393;  104.256;   -7.937; 1008.945
480.982;  104.110;   -7.717;  874.501
481.571;  110.171;   -9.266;  858.333
482.159;  110.545;   -7.636;  705.386
482.748;  110.216;   -9.667;  821.385
483.336;  114.301;  -10.376;  858.209
483.925;  116.170;   -7.147;  774.373
484.513;  122.291;   -7.996;  758.962
485.102;  119.533;  -10.027;  810.965
485.690;  127.591;  -10.446; 1011.050
486.278;  128.944;   -8.446;  979.329
486.867;  130.653;   -6.356;  809.662
487.455;  132.142;   -9.136;  898.229
488.043;  134.073;  -10.646;  748.361
488.631;  143.475;   -7.456; 1005.079
489.220;  148.244;   -6.636;  908.626
489.808;  147.449;  -11.036;  741.415
490.396;  155.019;  -10.246;  914.645
490.984;  161.669;   -8.556;  830.161
491.572;  172.541;   -5.886;  940.315
492.160;  178.383;   -9.486;  919.081
492.748;  190.087;  -10.976;  884.341
493.336;  213.628;   -8.776; 1019.693
493.924;  239.335;   -5.465;  958.077
494.512;  270.898;   -9.986; 1066.638
495.100;  313.175;  -10.636; 1103.280
495.687;  368.905;  -10.885; 1206.373
496.275;  434.329;   -8.126; 1150.796
496.863;  519.297;  -10.586; 1281.171
497.451;  619.974;  -11.926; 1386.805
498.038;  733.667;  -10.885; 1556.729
498.626;  860.626;   -6.315; 1741.407
499.214; 1008.384;   -7.326; 2016.609
499.801; 1191.216;  -11.906; 2220.633
500.389; 1385.692;  -10.466; 2312.494
500.976; 1635.561;   -5.236; 2744.849
501.564; 2016.105;   -8.936; 3148.565
502.151; 2582.535;  -13.176; 3515.999
502.738; 3157.538;  -10.646; 3971.274
503.326; 3627.842;   -9.525; 4403.796
503.913; 3916.515;  -10.856; 5161.749
504.500; 4401.896;  -11.586; 5986.420
505.088; 5042.108;  -10.336; 6381.201
505.675; 5216.637;   -6.355; 6925.547
506.262; 5612.328;   -9.046; 7619.060
506.849; 6081.806;  -10.416; 8733.969
507.436; 6410.077;  -10.305; 9790.121
508.023; 7168.438;   -5.496; 9985.472
508.610; 7845.025;   -7.856;10434.618
509.197; 9325.859;  -10.097;11198.435
509.784;10776.600;  -10.886;12391.194
510.371;11689.980;   -9.315;13603.713
510.958;12402.295;   -9.936;14426.586
511.545;12580.569;   -9.326;15243.775
512.132;13173.819;  -10.075;15945.876
512.719;14462.014;   -7.796;16340.369
513.305;16903.246;  -10.606;18011.766
513.892;17867.473;  -11.486;19754.971
514.479;18835.094;   -9.126;20967.805
515.066;19808.463;   -6.026;22299.793
515.652;19850.475;   -8.466;22908.660
516.239;20372.883;  -10.886;23798.875
516.825;21914.578;  -11.496;25567.275
517.412;23440.066;   -5.796;28154.959
517.998;23687.396;  -10.506;28344.111
518.585;23436.197;  -10.076;27134.219
519.171;23686.977;   -8.315;27268.576
519.758;24298.895;   -8.596;28964.129
520.344;25211.246;   -8.466;30664.494
520.930;27367.057;  -11.006;32550.605
521.516;28981.775;  -10.495;35422.895
522.103;29440.482;   -5.526;38280.004
522.689;29685.561;   -8.746;37835.117
523.275;29000.459;  -11.376;37288.613
523.861;27846.898;  -11.156;37281.395
524.447;27460.246;   -8.135;37846.949
525.033;30081.113;   -7.896;38321.949
525.619;35945.953;  -12.476;38579.285
526.205;38596.801;   -9.516;40622.875
526.791;38376.027;   -6.926;42258.836
527.377;39329.461;   -8.346;42966.902
527.963;40730.320;   -8.717;42018.949
528.549;41081.281;  -11.016;42476.828
529.135;40801.902;   -8.536;41854.852
529.721;38993.121;   -9.666;41237.711
530.306;37781.027;  -10.066;41259.445
530.892;36639.973;  -11.356;41506.047
531.478;37977.641;   -6.596;43559.613
532.063;40400.375;   -8.836;47695.563
532.649;42342.563;  -10.047;50808.324
533.235;43561.297;   -9.746;51787.500
533.820;45740.309;   -6.566;52145.035
534.406;47504.582;  -10.817;51133.488
534.991;48732.066;   -9.416;49996.805
535.576;44146.973;   -9.036;48882.852
536.162;42481.738;   -6.156;46942.285
536.747;43242.176;  -11.607;45711.746
537.333;44866.289;  -11.787;48510.180
537.918;45188.211;  -12.437;50439.891
538.503;44024.406;   -7.196;50863.711
539.088;45126.434;  -10.556;50906.922
539.673;46480.672;   -8.767;52621.965
540.259;44142.797;  -10.026;52368.094
540.844;42335.895;   -7.416;50879.109
541.429;42629.051;   -9.467;52077.777
542.014;42149.547;   -9.527;52716.695
542.599;41039.707;   -9.946;52363.281
543.184;38174.109;   -7.927;53187.137
543.769;38068.082;   -9.297;54697.605
544.354;40254.035;  -10.127;53913.914
544.938;42051.645;   -9.267;49680.164
545.523;45163.027;   -6.506;47386.277
546.108;48347.926;   -9.787;49151.949
546.693;49501.867;  -11.587;51384.637
547.278;48216.746;  -10.986;51853.254
547.862;45374.742;   -8.206;51173.750
548.447;45097.156;  -10.067;51691.395
549.031;48757.633;   -9.637;52456.703
549.616;50455.102;   -9.926;52714.516
550.201;48730.426;   -6.347;52414.598
550.785;46991.984;   -7.917;52355.059
551.370;42118.879;  -10.867;54589.453
551.954;43985.547;   -9.047;58267.348
552.538;47242.867;   -7.827;59062.176
553.123;47290.500;  -10.287;58115.285
553.707;45917.082;  -12.178;56556.285
554.291;47038.578;   -8.717;56201.668
554.876;47749.246;   -7.457;55335.762
555.460;48319.000;  -10.387;54155.703
556.044;47819.996;   -9.618;53721.484
556.628;46060.020;  -11.567;53731.016
557.212;47573.363;   -8.097;54312.531
557.796;47346.988;  -11.077;53797.773
558.380;45176.465;  -11.108;56145.984
558.964;42139.906;   -9.057;57277.930
559.548;40629.441;   -6.977;56459.641
560.132;41193.867;  -11.457;54434.543
560.716;41780.820;  -11.378;54800.617
561.300;43157.945;   -9.577;57606.945
561.884;44953.086;   -7.127;58972.445
562.467;47166.254;   -7.118;57327.570
563.051;45982.098;  -13.358;54962.434
563.635;45671.191;  -10.178;52594.473
564.219;46190.738;   -7.837;50610.410
564.802;45243.305;  -11.398;49551.180
565.386;44672.895;  -12.788;48370.953
565.969;43231.418;   -9.077;48178.871
566.553;43492.625;   -6.207;49957.305
567.136;43796.348;   -8.568;50369.594
567.720;44008.227;  -11.868;49492.004
568.303;44050.996;   -8.268;50616.352
568.887;42587.395;   -8.698;50727.148
569.470;42326.449;   -6.808;51698.379
570.053;40067.457;  -13.188;52122.078
570.637;38326.641;  -12.037;52536.438
571.220;38497.176;   -8.577;51186.098
571.803;39569.258;   -8.498;51032.762
572.386;38749.898;  -10.498;49609.887
572.969;38579.027;   -9.388;48285.926
573.552;38108.793;   -8.338;47624.285
574.135;37874.855;   -8.518;45498.641
574.718;37755.234;  -13.628;41970.434
575.301;35368.664;  -10.893;41447.137
575.884;32982.094;   -8.158;40923.836
576.467;36418.449;  -10.328;45267.723
577.050;36823.578;  -13.058;48175.543
577.633;37191.305;   -9.458;47729.328
578.216;36447.500;   -8.928;47579.793
578.799;35067.387;   -9.358;47820.996
579.381;34610.020;  -11.388;48115.551
579.964;33665.898;  -11.718;47333.766
580.547;34974.953;   -8.588;46668.969
581.129;36434.117;   -8.859;44466.141
581.712;34748.754;  -10.729;44164.922
582.294;34748.672;  -11.118;46477.855
582.877;35606.344;   -5.218;48244.254
583.459;35972.012;   -8.679;47437.895
584.042;35240.914;  -10.709;46943.219
584.624;34382.988;  -11.669;46792.227
585.206;37691.672;   -8.218;46557.250
585.789;36335.883;  -10.569;45793.773
586.371;34730.875;  -11.859;43836.391
586.953;32789.613;  -10.719;42972.492
587.536;30996.555;   -7.198;42487.211
588.118;32870.930;   -8.720;42086.414
588.700;34655.293;  -10.439;43389.930
589.282;34513.566;   -9.198;43646.039
589.864;33868.305;   -9.199;43438.109
590.446;33170.102;  -11.319;43151.926
591.028;33862.148;  -11.159;42781.867
591.610;33840.934;  -11.779;42839.098
592.192;30860.141;   -7.668;42820.402
592.774;30069.949;  -11.949;40724.277
593.356;29653.396;  -12.129;39874.789
593.937;30314.363;  -10.669;39980.648
594.519;30386.201;   -6.509;42069.633
595.101;33159.195;  -10.849;42976.031
595.683;35619.348;  -11.679;44084.441
596.264;33872.297;   -9.049;43478.797
596.846;35081.813;   -8.849;43803.672
597.427;37036.070;   -9.570;42986.934
598.009;34398.023;  -12.620;42832.219
598.591;31210.029;  -10.039;42580.086
599.172;30552.672;  -10.369;43061.805
599.753;31859.836;   -9.140;41691.469
600.335;32361.223;  -11.430;40692.520
600.916;31255.832;   -9.939;39982.422
601.498;32726.072;   -8.479;40318.617
602.079;32808.355;  -10.920;40670.609
602.660;32441.795;  -11.480;41450.898
603.241;32637.033;  -11.699;41137.738
603.823;32647.537;   -9.579;38868.797
604.404;31731.877;  -10.620;38182.785
604.985;30837.496;  -10.450;38078.047
605.566;30339.934;   -9.129;38056.633
606.147;31570.512;   -7.510;37020.418
606.728;31829.164;  -10.660;37883.359
607.309;31189.113;  -11.740;38748.273
607.890;29976.127;   -9.759;38850.230
608.471;28238.730;   -8.250;37457.918
609.051;29161.365;   -9.240;36066.457
609.632;29482.203;  -12.120;35991.074
610.213;28499.389;   -9.110;37402.641
610.794;29497.518;   -8.030;38383.363
611.374;30566.379;   -8.110;40562.387
611.955;31687.434;  -13.560;38533.727
612.536;31080.035;  -11.400;36951.789
613.116;31553.389;   -8.070;37197.891
613.697;31842.855;  -10.830;38411.125
614.277;29663.674;  -11.641;38673.938
614.858;28203.227;  -13.310;37075.863
615.438;28636.373;   -7.460;35092.906
616.019;28577.322;   -7.601;33666.301
616.599;29269.980;  -12.020;34189.023
617.179;29340.975;  -11.780;36952.047
617.760;31036.785;   -8.570;39582.574
618.340;32761.117;  -11.471;38943.977
618.920;31658.443;  -11.170;37594.156
619.500;30207.541;  -11.071;37866.938
620.080;30820.365;   -7.750;37869.043
620.660;31607.684;  -12.711;36868.617
621.241;29598.086;  -10.211;36352.309
621.821;28549.301;  -10.961;35459.520
622.401;29558.906;   -7.720;35207.414
622.980;30475.744;   -8.981;35980.422
623.560;31649.422;   -9.331;37351.328
624.140;28444.537;   -9.850;34388.582
624.720;24402.922;   -7.451;32368.764
625.300;22586.244;   -9.070;32638.629
625.880;25542.830;  -12.601;34599.035
626.459;30179.877;  -11.751;36831.738
627.039;31400.123;   -9.281;38299.098
627.619;31728.414;   -8.801;38289.574
628.198;32548.266;  -12.071;37220.695
628.778;33656.621;   -9.461;37632.563
629.357;34350.234;   -8.491;38003.012
629.937;33075.387;   -9.721;38402.039
630.516;32943.047;   -9.951;37868.801
631.096;31918.574;  -11.731;35760.410
631.675;31513.797;   -8.572;35225.219
632.254;32352.471;  -11.282;35130.289
632.834;32651.113;  -13.322;35794.570
633.413;33903.406;  -10.301;35788.922
633.992;34654.344;   -8.582;34532.863
634.571;32826.918;   -8.352;33590.113
635.151;32203.316;  -11.912;34943.863
635.730;31179.404;  -10.511;35352.523
636.309;31234.400;   -7.731;35366.605
636.888;31387.314;   -9.952;36165.637
637.467;31313.551;  -11.672;37515.902
638.046;32829.113;   -8.901;39288.695
638.625;31424.908;   -7.912;38279.699
639.204;32090.199;  -10.022;37741.598
639.782;32062.654;  -12.252;38364.551
640.361;29511.832;  -10.041;36740.621
640.940;27707.021;  -11.161;34950.082
641.519;28143.094;   -9.701;34137.398
642.097;30460.342;  -11.271;35654.258
642.676;30451.996;   -8.651;35637.957
643.255;32706.799;   -8.711;36567.074
643.833;34843.828;   -9.581;37809.434
644.412;33583.254;  -13.711;37337.293
644.990;30689.557;  -11.811;37018.531
645.569;30421.146;   -9.411;36518.469
646.147;31320.350;  -10.291;36186.430
646.726;30969.609;  -12.401;36267.688
647.304;30072.635;  -10.411;36647.625
647.882;31383.496;   -9.651;39286.742
648.461;33592.988;   -9.631;39157.703
649.039;33559.289;  -11.881;35412.883
649.617;33218.945;   -9.661;34744.918
650.195;33505.480;   -9.301;35403.098
650.773;32440.211;  -10.511;35053.797
651.352;31981.658;  -11.521;33756.816
651.930;30049.818;  -12.211;31868.773
652.508;24927.424;   -9.171;33121.551
653.086;23957.814;   -9.371;33564.793
653.663;28676.881;  -13.161;34054.668
654.241;30274.023;  -13.031;35693.309
654.819;32536.021;   -9.371;36422.906
655.397;32297.131;  -10.511;38213.484
655.975;31734.148;  -10.371;39507.625
656.553;32583.439;  -10.051;39498.223
657.130;31852.693;  -10.061;40395.480
657.708;30280.623;   -9.561;39242.020
658.286;29974.469;  -11.511;38920.020
658.863;28636.527;  -10.261;40202.898
659.441;29919.484;   -7.531;39677.938
660.018;31423.766;   -9.501;40413.355
660.596;31146.525;  -13.301;39931.414
661.173;29276.025;  -11.211;39604.531
661.750;29196.705;   -9.951;39700.070
662.328;31270.598;   -9.390;39292.809
662.905;30532.537;  -11.330;38235.648
663.482;26554.924;   -9.050;36212.305
664.060;24107.295;   -8.240;35944.945
664.637;27694.375;  -10.050;35170.785
665.214;30849.207;  -11.760;34197.523
665.791;31866.484;  -10.530;34549.520
666.368;32340.340;   -9.690;35118.578
666.945;32787.914;   -9.320;36019.418
667.522;30666.160;  -11.860;36048.438
668.099;30599.785;  -10.770;36243.914
668.676;32926.773;   -6.260;35958.875
669.253;34307.750;   -7.000;37384.730
669.830;35190.301;  -10.190;36779.629
670.407;34555.035;   -9.550;35231.289
670.984;33121.250;   -9.260;35544.270
671.560;30149.959;   -9.280;35466.867
672.137;26595.314;  -11.810;34280.863
672.714;25461.416;  -11.490;34632.863
673.290;29682.404;   -7.740;35135.422
673.867;33325.902;  -10.660;36114.480
674.443;32558.320;  -12.230;36152.859
675.020;31058.178;  -10.450;35327.238
675.596;30052.125;   -9.260;35795.176
676.173;30813.207;  -10.780;35430.355
676.749;31285.633;  -13.690;33549.516
677.326;29770.146;  -11.980;32210.012
677.902;28139.934;   -8.630;32068.871
678.478;28047.566;  -10.730;32583.891
679.054;29598.734;  -10.520;32088.928
679.631;31042.596;  -11.920;30978.848
680.207;31453.295;   -7.490;33160.887
680.783;31351.016;   -9.860;35570.363
681.359;33051.391;  -13.380;36125.184
681.935;32742.592;  -12.480;35240.922
682.511;29974.107;   -7.900;34429.961
683.087;28763.629;   -7.710;34463.680
683.663;29720.514;  -11.480;34648.898
684.239;30567.594;  -14.090;34546.457
684.815;30130.107;   -7.560;35586.375
685.390;28391.590;   -9.910;35821.895
685.966;28521.551;  -11.159;35085.871
686.542;27731.053;  -11.169;34198.230
687.118;28146.260;   -5.959;32847.707
687.693;31454.480;  -10.329;32794.027
688.269;32025.379;  -12.059;33072.367
688.844;32286.246;  -10.909;33141.664
689.420;34649.363;   -8.019;33965.742
689.995;32826.594;   -8.399;34655.523
690.571;30683.061;  -10.949;33576.742
691.146;30024.021;   -9.619;32657.219
691.722;30805.498;   -8.999;32526.979
692.297;30644.129;  -11.589;33014.617
692.872;29037.891;  -11.739;34012.254
693.448;29347.055;  -11.059;34237.434
694.023;29372.137;  -10.139;34142.672
694.598;26987.471;   -9.029;34132.031
695.173;27079.656;  -13.319;34205.250
695.748;29438.771;  -10.169;32882.488
696.323;28629.738;   -8.339;32864.906
696.898;27192.561;   -8.169;33170.004
697.473;27611.416;  -12.309;32432.984
698.048;27858.721;  -10.989;31649.303
698.623;27450.168;   -9.329;30778.141
699.198;27999.283;   -9.849;31140.119
699.773;28851.719;  -12.329;31764.299
700.348;31406.428;  -10.389;31780.816
700.922;31004.529;   -9.269;32046.375
701.497;28550.055;   -9.329;32603.574
702.072;29405.803;  -10.789;34799.871
702.646;28965.543;  -10.839;35793.172
703.221;30051.314;   -9.099;35201.590
703.795;31121.330;  -10.939;34764.527
704.370;30914.592;  -12.859;34307.367
704.944;30818.762;  -11.559;33509.887
705.519;30100.930;   -7.939;31388.584
706.093;31730.275;  -10.499;31340.104
706.668;31313.787;  -11.289;32630.281
707.242;30738.031;  -11.509;32728.779
707.816;29172.518;   -9.639;32947.238
708.390;27400.205;  -11.429;33277.855
708.965;27251.070;  -11.869;33834.336
709.539;28193.291;  -11.689;33709.273
710.113;28260.746;  -10.478;33044.313
710.687;28402.059;  -10.228;31953.992
711.261;28350.256;  -13.698;30505.949
711.835;28472.914;  -13.378;30262.369
712.409;28757.078;   -9.698;31254.447
712.983;27593.904;  -11.898;32754.986
713.557;27432.072;  -15.138;34018.824
714.131;25940.186;  -14.098;34579.625
714.704;24503.133;   -9.958;33890.262
715.278;24653.664;  -10.028;33531.102
715.852;24517.189;  -11.148;33601.660
716.425;25374.605;   -9.068;33515.117
716.999;24935.500;  -10.038;33185.555
717.573;24425.871;   -9.798;33905.996
718.146;25400.520;  -12.378;35199.293
718.720;26468.369;  -11.918;35060.551
719.293;27942.381;   -8.088;34973.230
719.867;29166.459;  -10.888;36394.449
720.440;29075.510;  -11.938;36663.008
721.013;29647.578;  -12.818;35102.426
721.587;28732.348;  -10.298;33985.266
722.160;27489.215;  -10.048;33524.965
722.733;26691.451;  -12.108;32987.043
723.306;26512.076;  -10.818;33066.301
723.880;27459.037;   -8.908;33399.500
724.453;26909.746;   -9.878;33468.297
725.026;25878.873;  -11.188;33816.637
725.599;26793.412;  -11.678;32797.996
726.172;28616.000;   -9.618;33187.434
726.745;27954.947;   -8.258;35136.613
727.318;27270.541;  -12.978;35751.730
727.891;25947.275;  -12.148;35890.430
728.463;25038.461;   -8.968;34822.090
729.036;25051.230;  -10.188;32895.086
729.609;26680.744;  -11.788;31823.225
730.182;27034.320;  -11.788;31445.283
730.754;25191.602;  -10.268;32373.223
731.327;23402.906;   -9.998;33676.820
731.900;22935.123;  -12.228;33417.000
732.472;24000.346;  -13.848;31978.498
733.045;25471.057;   -8.698;30368.777
733.617;24500.027;  -10.607;30574.215
734.190;25464.889;  -11.507;31280.975
734.762;27091.789;  -13.647;31674.412
735.334;24988.002;   -9.767;31247.291
735.907;24074.102;   -9.897;29876.211
736.479;24860.555;  -11.637;29808.488
737.051;25967.330;   -9.567;30233.547
737.623;25884.025;   -8.187;31469.086
738.195;25661.395;  -11.187;31784.225
738.768;26224.994;  -12.337;32120.523
739.340;24971.545;  -12.227;32094.342
739.912;23475.945;  -11.057;31312.680
740.484;22785.895;  -10.207;31946.238
741.056;21009.986;  -10.047;32984.059
741.628;20465.760;  -13.627;33897.715
742.199;21401.451;   -7.177;33213.016
742.771;23941.498;  -10.797;31369.113
743.343;26233.443;  -11.997;31865.473
743.915;26566.797;  -12.867;32388.631
744.487;25041.271;   -7.617;31079.568
745.058;23676.387;   -9.557;30570.107
745.630;23864.768;   -9.877;29970.127
746.201;23446.490;  -14.177;29186.766
746.773;22131.951;   -9.237;28805.723
747.344;22331.014;   -9.847;29591.223
747.916;22646.789;  -11.657;31412.201
748.487;22099.926;  -10.587;32194.898
749.059;22073.770;   -8.707;32533.719
749.630;22154.400;  -10.537;32158.518
750.201;23022.063;  -11.687;30855.395
750.773;23245.178;  -11.647;28622.555
751.344;22679.275;   -7.147;28405.732
751.915;21769.668;   -9.757;28461.551
752.486;21577.189;  -12.427;27842.850
753.057;21244.631;  -12.227;27845.008
753.628;20539.117;  -10.417;27728.107
754.199;19496.236;  -11.767;27381.086
754.770;19227.957;  -11.187;25882.203
755.341;20075.461;  -10.507;25886.184
755.912;20104.363;   -9.387;26050.861
756.483;18606.205;  -10.647;26798.779
757.054;18208.244;  -11.837;27048.238
757.625;18791.756;  -12.716;26294.838
758.195;19564.094;   -9.666;26142.076
758.766;21174.738;   -8.656;26392.234
759.337;21169.475;  -12.856;26334.594
759.907;20628.580;  -13.366;27579.652
760.478;21070.080;   -8.576;28352.770
761.048;20739.582;  -10.526;27325.088
761.619;20824.721;  -11.116;26460.428
762.189;20716.947;  -12.136;26029.826
762.760;19692.260;   -9.456;26430.145
763.330;18937.744;   -7.136;26670.902
763.900;19594.092;  -11.786;26603.021
764.471;19193.658;  -11.546;25542.740
765.041;17483.613;   -8.096;24358.459
765.611;16403.154;   -8.876;23991.297
766.181;15912.325;  -12.196;24470.236
766.751;16245.698;  -11.636;24845.975
767.321;17285.881;  -10.156;24533.633
767.891;17970.314;  -11.766;24916.492
768.461;17655.117;  -14.936;24776.771
769.031;17390.174;  -12.356;24757.988
769.601;17397.271;   -7.526;24181.088
770.171;17756.551;  -10.766;23670.387
770.741;17317.896;  -13.176;22960.045
771.311;16578.146;  -10.616;22917.523
771.880;16285.560;   -9.576;23562.941
772.450;15821.221;  -10.336;24216.500
773.020;16305.174;  -13.516;24140.398
773.589;16705.131;  -13.466;24414.857
774.159;16341.857;   -8.686;23858.717
774.729;16472.055;   -9.476;22942.135
775.298;16149.228;  -13.666;22324.033
775.867;15145.139;  -11.716;21140.313
776.437;14207.028;   -9.906;20838.092
777.006;14361.994;  -12.166;20599.510
777.576;13726.357;  -12.356;20508.809
778.145;13551.964;  -11.646;20732.947
778.714;13526.370;   -8.226;21062.465
779.283;13543.022;   -9.556;20949.664
779.853;13953.232;  -14.116;20508.623
780.422;13793.353;  -11.506;20649.082
780.991;13694.729;   -9.556;21527.520
781.560;13426.265;   -9.095;22632.658
782.129;12182.064;  -12.135;23048.277
782.698;11627.167;  -10.865;23438.555
783.267;11682.350;   -9.335;23267.734
783.836;12185.926;  -11.045;22415.133
784.404;13081.742;  -13.865;20443.152
784.973;12944.669;  -13.095;19699.150
785.542;12368.521;  -11.575;19763.828
786.111;12193.982;   -9.705;20341.408
786.679;12072.424;  -12.105;20207.967
787.248;11894.422;  -12.455;19516.465
787.817;11178.191;  -11.535;18900.363
788.385;11472.702;   -9.765;17879.121
788.954;12405.040;  -14.005;17658.301
789.522;12720.443;  -11.955;17788.879
790.090;12368.990;  -10.135;18118.277
790.659;12480.282;  -10.975;18338.736
791.227;12681.194;  -13.375;18508.615
791.795;12484.552;  -12.375;17898.254
792.364;12263.646;  -10.725;17295.133
792.932;12285.407;   -9.715;16822.051
793.500;12344.445;  -12.675;17040.148
794.068;12206.445;  -13.495;17179.787
794.636;10822.903;  -10.885;16664.246
795.204; 9817.812;  -11.045;16524.545
795.772; 9581.978;  -13.175;17274.564
796.340;10544.096;  -12.445;17891.002
796.908;10792.932;   -9.735;17648.561
797.476;10794.692;   -9.815;17064.080
798.044;10899.719;  -13.985;16672.777
798.612;10750.388;  -13.115;17023.996
799.180;10244.586;  -10.185;16561.615
799.747; 9419.207;   -9.055;15962.773
800.315; 8374.923;  -12.385;15296.992
800.883; 8068.888;  -15.035;14801.771
801.450; 8612.035;  -10.365;14534.430
802.018; 9529.979;   -9.855;14173.248
802.585;10359.947;  -11.905;14029.547
803.153;10202.668;  -11.585;13836.846
803.720; 9399.757;   -9.095;13567.324
804.287; 8904.905;   -9.135;13360.622
804.855; 9147.904;  -11.604;13681.981
805.422; 9626.300;  -11.794;13536.560
805.989; 8962.194;  -10.734;13355.958
806.556; 8739.922;  -10.444;13747.896
807.124; 8792.300;  -12.764;13987.376
807.691; 8833.234;  -12.964;14038.674
808.258; 9104.273;  -11.134;14120.152
808.825; 9253.684;   -9.854;13860.111
809.392; 8682.427;  -10.504;13268.790
809.959; 8243.887;  -13.054;12680.389
810.526; 8071.113;   -8.294;12427.308
811.093; 8153.492;   -8.394;12030.105
811.659; 7839.991;  -12.304;11653.664
812.226; 7171.703;  -13.944;11637.183
812.793; 7064.344;  -10.484;11611.521
813.360; 7323.063;  -10.144;11885.181
813.926; 7264.011;  -11.684;12770.539
814.493; 7019.632;  -13.644;12677.638
815.060; 6688.573;   -9.724;11974.336
815.626; 6342.799;   -9.854;11594.715
816.193; 6403.462;  -13.254;11579.474
816.759; 6428.582;  -13.204;11666.972
817.325; 6727.901;   -9.434;11325.530
817.892; 6791.606;  -10.134;11105.369
818.458; 6477.504;  -13.474;10843.928
819.024; 6118.237;  -11.854;10714.406
819.591; 5862.059;  -10.244;10469.165
820.157; 5662.141;  -10.704;10235.523
820.723; 5784.614;  -12.324;10847.563
821.289; 6232.311;   -9.444;11040.980
821.855; 6575.162;   -8.374;10357.100
822.421; 6566.694;  -10.234; 9978.918
822.987; 6516.282;  -13.294; 9754.177
823.553; 6709.805;  -10.884;10065.755
824.119; 6667.350;   -8.884;10036.294
824.685; 6421.589;   -6.784;10029.192
825.251; 5995.680;  -12.004;10199.230
825.816; 5972.609;  -11.474; 9820.189
826.382; 6115.950;   -9.174; 9297.248
826.948; 6047.588;   -9.214; 9381.347
827.513; 5741.959;  -10.774; 9450.726
828.079; 5441.344;  -11.924; 9472.444
828.645; 5287.130;  -10.543; 9292.643
829.210; 5264.869;  -10.533; 9065.341
829.776; 5151.558;  -10.753; 9132.620
830.341; 5054.957;  -10.173; 9092.878
830.906; 4941.422;  -10.743; 9078.557
831.472; 4994.245;  -11.113; 8534.535
832.037; 5061.202;  -10.603; 8677.874
832.602; 5127.695;  -13.323; 8628.692
833.167; 5231.728;  -10.823; 8879.031
833.733; 4918.333;  -10.113; 9189.790
834.298; 4737.597;  -13.583; 9052.608
834.863; 4886.043;  -12.703; 8895.087
835.428; 4948.612;  -10.523; 8824.266
835.993; 4812.198;   -6.963; 8845.385
836.558; 4566.266;  -10.763; 8888.563
837.123; 4508.800;   -9.903; 8966.582
837.688; 4437.690;   -9.913; 8617.860
838.253; 4457.016;  -10.283; 8590.699
838.817; 4706.208;  -12.963; 8443.797
839.382; 4758.509;  -14.243; 8799.356
839.947; 4667.553;  -10.733; 8810.595
840.511; 4452.979;   -9.383; 8796.394
841.076; 4433.867;  -12.563; 8347.231
841.641; 4468.354;  -12.953; 8224.330
842.205; 4068.362;   -7.043; 8223.349
842.770; 3855.021;   -8.163; 8622.107
843.334; 3987.441;  -12.503; 8410.386
843.898; 4243.275;  -11.693; 8337.465
844.463; 4268.949;  -10.203; 8506.283
845.027; 4141.443;   -9.533; 8280.962
845.591; 4046.093;  -13.443; 8231.141
846.156; 4012.112;  -13.143; 7969.179
846.720; 3900.155;   -9.433; 7768.278
847.284; 3456.511;  -11.033; 7630.957
847.848; 3088.690;  -10.403; 7472.395
848.412; 3186.019;  -11.553; 7437.394
848.976; 3580.011;   -8.393; 7674.592
849.540; 3857.362;   -8.713; 7836.011
850.104; 3841.336;  -12.463; 7913.669
850.668; 3775.462;  -12.973; 7694.508
851.232; 3582.398;  -10.793; 7756.887
851.796; 3437.931;  -10.662; 7926.545
852.359; 3573.177;  -13.082; 7827.844
852.923; 3576.810;  -12.192; 7641.163
853.487; 3505.183;  -11.912; 7342.501
854.050; 3602.552;  -10.892; 7042.820
854.614; 3605.621;  -13.992; 7151.338
855.177; 3430.687;  -11.732; 7105.077
855.741; 3275.976;   -8.962; 6989.675
856.304; 3231.363;   -9.442; 6596.634
856.868; 3207.494;  -14.192; 6356.272
857.431; 3192.331;  -12.702; 6468.571
857.995; 3443.906;   -9.942; 6373.210
858.558; 3584.842;   -9.112; 6324.448
859.121; 3174.139;  -12.932; 6408.327
859.684; 2791.569;  -13.442; 6347.886
860.247; 2695.205;  -10.632; 6321.264
860.810; 2835.673;  -11.272; 6301.903
861.374; 3008.685;   -9.832; 6607.881
861.937; 3046.693;  -11.762; 6408.200
862.500; 3092.200;   -9.722; 6572.639
863.062; 3048.769;  -10.512; 6387.297
863.625; 2913.981;  -11.232; 6190.836
864.188; 2749.247;  -14.112; 5807.254
864.751; 2536.357;  -11.302; 5682.413
865.314; 2430.341;  -10.112; 5547.492
865.876; 2551.013;  -12.182; 5500.150
866.439; 2791.611;  -10.722; 5415.909
867.002; 2875.749;   -9.252; 5501.567
867.564; 2764.500;   -9.572; 5413.946
868.127; 2532.799;  -13.142; 5160.325
868.689; 2373.080;  -12.902; 5133.183
869.252; 2260.795;   -9.732; 5252.382
869.814; 2179.807;   -9.432; 5297.141
870.377; 2259.835;  -11.552; 5390.919
870.939; 2338.640;   -9.052; 5599.898
871.501; 2289.302;  -10.982; 5248.336
872.063; 2345.163;  -12.292; 4854.235
872.626; 2423.661;  -14.912; 4817.074
873.188; 2507.794;  -13.112; 4987.732
873.750; 2564.742;  -13.442; 4868.651
874.312; 2452.091;   -9.402; 4779.330
874.874; 2150.365;  -11.062; 4866.348
875.436; 1794.824;  -13.931; 4718.887
875.998; 1377.707;   -9.561; 4660.005
876.560; 1067.849;  -11.321; 4462.964
877.122;  988.759;  -12.221; 4145.042
877.683; 1051.196;  -12.191; 4056.481
878.245; 1185.177;  -12.101; 3950.740
878.807; 1337.563;   -8.971; 4058.958
879.369; 1416.339;  -12.071; 3954.677
879.930; 1387.954;  -14.621; 3941.495
880.492; 1388.165;  -10.311; 4067.014
881.053; 1378.956;  -10.901; 3859.633
881.615; 1362.492;  -14.411; 3776.071
882.176; 1347.887;  -13.761; 3734.750
882.738; 1364.428;   -9.181; 3678.489
883.299; 1349.148;  -11.791; 3405.407
883.860; 1287.797;  -13.121; 3351.106
884.422; 1205.446;  -11.211; 3394.044
884.983; 1142.759;  -10.091; 3166.443
885.544; 1117.960;   -8.461; 3189.802
886.105; 1090.401;  -12.361; 3160.360
886.666; 1036.127;  -14.141; 3093.059
887.227; 1003.785;  -11.361; 2941.957
887.788;  992.187;  -11.401; 2974.836
888.349;  934.954;  -13.791; 2721.214
888.910;  871.807;  -13.191; 2696.493
889.471;  818.293;   -9.881; 2560.172
890.032;  761.513;   -9.881; 2558.190
890.593;  719.550;  -10.371; 2567.669
891.153;  701.162;  -13.301; 2460.307
891.714;  680.983;  -11.431; 2372.046
892.275;  637.737;  -11.291; 2309.505
892.835;  629.700;  -11.471; 2382.543
893.396;  627.441;  -11.541; 2295.502
893.956;  599.564;  -11.181; 2162.420
894.517;  543.282;  -11.741; 2125.439
895.077;  479.017;  -11.671; 2086.978
895.638;  435.127;  -11.311; 2126.316
896.198;  421.858;   -9.831; 1838.275
896.758;  420.272;   -8.421; 1892.813
897.319;  402.839;  -12.351; 1792.232
897.879;  375.322;  -13.511; 1762.751
898.439;  355.630;  -12.001; 1661.149
898.999;  345.075;  -10.180; 1781.468
899.559;  335.048;  -12.030; 1703.347
900.119;  328.425;  -15.710; 1537.525
900.679;  323.618;   -8.900; 1638.384
901.239;  306.525;   -8.340; 1527.902
901.799;  284.191;  -13.910; 1456.441
902.359;  266.074;  -13.460; 1357.140
902.919;  258.374;  -11.490; 1331.118
903.479;  254.876;  -12.110; 1317.257
904.038;  247.355;  -11.720; 1262.595
904.598;  236.264;  -13.610; 1152.034
905.158;  225.362;  -11.040; 1240.893
905.717;  217.004;  -10.900; 1233.691
906.277;  210.731;  -15.080; 1217.330
906.836;  206.532;  -13.380; 1222.408
907.396;  203.655;  -10.780; 1193.047
907.955;  200.268;   -8.500; 1182.526
908.515;  192.935;  -12.760; 1099.364
909.074;  188.573;  -11.900; 1092.863
909.633;  183.486;   -8.950; 1069.121
910.192;  181.340;   -8.770; 1196.460
910.752;  176.932;  -12.390; 1029.960
911.311;  171.662;  -13.680; 1009.780
911.870;  171.344;  -12.370;  971.460
912.429;  169.627;  -10.900; 1094.080
912.988;  165.103;  -11.690; 1081.060
913.547;  160.581;  -13.240;  940.380
914.106;  159.596;  -11.990;  999.420
914.665;  158.076;   -9.990;  984.020
915.224;  155.273;  -12.880; 1035.760
915.782;  154.123;  -12.350;  922.560
916.341;  155.637;   -9.110; 1049.840
916.900;  152.576;   -9.270;  925.260
917.458;  149.031;  -13.240;  884.220
918.017;  145.438;  -13.550;  942.600
918.576;  142.808;  -12.320;  904.440
919.134;  140.212;  -11.490;  837.980
919.693;  138.843;  -13.670;  893.060
920.251;  140.067;  -15.470;  876.500
920.809;  140.307;  -11.290;  839.580
921.368;  140.846;  -10.210;  885.360
921.926;  138.972;  -12.140;  842.940
922.484;  137.409;  -13.080;  903.360
923.042;  136.469;  -11.720;  880.340
923.601;  138.854;   -7.480;  998.680
924.159;  136.726;  -11.570;  935.560
924.717;  136.009;  -13.840;  841.080
925.275;  137.133;  -10.640;  903.240
925.833;  137.651;  -11.540;  779.320
926.391;  138.181;  -12.960;  938.380
926.949;  138.159;  -14.130;  857.680
927.506;  138.828;  -11.750;  903.500
928.064;  139.739;  -10.250;  877.580
928.622;  137.131;  -13.030;  880.100
929.180;  137.265;  -13.400;  814.180
929.737;  139.408;  -10.700;  808.540
930.295;  139.327;  -10.070;  928.480
930.853;  139.472;  -11.960;  849.100
931.410;  141.683;  -13.120;  821.120
931.968;  143.645;  -10.770;  940.660
932.525;  142.953;  -10.680;  909.380
933.082;  144.705;  -13.130;  811.440
933.640;  150.211;  -13.210;  925.900
934.197;  155.213;  -11.060;  886.360
934.754;  158.722;   -9.580;  897.780
935.312;  157.425;  -14.000;  863.340
935.869;  156.184;  -10.710; 1012.980
936.426;  153.583;   -9.860;  872.800
936.983;  153.652;   -9.710;  889.020
937.540;  153.523;  -13.990;  838.280
938.097;  155.533;  -14.040;  940.120
938.654;  157.938;  -10.310;  898.860
939.211;  157.434;  -10.560;  952.480
939.768;  153.939;  -13.900;  915.420
940.324;  154.576;  -14.760;  904.200
940.881;  158.226;  -10.370;  878.500
941.438;  163.139;   -8.260; 1021.200
941.995;  162.813;  -12.540;  992.560
942.551;  161.734;  -14.670;  875.620
943.108;  160.961;  -10.450;  937.920
943.664;  162.239;  -10.750;  869.340
944.221;  166.508;  -11.550; 1088.140
944.777;  168.011;  -14.770;  869.680
945.334;  171.476;  -12.820;  884.840
945.890;  175.192;  -10.130;  946.480
946.446;  174.046;  -13.470;  947.020
947.003;  173.795;  -12.120;  964.940
947.559;  176.876;   -9.980; 1063.040
948.115;  178.975;   -9.080; 1026.540
948.671;  180.789;  -10.830;  967.300
949.227;  178.775;  -12.440;  859.560
949.783;  171.777;  -12.910;  858.900
950.339;  168.184;  -10.270;  991.000
950.895;  164.044;  -13.630; 1023.840
951.451;  162.457;  -15.100;  925.280
952.007;  164.246;  -11.330;  998.540
952.563;  165.272;  -10.580;  937.780
953.118;  164.918;  -13.440;  904.940
953.674;  162.288;  -12.710;  935.780
954.230;  160.725;  -10.350;  949.640
954.785;  163.130;   -9.190;  936.640
955.341;  162.054;  -11.200;  998.160
955.897;  155.114;  -16.560;  834.660
956.452;  151.424;  -12.570;  953.840
957.008;  147.708;   -7.970; 1083.640
957.563;  143.949;  -11.940; 1009.540
958.118;  144.720;  -13.450;  877.700
958.674;  146.869;  -12.030;  946.780
959.229;  146.893;   -9.410; 1013.980
959.784;  146.362;  -12.000;  832.400
960.339;  144.937;  -14.780; 1001.280
960.894;  137.036;   -9.860;  963.760
961.449;  131.597;   -9.970;  859.960
962.004;  131.268;  -10.900; 1212.840
962.559;  126.541;  -13.150;  860.140
963.114;  123.889;  -13.740;  742.480
963.669;  126.934;   -9.820;  915.500
964.224;  127.862;  -13.890;  874.340
964.779;  130.186;  -12.600;  828.420
965.334;  129.273;  -10.950; 1017.860
965.888;  122.120;  -11.170;  875.360
966.443;  118.725;  -12.540;  972.380
966.998;  116.564;  -15.780;  819.460
967.552;  119.020;   -9.760;  908.380
968.107;  116.033;   -9.060;  868.300
968.661;  115.700;  -11.950;  922.440
969.216;  113.200;  -12.800;  856.280
969.770;  113.393;  -11.210;  917.200
970.324;  112.254;  -11.610;  923.140
970.879;  109.019;  -11.370;  947.180
971.433;  108.252;  -12.540;  952.720
971.987;  107.350;  -11.320;  895.340
972.541;  106.440;  -10.720;  917.100
973.095;  108.073;   -9.680; 1009.460
973.649;  108.569;  -11.440;  809.480
974.203;  108.167;  -11.210;  829.040
974.757;  107.397;  -10.240;  855.220
975.311;  106.390;  -13.720;  872.600
975.865;  105.712;  -13.770;  881.820
976.419;  106.459;  -11.690;  857.400
976.973;  107.193;   -9.510;  849.620
977.526;  106.197;  -12.620;  949.920
978.080;  101.202;  -12.010;  796.780
978.634;  100.477;  -10.170;  921.320
979.187;   96.749;   -9.020;  905.400
979.741;   95.980;   -9.820; 1018.380
980.294;   93.966;  -14.870;  789.160
980.848;   92.446;  -12.380;  717.220
981.401;   94.006;  -10.350;  816.540
981.955;   92.832;  -13.720;  844.300
982.508;   91.036;  -11.490;  746.340
983.061;   91.325;  -10.000;  915.260
983.615;   88.429;  -11.480;  798.800
984.168;   86.462;  -13.220;  770.080
984.721;   85.621;  -13.960;  880.760
985.274;   82.959;  -10.870;  867.500
985.827;   80.825;   -9.790;  834.220
986.380;   77.955;  -13.120;  721.340
986.933;   78.302;  -12.450;  864.800
987.486;   77.383;  -10.210;  861.920
988.039;   76.707;   -8.430;  863.100
988.591;   76.114;  -10.520;  893.260
989.144;   73.565;  -14.860;  737.260
989.697;   73.281;  -13.080;  758.740
990.250;   73.249;  -10.150;  858.100
990.802;   70.212;  -13.430;  755.860
991.355;   69.908;  -12.750;  974.880
991.907;   67.643;  -12.040;  864.320
992.460;   65.377;  -11.330;  753.760
993.012;   63.197;  -13.610;  749.540
993.565;   60.594;  -13.460;  711.360
994.117;   62.960;   -9.360;  950.780
994.669;   59.822;  -11.300;  701.320
995.221;   59.227;  -13.540;  791.920
995.774;   58.507;  -13.430;  787.580
996.326;   58.158;  -12.520;  740.220
996.878;   58.650;  -10.950;  838.420
997.430;   56.334;  -14.300;  699.860
997.982;   55.167;  -13.760;  750.140
998.534;   55.498;  -11.530;  739.060
999.086;   53.511;  -10.310;  738.220
999.638;   52.364;  -12.530;  661.380
1000.190;   51.112;  -11.840;  699.320
1000.741;   51.036;  -10.260;  742.700
1001.293;   51.544;   -8.860;  686.020
1001.845;   49.498;  -13.700;  676.640
1002.396;   49.753;  -12.100;  743.400
1002.948;   50.191;  -12.760;  737.400
1003.500;   48.961;  -10.380;  723.780
1004.051;   49.161;  -11.900;  907.580
1004.603;   47.059;  -12.250;  791.820
1005.154;   43.673;  -13.210;  608.980
1005.705;   43.338;  -10.950;  723.960
1006.257;   43.047;  -13.880;  707.220
1006.808;   41.825;  -12.840;  685.460
1007.359;   41.329;  -10.570;  763.240
1007.910;   40.373;   -9.620;  646.640
1008.461;   39.202;  -13.630;  732.940
1009.013;   39.061;  -17.200;  588.340
1009.564;   40.291;  -10.200;  793.520
1010.115;   37.969;  -12.570;  597.040
1010.665;   37.668;  -15.150;  602.160
1011.216;   37.755;  -14.480;  667.920
1011.767;   36.971;  -11.340;  697.920
1012.318;   37.984;   -9.780;  736.980
1012.869;   36.381;  -12.380;  679.000
1013.419;   36.006;  -15.560;  603.120
1013.970;   36.658;  -11.010;  666.640
1014.521;   36.091;  -11.610;  620.620
1015.071;   35.537;  -13.450;  670.380
1015.622;   34.623;  -13.870;  635.460
1016.172;   35.016;  -11.610;  596.820
1016.723;   34.580;  -12.120;  614.380
1017.273;   34.008;  -13.620;  604.160
1017.823;   34.117;  -14.140;  650.340
1018.374;   33.536;  -12.800;  611.760
1018.924;   33.624;  -12.340;  716.880
1019.474;   33.441;  -11.410;  718.880
1020.024;   32.358;  -14.770;  657.580
1020.574;   33.257;   -9.780;  726.160
1021.124;   34.234;   -8.560;  673.580
1021.674;   31.144;  -15.190;  559.120
1022.224;   33.091;  -13.530;  708.940
1022.774;   32.961;  -13.280;  668.820
1023.324;   33.592;  -10.690;  753.520
1023.874;   33.774;  -10.240;  875.760
1024.423;   31.636;  -12.540;  613.700
1024.973;   31.542;  -10.010;  610.760
1025.523;   30.523;  -10.550;  620.960
1026.072;   29.830;  -13.560;  606.420
1026.622;   29.570;  -15.120;  675.740
1027.172;   30.753;  -11.260;  715.660
1027.721;   29.701;  -11.410;  601.220
1028.270;   29.561;  -13.530;  663.400
1028.820;   29.451;  -13.680;  638.080
1029.369;   28.699;  -13.520;  612.700
1029.918;   29.977;  -10.980;  649.840
1030.468;   29.362;  -13.530;  564.780
1031.017;   29.102;  -13.170;  634.800
1031.566;   27.878;  -12.200;  608.900
1032.115;   29.190;   -9.960;  694.500
1032.664;   27.437;  -13.210;  596.480
1033.213;   28.315;  -12.500;  735.420
1033.762;   27.646;  -11.910;  635.620
1034.311;   27.992;   -9.640;  677.220
1034.860;   27.053;  -13.310;  691.000
1035.408;   27.000;  -11.830;  722.720
1035.957;   28.311;  -12.000;  719.540
1036.506;   25.923;  -11.690;  530.800
1037.055;   27.846;  -10.990;  844.320
1037.603;   26.579;  -15.120;  664.000
1038.152;   25.334;  -12.450;  534.760
1038.700;   26.560;  -10.560;  585.740
1039.249;   25.128;  -11.080;  681.220
1039.797;   25.509;  -12.540;  633.360
1040.345;   25.833;  -11.920;  705.420
1040.894;   25.704;  -11.410;  625.300
1041.442;   25.040;  -14.320;  632.200
1041.990;   24.194;  -16.240;  559.160
1042.538;   24.435;  -11.680;  536.180
1043.087;   23.943;  -10.760;  570.860
1043.635;   25.309;  -11.850;  670.500
1044.183;   24.078;  -15.480;  586.400
1044.731;   23.945;  -11.770;  576.000
1045.279;   22.975;  -13.090;  674.920
1045.827;   25.718;  -12.440;  892.400
1046.374;   22.303;  -13.840;  515.420
1046.922;   22.708;  -13.220;  590.580
1047.470;   23.952;  -10.230;  691.300
1048.018;   23.339;  -14.590;  647.960
1048.565;   23.818;  -12.050;  708.600
1049.113;   22.374;  -11.650;  557.000
1049.660;   22.722;  -10.510;  629.660
1050.208;   22.767;  -13.310;  675.640
1050.755;   21.670;  -15.900;  606.580
1051.303;   22.987;  -11.430;  686.820
1051.850;   22.157;   -8.480;  635.120
1052.397;   20.537;  -15.010;  473.960
1052.945;   20.848;  -13.960;  617.760
1053.492;   22.947;  -13.150;  741.840
1054.039;   22.181;   -9.630;  720.180
1054.586;   21.411;  -13.680;  557.240
1055.133;   21.717;  -14.570;  693.140
1055.680;   22.411;  -13.820;  646.620
1056.227;   21.123;  -11.730;  542.780
1056.774;   21.712;  -12.480;  794.980
1057.321;   19.880;  -13.930;  523.260
1057.868;   20.634;  -11.690;  651.320
1058.415;   20.584;   -9.520;  651.980
1058.961;   20.477;  -13.160;  678.940
1059.508;   20.062;  -12.920;  643.820
1060.055;   19.772;  -11.920;  581.780
1060.601;   20.968;  -11.500;  624.300
1061.148;   19.360;  -14.330;  616.820
1061.694;   19.025;  -16.870;  592.580
1062.241;   20.277;  -10.330;  596.320
1062.787;   20.310;  -10.620;  663.140
1063.334;   21.339;  -10.110;  808.560
1063.880;   19.418;  -13.400;  668.360
1064.426;   19.849;  -10.680;  706.820
1064.972;   18.873;   -9.920;  601.340
1065.518;   16.748;  -10.980;  566.640
1066.065;   18.146;  -14.890;  624.460
1066.611;   17.835;  -12.870;  598.800
1067.157;   19.202;  -12.950;  641.860
1067.703;   18.058;  -13.540;  668.480
1068.249;   17.612;  -13.540;  605.220
1068.794;   18.815;  -12.600;  626.880
1069.340;   17.439;  -10.620;  578.960
1069.886;   18.005;  -12.830;  590.700
1070.432;   16.752;  -14.870;  541.720
1070.977;   16.947;  -11.980;  601.080
1071.523;   17.216;   -8.200;  573.060
1072.068;   16.692;  -12.330;  582.000
1072.614;   16.789;  -16.370;  527.760
1073.160;   17.702;  -11.100;  687.040
1073.705;   16.037;  -10.480;  572.520
1074.250;   16.209;  -14.520;  559.900
1074.796;   16.930;  -11.460;  655.160
1075.341;   17.414;  -11.950;  664.100
1075.886;   16.757;  -11.460;  594.240
1076.431;   15.601;  -13.770;  649.880
1076.976;   15.512;  -12.680;  639.220
1077.521;   16.220;  -13.170;  583.080
1078.067;   15.065;  -10.860;  579.400
1078.612;   15.838;  -13.920;  661.620
1079.156;   15.296;  -13.880;  601.540
1079.701;   16.186;  -13.120;  693.260
1080.246;   16.317;   -9.940;  696.300
1080.791;   15.575;  -14.740;  625.020
1081.336;   15.055;  -13.750;  659.320
1081.880;   15.487;  -13.400;  649.680
1082.425;   14.663;  -12.220;  573.480
1082.970;   15.904;  -11.610;  717.040
1083.514;   14.335;  -13.580;  597.000
1084.059;   13.720;  -12.810;  586.720
1084.603;   13.730;  -12.320;  565.840
1085.147;   14.912;  -13.190;  645.220
1085.692;   14.769;  -12.480;  716.800
1086.236;   12.988;  -13.020;  503.140
1086.780;   15.020;   -9.190;  751.440
1087.325;   13.427;  -12.480;  654.620
1087.869;   14.084;  -12.450;  610.700
1088.413;   14.677;  -12.240;  705.040
1088.957;   12.664;   -9.020;  543.400
1089.501;   14.229;  -10.320;  766.640
1090.045;   13.224;  -12.720;  726.480
1090.589;   11.886;  -13.690;  569.920
1091.133;   13.136;  -10.020;  673.340
1091.676;   13.511;  -12.330;  591.940
1092.220;   12.321;  -14.970;  600.920
1092.764;   13.629;  -12.430;  706.960
1093.307;   13.475;   -9.800;  673.780
1093.851;   12.140;  -14.970;  556.540
1094.395;   12.106;  -15.310;  683.140
1094.938;   11.775;  -10.370;  632.520
1095.482;   12.174;  -11.050;  559.800
1096.025;   13.003;  -11.840;  710.880
1096.568;   12.596;  -12.840;  779.280
1097.112;   10.645;  -14.700;  508.180
1097.655;   12.631;   -8.720;  603.000
1098.198;    9.952;  -13.610;  600.180
1098.741;   10.472;  -13.350;  612.860
1099.285;   12.328;  -11.230;  657.300
1099.828;   10.530;  -11.840;  439.400
1100.371;   10.565;  -10.840;  608.160
1100.914;   11.263;  -14.190;  682.660
1101.457;   11.203;  -11.240;  679.900
1101.999;   10.455;  -11.270;  584.680
1102.542;   10.686;  -11.480;  641.440
1103.085;   10.049;  -11.750;  658.500
1103.628;   11.193;  -11.400;  762.060
1104.170;   10.479;  -10.490;  588.280
1104.713;   10.707;  -10.600;  646.700
1105.256;    8.918;  -14.360;  557.440
1105.798;    9.685;  -13.210;  499.980
1106.341;   11.235;  -10.270;  728.900
1106.883;    9.350;  -12.200;  521.340
1107.425;    9.914;  -13.110;  668.180
1107.968;    9.803;  -12.840;  612.380
1108.510;   10.423;   -6.480;  684.960
1109.052;    8.211;  -13.940;  612.620
1109.594;    8.940;  -13.690;  554.440
1110.136;    9.550;  -11.880;  643.220
1110.679;    8.891;   -9.500;  633.080
1111.221;    9.417;  -14.160;  604.460
1111.763;    8.358;  -13.980;  559.220
1112.304;    8.205;  -13.880;  547.140
1112.846;    9.449;  -12.210;  666.240
1113.388;   11.835;  -11.390;  942.180
1113.930;    8.700;  -14.540;  694.200
1114.472;    7.713;  -12.640;  606.540
1115.013;    7.060;  -11.620;  551.280
1115.555;    7.048;  -13.640;  587.100
1116.097;    6.709;  -15.380;  579.480
1116.638;    7.968;  -12.640;  684.600
1117.180;    8.383;   -9.850;  667.740
1117.721;    7.834;  -13.690;  568.580
1118.262;    7.744;  -12.680;  677.960
1118.804;    8.430;  -12.530;  637.340
1119.345;    7.413;  -11.690;  578.400
1119.886;    8.298;  -13.380;  704.040
1120.427;    6.389;  -14.070;  589.020
1120.969;    6.831;  -13.500;  597.920
1121.510;    6.477;  -11.480;  563.060
1122.051;    7.171;  -12.830;  723.580
1122.592;    5.968;  -14.290;  655.420
1123.133;    4.947;  -12.400;  547.940
1123.673;    6.852;  -10.130;  706.480
1124.214;    6.072;  -12.930;  612.460
1124.755;    7.354;  -14.380;  639.460
1125.296;    6.321;  -14.000;  627.320
1125.836;    7.345;  -10.070;  691.500
1126.377;    5.954;  -12.640;  599.660
1126.918;    6.397;  -12.960;  614.980
1127.458;    6.066;  -13.350;  622.220
1127.999;    5.914;  -10.750;  656.980
1128.539;    6.016;  -12.350;  694.240
1129.079;    5.523;  -14.860;  632.720
1129.620;    5.123;  -13.840;  558.100
1130.160;    4.936;  -12.330;  539.480
1130.700;    5.669;  -14.530;  640.840
1131.240;    5.169;  -12.530;  643.700
1131.781;    5.096;  -14.450;  619.680
1132.321;    5.285;   -9.790;  599.120
1132.861;    3.934;  -14.860;  564.200
1133.401;    4.075;  -14.290;  593.940
1133.941;    4.646;  -11.750;  626.280
1134.481;    4.073;   -9.920;  597.580
1135.020;    4.432;  -12.290;  609.160
1135.560;    4.095;  -11.650;  674.940
1136.100;    3.368;  -16.270;  501.160
1136.640;    4.191;  -10.890;  510.480
1137.179;    3.855;  -14.180;  537.960
1137.719;    4.099;  -16.250;  605.400
1138.258;    4.164;  -14.230;  587.360
1138.798;    4.888;   -9.090;  663.780
1139.337;    3.203;  -15.130;  482.840
1139.877;    4.046;  -13.680;  642.360
1140.416;    6.101;  -11.320;  878.060
1140.955;    3.013;  -10.860;  535.380
1141.494;    3.767;  -12.920;  669.280
1142.034;    2.966;  -13.930;  583.520
1142.573;    4.144;  -11.440;  646.280
1143.112;    3.066;  -12.000;  553.480
1143.651;    2.860;  -13.670;  536.480
1144.190;    3.970;  -12.730;  691.640
1144.729;    3.837;  -14.560;  607.420
1145.267;    3.501;  -11.830;  584.900
1145.806;    4.171;  -12.230;  637.040
1146.345;    2.477;  -14.130;  635.020
1146.884;    3.269;  -11.590;  622.500
1147.422;    2.319;  -12.550;  533.060
1147.961;    3.569;  -11.180;  708.460
1148.500;    3.071;  -11.510;  669.720
1149.038;    3.632;  -11.640;  632.500
1149.577;    2.765;  -10.130;  698.640
1150.115;    0.601;  -13.970;  452.280
1150.653;    2.001;  -14.520;  607.340
1151.192;    2.288;  -12.810;  552.920
1151.730;    2.362;   -9.100;  652.560
1152.268;    1.733;  -12.220;  589.520
1152.806;    1.116;  -14.140;  571.180
1153.344;    0.827;  -12.350;  577.640
1153.882;    2.521;   -8.980;  600.060
1154.421;    0.729;  -15.190;  470.620
1154.958;    0.911;  -15.210;  595.240
1155.496;    2.494;  -12.850;  645.280
1156.034;    2.152;   -9.940;  721.880
1156.572;    2.553;  -13.570;  667.060
1157.110;    0.115;  -14.590;  473.940
1157.647;    1.931;  -13.030;  676.960
1158.185;    0.318;  -12.140;  564.320
1158.723;   -0.064;  -14.390;  509.200
1159.260;    1.066;  -14.090;  701.700
1159.798;    1.262;  -11.920;  658.160
1160.335;    0.062;  -11.110;  631.820

