
Integration time [ms]:   3.276
Averaging Nr. [scans]: 1000
Smoothing Nr. [pixels]: 0
Data measured with spectrometer [name]: 7414430SP
Wave   ;Sample   ;Dark     ;Reference
[nm]   ;[counts] ;[counts] ;[counts] 

288.544;  160.997;    7.793;  793.890
289.143;  163.856;    7.462;  681.602
289.742;  164.746;    8.602;  828.814
290.341;  150.192;    1.321;  789.841
290.940;  140.725;   -0.709;  730.702
291.538;  143.622;    0.881;  881.108
292.137;  143.437;    0.122;  792.581
292.736;  145.515;   -1.929;  975.101
293.335;  140.899;   -8.229;  735.086
293.934;  142.527;   -5.279;  781.677
294.532;  142.599;   -1.369; 1031.958
295.131;  129.721;   -7.641;  834.394
295.730;  129.856;   -8.420;  809.588
296.328;  126.286;   -5.611;  783.442
296.927;  125.574;   -5.781;  779.652
297.525;  127.461;   -6.361;  781.236
298.124;  118.830;  -11.382;  654.009
298.722;  122.542;   -7.641;  761.933
299.321;  120.278;   -6.811;  708.597
299.919;  116.670;   -6.991;  751.918
300.518;  112.822;  -10.362;  689.338
301.116;  115.324;   -9.581;  691.381
301.715;  116.562;   -4.891;  730.222
302.313;  115.215;   -8.801;  704.943
302.911;  109.789;   -8.522;  733.830
303.509;  114.285;   -6.171;  925.627
304.108;  113.315;   -7.311;  760.383
304.706;  113.425;   -8.321;  801.664
305.304;  106.909;  -10.222;  796.707
305.902;  110.947;   -6.021;  784.484
306.500;  106.357;   -4.971;  728.200
307.098;  106.054;   -7.061;  746.560
307.696;  102.951;   -8.801;  780.432
308.294;  103.685;   -6.411;  731.359
308.892;  106.372;   -2.901;  759.769
309.490;  102.458;   -5.041;  712.161
310.088;  100.547;   -5.002;  788.444
310.686;  103.632;   -2.041;  821.749
311.284;  100.858;   -2.351;  766.040
311.882;   98.505;   -4.422;  731.225
312.480;   94.362;   -4.192;  697.167
313.078;   95.884;   -1.172;  808.331
313.675;   97.300;   -2.601;  691.600
314.273;   92.093;   -1.312;  797.837
314.871;   90.741;   -3.942;  589.829
315.468;   88.530;   -2.802;  652.090
316.066;   92.392;   -0.701;  694.427
316.664;   84.728;   -4.362;  656.351
317.261;   88.574;   -2.872;  910.128
317.859;   83.916;   -2.022;  768.735
318.456;   84.602;   -0.531;  830.096
319.054;   80.058;   -3.912;  787.828
319.651;   79.714;   -4.752;  759.928
320.249;   78.297;   -2.602;  810.188
320.846;   75.867;   -0.821;  714.286
321.443;   73.310;   -4.642;  832.135
322.041;   70.418;   -5.002;  812.315
322.638;   67.817;   -3.982;  701.456
323.235;   69.425;   -3.411;  665.683
323.833;   65.828;   -7.361;  740.354
324.430;   60.994;   -8.611;  615.900
325.027;   61.837;   -4.061;  876.855
325.624;   61.307;   -4.031;  644.532
326.221;   59.031;   -7.481;  689.717
326.818;   57.562;   -5.281;  818.332
327.415;   60.838;   -7.460;  748.828
328.012;   60.985;   -5.510;  690.585
328.609;   58.982;   -7.880;  731.389
329.206;   57.646;   -8.331;  778.621
329.803;   57.718;   -5.121;  737.841
330.400;   59.860;   -4.510;  704.260
330.997;   60.781;   -6.441;  817.147
331.594;   58.436;   -8.831;  788.185
332.191;   63.678;   -7.621;  728.722
332.787;   67.754;   -4.591;  844.463
333.384;   68.707;   -7.412;  763.093
333.981;   64.935;   -8.293;  815.687
334.578;   67.794;   -7.052;  708.378
335.174;   70.982;   -3.102;  731.469
335.771;   71.361;   -5.943;  836.456
336.367;   68.111;   -7.393;  710.631
336.964;   72.468;   -4.063;  793.266
337.561;   70.785;   -3.813;  731.112
338.157;   66.953;   -4.654;  911.916
338.754;   62.995;   -7.934;  796.589
339.350;   64.346;   -4.414;  722.493
339.946;   65.089;   -4.664;  773.135
340.543;   55.705;   -6.375;  846.136
341.139;   50.407;   -9.815;  720.836
341.735;   47.863;   -4.526;  772.593
342.332;   48.324;   -4.895;  691.472
342.928;   46.885;   -4.295;  795.394
343.524;   40.444;   -5.476;  761.684
344.120;   37.680;   -5.856;  738.562
344.716;   40.767;   -2.155;  723.717
345.313;   37.397;   -6.275;  795.342
345.909;   32.393;   -8.815;  627.336
346.505;   33.122;   -5.305;  740.247
347.101;   34.781;   -2.674;  827.864
347.697;   34.503;   -4.344;  785.398
348.293;   29.353;   -9.975;  627.244
348.889;   30.449;   -5.774;  745.914
349.485;   29.612;   -5.004;  688.205
350.081;   29.927;   -4.704;  772.592
350.676;   25.469;   -6.635;  691.606
351.272;   29.287;   -4.504;  809.530
351.868;   28.843;   -3.914;  780.497
352.464;   26.406;   -9.044;  723.932
353.059;   22.363;   -8.314;  646.017
353.655;   25.842;   -7.024;  777.063
354.251;   26.828;   -5.343;  759.845
354.846;   21.095;   -8.604;  740.646
355.442;   18.571;   -6.945;  753.071
356.038;   20.760;   -7.564;  751.708
356.633;   20.800;   -5.814;  728.594
357.229;   19.346;   -7.364;  724.757
357.824;   17.388;   -8.024;  703.600
358.420;   16.259;   -9.384;  679.726
359.015;   16.509;   -5.104;  695.357
359.610;   17.473;   -6.854;  763.920
360.206;   11.707;  -10.185;  603.240
360.801;   14.498;   -7.054;  646.503
361.396;   16.313;   -5.034;  725.975
361.992;   11.634;   -8.284;  668.220
362.587;    9.163;   -8.625;  670.160
363.182;   11.185;   -7.674;  689.631
363.777;   12.295;   -5.164;  738.242
364.372;   11.876;   -8.604;  737.314
364.967;    8.098;   -9.055;  680.744
365.563;   12.602;   -6.114;  815.567
366.158;    9.603;   -5.814;  685.161
366.753;    8.176;   -7.854;  649.263
367.348;    8.099;   -7.804;  746.056
367.942;    7.628;   -7.954;  697.298
368.537;    7.494;   -4.984;  754.245
369.132;    6.919;   -8.564;  703.428
369.727;    2.624;   -8.855;  638.079
370.322;    5.062;   -6.245;  580.186
370.917;    4.985;   -6.425;  710.646
371.511;    6.839;   -6.294;  861.834
372.106;    2.889;   -7.685;  776.964
372.701;    0.394;   -7.335;  585.988
373.296;    5.615;   -4.564;  863.135
373.890;    1.109;  -10.235;  647.840
374.485;   -1.525;   -7.885;  691.199
375.079;    2.359;   -7.324;  738.685
375.674;    4.931;   -3.494;  812.970
376.268;   -0.301;   -8.525;  691.759
376.863;   -6.293;  -10.086;  580.327
377.457;    0.102;   -7.025;  662.490
378.052;   -0.858;   -3.585;  764.884
378.646;   -2.649;   -7.595;  741.167
379.240;   -2.883;   -8.335;  721.176
379.835;   -1.779;   -5.785;  636.978
380.429;   -3.539;   -4.335;  562.557
381.023;   -4.061;   -6.805;  779.205
381.617;   -6.216;   -9.195;  680.106
382.212;   -3.627;   -6.905;  685.303
382.806;   -2.139;   -3.745;  760.690
383.400;   -6.275;   -7.745;  672.281
383.994;   -8.056;   -9.765;  664.870
384.588;   -3.409;   -6.564;  697.701
385.182;   -2.519;   -5.344;  726.624
385.776;   -4.488;   -8.514;  706.875
386.370;   -7.758;   -9.555;  681.968
386.964;   -6.067;   -8.715;  684.155
387.558;   -4.768;   -6.174;  598.360
388.152;   -7.977;   -8.725;  681.959
388.745;   -5.763;   -7.965;  814.707
389.339;   -4.154;   -5.924;  747.642
389.933;   -3.037;   -5.524;  695.370
390.527;   -4.341;   -7.114;  859.029
391.120;  -10.447;  -10.725;  595.318
391.714;   -7.361;   -8.035;  711.633
392.308;   -4.767;   -3.574;  780.253
392.901;   -8.551;   -7.245;  642.460
393.495;  -10.188;   -9.285;  595.414
394.089;   -8.120;   -5.895;  760.452
394.682;   -8.863;   -4.295;  697.188
395.275;   -9.595;   -9.875;  719.927
395.869;  -10.753;   -8.485;  667.314
396.462;   -8.831;   -7.455;  616.609
397.056;   -4.160;   -5.424;  776.621
397.649;   -9.950;   -6.605;  731.575
398.242;   -7.233;   -8.224;  712.645
398.836;   -6.334;   -7.474;  766.408
399.429;   -6.950;   -7.094;  631.041
400.022;  -10.785;   -9.475;  665.902
400.615;   -7.997;   -7.145;  805.609
401.208;   -6.379;   -7.174;  691.451
401.802;   -7.915;   -5.515;  699.329
402.395;   -9.434;   -9.875;  683.502
402.988;  -10.745;   -8.845;  696.627
403.581;   -7.407;   -8.874;  646.878
404.174;   -4.856;   -5.324;  686.568
404.767;   -8.400;   -9.575;  638.583
405.360;  -11.076;  -10.965;  621.445
405.953;   -4.885;   -8.764;  759.034
406.545;   -4.629;   -7.514;  725.342
407.138;   -8.538;  -10.025;  618.350
407.731;   -7.596;  -10.034;  613.303
408.324;   -3.588;   -9.374;  660.554
408.917;   -4.144;   -6.534;  681.864
409.509;   -6.338;   -8.004;  740.396
410.102;   -8.339;   -9.875;  643.948
410.695;   -1.884;   -8.604;  665.758
411.287;   -3.229;   -6.794;  599.821
411.880;   -4.164;   -9.334;  585.421
412.472;   -7.346;  -10.254;  613.092
413.065;   -4.503;   -6.714;  629.408
413.657;   -2.342;   -7.234;  576.678
414.250;   -2.072;  -10.544;  646.681
414.842;   -4.457;   -9.744;  676.353
415.434;   -1.796;   -6.994;  570.463
416.027;    2.683;   -5.893;  652.196
416.619;    0.551;   -7.264;  713.400
417.211;   -0.775;  -10.374;  599.352
417.804;    3.923;   -7.993;  628.499
418.396;   -0.129;   -7.234;  607.643
418.988;    2.126;   -9.443;  659.238
419.580;   -1.449;  -10.724;  568.276
420.172;    0.201;  -10.323;  536.196
420.764;    4.688;   -8.793;  672.482
421.356;    3.176;  -11.143;  636.898
421.948;    2.514;   -8.293;  677.661
422.540;    7.448;   -7.893;  680.027
423.132;    7.605;   -7.082;  600.641
423.724;    3.898;   -8.653;  561.267
424.316;    6.034;  -10.213;  621.345
424.908;    9.516;   -9.762;  591.517
425.500;   10.000;   -5.572;  647.978
426.092;   10.229;   -8.422;  648.268
426.683;    8.889;   -9.283;  684.836
427.275;   11.611;   -7.852;  641.471
427.867;   14.113;   -5.272;  668.948
428.458;   13.920;   -7.682;  732.344
429.050;   12.107;  -10.612;  680.749
429.642;   15.279;   -9.882;  743.124
430.233;   16.376;   -6.962;  569.356
430.825;   17.125;   -6.842;  724.809
431.416;   14.708;   -9.672;  698.241
432.008;   17.140;   -6.552;  651.723
432.599;   18.664;   -6.891;  656.073
433.190;   15.633;  -10.912;  637.670
433.782;   13.947;  -11.172;  590.395
434.373;   22.101;   -6.061;  884.765
434.964;   21.434;   -8.251;  602.920
435.556;   18.652;   -9.722;  634.537
436.147;   21.438;   -9.082;  758.490
436.738;   21.777;   -8.041;  701.099
437.329;   26.469;   -7.341;  721.723
437.920;   20.564;   -8.162;  666.688
438.511;   20.002;  -11.802;  564.526
439.103;   26.469;  -10.191;  623.998
439.694;   28.458;   -7.601;  681.583
440.285;   29.096;   -8.541;  764.432
440.876;   27.699;   -9.751;  845.738
441.466;   26.500;   -9.401;  575.162
442.057;   32.127;   -7.760;  665.814
442.648;   30.710;   -9.971;  746.255
443.239;   28.970;  -11.001;  620.477
443.830;   34.268;   -7.990;  704.958
444.421;   36.243;   -7.910;  655.474
445.011;   33.603;   -8.131;  693.619
445.602;   32.623;   -7.111;  743.126
446.193;   34.519;  -10.920;  488.117
446.783;   39.203;   -6.500;  640.397
447.374;   34.349;   -8.671;  692.759
447.964;   34.955;  -10.781;  713.770
448.555;   42.765;   -9.650;  822.742
449.145;   40.146;   -8.660;  662.853
449.736;   40.565;   -8.990;  803.179
450.326;   40.845;   -9.500;  713.626
450.917;   45.951;   -8.680;  675.324
451.507;   45.032;   -7.520;  600.661
452.097;   45.358;   -8.590;  746.267
452.688;   47.131;  -11.340;  742.160
453.278;   46.739;  -10.100;  566.840
453.868;   51.774;   -6.019;  793.550
454.458;   48.800;   -9.440;  651.141
455.048;   49.035;  -10.560;  711.783
455.639;   50.757;  -11.799;  567.096
456.229;   54.708;   -6.899;  710.694
456.819;   56.625;   -7.389;  751.158
457.409;   56.909;  -11.119;  773.993
457.999;   60.074;   -9.289;  737.505
458.589;   59.748;   -6.139;  686.606
459.179;   59.299;   -8.729;  717.658
459.769;   57.725;   -9.789;  627.099
460.358;   62.379;  -10.259;  797.262
460.948;   62.042;   -7.299;  689.503
461.538;   64.053;  -10.289;  660.677
462.128;   61.791;  -11.269;  664.934
462.717;   69.090;   -9.368;  710.326
463.307;   71.833;   -7.908;  705.846
463.897;   68.098;   -9.599;  656.942
464.486;   68.169;   -9.769;  837.128
465.076;   71.571;   -8.048;  733.776
465.666;   75.125;   -9.358;  652.900
466.255;   73.209;   -7.919;  785.651
466.845;   71.657;  -11.689;  666.749
467.434;   75.854;   -7.818;  725.873
468.023;   76.963;   -7.678;  658.357
468.613;   74.561;  -10.939;  713.946
469.202;   78.250;  -10.118;  646.507
469.791;   81.848;   -9.108;  737.811
470.381;   84.727;   -6.058;  742.813
470.970;   83.292;  -10.428;  711.099
471.559;   84.519;  -10.268;  733.291
472.148;   87.996;   -8.448;  675.737
472.738;   90.155;   -6.917;  765.466
473.327;   89.923;  -11.978;  637.529
473.916;   89.335;  -11.888;  737.446
474.505;   94.521;   -9.437;  751.703
475.094;   97.827;   -6.747;  806.570
475.683;   96.358;   -9.367;  797.699
476.272;   97.428;  -12.637;  730.632
476.861;  100.390;  -10.027;  706.754
477.449;  106.287;   -8.716;  728.487
478.038;  101.817;   -9.577;  692.513
478.627;  102.152;   -9.718;  714.852
479.216;  109.776;   -8.947;  769.441
479.805;  111.882;   -6.256;  783.375
480.393;  112.079;   -7.937; 1008.945
480.982;  111.694;   -7.717;  874.501
481.571;  117.588;   -9.266;  858.333
482.159;  118.854;   -7.636;  705.386
482.748;  118.503;   -9.667;  821.385
483.336;  122.535;  -10.376;  858.209
483.925;  124.393;   -7.147;  774.373
484.513;  131.608;   -7.996;  758.962
485.102;  128.596;  -10.027;  810.965
485.690;  136.456;  -10.446; 1011.050
486.278;  139.662;   -8.446;  979.329
486.867;  139.924;   -6.356;  809.662
487.455;  142.226;   -9.136;  898.229
488.043;  143.598;  -10.646;  748.361
488.631;  152.682;   -7.456; 1005.079
489.220;  157.322;   -6.636;  908.626
489.808;  157.340;  -11.036;  741.415
490.396;  166.526;  -10.246;  914.645
490.984;  172.995;   -8.556;  830.161
491.572;  185.362;   -5.886;  940.315
492.160;  192.407;   -9.486;  919.081
492.748;  204.544;  -10.976;  884.341
493.336;  230.985;   -8.776; 1019.693
493.924;  257.500;   -5.465;  958.077
494.512;  293.016;   -9.986; 1066.638
495.100;  337.864;  -10.636; 1103.280
495.687;  395.989;  -10.885; 1206.373
496.275;  467.393;   -8.126; 1150.796
496.863;  558.199;  -10.586; 1281.171
497.451;  672.098;  -11.926; 1386.805
498.038;  794.780;  -10.885; 1556.729
498.626;  934.773;   -6.315; 1741.407
499.214; 1091.670;   -7.326; 2016.609
499.801; 1287.303;  -11.906; 2220.633
500.389; 1496.905;  -10.466; 2312.494
500.976; 1762.955;   -5.236; 2744.849
501.564; 2189.112;   -8.936; 3148.565
502.151; 2806.072;  -13.176; 3515.999
502.738; 3420.768;  -10.646; 3971.274
503.326; 3935.096;   -9.525; 4403.796
503.913; 4258.411;  -10.856; 5161.749
504.500; 4780.192;  -11.586; 5986.420
505.088; 5468.087;  -10.336; 6381.201
505.675; 5659.627;   -6.355; 6925.547
506.262; 6110.667;   -9.046; 7619.060
506.849; 6635.815;  -10.416; 8733.969
507.436; 6970.500;  -10.305; 9790.121
508.023; 7812.311;   -5.496; 9985.472
508.610; 8566.893;   -7.856;10434.618
509.197;10171.175;  -10.097;11198.435
509.784;11740.749;  -10.886;12391.194
510.371;12735.979;   -9.315;13603.713
510.958;13529.950;   -9.936;14426.586
511.545;13617.708;   -9.326;15243.775
512.132;14292.281;  -10.075;15945.876
512.719;15780.051;   -7.796;16340.369
513.305;18409.469;  -10.606;18011.766
513.892;19424.252;  -11.486;19754.971
514.479;20510.688;   -9.126;20967.805
515.066;21532.197;   -6.026;22299.793
515.652;21419.010;   -8.466;22908.660
516.239;22096.678;  -10.886;23798.875
516.825;23988.316;  -11.496;25567.275
517.412;25633.641;   -5.796;28154.959
517.998;25933.160;  -10.506;28344.111
518.585;25651.646;  -10.076;27134.219
519.171;25856.021;   -8.315;27268.576
519.758;26598.641;   -8.596;28964.129
520.344;27722.332;   -8.466;30664.494
520.930;30286.287;  -11.006;32550.605
521.516;32000.258;  -10.495;35422.895
522.103;32680.357;   -5.526;38280.004
522.689;33937.324;   -8.746;37835.117
523.275;35020.957;  -11.376;37288.613
523.861;36389.625;  -11.156;37281.395
524.447;36980.297;   -8.135;37846.949
525.033;37383.824;   -7.896;38321.949
525.619;40034.340;  -12.476;38579.285
526.205;40934.680;   -9.516;40622.875
526.791;40003.402;   -6.926;42258.836
527.377;41175.445;   -8.346;42966.902
527.963;42911.988;   -8.717;42018.949
528.549;42887.438;  -11.016;42476.828
529.135;42296.113;   -8.536;41854.852
529.721;40889.090;   -9.666;41237.711
530.306;39945.777;  -10.066;41259.445
530.892;38613.988;  -11.356;41506.047
531.478;40076.305;   -6.596;43559.613
532.063;42766.527;   -8.836;47695.563
532.649;44970.746;  -10.047;50808.324
533.235;46106.965;   -9.746;51787.500
533.820;48276.430;   -6.566;52145.035
534.406;50446.953;  -10.817;51133.488
534.991;51983.801;   -9.416;49996.805
535.576;47105.086;   -9.036;48882.852
536.162;45568.230;   -6.156;46942.285
536.747;46390.840;  -11.607;45711.746
537.333;48079.027;  -11.787;48510.180
537.918;48442.926;  -12.437;50439.891
538.503;47525.391;   -7.196;50863.711
539.088;48956.004;  -10.556;50906.922
539.673;50722.887;   -8.767;52621.965
540.259;48682.844;  -10.026;52368.094
540.844;47552.887;   -7.416;50879.109
541.429;48973.926;   -9.467;52077.777
542.014;50845.664;   -9.527;52716.695
542.599;52748.234;   -9.946;52363.281
543.184;51299.023;   -7.927;53187.137
543.769;49323.148;   -9.297;54697.605
544.354;46812.063;  -10.127;53913.914
544.938;45073.559;   -9.267;49680.164
545.523;46413.117;   -6.506;47386.277
546.108;49043.086;   -9.787;49151.949
546.693;50215.781;  -11.587;51384.637
547.278;49425.445;  -10.986;51853.254
547.862;46602.668;   -8.206;51173.750
548.447;46258.266;  -10.067;51691.395
549.031;50096.145;   -9.637;52456.703
549.616;51901.773;   -9.926;52714.516
550.201;50333.258;   -6.347;52414.598
550.785;48470.324;   -7.917;52355.059
551.370;43304.535;  -10.867;54589.453
551.954;45690.918;   -9.047;58267.348
552.538;49151.152;   -7.827;59062.176
553.123;48820.332;  -10.287;58115.285
553.707;47241.352;  -12.178;56556.285
554.291;48511.250;   -8.717;56201.668
554.876;49302.816;   -7.457;55335.762
555.460;49800.570;  -10.387;54155.703
556.044;49149.781;   -9.618;53721.484
556.628;47682.672;  -11.567;53731.016
557.212;49452.828;   -8.097;54312.531
557.796;49027.441;  -11.077;53797.773
558.380;46669.578;  -11.108;56145.984
558.964;43689.742;   -9.057;57277.930
559.548;42253.965;   -6.977;56459.641
560.132;42888.539;  -11.457;54434.543
560.716;43214.586;  -11.378;54800.617
561.300;44490.664;   -9.577;57606.945
561.884;46555.488;   -7.127;58972.445
562.467;48765.465;   -7.118;57327.570
563.051;47436.883;  -13.358;54962.434
563.635;47074.637;  -10.178;52594.473
564.219;47907.102;   -7.837;50610.410
564.802;47043.063;  -11.398;49551.180
565.386;46371.762;  -12.788;48370.953
565.969;44798.648;   -9.077;48178.871
566.553;44949.727;   -6.207;49957.305
567.136;45306.902;   -8.568;50369.594
567.720;45563.559;  -11.868;49492.004
568.303;45682.797;   -8.268;50616.352
568.887;44066.105;   -8.698;50727.148
569.470;43662.297;   -6.808;51698.379
570.053;41396.105;  -13.188;52122.078
570.637;39474.590;  -12.037;52536.438
571.220;39581.250;   -8.577;51186.098
571.803;40637.316;   -8.498;51032.762
572.386;39809.395;  -10.498;49609.887
572.969;39854.344;   -9.388;48285.926
573.552;39155.316;   -8.338;47624.285
574.135;39062.785;   -8.518;45498.641
574.718;39231.578;  -13.628;41970.434
575.301;36676.188;  -10.893;41447.137
575.884;34120.797;   -8.158;40923.836
576.467;37452.930;  -10.328;45267.723
577.050;37863.867;  -13.058;48175.543
577.633;38187.320;   -9.458;47729.328
578.216;37350.992;   -8.928;47579.793
578.799;35944.836;   -9.358;47820.996
579.381;35451.191;  -11.388;48115.551
579.964;34590.637;  -11.718;47333.766
580.547;36027.031;   -8.588;46668.969
581.129;37480.352;   -8.859;44466.141
581.712;35660.281;  -10.729;44164.922
582.294;35692.313;  -11.118;46477.855
582.877;36485.320;   -5.218;48244.254
583.459;36875.309;   -8.679;47437.895
584.042;35965.590;  -10.709;46943.219
584.624;35354.559;  -11.669;46792.227
585.206;38899.809;   -8.218;46557.250
585.789;37718.184;  -10.569;45793.773
586.371;35981.254;  -11.859;43836.391
586.953;33554.438;  -10.719;42972.492
587.536;31846.385;   -7.198;42487.211
588.118;33874.684;   -8.720;42086.414
588.700;35556.910;  -10.439;43389.930
589.282;35192.992;   -9.198;43646.039
589.864;34628.855;   -9.199;43438.109
590.446;33958.273;  -11.319;43151.926
591.028;34663.785;  -11.159;42781.867
591.610;34552.430;  -11.779;42839.098
592.192;31356.727;   -7.668;42820.402
592.774;30502.514;  -11.949;40724.277
593.356;30135.068;  -12.129;39874.789
593.937;30989.695;  -10.669;39980.648
594.519;31313.207;   -6.509;42069.633
595.101;34102.762;  -10.849;42976.031
595.683;36391.547;  -11.679;44084.441
596.264;34581.488;   -9.049;43478.797
596.846;35597.754;   -8.849;43803.672
597.427;37475.113;   -9.570;42986.934
598.009;34873.766;  -12.620;42832.219
598.591;31733.906;  -10.039;42580.086
599.172;31226.527;  -10.369;43061.805
599.753;32659.854;   -9.140;41691.469
600.335;33009.906;  -11.430;40692.520
600.916;31855.736;   -9.939;39982.422
601.498;33441.840;   -8.479;40318.617
602.079;33526.211;  -10.920;40670.609
602.660;33170.703;  -11.480;41450.898
603.241;33348.066;  -11.699;41137.738
603.823;33421.324;   -9.579;38868.797
604.404;32646.311;  -10.620;38182.785
604.985;31590.971;  -10.450;38078.047
605.566;31048.461;   -9.129;38056.633
606.147;32399.156;   -7.510;37020.418
606.728;32568.852;  -10.660;37883.359
607.309;31978.008;  -11.740;38748.273
607.890;30710.412;   -9.759;38850.230
608.471;28793.945;   -8.250;37457.918
609.051;29822.570;   -9.240;36066.457
609.632;30129.227;  -12.120;35991.074
610.213;29077.033;   -9.110;37402.641
610.794;30008.951;   -8.030;38383.363
611.374;31039.699;   -8.110;40562.387
611.955;32072.002;  -13.560;38533.727
612.536;31336.240;  -11.400;36951.789
613.116;31913.760;   -8.070;37197.891
613.697;32132.758;  -10.830;38411.125
614.277;30194.607;  -11.641;38673.938
614.858;28822.277;  -13.310;37075.863
615.438;29153.314;   -7.460;35092.906
616.019;28948.410;   -7.601;33666.301
616.599;29500.533;  -12.020;34189.023
617.179;29695.441;  -11.780;36952.047
617.760;31665.445;   -8.570;39582.574
618.340;33401.020;  -11.471;38943.977
618.920;32063.865;  -11.170;37594.156
619.500;30559.465;  -11.071;37866.938
620.080;31303.857;   -7.750;37869.043
620.660;32128.377;  -12.711;36868.617
621.241;30034.602;  -10.211;36352.309
621.821;28936.732;  -10.961;35459.520
622.401;29917.105;   -7.720;35207.414
622.980;30933.887;   -8.981;35980.422
623.560;32041.098;   -9.331;37351.328
624.140;28878.105;   -9.850;34388.582
624.720;24889.412;   -7.451;32368.764
625.300;23119.574;   -9.070;32638.629
625.880;26140.611;  -12.601;34599.035
626.459;30805.281;  -11.751;36831.738
627.039;32147.320;   -9.281;38299.098
627.619;32453.619;   -8.801;38289.574
628.198;33237.398;  -12.071;37220.695
628.778;34089.535;   -9.461;37632.563
629.357;34564.129;   -8.491;38003.012
629.937;33452.715;   -9.721;38402.039
630.516;33389.109;   -9.951;37868.801
631.096;32276.775;  -11.731;35760.410
631.675;32112.557;   -8.572;35225.219
632.254;33035.719;  -11.282;35130.289
632.834;33226.508;  -13.322;35794.570
633.413;34389.797;  -10.301;35788.922
633.992;34989.242;   -8.582;34532.863
634.571;33044.012;   -8.352;33590.113
635.151;32361.893;  -11.912;34943.863
635.730;31317.135;  -10.511;35352.523
636.309;31581.295;   -7.731;35366.605
636.888;31908.658;   -9.952;36165.637
637.467;31836.756;  -11.672;37515.902
638.046;33247.078;   -8.901;39288.695
638.625;31860.957;   -7.912;38279.699
639.204;32517.836;  -10.022;37741.598
639.782;32355.232;  -12.252;38364.551
640.361;29746.143;  -10.041;36740.621
640.940;28018.508;  -11.161;34950.082
641.519;28590.314;   -9.701;34137.398
642.097;30948.660;  -11.271;35654.258
642.676;30833.674;   -8.651;35637.957
643.255;33264.973;   -8.711;36567.074
643.833;35351.109;   -9.581;37809.434
644.412;33893.836;  -13.711;37337.293
644.990;31187.734;  -11.811;37018.531
645.569;31048.730;   -9.411;36518.469
646.147;31775.869;  -10.291;36186.430
646.726;31218.006;  -12.401;36267.688
647.304;30184.570;  -10.411;36647.625
647.882;31484.066;   -9.651;39286.742
648.461;33657.410;   -9.631;39157.703
649.039;33853.020;  -11.881;35412.883
649.617;33816.355;   -9.661;34744.918
650.195;34093.504;   -9.301;35403.098
650.773;32780.664;  -10.511;35053.797
651.352;32199.537;  -11.521;33756.816
651.930;30199.881;  -12.211;31868.773
652.508;25060.914;   -9.171;33121.551
653.086;24235.732;   -9.371;33564.793
653.663;28993.641;  -13.161;34054.668
654.241;30545.084;  -13.031;35693.309
654.819;32763.020;   -9.371;36422.906
655.397;32535.816;  -10.511;38213.484
655.975;31956.695;  -10.371;39507.625
656.553;32863.082;  -10.051;39498.223
657.130;32150.758;  -10.061;40395.480
657.708;30587.957;   -9.561;39242.020
658.286;30143.715;  -11.511;38920.020
658.863;28707.912;  -10.261;40202.898
659.441;30173.861;   -7.531;39677.938
660.018;31766.684;   -9.501;40413.355
660.596;31549.254;  -13.301;39931.414
661.173;29557.941;  -11.211;39604.531
661.750;29369.607;   -9.951;39700.070
662.328;31397.102;   -9.390;39292.809
662.905;30524.508;  -11.330;38235.648
663.482;26524.861;   -9.050;36212.305
664.060;24097.135;   -8.240;35944.945
664.637;27808.164;  -10.050;35170.785
665.214;30850.873;  -11.760;34197.523
665.791;31923.441;  -10.530;34549.520
666.368;32435.209;   -9.690;35118.578
666.945;32850.016;   -9.320;36019.418
667.522;30850.240;  -11.860;36048.438
668.099;30676.803;  -10.770;36243.914
668.676;33061.758;   -6.260;35958.875
669.253;34355.168;   -7.000;37384.730
669.830;35048.273;  -10.190;36779.629
670.407;34235.574;   -9.550;35231.289
670.984;32766.877;   -9.260;35544.270
671.560;29808.094;   -9.280;35466.867
672.137;26211.287;  -11.810;34280.863
672.714;25243.260;  -11.490;34632.863
673.290;29723.758;   -7.740;35135.422
673.867;33325.422;  -10.660;36114.480
674.443;32498.982;  -12.230;36152.859
675.020;30983.906;  -10.450;35327.238
675.596;29913.332;   -9.260;35795.176
676.173;30709.195;  -10.780;35430.355
676.749;31115.875;  -13.690;33549.516
677.326;29579.797;  -11.980;32210.012
677.902;27961.523;   -8.630;32068.871
678.478;27901.715;  -10.730;32583.891
679.054;29375.088;  -10.520;32088.928
679.631;30821.900;  -11.920;30978.848
680.207;31170.568;   -7.490;33160.887
680.783;31093.357;   -9.860;35570.363
681.359;32877.016;  -13.380;36125.184
681.935;32694.180;  -12.480;35240.922
682.511;29987.787;   -7.900;34429.961
683.087;28902.250;   -7.710;34463.680
683.663;29895.885;  -11.480;34648.898
684.239;30532.047;  -14.090;34546.457
684.815;30010.297;   -7.560;35586.375
685.390;28359.303;   -9.910;35821.895
685.966;28443.574;  -11.159;35085.871
686.542;27571.486;  -11.169;34198.230
687.118;28129.578;   -5.959;32847.707
687.693;31451.932;  -10.329;32794.027
688.269;31917.371;  -12.059;33072.367
688.844;32106.338;  -10.909;33141.664
689.420;34201.430;   -8.019;33965.742
689.995;32336.742;   -8.399;34655.523
690.571;30366.914;  -10.949;33576.742
691.146;29767.768;   -9.619;32657.219
691.722;30630.566;   -8.999;32526.979
692.297;30354.658;  -11.589;33014.617
692.872;29008.025;  -11.739;34012.254
693.448;29408.547;  -11.059;34237.434
694.023;29304.127;  -10.139;34142.672
694.598;26730.225;   -9.029;34132.031
695.173;26852.551;  -13.319;34205.250
695.748;29234.988;  -10.169;32882.488
696.323;28400.520;   -8.339;32864.906
696.898;26990.590;   -8.169;33170.004
697.473;27529.719;  -12.309;32432.984
698.048;27826.961;  -10.989;31649.303
698.623;27420.287;   -9.329;30778.141
699.198;27680.561;   -9.849;31140.119
699.773;28455.477;  -12.329;31764.299
700.348;31009.617;  -10.389;31780.816
700.922;30684.639;   -9.269;32046.375
701.497;28319.111;   -9.329;32603.574
702.072;29260.178;  -10.789;34799.871
702.646;28695.859;  -10.839;35793.172
703.221;29818.330;   -9.099;35201.590
703.795;30978.443;  -10.939;34764.527
704.370;30884.309;  -12.859;34307.367
704.944;30670.141;  -11.559;33509.887
705.519;29898.885;   -7.939;31388.584
706.093;31552.412;  -10.499;31340.104
706.668;31155.850;  -11.289;32630.281
707.242;30638.746;  -11.509;32728.779
707.816;29100.447;   -9.639;32947.238
708.390;27404.771;  -11.429;33277.855
708.965;27246.385;  -11.869;33834.336
709.539;28248.277;  -11.689;33709.273
710.113;28229.443;  -10.478;33044.313
710.687;28216.658;  -10.228;31953.992
711.261;28160.297;  -13.698;30505.949
711.835;28157.396;  -13.378;30262.369
712.409;28457.871;   -9.698;31254.447
712.983;27422.680;  -11.898;32754.986
713.557;27192.941;  -15.138;34018.824
714.131;25675.904;  -14.098;34579.625
714.704;24559.168;   -9.958;33890.262
715.278;25035.289;  -10.028;33531.102
715.852;25000.350;  -11.148;33601.660
716.425;25668.061;   -9.068;33515.117
716.999;24983.021;  -10.038;33185.555
717.573;24236.576;   -9.798;33905.996
718.146;24996.025;  -12.378;35199.293
718.720;26029.529;  -11.918;35060.551
719.293;27547.719;   -8.088;34973.230
719.867;28730.654;  -10.888;36394.449
720.440;28742.842;  -11.938;36663.008
721.013;29414.477;  -12.818;35102.426
721.587;28307.779;  -10.298;33985.266
722.160;27031.658;  -10.048;33524.965
722.733;26350.818;  -12.108;32987.043
723.306;26156.074;  -10.818;33066.301
723.880;27185.773;   -8.908;33399.500
724.453;26542.256;   -9.878;33468.297
725.026;25471.273;  -11.188;33816.637
725.599;26531.150;  -11.678;32797.996
726.172;28287.119;   -9.618;33187.434
726.745;27419.553;   -8.258;35136.613
727.318;26628.639;  -12.978;35751.730
727.891;25415.922;  -12.148;35890.430
728.463;24701.818;   -8.968;34822.090
729.036;24760.266;  -10.188;32895.086
729.609;26197.418;  -11.788;31823.225
730.182;26372.557;  -11.788;31445.283
730.754;24477.219;  -10.268;32373.223
731.327;22773.395;   -9.998;33676.820
731.900;22368.188;  -12.228;33417.000
732.472;23512.650;  -13.848;31978.498
733.045;24944.756;   -8.698;30368.777
733.617;23982.824;  -10.607;30574.215
734.190;25013.203;  -11.507;31280.975
734.762;26692.377;  -13.647;31674.412
735.334;24576.650;   -9.767;31247.291
735.907;23553.529;   -9.897;29876.211
736.479;24278.469;  -11.637;29808.488
737.051;25623.328;   -9.567;30233.547
737.623;25830.982;   -8.187;31469.086
738.195;25584.355;  -11.187;31784.225
738.768;25883.219;  -12.337;32120.523
739.340;24514.473;  -12.227;32094.342
739.912;23149.787;  -11.057;31312.680
740.484;22471.670;  -10.207;31946.238
741.056;20657.248;  -10.047;32984.059
741.628;20072.359;  -13.627;33897.715
742.199;21072.299;   -7.177;33213.016
742.771;23818.953;  -10.797;31369.113
743.343;26169.428;  -11.997;31865.473
743.915;26439.406;  -12.867;32388.631
744.487;24735.545;   -7.617;31079.568
745.058;23247.508;   -9.557;30570.107
745.630;23340.928;   -9.877;29970.127
746.201;23018.172;  -14.177;29186.766
746.773;21785.617;   -9.237;28805.723
747.344;21982.424;   -9.847;29591.223
747.916;22333.002;  -11.657;31412.201
748.487;21877.180;  -10.587;32194.898
749.059;21877.416;   -8.707;32533.719
749.630;21970.469;  -10.537;32158.518
750.201;22811.256;  -11.687;30855.395
750.773;22957.158;  -11.647;28622.555
751.344;22210.768;   -7.147;28405.732
751.915;21313.641;   -9.757;28461.551
752.486;21251.109;  -12.427;27842.850
753.057;20863.494;  -12.227;27845.008
753.628;20163.045;  -10.417;27728.107
754.199;19089.402;  -11.767;27381.086
754.770;18914.584;  -11.187;25882.203
755.341;19821.699;  -10.507;25886.184
755.912;19703.428;   -9.387;26050.861
756.483;18112.656;  -10.647;26798.779
757.054;17813.676;  -11.837;27048.238
757.625;18525.730;  -12.716;26294.838
758.195;19258.088;   -9.666;26142.076
758.766;20702.900;   -8.656;26392.234
759.337;20650.885;  -12.856;26334.594
759.907;20225.977;  -13.366;27579.652
760.478;20755.518;   -8.576;28352.770
761.048;20478.332;  -10.526;27325.088
761.619;20519.180;  -11.116;26460.428
762.189;20366.867;  -12.136;26029.826
762.760;19375.389;   -9.456;26430.145
763.330;18666.771;   -7.136;26670.902
763.900;19319.213;  -11.786;26603.021
764.471;18851.775;  -11.546;25542.740
765.041;17163.350;   -8.096;24358.459
765.611;16113.981;   -8.876;23991.297
766.181;15631.751;  -12.196;24470.236
766.751;15898.874;  -11.636;24845.975
767.321;16846.713;  -10.156;24533.633
767.891;17448.404;  -11.766;24916.492
768.461;17117.541;  -14.936;24776.771
769.031;16996.703;  -12.356;24757.988
769.601;17093.443;   -7.526;24181.088
770.171;17446.018;  -10.766;23670.387
770.741;16880.064;  -13.176;22960.045
771.311;16101.023;  -10.616;22917.523
771.880;15854.566;   -9.576;23562.941
772.450;15418.092;  -10.336;24216.500
773.020;15897.051;  -13.516;24140.398
773.589;16333.101;  -13.466;24414.857
774.159;16039.934;   -8.686;23858.717
774.729;16137.560;   -9.476;22942.135
775.298;15733.124;  -13.666;22324.033
775.867;14719.573;  -11.716;21140.313
776.437;13953.198;   -9.906;20838.092
777.006;14114.638;  -12.166;20599.510
777.576;13417.023;  -12.356;20508.809
778.145;13255.607;  -11.646;20732.947
778.714;13219.109;   -8.226;21062.465
779.283;13268.692;   -9.556;20949.664
779.853;13715.293;  -14.116;20508.623
780.422;13507.440;  -11.506;20649.082
780.991;13398.328;   -9.556;21527.520
781.560;13133.461;   -9.095;22632.658
782.129;11894.562;  -12.135;23048.277
782.698;11368.865;  -10.865;23438.555
783.267;11442.165;   -9.335;23267.734
783.836;11954.156;  -11.045;22415.133
784.404;12839.042;  -13.865;20443.152
784.973;12704.672;  -13.095;19699.150
785.542;12102.881;  -11.575;19763.828
786.111;11860.466;   -9.705;20341.408
786.679;11740.578;  -12.105;20207.967
787.248;11596.891;  -12.455;19516.465
787.817;10908.063;  -11.535;18900.363
788.385;11199.434;   -9.765;17879.121
788.954;12132.299;  -14.005;17658.301
789.522;12440.121;  -11.955;17788.879
790.090;12053.944;  -10.135;18118.277
790.659;12171.317;  -10.975;18338.736
791.227;12364.173;  -13.375;18508.615
791.795;12150.240;  -12.375;17898.254
792.364;11967.354;  -10.725;17295.133
792.932;12001.065;   -9.715;16822.051
793.500;12009.280;  -12.675;17040.148
794.068;11841.076;  -13.495;17179.787
794.636;10500.198;  -10.885;16664.246
795.204; 9536.017;  -11.045;16524.545
795.772; 9337.241;  -13.175;17274.564
796.340;10301.843;  -12.445;17891.002
796.908;10540.333;   -9.735;17648.561
797.476;10537.953;   -9.815;17064.080
798.044;10647.272;  -13.985;16672.777
798.612;10467.460;  -13.115;17023.996
799.180; 9948.947;  -10.185;16561.615
799.747; 9128.854;   -9.055;15962.773
800.315; 8115.843;  -12.385;15296.992
800.883; 7852.373;  -15.035;14801.771
801.450; 8410.859;  -10.365;14534.430
802.018; 9260.185;   -9.855;14173.248
802.585;10031.136;  -11.905;14029.547
803.153; 9885.712;  -11.585;13836.846
803.720; 9097.106;   -9.095;13567.324
804.287; 8641.786;   -9.135;13360.622
804.855; 8945.021;  -11.604;13681.981
805.422; 9379.976;  -11.794;13536.560
805.989; 8692.613;  -10.734;13355.958
806.556; 8478.772;  -10.444;13747.896
807.124; 8546.209;  -12.764;13987.376
807.691; 8638.938;  -12.964;14038.674
808.258; 8938.337;  -11.134;14120.152
808.825; 9046.828;   -9.854;13860.111
809.392; 8464.851;  -10.504;13268.790
809.959; 7992.191;  -13.054;12680.389
810.526; 7807.499;   -8.294;12427.308
811.093; 7917.428;   -8.394;12030.105
811.659; 7662.740;  -12.304;11653.664
812.226; 7034.968;  -13.944;11637.183
812.793; 6927.097;  -10.484;11611.521
813.360; 7133.271;  -10.144;11885.181
813.926; 7041.781;  -11.684;12770.539
814.493; 6766.250;  -13.644;12677.638
815.060; 6435.976;   -9.724;11974.336
815.626; 6134.529;   -9.854;11594.715
816.193; 6214.600;  -13.254;11579.474
816.759; 6228.047;  -13.204;11666.972
817.325; 6495.161;   -9.434;11325.530
817.892; 6512.183;  -10.134;11105.369
818.458; 6206.845;  -13.474;10843.928
819.024; 5882.419;  -11.854;10714.406
819.591; 5665.633;  -10.244;10469.165
820.157; 5487.249;  -10.704;10235.523
820.723; 5621.982;  -12.324;10847.563
821.289; 6072.057;   -9.444;11040.980
821.855; 6385.484;   -8.374;10357.100
822.421; 6351.022;  -10.234; 9978.918
822.987; 6294.154;  -13.294; 9754.177
823.553; 6478.935;  -10.884;10065.755
824.119; 6443.040;   -8.884;10036.294
824.685; 6202.047;   -6.784;10029.192
825.251; 5791.604;  -12.004;10199.230
825.816; 5781.507;  -11.474; 9820.189
826.382; 5933.127;   -9.174; 9297.248
826.948; 5875.748;   -9.214; 9381.347
827.513; 5578.995;  -10.774; 9450.726
828.079; 5288.857;  -11.924; 9472.444
828.645; 5143.830;  -10.543; 9292.643
829.210; 5119.122;  -10.533; 9065.341
829.776; 4997.992;  -10.753; 9132.620
830.341; 4903.581;  -10.173; 9092.878
830.906; 4813.069;  -10.743; 9078.557
831.472; 4891.688;  -11.113; 8534.535
832.037; 4921.470;  -10.603; 8677.874
832.602; 4946.225;  -13.323; 8628.692
833.167; 5037.752;  -10.823; 8879.031
833.733; 4753.259;  -10.113; 9189.790
834.298; 4596.272;  -13.583; 9052.608
834.863; 4739.022;  -12.703; 8895.087
835.428; 4774.961;  -10.523; 8824.266
835.993; 4633.270;   -6.963; 8845.385
836.558; 4395.254;  -10.763; 8888.563
837.123; 4339.812;   -9.903; 8966.582
837.688; 4281.387;   -9.913; 8617.860
838.253; 4323.056;  -10.283; 8590.699
838.817; 4573.992;  -12.963; 8443.797
839.382; 4638.725;  -14.243; 8799.356
839.947; 4541.278;  -10.733; 8810.595
840.511; 4312.591;   -9.383; 8796.394
841.076; 4288.577;  -12.563; 8347.231
841.641; 4321.080;  -12.953; 8224.330
842.205; 3935.386;   -7.043; 8223.349
842.770; 3738.140;   -8.163; 8622.107
843.334; 3861.567;  -12.503; 8410.386
843.898; 4089.648;  -11.693; 8337.465
844.463; 4101.923;  -10.203; 8506.283
845.027; 3963.423;   -9.533; 8280.962
845.591; 3871.316;  -13.443; 8231.141
846.156; 3849.705;  -13.143; 7969.179
846.720; 3734.038;   -9.433; 7768.278
847.284; 3300.671;  -11.033; 7630.957
847.848; 2956.269;  -10.403; 7472.395
848.412; 3061.855;  -11.553; 7437.394
848.976; 3437.828;   -8.393; 7674.592
849.540; 3694.241;   -8.713; 7836.011
850.104; 3677.184;  -12.463; 7913.669
850.668; 3608.684;  -12.973; 7694.508
851.232; 3415.205;  -10.793; 7756.887
851.796; 3282.807;  -10.662; 7926.545
852.359; 3405.287;  -13.082; 7827.844
852.923; 3390.797;  -12.192; 7641.163
853.487; 3320.118;  -11.912; 7342.501
854.050; 3423.342;  -10.892; 7042.820
854.614; 3423.298;  -13.992; 7151.338
855.177; 3255.692;  -11.732; 7105.077
855.741; 3104.768;   -8.962; 6989.675
856.304; 3074.717;   -9.442; 6596.634
856.868; 3053.717;  -14.192; 6356.272
857.431; 3046.124;  -12.702; 6468.571
857.995; 3287.167;   -9.942; 6373.210
858.558; 3411.895;   -9.112; 6324.448
859.121; 3019.252;  -12.932; 6408.327
859.684; 2660.187;  -13.442; 6347.886
860.247; 2578.678;  -10.632; 6321.264
860.810; 2733.905;  -11.272; 6301.903
861.374; 2901.704;   -9.832; 6607.881
861.937; 2926.807;  -11.762; 6408.200
862.500; 2950.666;   -9.722; 6572.639
863.062; 2887.283;  -10.512; 6387.297
863.625; 2744.560;  -11.232; 6190.836
864.188; 2581.939;  -14.112; 5807.254
864.751; 2382.055;  -11.302; 5682.413
865.314; 2293.259;  -10.112; 5547.492
865.876; 2423.322;  -12.182; 5500.150
866.439; 2636.342;  -10.722; 5415.909
867.002; 2692.211;   -9.252; 5501.567
867.564; 2567.948;   -9.572; 5413.946
868.127; 2354.834;  -13.142; 5160.325
868.689; 2214.193;  -12.902; 5133.183
869.252; 2096.688;   -9.732; 5252.382
869.814; 2012.323;   -9.432; 5297.141
870.377; 2090.403;  -11.552; 5390.919
870.939; 2167.384;   -9.052; 5599.898
871.501; 2113.775;  -10.982; 5248.336
872.063; 2123.685;  -12.292; 4854.235
872.626; 2104.518;  -14.912; 4817.074
873.188; 2060.554;  -13.112; 4987.732
873.750; 2019.615;  -13.442; 4868.651
874.312; 1942.889;   -9.402; 4779.330
874.874; 1865.303;  -11.062; 4866.348
875.436; 1872.096;  -13.931; 4718.887
875.998; 1830.990;   -9.561; 4660.005
876.560; 1705.088;  -11.321; 4462.964
877.122; 1610.250;  -12.221; 4145.042
877.683; 1562.791;  -12.191; 4056.481
878.245; 1594.735;  -12.101; 3950.740
878.807; 1682.247;   -8.971; 4058.958
879.369; 1712.835;  -12.071; 3954.677
879.930; 1624.941;  -14.621; 3941.495
880.492; 1570.469;  -10.311; 4067.014
881.053; 1514.778;  -10.901; 3859.633
881.615; 1466.496;  -14.411; 3776.071
882.176; 1435.116;  -13.761; 3734.750
882.738; 1442.563;   -9.181; 3678.489
883.299; 1408.129;  -11.791; 3405.407
883.860; 1330.532;  -13.121; 3351.106
884.422; 1235.302;  -11.211; 3394.044
884.983; 1163.406;  -10.091; 3166.443
885.544; 1136.646;   -8.461; 3189.802
886.105; 1099.885;  -12.361; 3160.360
886.666; 1043.864;  -14.141; 3093.059
887.227; 1015.973;  -11.361; 2941.957
887.788; 1003.231;  -11.401; 2974.836
888.349;  941.763;  -13.791; 2721.214
888.910;  872.549;  -13.191; 2696.493
889.471;  816.101;   -9.881; 2560.172
890.032;  758.332;   -9.881; 2558.190
890.593;  717.098;  -10.371; 2567.669
891.153;  698.629;  -13.301; 2460.307
891.714;  676.636;  -11.431; 2372.046
892.275;  633.453;  -11.291; 2309.505
892.835;  626.437;  -11.471; 2382.543
893.396;  623.542;  -11.541; 2295.502
893.956;  593.402;  -11.181; 2162.420
894.517;  535.605;  -11.741; 2125.439
895.077;  471.521;  -11.671; 2086.978
895.638;  430.641;  -11.311; 2126.316
896.198;  417.539;   -9.831; 1838.275
896.758;  417.304;   -8.421; 1892.813
897.319;  399.116;  -12.351; 1792.232
897.879;  368.900;  -13.511; 1762.751
898.439;  349.019;  -12.001; 1661.149
898.999;  339.930;  -10.180; 1781.468
899.559;  329.504;  -12.030; 1703.347
900.119;  321.171;  -15.710; 1537.525
900.679;  317.050;   -8.900; 1638.384
901.239;  299.958;   -8.340; 1527.902
901.799;  275.968;  -13.910; 1456.441
902.359;  259.461;  -13.460; 1357.140
902.919;  253.020;  -11.490; 1331.118
903.479;  248.527;  -12.110; 1317.257
904.038;  241.871;  -11.720; 1262.595
904.598;  230.669;  -13.610; 1152.034
905.158;  220.446;  -11.040; 1240.893
905.717;  211.544;  -10.900; 1233.691
906.277;  205.684;  -15.080; 1217.330
906.836;  201.809;  -13.380; 1222.408
907.396;  198.946;  -10.780; 1193.047
907.955;  194.605;   -8.500; 1182.526
908.515;  188.686;  -12.760; 1099.364
909.074;  183.047;  -11.900; 1092.863
909.633;  179.205;   -8.950; 1069.121
910.192;  177.402;   -8.770; 1196.460
910.752;  172.486;  -12.390; 1029.960
911.311;  168.529;  -13.680; 1009.780
911.870;  166.440;  -12.370;  971.460
912.429;  165.236;  -10.900; 1094.080
912.988;  161.152;  -11.690; 1081.060
913.547;  155.786;  -13.240;  940.380
914.106;  156.059;  -11.990;  999.420
914.665;  154.233;   -9.990;  984.020
915.224;  151.649;  -12.880; 1035.760
915.782;  150.104;  -12.350;  922.560
916.341;  150.745;   -9.110; 1049.840
916.900;  149.283;   -9.270;  925.260
917.458;  145.891;  -13.240;  884.220
918.017;  143.667;  -13.550;  942.600
918.576;  143.189;  -12.320;  904.440
919.134;  142.305;  -11.490;  837.980
919.693;  142.490;  -13.670;  893.060
920.251;  141.528;  -15.470;  876.500
920.809;  140.384;  -11.290;  839.580
921.368;  141.128;  -10.210;  885.360
921.926;  138.406;  -12.140;  842.940
922.484;  136.436;  -13.080;  903.360
923.042;  136.265;  -11.720;  880.340
923.601;  136.920;   -7.480;  998.680
924.159;  134.814;  -11.570;  935.560
924.717;  133.524;  -13.840;  841.080
925.275;  135.621;  -10.640;  903.240
925.833;  136.648;  -11.540;  779.320
926.391;  136.775;  -12.960;  938.380
926.949;  136.259;  -14.130;  857.680
927.506;  136.383;  -11.750;  903.500
928.064;  137.089;  -10.250;  877.580
928.622;  135.400;  -13.030;  880.100
929.180;  135.810;  -13.400;  814.180
929.737;  137.013;  -10.700;  808.540
930.295;  137.290;  -10.070;  928.480
930.853;  136.892;  -11.960;  849.100
931.410;  138.720;  -13.120;  821.120
931.968;  140.593;  -10.770;  940.660
932.525;  140.887;  -10.680;  909.380
933.082;  142.041;  -13.130;  811.440
933.640;  147.296;  -13.210;  925.900
934.197;  152.380;  -11.060;  886.360
934.754;  154.800;   -9.580;  897.780
935.312;  153.691;  -14.000;  863.340
935.869;  152.646;  -10.710; 1012.980
936.426;  150.464;   -9.860;  872.800
936.983;  151.961;   -9.710;  889.020
937.540;  152.235;  -13.990;  838.280
938.097;  152.734;  -14.040;  940.120
938.654;  154.595;  -10.310;  898.860
939.211;  154.016;  -10.560;  952.480
939.768;  151.307;  -13.900;  915.420
940.324;  151.370;  -14.760;  904.200
940.881;  155.947;  -10.370;  878.500
941.438;  160.323;   -8.260; 1021.200
941.995;  159.434;  -12.540;  992.560
942.551;  158.700;  -14.670;  875.620
943.108;  158.134;  -10.450;  937.920
943.664;  158.775;  -10.750;  869.340
944.221;  162.043;  -11.550; 1088.140
944.777;  163.873;  -14.770;  869.680
945.334;  168.305;  -12.820;  884.840
945.890;  171.755;  -10.130;  946.480
946.446;  171.259;  -13.470;  947.020
947.003;  171.713;  -12.120;  964.940
947.559;  174.383;   -9.980; 1063.040
948.115;  175.164;   -9.080; 1026.540
948.671;  177.902;  -10.830;  967.300
949.227;  176.124;  -12.440;  859.560
949.783;  167.433;  -12.910;  858.900
950.339;  164.132;  -10.270;  991.000
950.895;  161.654;  -13.630; 1023.840
951.451;  159.895;  -15.100;  925.280
952.007;  161.021;  -11.330;  998.540
952.563;  161.987;  -10.580;  937.780
953.118;  160.719;  -13.440;  904.940
953.674;  157.678;  -12.710;  935.780
954.230;  157.216;  -10.350;  949.640
954.785;  158.497;   -9.190;  936.640
955.341;  157.489;  -11.200;  998.160
955.897;  151.441;  -16.560;  834.660
956.452;  146.853;  -12.570;  953.840
957.008;  143.813;   -7.970; 1083.640
957.563;  141.340;  -11.940; 1009.540
958.118;  141.212;  -13.450;  877.700
958.674;  144.014;  -12.030;  946.780
959.229;  144.018;   -9.410; 1013.980
959.784;  143.290;  -12.000;  832.400
960.339;  141.465;  -14.780; 1001.280
960.894;  133.801;   -9.860;  963.760
961.449;  128.239;   -9.970;  859.960
962.004;  127.973;  -10.900; 1212.840
962.559;  123.454;  -13.150;  860.140
963.114;  121.720;  -13.740;  742.480
963.669;  123.194;   -9.820;  915.500
964.224;  125.873;  -13.890;  874.340
964.779;  126.549;  -12.600;  828.420
965.334;  127.044;  -10.950; 1017.860
965.888;  119.731;  -11.170;  875.360
966.443;  115.633;  -12.540;  972.380
966.998;  114.902;  -15.780;  819.460
967.552;  117.241;   -9.760;  908.380
968.107;  113.711;   -9.060;  868.300
968.661;  112.958;  -11.950;  922.440
969.216;  110.100;  -12.800;  856.280
969.770;  110.655;  -11.210;  917.200
970.324;  107.945;  -11.610;  923.140
970.879;  106.327;  -11.370;  947.180
971.433;  105.598;  -12.540;  952.720
971.987;  104.808;  -11.320;  895.340
972.541;  103.989;  -10.720;  917.100
973.095;  105.421;   -9.680; 1009.460
973.649;  105.427;  -11.440;  809.480
974.203;  104.754;  -11.210;  829.040
974.757;  104.699;  -10.240;  855.220
975.311;  102.589;  -13.720;  872.600
975.865;  102.953;  -13.770;  881.820
976.419;  104.181;  -11.690;  857.400
976.973;  104.899;   -9.510;  849.620
977.526;  103.202;  -12.620;  949.920
978.080;   97.524;  -12.010;  796.780
978.634;   97.624;  -10.170;  921.320
979.187;   94.190;   -9.020;  905.400
979.741;   93.350;   -9.820; 1018.380
980.294;   91.832;  -14.870;  789.160
980.848;   89.750;  -12.380;  717.220
981.401;   90.499;  -10.350;  816.540
981.955;   90.568;  -13.720;  844.300
982.508;   87.981;  -11.490;  746.340
983.061;   88.955;  -10.000;  915.260
983.615;   86.617;  -11.480;  798.800
984.168;   84.487;  -13.220;  770.080
984.721;   82.998;  -13.960;  880.760
985.274;   80.651;  -10.870;  867.500
985.827;   79.139;   -9.790;  834.220
986.380;   76.921;  -13.120;  721.340
986.933;   76.410;  -12.450;  864.800
987.486;   75.318;  -10.210;  861.920
988.039;   76.027;   -8.430;  863.100
988.591;   74.412;  -10.520;  893.260
989.144;   71.328;  -14.860;  737.260
989.697;   71.419;  -13.080;  758.740
990.250;   71.767;  -10.150;  858.100
990.802;   69.053;  -13.430;  755.860
991.355;   68.270;  -12.750;  974.880
991.907;   66.093;  -12.040;  864.320
992.460;   63.916;  -11.330;  753.760
993.012;   61.224;  -13.610;  749.540
993.565;   59.015;  -13.460;  711.360
994.117;   60.564;   -9.360;  950.780
994.669;   57.817;  -11.300;  701.320
995.221;   57.946;  -13.540;  791.920
995.774;   57.033;  -13.430;  787.580
996.326;   56.244;  -12.520;  740.220
996.878;   57.421;  -10.950;  838.420
997.430;   55.314;  -14.300;  699.860
997.982;   53.460;  -13.760;  750.140
998.534;   53.219;  -11.530;  739.060
999.086;   52.417;  -10.310;  738.220
999.638;   50.791;  -12.530;  661.380
1000.190;   50.018;  -11.840;  699.320
1000.741;   49.266;  -10.260;  742.700
1001.293;   49.816;   -8.860;  686.020
1001.845;   47.852;  -13.700;  676.640
1002.396;   48.083;  -12.100;  743.400
1002.948;   48.067;  -12.760;  737.400
1003.500;   47.463;  -10.380;  723.780
1004.051;   47.273;  -11.900;  907.580
1004.603;   46.207;  -12.250;  791.820
1005.154;   42.288;  -13.210;  608.980
1005.705;   42.049;  -10.950;  723.960
1006.257;   41.640;  -13.880;  707.220
1006.808;   40.203;  -12.840;  685.460
1007.359;   40.295;  -10.570;  763.240
1007.910;   38.749;   -9.620;  646.640
1008.461;   39.277;  -13.630;  732.940
1009.013;   37.061;  -17.200;  588.340
1009.564;   39.621;  -10.200;  793.520
1010.115;   36.990;  -12.570;  597.040
1010.665;   36.928;  -15.150;  602.160
1011.216;   36.597;  -14.480;  667.920
1011.767;   36.801;  -11.340;  697.920
1012.318;   36.839;   -9.780;  736.980
1012.869;   35.097;  -12.380;  679.000
1013.419;   34.201;  -15.560;  603.120
1013.970;   35.234;  -11.010;  666.640
1014.521;   34.777;  -11.610;  620.620
1015.071;   34.965;  -13.450;  670.380
1015.622;   34.293;  -13.870;  635.460
1016.172;   34.194;  -11.610;  596.820
1016.723;   33.868;  -12.120;  614.380
1017.273;   33.419;  -13.620;  604.160
1017.823;   33.488;  -14.140;  650.340
1018.374;   33.365;  -12.800;  611.760
1018.924;   32.287;  -12.340;  716.880
1019.474;   32.660;  -11.410;  718.880
1020.024;   31.275;  -14.770;  657.580
1020.574;   32.380;   -9.780;  726.160
1021.124;   32.060;   -8.560;  673.580
1021.674;   30.962;  -15.190;  559.120
1022.224;   32.199;  -13.530;  708.940
1022.774;   32.065;  -13.280;  668.820
1023.324;   32.352;  -10.690;  753.520
1023.874;   33.069;  -10.240;  875.760
1024.423;   29.369;  -12.540;  613.700
1024.973;   30.090;  -10.010;  610.760
1025.523;   29.648;  -10.550;  620.960
1026.072;   28.849;  -13.560;  606.420
1026.622;   28.618;  -15.120;  675.740
1027.172;   30.116;  -11.260;  715.660
1027.721;   28.915;  -11.410;  601.220
1028.270;   29.445;  -13.530;  663.400
1028.820;   28.105;  -13.680;  638.080
1029.369;   29.018;  -13.520;  612.700
1029.918;   29.168;  -10.980;  649.840
1030.468;   28.231;  -13.530;  564.780
1031.017;   28.418;  -13.170;  634.800
1031.566;   27.152;  -12.200;  608.900
1032.115;   27.838;   -9.960;  694.500
1032.664;   26.679;  -13.210;  596.480
1033.213;   26.854;  -12.500;  735.420
1033.762;   26.659;  -11.910;  635.620
1034.311;   27.167;   -9.640;  677.220
1034.860;   27.357;  -13.310;  691.000
1035.408;   26.858;  -11.830;  722.720
1035.957;   27.294;  -12.000;  719.540
1036.506;   25.160;  -11.690;  530.800
1037.055;   27.544;  -10.990;  844.320
1037.603;   25.859;  -15.120;  664.000
1038.152;   24.152;  -12.450;  534.760
1038.700;   25.390;  -10.560;  585.740
1039.249;   25.382;  -11.080;  681.220
1039.797;   25.028;  -12.540;  633.360
1040.345;   25.239;  -11.920;  705.420
1040.894;   24.981;  -11.410;  625.300
1041.442;   24.395;  -14.320;  632.200
1041.990;   23.487;  -16.240;  559.160
1042.538;   23.192;  -11.680;  536.180
1043.087;   23.790;  -10.760;  570.860
1043.635;   24.356;  -11.850;  670.500
1044.183;   22.639;  -15.480;  586.400
1044.731;   23.183;  -11.770;  576.000
1045.279;   23.502;  -13.090;  674.920
1045.827;   24.533;  -12.440;  892.400
1046.374;   21.552;  -13.840;  515.420
1046.922;   22.001;  -13.220;  590.580
1047.470;   23.893;  -10.230;  691.300
1048.018;   22.863;  -14.590;  647.960
1048.565;   23.567;  -12.050;  708.600
1049.113;   21.430;  -11.650;  557.000
1049.660;   22.009;  -10.510;  629.660
1050.208;   21.972;  -13.310;  675.640
1050.755;   20.878;  -15.900;  606.580
1051.303;   22.565;  -11.430;  686.820
1051.850;   21.214;   -8.480;  635.120
1052.397;   19.919;  -15.010;  473.960
1052.945;   20.185;  -13.960;  617.760
1053.492;   22.261;  -13.150;  741.840
1054.039;   22.082;   -9.630;  720.180
1054.586;   20.285;  -13.680;  557.240
1055.133;   20.937;  -14.570;  693.140
1055.680;   21.613;  -13.820;  646.620
1056.227;   19.845;  -11.730;  542.780
1056.774;   22.197;  -12.480;  794.980
1057.321;   19.492;  -13.930;  523.260
1057.868;   20.026;  -11.690;  651.320
1058.415;   19.757;   -9.520;  651.980
1058.961;   20.163;  -13.160;  678.940
1059.508;   19.626;  -12.920;  643.820
1060.055;   19.121;  -11.920;  581.780
1060.601;   20.410;  -11.500;  624.300
1061.148;   18.951;  -14.330;  616.820
1061.694;   18.504;  -16.870;  592.580
1062.241;   18.783;  -10.330;  596.320
1062.787;   19.188;  -10.620;  663.140
1063.334;   20.308;  -10.110;  808.560
1063.880;   18.680;  -13.400;  668.360
1064.426;   18.757;  -10.680;  706.820
1064.972;   18.070;   -9.920;  601.340
1065.518;   17.053;  -10.980;  566.640
1066.065;   18.403;  -14.890;  624.460
1066.611;   17.132;  -12.870;  598.800
1067.157;   18.260;  -12.950;  641.860
1067.703;   17.635;  -13.540;  668.480
1068.249;   17.450;  -13.540;  605.220
1068.794;   17.754;  -12.600;  626.880
1069.340;   16.967;  -10.620;  578.960
1069.886;   16.983;  -12.830;  590.700
1070.432;   15.132;  -14.870;  541.720
1070.977;   16.241;  -11.980;  601.080
1071.523;   16.168;   -8.200;  573.060
1072.068;   16.082;  -12.330;  582.000
1072.614;   15.703;  -16.370;  527.760
1073.160;   17.299;  -11.100;  687.040
1073.705;   15.591;  -10.480;  572.520
1074.250;   15.167;  -14.520;  559.900
1074.796;   16.691;  -11.460;  655.160
1075.341;   16.498;  -11.950;  664.100
1075.886;   16.017;  -11.460;  594.240
1076.431;   15.205;  -13.770;  649.880
1076.976;   14.820;  -12.680;  639.220
1077.521;   14.499;  -13.170;  583.080
1078.067;   15.002;  -10.860;  579.400
1078.612;   15.126;  -13.920;  661.620
1079.156;   14.597;  -13.880;  601.540
1079.701;   15.458;  -13.120;  693.260
1080.246;   15.798;   -9.940;  696.300
1080.791;   14.980;  -14.740;  625.020
1081.336;   14.962;  -13.750;  659.320
1081.880;   15.085;  -13.400;  649.680
1082.425;   13.458;  -12.220;  573.480
1082.970;   15.824;  -11.610;  717.040
1083.514;   13.601;  -13.580;  597.000
1084.059;   13.368;  -12.810;  586.720
1084.603;   13.108;  -12.320;  565.840
1085.147;   13.669;  -13.190;  645.220
1085.692;   14.793;  -12.480;  716.800
1086.236;   13.210;  -13.020;  503.140
1086.780;   15.422;   -9.190;  751.440
1087.325;   14.091;  -12.480;  654.620
1087.869;   13.020;  -12.450;  610.700
1088.413;   13.410;  -12.240;  705.040
1088.957;   11.938;   -9.020;  543.400
1089.501;   13.326;  -10.320;  766.640
1090.045;   12.925;  -12.720;  726.480
1090.589;   11.316;  -13.690;  569.920
1091.133;   12.960;  -10.020;  673.340
1091.676;   12.262;  -12.330;  591.940
1092.220;   11.598;  -14.970;  600.920
1092.764;   13.515;  -12.430;  706.960
1093.307;   12.556;   -9.800;  673.780
1093.851;   11.247;  -14.970;  556.540
1094.395;   11.954;  -15.310;  683.140
1094.938;   11.436;  -10.370;  632.520
1095.482;   11.732;  -11.050;  559.800
1096.025;   12.332;  -11.840;  710.880
1096.568;   12.400;  -12.840;  779.280
1097.112;    9.588;  -14.700;  508.180
1097.655;   11.793;   -8.720;  603.000
1098.198;   10.184;  -13.610;  600.180
1098.741;   10.345;  -13.350;  612.860
1099.285;   11.542;  -11.230;  657.300
1099.828;    9.450;  -11.840;  439.400
1100.371;   10.576;  -10.840;  608.160
1100.914;   10.427;  -14.190;  682.660
1101.457;   10.314;  -11.240;  679.900
1101.999;   10.071;  -11.270;  584.680
1102.542;   10.428;  -11.480;  641.440
1103.085;    9.686;  -11.750;  658.500
1103.628;   11.207;  -11.400;  762.060
1104.170;    9.736;  -10.490;  588.280
1104.713;    9.957;  -10.600;  646.700
1105.256;    8.770;  -14.360;  557.440
1105.798;    8.593;  -13.210;  499.980
1106.341;   10.689;  -10.270;  728.900
1106.883;    8.724;  -12.200;  521.340
1107.425;    8.997;  -13.110;  668.180
1107.968;    8.680;  -12.840;  612.380
1108.510;    9.462;   -6.480;  684.960
1109.052;    8.000;  -13.940;  612.620
1109.594;    7.515;  -13.690;  554.440
1110.136;    8.692;  -11.880;  643.220
1110.679;    8.499;   -9.500;  633.080
1111.221;    8.641;  -14.160;  604.460
1111.763;    7.728;  -13.980;  559.220
1112.304;    7.773;  -13.880;  547.140
1112.846;    9.157;  -12.210;  666.240
1113.388;   11.454;  -11.390;  942.180
1113.930;    7.811;  -14.540;  694.200
1114.472;    7.941;  -12.640;  606.540
1115.013;    6.668;  -11.620;  551.280
1115.555;    6.658;  -13.640;  587.100
1116.097;    5.996;  -15.380;  579.480
1116.638;    7.921;  -12.640;  684.600
1117.180;    7.273;   -9.850;  667.740
1117.721;    6.837;  -13.690;  568.580
1118.262;    7.902;  -12.680;  677.960
1118.804;    7.738;  -12.530;  637.340
1119.345;    5.982;  -11.690;  578.400
1119.886;    6.859;  -13.380;  704.040
1120.427;    5.824;  -14.070;  589.020
1120.969;    5.643;  -13.500;  597.920
1121.510;    5.557;  -11.480;  563.060
1122.051;    6.088;  -12.830;  723.580
1122.592;    5.233;  -14.290;  655.420
1123.133;    4.452;  -12.400;  547.940
1123.673;    6.956;  -10.130;  706.480
1124.214;    6.054;  -12.930;  612.460
1124.755;    7.080;  -14.380;  639.460
1125.296;    6.098;  -14.000;  627.320
1125.836;    7.100;  -10.070;  691.500
1126.377;    5.134;  -12.640;  599.660
1126.918;    5.578;  -12.960;  614.980
1127.458;    5.223;  -13.350;  622.220
1127.999;    5.835;  -10.750;  656.980
1128.539;    5.685;  -12.350;  694.240
1129.079;    4.847;  -14.860;  632.720
1129.620;    4.673;  -13.840;  558.100
1130.160;    3.533;  -12.330;  539.480
1130.700;    6.241;  -14.530;  640.840
1131.240;    5.479;  -12.530;  643.700
1131.781;    4.453;  -14.450;  619.680
1132.321;    4.726;   -9.790;  599.120
1132.861;    3.855;  -14.860;  564.200
1133.401;    3.354;  -14.290;  593.940
1133.941;    4.040;  -11.750;  626.280
1134.481;    3.466;   -9.920;  597.580
1135.020;    3.445;  -12.290;  609.160
1135.560;    3.824;  -11.650;  674.940
1136.100;    2.959;  -16.270;  501.160
1136.640;    3.146;  -10.890;  510.480
1137.179;    3.638;  -14.180;  537.960
1137.719;    3.278;  -16.250;  605.400
1138.258;    4.014;  -14.230;  587.360
1138.798;    4.530;   -9.090;  663.780
1139.337;    1.953;  -15.130;  482.840
1139.877;    3.047;  -13.680;  642.360
1140.416;    5.695;  -11.320;  878.060
1140.955;    3.246;  -10.860;  535.380
1141.494;    3.530;  -12.920;  669.280
1142.034;    2.172;  -13.930;  583.520
1142.573;    3.596;  -11.440;  646.280
1143.112;    2.300;  -12.000;  553.480
1143.651;    2.666;  -13.670;  536.480
1144.190;    3.493;  -12.730;  691.640
1144.729;    2.410;  -14.560;  607.420
1145.267;    3.019;  -11.830;  584.900
1145.806;    3.596;  -12.230;  637.040
1146.345;    2.251;  -14.130;  635.020
1146.884;    1.803;  -11.590;  622.500
1147.422;    1.696;  -12.550;  533.060
1147.961;    2.967;  -11.180;  708.460
1148.500;    2.651;  -11.510;  669.720
1149.038;    2.962;  -11.640;  632.500
1149.577;    3.123;  -10.130;  698.640
1150.115;    0.722;  -13.970;  452.280
1150.653;    1.206;  -14.520;  607.340
1151.192;    1.947;  -12.810;  552.920
1151.730;    2.527;   -9.100;  652.560
1152.268;    1.681;  -12.220;  589.520
1152.806;    0.997;  -14.140;  571.180
1153.344;    0.343;  -12.350;  577.640
1153.882;    1.759;   -8.980;  600.060
1154.421;   -0.276;  -15.190;  470.620
1154.958;    0.326;  -15.210;  595.240
1155.496;    2.470;  -12.850;  645.280
1156.034;    1.583;   -9.940;  721.880
1156.572;    3.034;  -13.570;  667.060
1157.110;    0.045;  -14.590;  473.940
1157.647;    1.383;  -13.030;  676.960
1158.185;    0.295;  -12.140;  564.320
1158.723;   -0.760;  -14.390;  509.200
1159.260;    0.462;  -14.090;  701.700
1159.798;    1.442;  -11.920;  658.160
1160.335;    0.590;  -11.110;  631.820

