
Integration time [ms]:   3.276
Averaging Nr. [scans]: 1000
Smoothing Nr. [pixels]: 0
Data measured with spectrometer [name]: 7414430SP
Wave   ;Sample   ;Dark     ;Reference
[nm]   ;[counts] ;[counts] ;[counts] 

288.544;  153.519;    7.793;  793.890
289.143;  156.776;    7.462;  681.602
289.742;  157.952;    8.602;  828.814
290.341;  144.769;    1.321;  789.841
290.940;  135.506;   -0.709;  730.702
291.538;  136.923;    0.881;  881.108
292.137;  135.322;    0.122;  792.581
292.736;  139.036;   -1.929;  975.101
293.335;  135.333;   -8.229;  735.086
293.934;  134.644;   -5.279;  781.677
294.532;  135.286;   -1.369; 1031.958
295.131;  122.548;   -7.641;  834.394
295.730;  121.548;   -8.420;  809.588
296.328;  121.147;   -5.611;  783.442
296.927;  120.018;   -5.781;  779.652
297.525;  119.960;   -6.361;  781.236
298.124;  110.670;  -11.382;  654.009
298.722;  115.636;   -7.641;  761.933
299.321;  113.799;   -6.811;  708.597
299.919;  111.500;   -6.991;  751.918
300.518;  107.536;  -10.362;  689.338
301.116;  108.257;   -9.581;  691.381
301.715;  109.197;   -4.891;  730.222
302.313;  109.098;   -8.801;  704.943
302.911;  103.813;   -8.522;  733.830
303.509;  107.954;   -6.171;  925.627
304.108;  105.611;   -7.311;  760.383
304.706;  105.799;   -8.321;  801.664
305.304;  100.229;  -10.222;  796.707
305.902;  104.244;   -6.021;  784.484
306.500;  100.728;   -4.971;  728.200
307.098;   99.582;   -7.061;  746.560
307.696;   97.646;   -8.801;  780.432
308.294;   98.501;   -6.411;  731.359
308.892;   99.848;   -2.901;  759.769
309.490;   95.716;   -5.041;  712.161
310.088;   93.074;   -5.002;  788.444
310.686;   97.943;   -2.041;  821.749
311.284;   93.725;   -2.351;  766.040
311.882;   91.696;   -4.422;  731.225
312.480;   89.084;   -4.192;  697.167
313.078;   89.298;   -1.172;  808.331
313.675;   90.898;   -2.601;  691.600
314.273;   85.895;   -1.312;  797.837
314.871;   84.818;   -3.942;  589.829
315.468;   82.757;   -2.802;  652.090
316.066;   86.408;   -0.701;  694.427
316.664;   79.302;   -4.362;  656.351
317.261;   82.375;   -2.872;  910.128
317.859;   77.745;   -2.022;  768.735
318.456;   78.522;   -0.531;  830.096
319.054;   75.071;   -3.912;  787.828
319.651;   73.849;   -4.752;  759.928
320.249;   72.995;   -2.602;  810.188
320.846;   69.962;   -0.821;  714.286
321.443;   67.911;   -4.642;  832.135
322.041;   64.479;   -5.002;  812.315
322.638;   62.457;   -3.982;  701.456
323.235;   63.047;   -3.411;  665.683
323.833;   60.499;   -7.361;  740.354
324.430;   55.326;   -8.611;  615.900
325.027;   55.716;   -4.061;  876.855
325.624;   56.518;   -4.031;  644.532
326.221;   53.987;   -7.481;  689.717
326.818;   53.315;   -5.281;  818.332
327.415;   55.500;   -7.460;  748.828
328.012;   54.894;   -5.510;  690.585
328.609;   54.082;   -7.880;  731.389
329.206;   50.980;   -8.331;  778.621
329.803;   52.011;   -5.121;  737.841
330.400;   55.202;   -4.510;  704.260
330.997;   56.882;   -6.441;  817.147
331.594;   54.744;   -8.831;  788.185
332.191;   59.225;   -7.621;  728.722
332.787;   63.084;   -4.591;  844.463
333.384;   61.528;   -7.412;  763.093
333.981;   59.434;   -8.293;  815.687
334.578;   63.215;   -7.052;  708.378
335.174;   65.337;   -3.102;  731.469
335.771;   65.449;   -5.943;  836.456
336.367;   62.850;   -7.393;  710.631
336.964;   66.230;   -4.063;  793.266
337.561;   64.160;   -3.813;  731.112
338.157;   60.352;   -4.654;  911.916
338.754;   59.108;   -7.934;  796.589
339.350;   57.044;   -4.414;  722.493
339.946;   59.045;   -4.664;  773.135
340.543;   52.021;   -6.375;  846.136
341.139;   46.321;   -9.815;  720.836
341.735;   42.532;   -4.526;  772.593
342.332;   42.255;   -4.895;  691.472
342.928;   43.442;   -4.295;  795.394
343.524;   36.178;   -5.476;  761.684
344.120;   31.302;   -5.856;  738.562
344.716;   35.360;   -2.155;  723.717
345.313;   33.485;   -6.275;  795.342
345.909;   27.059;   -8.815;  627.336
346.505;   28.948;   -5.305;  740.247
347.101;   29.672;   -2.674;  827.864
347.697;   30.774;   -4.344;  785.398
348.293;   24.387;   -9.975;  627.244
348.889;   25.653;   -5.774;  745.914
349.485;   24.633;   -5.004;  688.205
350.081;   25.552;   -4.704;  772.592
350.676;   20.227;   -6.635;  691.606
351.272;   24.666;   -4.504;  809.530
351.868;   23.827;   -3.914;  780.497
352.464;   21.603;   -9.044;  723.932
353.059;   17.805;   -8.314;  646.017
353.655;   20.554;   -7.024;  777.063
354.251;   22.178;   -5.343;  759.845
354.846;   16.539;   -8.604;  740.646
355.442;   14.572;   -6.945;  753.071
356.038;   16.930;   -7.564;  751.708
356.633;   15.855;   -5.814;  728.594
357.229;   15.204;   -7.364;  724.757
357.824;   12.745;   -8.024;  703.600
358.420;   12.156;   -9.384;  679.726
359.015;   12.670;   -5.104;  695.357
359.610;   14.165;   -6.854;  763.920
360.206;    7.573;  -10.185;  603.240
360.801;    9.827;   -7.054;  646.503
361.396;   12.432;   -5.034;  725.975
361.992;    7.893;   -8.284;  668.220
362.587;    4.938;   -8.625;  670.160
363.182;    7.232;   -7.674;  689.631
363.777;    8.248;   -5.164;  738.242
364.372;    7.771;   -8.604;  737.314
364.967;    3.211;   -9.055;  680.744
365.563;    7.695;   -6.114;  815.567
366.158;    4.918;   -5.814;  685.161
366.753;    5.727;   -7.854;  649.263
367.348;    3.990;   -7.804;  746.056
367.942;    3.267;   -7.954;  697.298
368.537;    2.773;   -4.984;  754.245
369.132;    3.224;   -8.564;  703.428
369.727;   -1.317;   -8.855;  638.079
370.322;   -0.258;   -6.245;  580.186
370.917;    0.137;   -6.425;  710.646
371.511;    2.515;   -6.294;  861.834
372.106;   -0.754;   -7.685;  776.964
372.701;   -4.654;   -7.335;  585.988
373.296;    1.990;   -4.564;  863.135
373.890;   -3.151;  -10.235;  647.840
374.485;   -5.676;   -7.885;  691.199
375.079;   -1.609;   -7.324;  738.685
375.674;   -0.684;   -3.494;  812.970
376.268;   -4.398;   -8.525;  691.759
376.863;   -9.616;  -10.086;  580.327
377.457;   -4.335;   -7.025;  662.490
378.052;   -5.538;   -3.585;  764.884
378.646;   -6.449;   -7.595;  741.167
379.240;   -6.510;   -8.335;  721.176
379.835;   -6.533;   -5.785;  636.978
380.429;   -8.233;   -4.335;  562.557
381.023;   -8.493;   -6.805;  779.205
381.617;   -9.901;   -9.195;  680.106
382.212;   -7.569;   -6.905;  685.303
382.806;   -6.919;   -3.745;  760.690
383.400;  -10.718;   -7.745;  672.281
383.994;  -11.718;   -9.765;  664.870
384.588;   -8.183;   -6.564;  697.701
385.182;   -6.796;   -5.344;  726.624
385.776;   -7.905;   -8.514;  706.875
386.370;  -11.549;   -9.555;  681.968
386.964;  -10.810;   -8.715;  684.155
387.558;   -8.530;   -6.174;  598.360
388.152;  -11.647;   -8.725;  681.959
388.745;   -9.715;   -7.965;  814.707
389.339;   -9.010;   -5.924;  747.642
389.933;   -7.944;   -5.524;  695.370
390.527;   -8.913;   -7.114;  859.029
391.120;  -14.630;  -10.725;  595.318
391.714;  -12.204;   -8.035;  711.633
392.308;   -9.399;   -3.574;  780.253
392.901;  -12.232;   -7.245;  642.460
393.495;  -14.174;   -9.285;  595.414
394.089;  -13.121;   -5.895;  760.452
394.682;  -13.142;   -4.295;  697.188
395.275;  -13.047;   -9.875;  719.927
395.869;  -14.522;   -8.485;  667.314
396.462;  -12.882;   -7.455;  616.609
397.056;   -8.726;   -5.424;  776.621
397.649;  -14.207;   -6.605;  731.575
398.242;  -11.023;   -8.224;  712.645
398.836;  -10.971;   -7.474;  766.408
399.429;  -12.015;   -7.094;  631.041
400.022;  -14.930;   -9.475;  665.902
400.615;  -13.197;   -7.145;  805.609
401.208;  -10.765;   -7.174;  691.451
401.802;  -13.068;   -5.515;  699.329
402.395;  -13.584;   -9.875;  683.502
402.988;  -14.986;   -8.845;  696.627
403.581;  -12.303;   -8.874;  646.878
404.174;   -9.689;   -5.324;  686.568
404.767;  -12.435;   -9.575;  638.583
405.360;  -15.822;  -10.965;  621.445
405.953;   -9.802;   -8.764;  759.034
406.545;   -9.170;   -7.514;  725.342
407.138;  -13.130;  -10.025;  618.350
407.731;  -11.977;  -10.034;  613.303
408.324;   -8.853;   -9.374;  660.554
408.917;  -10.115;   -6.534;  681.864
409.509;  -10.844;   -8.004;  740.396
410.102;  -12.751;   -9.875;  643.948
410.695;   -6.975;   -8.604;  665.758
411.287;   -7.887;   -6.794;  599.821
411.880;   -9.714;   -9.334;  585.421
412.472;  -11.848;  -10.254;  613.092
413.065;   -9.876;   -6.714;  629.408
413.657;   -7.682;   -7.234;  576.678
414.250;   -7.421;  -10.544;  646.681
414.842;   -8.962;   -9.744;  676.353
415.434;   -6.586;   -6.994;  570.463
416.027;   -2.983;   -5.893;  652.196
416.619;   -5.445;   -7.264;  713.400
417.211;   -5.391;  -10.374;  599.352
417.804;   -1.825;   -7.993;  628.499
418.396;   -6.387;   -7.234;  607.643
418.988;   -3.688;   -9.443;  659.238
419.580;   -7.300;  -10.724;  568.276
420.172;   -5.189;  -10.323;  536.196
420.764;   -0.703;   -8.793;  672.482
421.356;   -1.834;  -11.143;  636.898
421.948;   -3.032;   -8.293;  677.661
422.540;    2.106;   -7.893;  680.027
423.132;    1.615;   -7.082;  600.641
423.724;   -2.644;   -8.653;  561.267
424.316;    0.369;  -10.213;  621.345
424.908;    3.555;   -9.762;  591.517
425.500;    4.538;   -5.572;  647.978
426.092;    4.442;   -8.422;  648.268
426.683;    4.056;   -9.283;  684.836
427.275;    6.154;   -7.852;  641.471
427.867;    8.249;   -5.272;  668.948
428.458;    8.948;   -7.682;  732.344
429.050;    6.767;  -10.612;  680.749
429.642;    8.812;   -9.882;  743.124
430.233;    9.644;   -6.962;  569.356
430.825;   10.168;   -6.842;  724.809
431.416;    7.652;   -9.672;  698.241
432.008;   11.125;   -6.552;  651.723
432.599;   12.520;   -6.891;  656.073
433.190;    8.722;  -10.912;  637.670
433.782;    8.357;  -11.172;  590.395
434.373;   15.100;   -6.061;  884.765
434.964;   14.759;   -8.251;  602.920
435.556;   12.916;   -9.722;  634.537
436.147;   15.054;   -9.082;  758.490
436.738;   14.722;   -8.041;  701.099
437.329;   20.190;   -7.341;  721.723
437.920;   13.898;   -8.162;  666.688
438.511;   13.248;  -11.802;  564.526
439.103;   19.313;  -10.191;  623.998
439.694;   21.281;   -7.601;  681.583
440.285;   22.123;   -8.541;  764.432
440.876;   19.936;   -9.751;  845.738
441.466;   19.761;   -9.401;  575.162
442.057;   24.143;   -7.760;  665.814
442.648;   24.020;   -9.971;  746.255
443.239;   21.830;  -11.001;  620.477
443.830;   26.318;   -7.990;  704.958
444.421;   29.183;   -7.910;  655.474
445.011;   25.326;   -8.131;  693.619
445.602;   25.275;   -7.111;  743.126
446.193;   26.734;  -10.920;  488.117
446.783;   31.581;   -6.500;  640.397
447.374;   27.144;   -8.671;  692.759
447.964;   26.929;  -10.781;  713.770
448.555;   35.129;   -9.650;  822.742
449.145;   31.183;   -8.660;  662.853
449.736;   32.529;   -8.990;  803.179
450.326;   32.130;   -9.500;  713.626
450.917;   37.054;   -8.680;  675.324
451.507;   36.790;   -7.520;  600.661
452.097;   37.283;   -8.590;  746.267
452.688;   38.256;  -11.340;  742.160
453.278;   37.433;  -10.100;  566.840
453.868;   42.048;   -6.019;  793.550
454.458;   40.585;   -9.440;  651.141
455.048;   40.734;  -10.560;  711.783
455.639;   42.617;  -11.799;  567.096
456.229;   46.245;   -6.899;  710.694
456.819;   47.335;   -7.389;  751.158
457.409;   47.815;  -11.119;  773.993
457.999;   50.341;   -9.289;  737.505
458.589;   50.293;   -6.139;  686.606
459.179;   50.075;   -8.729;  717.658
459.769;   47.830;   -9.789;  627.099
460.358;   53.079;  -10.259;  797.262
460.948;   52.448;   -7.299;  689.503
461.538;   54.818;  -10.289;  660.677
462.128;   52.332;  -11.269;  664.934
462.717;   59.271;   -9.368;  710.326
463.307;   62.757;   -7.908;  705.846
463.897;   58.454;   -9.599;  656.942
464.486;   57.212;   -9.769;  837.128
465.076;   61.335;   -8.048;  733.776
465.666;   64.980;   -9.358;  652.900
466.255;   63.505;   -7.919;  785.651
466.845;   62.221;  -11.689;  666.749
467.434;   64.925;   -7.818;  725.873
468.023;   66.587;   -7.678;  658.357
468.613;   63.751;  -10.939;  713.946
469.202;   68.353;  -10.118;  646.507
469.791;   72.188;   -9.108;  737.811
470.381;   73.902;   -6.058;  742.813
470.970;   74.001;  -10.428;  711.099
471.559;   74.179;  -10.268;  733.291
472.148;   76.533;   -8.448;  675.737
472.738;   79.471;   -6.917;  765.466
473.327;   79.743;  -11.978;  637.529
473.916;   78.594;  -11.888;  737.446
474.505;   82.243;   -9.437;  751.703
475.094;   86.619;   -6.747;  806.570
475.683;   85.363;   -9.367;  797.699
476.272;   86.855;  -12.637;  730.632
476.861;   89.174;  -10.027;  706.754
477.449;   95.505;   -8.716;  728.487
478.038;   90.034;   -9.577;  692.513
478.627;   91.606;   -9.718;  714.852
479.216;   97.581;   -8.947;  769.441
479.805;  101.843;   -6.256;  783.375
480.393;  101.955;   -7.937; 1008.945
480.982;  100.486;   -7.717;  874.501
481.571;  106.742;   -9.266;  858.333
482.159;  107.613;   -7.636;  705.386
482.748;  108.437;   -9.667;  821.385
483.336;  112.351;  -10.376;  858.209
483.925;  113.015;   -7.147;  774.373
484.513;  120.241;   -7.996;  758.962
485.102;  117.447;  -10.027;  810.965
485.690;  125.756;  -10.446; 1011.050
486.278;  127.478;   -8.446;  979.329
486.867;  129.818;   -6.356;  809.662
487.455;  131.497;   -9.136;  898.229
488.043;  135.102;  -10.646;  748.361
488.631;  143.454;   -7.456; 1005.079
489.220;  149.400;   -6.636;  908.626
489.808;  151.806;  -11.036;  741.415
490.396;  161.739;  -10.246;  914.645
490.984;  172.640;   -8.556;  830.161
491.572;  188.815;   -5.886;  940.315
492.160;  200.761;   -9.486;  919.081
492.748;  219.589;  -10.976;  884.341
493.336;  255.144;   -8.776; 1019.693
493.924;  307.289;   -5.465;  958.077
494.512;  370.509;   -9.986; 1066.638
495.100;  438.005;  -10.636; 1103.280
495.687;  543.776;  -10.885; 1206.373
496.275;  657.542;   -8.126; 1150.796
496.863;  770.664;  -10.586; 1281.171
497.451;  935.124;  -11.926; 1386.805
498.038; 1075.223;  -10.885; 1556.729
498.626; 1266.171;   -6.315; 1741.407
499.214; 1574.508;   -7.326; 2016.609
499.801; 1927.778;  -11.906; 2220.633
500.389; 2350.319;  -10.466; 2312.494
500.976; 2686.978;   -5.236; 2744.849
501.564; 3307.003;   -8.936; 3148.565
502.151; 4145.215;  -13.176; 3515.999
502.738; 4765.066;  -10.646; 3971.274
503.326; 5235.709;   -9.525; 4403.796
503.913; 5629.737;  -10.856; 5161.749
504.500; 6241.201;  -11.586; 5986.420
505.088; 6949.979;  -10.336; 6381.201
505.675; 7955.166;   -6.355; 6925.547
506.262; 8593.907;   -9.046; 7619.060
506.849; 8965.792;  -10.416; 8733.969
507.436; 9731.900;  -10.305; 9790.121
508.023;10251.144;   -5.496; 9985.472
508.610;10160.310;   -7.856;10434.618
509.197;10977.345;  -10.097;11198.435
509.784;12502.771;  -10.886;12391.194
510.371;14066.623;   -9.315;13603.713
510.958;15436.078;   -9.936;14426.586
511.545;16102.538;   -9.326;15243.775
512.132;16059.976;  -10.075;15945.876
512.719;16522.004;   -7.796;16340.369
513.305;17682.084;  -10.606;18011.766
513.892;19508.166;  -11.486;19754.971
514.479;21055.691;   -9.126;20967.805
515.066;21794.180;   -6.026;22299.793
515.652;21293.658;   -8.466;22908.660
516.239;21702.439;  -10.886;23798.875
516.825;22849.355;  -11.496;25567.275
517.412;24364.920;   -5.796;28154.959
517.998;25528.412;  -10.506;28344.111
518.585;26315.080;  -10.076;27134.219
519.171;25565.658;   -8.315;27268.576
519.758;26708.684;   -8.596;28964.129
520.344;28884.582;   -8.466;30664.494
520.930;27958.137;  -11.006;32550.605
521.516;26708.875;  -10.495;35422.895
522.103;28363.883;   -5.526;38280.004
522.689;29792.760;   -8.746;37835.117
523.275;30277.400;  -11.376;37288.613
523.861;31471.656;  -11.156;37281.395
524.447;29789.371;   -8.135;37846.949
525.033;27349.686;   -7.896;38321.949
525.619;27248.154;  -12.476;38579.285
526.205;30403.068;   -9.516;40622.875
526.791;32975.234;   -6.926;42258.836
527.377;33619.859;   -8.346;42966.902
527.963;35899.914;   -8.717;42018.949
528.549;37245.879;  -11.016;42476.828
529.135;35478.539;   -8.536;41854.852
529.721;35826.531;   -9.666;41237.711
530.306;34667.031;  -10.066;41259.445
530.892;34280.320;  -11.356;41506.047
531.478;36218.316;   -6.596;43559.613
532.063;38438.781;   -8.836;47695.563
532.649;37201.914;  -10.047;50808.324
533.235;37831.777;   -9.746;51787.500
533.820;39306.723;   -6.566;52145.035
534.406;40484.586;  -10.817;51133.488
534.991;42074.703;   -9.416;49996.805
535.576;39873.953;   -9.036;48882.852
536.162;37010.375;   -6.156;46942.285
536.747;37783.270;  -11.607;45711.746
537.333;39650.988;  -11.787;48510.180
537.918;40385.016;  -12.437;50439.891
538.503;40207.777;   -7.196;50863.711
539.088;40737.984;  -10.556;50906.922
539.673;40503.602;   -8.767;52621.965
540.259;36557.906;  -10.026;52368.094
540.844;34445.402;   -7.416;50879.109
541.429;31700.998;   -9.467;52077.777
542.014;29930.582;   -9.527;52716.695
542.599;34938.934;   -9.946;52363.281
543.184;40576.230;   -7.927;53187.137
543.769;44371.020;   -9.297;54697.605
544.354;45534.672;  -10.127;53913.914
544.938;43082.148;   -9.267;49680.164
545.523;41324.535;   -6.506;47386.277
546.108;44011.387;   -9.787;49151.949
546.693;44023.070;  -11.587;51384.637
547.278;43189.785;  -10.986;51853.254
547.862;44110.238;   -8.206;51173.750
548.447;42418.129;  -10.067;51691.395
549.031;41915.969;   -9.637;52456.703
549.616;42114.355;   -9.926;52714.516
550.201;41682.418;   -6.347;52414.598
550.785;42368.301;   -7.917;52355.059
551.370;43254.484;  -10.867;54589.453
551.954;45007.109;   -9.047;58267.348
552.538;43881.398;   -7.827;59062.176
553.123;42017.133;  -10.287;58115.285
553.707;40577.016;  -12.178;56556.285
554.291;39026.598;   -8.717;56201.668
554.876;41224.531;   -7.457;55335.762
555.460;43565.270;  -10.387;54155.703
556.044;44941.484;   -9.618;53721.484
556.628;44938.855;  -11.567;53731.016
557.212;45342.621;   -8.097;54312.531
557.796;47188.125;  -11.077;53797.773
558.380;46032.648;  -11.108;56145.984
558.964;44414.492;   -9.057;57277.930
559.548;41941.844;   -6.977;56459.641
560.132;39405.465;  -11.457;54434.543
560.716;40560.273;  -11.378;54800.617
561.300;41482.117;   -9.577;57606.945
561.884;39921.797;   -7.127;58972.445
562.467;40158.051;   -7.118;57327.570
563.051;38297.359;  -13.358;54962.434
563.635;35855.727;  -10.178;52594.473
564.219;37830.633;   -7.837;50610.410
564.802;41798.848;  -11.398;49551.180
565.386;42613.797;  -12.788;48370.953
565.969;43015.715;   -9.077;48178.871
566.553;42415.988;   -6.207;49957.305
567.136;41325.574;   -8.568;50369.594
567.720;42170.469;  -11.868;49492.004
568.303;43082.406;   -8.268;50616.352
568.887;42134.434;   -8.698;50727.148
569.470;40161.160;   -6.808;51698.379
570.053;37871.945;  -13.188;52122.078
570.637;35218.711;  -12.037;52536.438
571.220;35866.816;   -8.577;51186.098
571.803;36103.703;   -8.498;51032.762
572.386;37891.625;  -10.498;49609.887
572.969;39256.660;   -9.388;48285.926
573.552;40384.148;   -8.338;47624.285
574.135;40257.164;   -8.518;45498.641
574.718;36292.336;  -13.628;41970.434
575.301;35993.578;  -10.893;41447.137
575.884;35694.820;   -8.158;40923.836
576.467;40487.699;  -10.328;45267.723
577.050;41010.078;  -13.058;48175.543
577.633;39565.785;   -9.458;47729.328
578.216;36328.730;   -8.928;47579.793
578.799;34210.449;   -9.358;47820.996
579.381;35020.754;  -11.388;48115.551
579.964;34999.141;  -11.718;47333.766
580.547;33647.680;   -8.588;46668.969
581.129;34029.512;   -8.859;44466.141
581.712;35959.281;  -10.729;44164.922
582.294;36219.402;  -11.118;46477.855
582.877;36325.172;   -5.218;48244.254
583.459;36218.004;   -8.679;47437.895
584.042;37598.727;  -10.709;46943.219
584.624;36152.023;  -11.669;46792.227
585.206;35425.863;   -8.218;46557.250
585.789;36216.145;  -10.569;45793.773
586.371;36478.719;  -11.859;43836.391
586.953;37079.320;  -10.719;42972.492
587.536;38908.105;   -7.198;42487.211
588.118;38302.883;   -8.720;42086.414
588.700;37244.590;  -10.439;43389.930
589.282;34851.426;   -9.198;43646.039
589.864;32439.225;   -9.199;43438.109
590.446;32073.287;  -11.319;43151.926
591.028;32252.773;  -11.159;42781.867
591.610;32371.037;  -11.779;42839.098
592.192;33440.660;   -7.668;42820.402
592.774;32659.545;  -11.949;40724.277
593.356;30979.934;  -12.129;39874.789
593.937;31312.668;  -10.669;39980.648
594.519;33136.895;   -6.509;42069.633
595.101;32571.568;  -10.849;42976.031
595.683;31179.053;  -11.679;44084.441
596.264;30748.234;   -9.049;43478.797
596.846;30337.922;   -8.849;43803.672
597.427;30535.721;   -9.570;42986.934
598.009;32689.977;  -12.620;42832.219
598.591;32821.355;  -10.039;42580.086
599.172;34474.598;  -10.369;43061.805
599.753;36177.379;   -9.140;41691.469
600.335;35719.594;  -11.430;40692.520
600.916;33066.598;   -9.939;39982.422
601.498;30177.627;   -8.479;40318.617
602.079;29419.551;  -10.920;40670.609
602.660;29488.857;  -11.480;41450.898
603.241;31171.279;  -11.699;41137.738
603.823;31840.096;   -9.579;38868.797
604.404;31490.908;  -10.620;38182.785
604.985;34058.879;  -10.450;38078.047
605.566;34894.582;   -9.129;38056.633
606.147;35715.973;   -7.510;37020.418
606.728;34285.684;  -10.660;37883.359
607.309;32310.955;  -11.740;38748.273
607.890;32143.521;   -9.759;38850.230
608.471;31040.545;   -8.250;37457.918
609.051;30434.572;   -9.240;36066.457
609.632;29485.018;  -12.120;35991.074
610.213;29579.025;   -9.110;37402.641
610.794;30933.314;   -8.030;38383.363
611.374;29787.025;   -8.110;40562.387
611.955;29640.520;  -13.560;38533.727
612.536;30206.070;  -11.400;36951.789
613.116;29566.291;   -8.070;37197.891
613.697;30755.250;  -10.830;38411.125
614.277;30547.643;  -11.641;38673.938
614.858;30090.082;  -13.310;37075.863
615.438;30370.072;   -7.460;35092.906
616.019;28142.031;   -7.601;33666.301
616.599;29010.205;  -12.020;34189.023
617.179;29235.709;  -11.780;36952.047
617.760;28227.832;   -8.570;39582.574
618.340;28329.992;  -11.471;38943.977
618.920;27914.242;  -11.170;37594.156
619.500;28622.234;  -11.071;37866.938
620.080;29597.129;   -7.750;37869.043
620.660;30344.621;  -12.711;36868.617
621.241;31071.041;  -10.211;36352.309
621.821;30024.686;  -10.961;35459.520
622.401;30141.557;   -7.720;35207.414
622.980;32365.980;   -8.981;35980.422
623.560;30835.227;   -9.331;37351.328
624.140;27039.162;   -9.850;34388.582
624.720;23511.563;   -7.451;32368.764
625.300;22853.529;   -9.070;32638.629
625.880;26768.947;  -12.601;34599.035
626.459;29825.551;  -11.751;36831.738
627.039;29621.162;   -9.281;38299.098
627.619;29273.338;   -8.801;38289.574
628.198;29092.369;  -12.071;37220.695
628.778;29035.637;   -9.461;37632.563
629.357;29630.090;   -8.491;38003.012
629.937;29551.635;   -9.721;38402.039
630.516;30379.242;   -9.951;37868.801
631.096;31915.676;  -11.731;35760.410
631.675;34510.785;   -8.572;35225.219
632.254;34083.477;  -11.282;35130.289
632.834;32699.975;  -13.322;35794.570
633.413;33408.383;  -10.301;35788.922
633.992;33985.563;   -8.582;34532.863
634.571;34714.895;   -8.352;33590.113
635.151;33621.676;  -11.912;34943.863
635.730;32138.615;  -10.511;35352.523
636.309;32094.336;   -7.731;35366.605
636.888;31734.922;   -9.952;36165.637
637.467;31389.266;  -11.672;37515.902
638.046;29708.074;   -8.901;39288.695
638.625;28939.334;   -7.912;38279.699
639.204;28219.299;  -10.022;37741.598
639.782;30259.688;  -12.252;38364.551
640.361;31751.137;  -10.041;36740.621
640.940;30555.178;  -11.161;34950.082
641.519;30244.426;   -9.701;34137.398
642.097;31108.338;  -11.271;35654.258
642.676;30511.715;   -8.651;35637.957
643.255;29929.719;   -8.711;36567.074
643.833;30716.408;   -9.581;37809.434
644.412;31247.781;  -13.711;37337.293
644.990;32335.725;  -11.811;37018.531
645.569;34584.449;   -9.411;36518.469
646.147;35429.688;  -10.291;36186.430
646.726;34540.684;  -12.401;36267.688
647.304;33392.855;  -10.411;36647.625
647.882;33954.074;   -9.651;39286.742
648.461;33201.227;   -9.631;39157.703
649.039;29997.359;  -11.881;35412.883
649.617;29676.336;   -9.661;34744.918
650.195;30224.830;   -9.301;35403.098
650.773;29783.129;  -10.511;35053.797
651.352;29406.914;  -11.521;33756.816
651.930;28832.164;  -12.211;31868.773
652.508;28576.244;   -9.171;33121.551
653.086;29683.713;   -9.371;33564.793
653.663;31935.563;  -13.161;34054.668
654.241;30473.266;  -13.031;35693.309
654.819;28141.979;   -9.371;36422.906
655.397;28633.867;  -10.511;38213.484
655.975;28875.061;  -10.371;39507.625
656.553;30171.453;  -10.051;39498.223
657.130;30858.244;  -10.061;40395.480
657.708;27234.031;   -9.561;39242.020
658.286;24527.711;  -11.511;38920.020
658.863;24799.146;  -10.261;40202.898
659.441;27491.453;   -7.531;39677.938
660.018;30330.029;   -9.501;40413.355
660.596;31112.680;  -13.301;39931.414
661.173;33534.773;  -11.211;39604.531
661.750;32604.215;   -9.951;39700.070
662.328;30070.160;   -9.390;39292.809
662.905;28463.818;  -11.330;38235.648
663.482;25510.959;   -9.050;36212.305
664.060;23918.436;   -8.240;35944.945
664.637;27821.523;  -10.050;35170.785
665.214;31542.867;  -11.760;34197.523
665.791;30309.035;  -10.530;34549.520
666.368;31019.900;   -9.690;35118.578
666.945;32181.752;   -9.320;36019.418
667.522;32509.404;  -11.860;36048.438
668.099;31927.074;  -10.770;36243.914
668.676;33264.180;   -6.260;35958.875
669.253;34830.629;   -7.000;37384.730
669.830;34158.352;  -10.190;36779.629
670.407;32373.391;   -9.550;35231.289
670.984;31523.773;   -9.260;35544.270
671.560;30574.529;   -9.280;35466.867
672.137;28965.594;  -11.810;34280.863
672.714;28758.883;  -11.490;34632.863
673.290;29441.111;   -7.740;35135.422
673.867;29258.967;  -10.660;36114.480
674.443;28248.717;  -12.230;36152.859
675.020;27116.453;  -10.450;35327.238
675.596;25967.004;   -9.260;35795.176
676.173;26889.039;  -10.780;35430.355
676.749;27558.014;  -13.690;33549.516
677.326;28265.783;  -11.980;32210.012
677.902;26046.783;   -8.630;32068.871
678.478;24895.410;  -10.730;32583.891
679.054;26919.383;  -10.520;32088.928
679.631;27879.723;  -11.920;30978.848
680.207;28502.402;   -7.490;33160.887
680.783;29898.824;   -9.860;35570.363
681.359;31561.090;  -13.380;36125.184
681.935;31992.830;  -12.480;35240.922
682.511;31895.010;   -7.900;34429.961
683.087;31309.439;   -7.710;34463.680
683.663;31888.354;  -11.480;34648.898
684.239;32180.541;  -14.090;34546.457
684.815;33611.023;   -7.560;35586.375
685.390;33514.891;   -9.910;35821.895
685.966;32762.617;  -11.159;35085.871
686.542;33244.465;  -11.169;34198.230
687.118;31751.561;   -5.959;32847.707
687.693;31644.295;  -10.329;32794.027
688.269;30996.088;  -12.059;33072.367
688.844;31465.775;  -10.909;33141.664
689.420;32166.717;   -8.019;33965.742
689.995;28852.906;   -8.399;34655.523
690.571;27886.889;  -10.949;33576.742
691.146;27376.273;   -9.619;32657.219
691.722;25885.199;   -8.999;32526.979
692.297;25755.984;  -11.589;33014.617
692.872;26445.443;  -11.739;34012.254
693.448;26553.830;  -11.059;34237.434
694.023;28299.004;  -10.139;34142.672
694.598;30451.760;   -9.029;34132.031
695.173;29816.914;  -13.319;34205.250
695.748;27229.176;  -10.169;32882.488
696.323;25443.699;   -8.339;32864.906
696.898;25976.465;   -8.169;33170.004
697.473;28774.791;  -12.309;32432.984
698.048;27810.471;  -10.989;31649.303
698.623;26683.508;   -9.329;30778.141
699.198;27881.391;   -9.849;31140.119
699.773;29120.510;  -12.329;31764.299
700.348;28916.186;  -10.389;31780.816
700.922;27133.514;   -9.269;32046.375
701.497;26116.336;   -9.329;32603.574
702.072;28012.316;  -10.789;34799.871
702.646;28271.662;  -10.839;35793.172
703.221;29182.064;   -9.099;35201.590
703.795;29362.859;  -10.939;34764.527
704.370;27702.936;  -12.859;34307.367
704.944;28907.762;  -11.559;33509.887
705.519;29921.865;   -7.939;31388.584
706.093;31365.338;  -10.499;31340.104
706.668;32354.555;  -11.289;32630.281
707.242;31278.873;  -11.509;32728.779
707.816;30114.961;   -9.639;32947.238
708.390;29714.807;  -11.429;33277.855
708.965;30751.504;  -11.869;33834.336
709.539;31081.994;  -11.689;33709.273
710.113;30943.570;  -10.478;33044.313
710.687;28326.818;  -10.228;31953.992
711.261;27346.734;  -13.698;30505.949
711.835;27024.449;  -13.378;30262.369
712.409;27326.154;   -9.698;31254.447
712.983;26305.656;  -11.898;32754.986
713.557;24969.605;  -15.138;34018.824
714.131;26639.889;  -14.098;34579.625
714.704;26554.361;   -9.958;33890.262
715.278;26242.115;  -10.028;33531.102
715.852;25698.998;  -11.148;33601.660
716.425;25128.730;   -9.068;33515.117
716.999;26061.594;  -10.038;33185.555
717.573;26101.445;   -9.798;33905.996
718.146;27548.459;  -12.378;35199.293
718.720;28377.389;  -11.918;35060.551
719.293;27459.439;   -8.088;34973.230
719.867;26516.129;  -10.888;36394.449
720.440;27446.051;  -11.938;36663.008
721.013;29796.455;  -12.818;35102.426
721.587;31496.670;  -10.298;33985.266
722.160;30946.396;  -10.048;33524.965
722.733;28762.758;  -12.108;32987.043
723.306;26658.252;  -10.818;33066.301
723.880;27079.428;   -8.908;33399.500
724.453;25913.404;   -9.878;33468.297
725.026;25815.471;  -11.188;33816.637
725.599;26026.996;  -11.678;32797.996
726.172;25368.070;   -9.618;33187.434
726.745;26318.523;   -8.258;35136.613
727.318;29151.391;  -12.978;35751.730
727.891;30767.676;  -12.148;35890.430
728.463;31879.713;   -8.968;34822.090
729.036;31848.596;  -10.188;32895.086
729.609;29679.639;  -11.788;31823.225
730.182;28196.342;  -11.788;31445.283
730.754;27625.168;  -10.268;32373.223
731.327;27454.648;   -9.998;33676.820
731.900;26486.154;  -12.228;33417.000
732.472;25416.271;  -13.848;31978.498
733.045;25476.852;   -8.698;30368.777
733.617;25074.201;  -10.607;30574.215
734.190;23149.375;  -11.507;31280.975
734.762;23434.219;  -13.647;31674.412
735.334;24877.225;   -9.767;31247.291
735.907;24503.582;   -9.897;29876.211
736.479;22386.209;  -11.637;29808.488
737.051;22507.725;   -9.567;30233.547
737.623;23370.721;   -8.187;31469.086
738.195;24699.758;  -11.187;31784.225
738.768;25192.084;  -12.337;32120.523
739.340;24856.393;  -12.227;32094.342
739.912;24672.074;  -11.057;31312.680
740.484;25413.357;  -10.207;31946.238
741.056;26544.910;  -10.047;32984.059
741.628;26200.303;  -13.627;33897.715
742.199;26747.564;   -7.177;33213.016
742.771;24967.049;  -10.797;31369.113
743.343;23465.408;  -11.997;31865.473
743.915;23144.119;  -12.867;32388.631
744.487;23647.088;   -7.617;31079.568
745.058;24886.531;   -9.557;30570.107
745.630;24451.336;   -9.877;29970.127
746.201;23014.832;  -14.177;29186.766
746.773;22785.914;   -9.237;28805.723
747.344;23287.105;   -9.847;29591.223
747.916;23018.877;  -11.657;31412.201
748.487;21950.957;  -10.587;32194.898
749.059;21852.982;   -8.707;32533.719
749.630;20993.104;  -10.537;32158.518
750.201;20945.408;  -11.687;30855.395
750.773;21466.246;  -11.647;28622.555
751.344;23042.592;   -7.147;28405.732
751.915;23090.260;   -9.757;28461.551
752.486;22723.650;  -12.427;27842.850
753.057;21371.094;  -12.227;27845.008
753.628;20730.580;  -10.417;27728.107
754.199;20554.904;  -11.767;27381.086
754.770;20051.777;  -11.187;25882.203
755.341;19616.359;  -10.507;25886.184
755.912;19843.004;   -9.387;26050.861
756.483;20172.658;  -10.647;26798.779
757.054;19278.289;  -11.837;27048.238
757.625;17620.182;  -12.716;26294.838
758.195;17395.963;   -9.666;26142.076
758.766;18303.713;   -8.656;26392.234
759.337;17898.768;  -12.856;26334.594
759.907;17037.355;  -13.366;27579.652
760.478;16271.805;   -8.576;28352.770
761.048;16695.598;  -10.526;27325.088
761.619;17268.564;  -11.116;26460.428
762.189;16917.459;  -12.136;26029.826
762.760;16716.377;   -9.456;26430.145
763.330;16752.973;   -7.136;26670.902
763.900;16601.783;  -11.786;26603.021
764.471;16137.443;  -11.546;25542.740
765.041;16100.517;   -8.096;24358.459
765.611;16013.440;   -8.876;23991.297
766.181;16095.147;  -12.196;24470.236
766.751;16914.754;  -11.636;24845.975
767.321;16839.479;  -10.156;24533.633
767.891;16459.977;  -11.766;24916.492
768.461;16236.561;  -14.936;24776.771
769.031;15556.399;  -12.356;24757.988
769.601;15297.416;   -7.526;24181.088
770.171;15526.635;  -10.766;23670.387
770.741;16263.404;  -13.176;22960.045
771.311;16001.484;  -10.616;22917.523
771.880;14709.522;   -9.576;23562.941
772.450;14199.763;  -10.336;24216.500
773.020;14565.784;  -13.516;24140.398
773.589;14737.254;  -13.466;24414.857
774.159;14255.071;   -8.686;23858.717
774.729;13397.989;   -9.476;22942.135
775.298;13338.985;  -13.666;22324.033
775.867;13317.988;  -11.716;21140.313
776.437;12639.829;   -9.906;20838.092
777.006;12496.946;  -12.166;20599.510
777.576;13619.766;  -12.356;20508.809
778.145;13252.409;  -11.646;20732.947
778.714;12634.771;   -8.226;21062.465
779.283;12505.928;   -9.556;20949.664
779.853;12276.515;  -14.116;20508.623
780.422;12115.623;  -11.506;20649.082
780.991;12486.646;   -9.556;21527.520
781.560;13051.190;   -9.095;22632.658
782.129;12166.040;  -12.135;23048.277
782.698;11447.702;  -10.865;23438.555
783.267;11073.864;   -9.335;23267.734
783.836;11226.332;  -11.045;22415.133
784.404;11717.204;  -13.865;20443.152
784.973;11900.241;  -13.095;19699.150
785.542;11734.914;  -11.575;19763.828
786.111;11583.264;   -9.705;20341.408
786.679;11574.822;  -12.105;20207.967
787.248;11546.476;  -12.455;19516.465
787.817;11588.223;  -11.535;18900.363
788.385;11414.786;   -9.765;17879.121
788.954;11312.486;  -14.005;17658.301
789.522;11249.725;  -11.955;17788.879
790.090;10495.954;  -10.135;18118.277
790.659; 9851.078;  -10.975;18338.736
791.227;10122.992;  -13.375;18508.615
791.795;10569.077;  -12.375;17898.254
792.364;10786.920;  -10.725;17295.133
792.932;11148.881;   -9.715;16822.051
793.500;11184.457;  -12.675;17040.148
794.068;11724.499;  -13.495;17179.787
794.636;11897.396;  -10.885;16664.246
795.204;11663.667;  -11.045;16524.545
795.772;11737.782;  -13.175;17274.564
796.340;11407.558;  -12.445;17891.002
796.908;11461.011;   -9.735;17648.561
797.476;11771.718;   -9.815;17064.080
798.044;11570.680;  -13.985;16672.777
798.612;10886.993;  -13.115;17023.996
799.180; 9990.102;  -10.185;16561.615
799.747; 9977.568;   -9.055;15962.773
800.315;10402.360;  -12.385;15296.992
800.883; 9762.458;  -15.035;14801.771
801.450; 9111.935;  -10.365;14534.430
802.018; 9005.647;   -9.855;14173.248
802.585; 9056.328;  -11.905;14029.547
803.153; 9210.394;  -11.585;13836.846
803.720; 8889.976;   -9.095;13567.324
804.287; 8729.720;   -9.135;13360.622
804.855; 8888.178;  -11.604;13681.981
805.422; 9423.202;  -11.794;13536.560
805.989; 9654.883;  -10.734;13355.958
806.556; 9649.223;  -10.444;13747.896
807.124;10238.985;  -12.764;13987.376
807.691;10666.912;  -12.964;14038.674
808.258;10551.813;  -11.134;14120.152
808.825;10541.052;   -9.854;13860.111
809.392;10159.591;  -10.504;13268.790
809.959; 9359.633;  -13.054;12680.389
810.526; 8577.417;   -8.294;12427.308
811.093; 7840.146;   -8.394;12030.105
811.659; 7608.254;  -12.304;11653.664
812.226; 7780.236;  -13.944;11637.183
812.793; 8141.396;  -10.484;11611.521
813.360; 8228.320;  -10.144;11885.181
813.926; 8299.875;  -11.684;12770.539
814.493; 8218.514;  -13.644;12677.638
815.060; 8127.096;   -9.724;11974.336
815.626; 8292.722;   -9.854;11594.715
816.193; 8260.644;  -13.254;11579.474
816.759; 7518.129;  -13.204;11666.972
817.325; 7066.869;   -9.434;11325.530
817.892; 6929.514;  -10.134;11105.369
818.458; 7125.107;  -13.474;10843.928
819.024; 7505.774;  -11.854;10714.406
819.591; 7392.312;  -10.244;10469.165
820.157; 7071.068;  -10.704;10235.523
820.723; 7049.899;  -12.324;10847.563
821.289; 6894.649;   -9.444;11040.980
821.855; 6921.936;   -8.374;10357.100
822.421; 7242.625;  -10.234; 9978.918
822.987; 7230.565;  -13.294; 9754.177
823.553; 6966.302;  -10.884;10065.755
824.119; 6664.926;   -8.884;10036.294
824.685; 6059.563;   -6.784;10029.192
825.251; 5842.973;  -12.004;10199.230
825.816; 5488.616;  -11.474; 9820.189
826.382; 5282.478;   -9.174; 9297.248
826.948; 5622.866;   -9.214; 9381.347
827.513; 6002.982;  -10.774; 9450.726
828.079; 5969.527;  -11.924; 9472.444
828.645; 5722.142;  -10.543; 9292.643
829.210; 5556.560;  -10.533; 9065.341
829.776; 5478.310;  -10.753; 9132.620
830.341; 5627.639;  -10.173; 9092.878
830.906; 5662.425;  -10.743; 9078.557
831.472; 5472.597;  -11.113; 8534.535
832.037; 5158.467;  -10.603; 8677.874
832.602; 5012.480;  -13.323; 8628.692
833.167; 4747.285;  -10.823; 8879.031
833.733; 4559.652;  -10.113; 9189.790
834.298; 4333.843;  -13.583; 9052.608
834.863; 4497.692;  -12.703; 8895.087
835.428; 4677.486;  -10.523; 8824.266
835.993; 4615.697;   -6.963; 8845.385
836.558; 4603.657;  -10.763; 8888.563
837.123; 4791.326;   -9.903; 8966.582
837.688; 5195.778;   -9.913; 8617.860
838.253; 5222.860;  -10.283; 8590.699
838.817; 4893.375;  -12.963; 8443.797
839.382; 4770.510;  -14.243; 8799.356
839.947; 4800.660;  -10.733; 8810.595
840.511; 4758.036;   -9.383; 8796.394
841.076; 4614.155;  -12.563; 8347.231
841.641; 4473.986;  -12.953; 8224.330
842.205; 4364.160;   -7.043; 8223.349
842.770; 4148.352;   -8.163; 8622.107
843.334; 4335.961;  -12.503; 8410.386
843.898; 4542.862;  -11.693; 8337.465
844.463; 4117.677;  -10.203; 8506.283
845.027; 3803.683;   -9.533; 8280.962
845.591; 3816.512;  -13.443; 8231.141
846.156; 3827.846;  -13.143; 7969.179
846.720; 3659.873;   -9.433; 7768.278
847.284; 3645.537;  -11.033; 7630.957
847.848; 3713.887;  -10.403; 7472.395
848.412; 3550.326;  -11.553; 7437.394
848.976; 3385.695;   -8.393; 7674.592
849.540; 3344.959;   -8.713; 7836.011
850.104; 3372.437;  -12.463; 7913.669
850.668; 3473.101;  -12.973; 7694.508
851.232; 3458.745;  -10.793; 7756.887
851.796; 3523.898;  -10.662; 7926.545
852.359; 3632.204;  -13.082; 7827.844
852.923; 3640.101;  -12.192; 7641.163
853.487; 3619.729;  -11.912; 7342.501
854.050; 3436.264;  -10.892; 7042.820
854.614; 3526.455;  -13.992; 7151.338
855.177; 3602.097;  -11.732; 7105.077
855.741; 3439.089;   -8.962; 6989.675
856.304; 3273.809;   -9.442; 6596.634
856.868; 3125.911;  -14.192; 6356.272
857.431; 3097.150;  -12.702; 6468.571
857.995; 3179.677;   -9.942; 6373.210
858.558; 3311.833;   -9.112; 6324.448
859.121; 3227.364;  -12.932; 6408.327
859.684; 3131.920;  -13.442; 6347.886
860.247; 3081.387;  -10.632; 6321.264
860.810; 3022.607;  -11.272; 6301.903
861.374; 2940.405;   -9.832; 6607.881
861.937; 2838.516;  -11.762; 6408.200
862.500; 2816.039;   -9.722; 6572.639
863.062; 2764.495;  -10.512; 6387.297
863.625; 2746.752;  -11.232; 6190.836
864.188; 2799.131;  -14.112; 5807.254
864.751; 2825.212;  -11.302; 5682.413
865.314; 2720.658;  -10.112; 5547.492
865.876; 2599.173;  -12.182; 5500.150
866.439; 2475.289;  -10.722; 5415.909
867.002; 2387.198;   -9.252; 5501.567
867.564; 2463.674;   -9.572; 5413.946
868.127; 2502.672;  -13.142; 5160.325
868.689; 2553.106;  -12.902; 5133.183
869.252; 2647.528;   -9.732; 5252.382
869.814; 2576.926;   -9.432; 5297.141
870.377; 2489.178;  -11.552; 5390.919
870.939; 2469.166;   -9.052; 5599.898
871.501; 2388.179;  -10.982; 5248.336
872.063; 2290.309;  -12.292; 4854.235
872.626; 2240.564;  -14.912; 4817.074
873.188; 2155.322;  -13.112; 4987.732
873.750; 2147.493;  -13.442; 4868.651
874.312; 2170.953;   -9.402; 4779.330
874.874; 2249.865;  -11.062; 4866.348
875.436; 2226.268;  -13.931; 4718.887
875.998; 2116.086;   -9.561; 4660.005
876.560; 2003.001;  -11.321; 4462.964
877.122; 1806.323;  -12.221; 4145.042
877.683; 1535.926;  -12.191; 4056.481
878.245; 1235.663;  -12.101; 3950.740
878.807; 1081.459;   -8.971; 4058.958
879.369; 1073.426;  -12.071; 3954.677
879.930; 1145.400;  -14.621; 3941.495
880.492; 1234.735;  -10.311; 4067.014
881.053; 1312.654;  -10.901; 3859.633
881.615; 1334.979;  -14.411; 3776.071
882.176; 1313.914;  -13.761; 3734.750
882.738; 1297.098;   -9.181; 3678.489
883.299; 1320.685;  -11.791; 3405.407
883.860; 1347.359;  -13.121; 3351.106
884.422; 1304.383;  -11.211; 3394.044
884.983; 1238.313;  -10.091; 3166.443
885.544; 1205.929;   -8.461; 3189.802
886.105; 1146.412;  -12.361; 3160.360
886.666; 1097.870;  -14.141; 3093.059
887.227; 1079.477;  -11.361; 2941.957
887.788; 1030.427;  -11.401; 2974.836
888.349;  940.072;  -13.791; 2721.214
888.910;  905.390;  -13.191; 2696.493
889.471;  885.633;   -9.881; 2560.172
890.032;  897.913;   -9.881; 2558.190
890.593;  877.486;  -10.371; 2567.669
891.153;  786.500;  -13.301; 2460.307
891.714;  692.323;  -11.431; 2372.046
892.275;  659.923;  -11.291; 2309.505
892.835;  665.966;  -11.471; 2382.543
893.396;  651.785;  -11.541; 2295.502
893.956;  621.757;  -11.181; 2162.420
894.517;  580.491;  -11.741; 2125.439
895.077;  528.495;  -11.671; 2086.978
895.638;  494.684;  -11.311; 2126.316
896.198;  486.125;   -9.831; 1838.275
896.758;  471.978;   -8.421; 1892.813
897.319;  453.682;  -12.351; 1792.232
897.879;  431.888;  -13.511; 1762.751
898.439;  398.494;  -12.001; 1661.149
898.999;  377.139;  -10.180; 1781.468
899.559;  372.428;  -12.030; 1703.347
900.119;  362.118;  -15.710; 1537.525
900.679;  350.198;   -8.900; 1638.384
901.239;  330.181;   -8.340; 1527.902
901.799;  302.913;  -13.910; 1456.441
902.359;  283.325;  -13.460; 1357.140
902.919;  277.094;  -11.490; 1331.118
903.479;  276.552;  -12.110; 1317.257
904.038;  268.678;  -11.720; 1262.595
904.598;  259.429;  -13.610; 1152.034
905.158;  248.041;  -11.040; 1240.893
905.717;  232.822;  -10.900; 1233.691
906.277;  225.866;  -15.080; 1217.330
906.836;  224.592;  -13.380; 1222.408
907.396;  221.326;  -10.780; 1193.047
907.955;  212.493;   -8.500; 1182.526
908.515;  208.435;  -12.760; 1099.364
909.074;  206.889;  -11.900; 1092.863
909.633;  207.124;   -8.950; 1069.121
910.192;  203.370;   -8.770; 1196.460
910.752;  192.471;  -12.390; 1029.960
911.311;  182.422;  -13.680; 1009.780
911.870;  173.979;  -12.370;  971.460
912.429;  168.583;  -10.900; 1094.080
912.988;  166.370;  -11.690; 1081.060
913.547;  163.836;  -13.240;  940.380
914.106;  162.128;  -11.990;  999.420
914.665;  160.032;   -9.990;  984.020
915.224;  157.366;  -12.880; 1035.760
915.782;  151.840;  -12.350;  922.560
916.341;  148.806;   -9.110; 1049.840
916.900;  145.118;   -9.270;  925.260
917.458;  144.420;  -13.240;  884.220
918.017;  143.495;  -13.550;  942.600
918.576;  143.026;  -12.320;  904.440
919.134;  142.250;  -11.490;  837.980
919.693;  140.417;  -13.670;  893.060
920.251;  139.454;  -15.470;  876.500
920.809;  139.608;  -11.290;  839.580
921.368;  139.814;  -10.210;  885.360
921.926;  137.562;  -12.140;  842.940
922.484;  135.860;  -13.080;  903.360
923.042;  134.168;  -11.720;  880.340
923.601;  135.644;   -7.480;  998.680
924.159;  133.234;  -11.570;  935.560
924.717;  130.895;  -13.840;  841.080
925.275;  131.999;  -10.640;  903.240
925.833;  130.482;  -11.540;  779.320
926.391;  132.268;  -12.960;  938.380
926.949;  131.093;  -14.130;  857.680
927.506;  130.951;  -11.750;  903.500
928.064;  131.239;  -10.250;  877.580
928.622;  132.741;  -13.030;  880.100
929.180;  135.201;  -13.400;  814.180
929.737;  135.315;  -10.700;  808.540
930.295;  137.694;  -10.070;  928.480
930.853;  138.217;  -11.960;  849.100
931.410;  138.189;  -13.120;  821.120
931.968;  140.693;  -10.770;  940.660
932.525;  140.703;  -10.680;  909.380
933.082;  140.017;  -13.130;  811.440
933.640;  140.542;  -13.210;  925.900
934.197;  140.393;  -11.060;  886.360
934.754;  141.673;   -9.580;  897.780
935.312;  142.857;  -14.000;  863.340
935.869;  144.143;  -10.710; 1012.980
936.426;  142.417;   -9.860;  872.800
936.983;  141.886;   -9.710;  889.020
937.540;  143.436;  -13.990;  838.280
938.097;  147.063;  -14.040;  940.120
938.654;  150.134;  -10.310;  898.860
939.211;  149.857;  -10.560;  952.480
939.768;  149.636;  -13.900;  915.420
940.324;  150.700;  -14.760;  904.200
940.881;  155.169;  -10.370;  878.500
941.438;  159.965;   -8.260; 1021.200
941.995;  158.111;  -12.540;  992.560
942.551;  158.570;  -14.670;  875.620
943.108;  159.005;  -10.450;  937.920
943.664;  159.491;  -10.750;  869.340
944.221;  164.028;  -11.550; 1088.140
944.777;  163.101;  -14.770;  869.680
945.334;  161.137;  -12.820;  884.840
945.890;  157.438;  -10.130;  946.480
946.446;  155.325;  -13.470;  947.020
947.003;  157.091;  -12.120;  964.940
947.559;  156.492;   -9.980; 1063.040
948.115;  153.129;   -9.080; 1026.540
948.671;  151.389;  -10.830;  967.300
949.227;  150.274;  -12.440;  859.560
949.783;  150.852;  -12.910;  858.900
950.339;  155.577;  -10.270;  991.000
950.895;  156.517;  -13.630; 1023.840
951.451;  156.390;  -15.100;  925.280
952.007;  153.994;  -11.330;  998.540
952.563;  149.461;  -10.580;  937.780
953.118;  145.873;  -13.440;  904.940
953.674;  145.502;  -12.710;  935.780
954.230;  147.812;  -10.350;  949.640
954.785;  151.726;   -9.190;  936.640
955.341;  152.941;  -11.200;  998.160
955.897;  148.281;  -16.560;  834.660
956.452;  146.131;  -12.570;  953.840
957.008;  144.153;   -7.970; 1083.640
957.563;  140.311;  -11.940; 1009.540
958.118;  135.277;  -13.450;  877.700
958.674;  134.337;  -12.030;  946.780
959.229;  135.001;   -9.410; 1013.980
959.784;  136.237;  -12.000;  832.400
960.339;  136.505;  -14.780; 1001.280
960.894;  134.599;   -9.860;  963.760
961.449;  131.183;   -9.970;  859.960
962.004;  131.070;  -10.900; 1212.840
962.559;  126.447;  -13.150;  860.140
963.114;  125.694;  -13.740;  742.480
963.669;  124.373;   -9.820;  915.500
964.224;  123.346;  -13.890;  874.340
964.779;  123.351;  -12.600;  828.420
965.334;  124.796;  -10.950; 1017.860
965.888;  122.685;  -11.170;  875.360
966.443;  123.402;  -12.540;  972.380
966.998;  120.360;  -15.780;  819.460
967.552;  119.144;   -9.760;  908.380
968.107;  117.804;   -9.060;  868.300
968.661;  118.786;  -11.950;  922.440
969.216;  115.065;  -12.800;  856.280
969.770;  112.621;  -11.210;  917.200
970.324;  113.693;  -11.610;  923.140
970.879;  113.709;  -11.370;  947.180
971.433;  114.779;  -12.540;  952.720
971.987;  112.861;  -11.320;  895.340
972.541;  111.007;  -10.720;  917.100
973.095;  111.035;   -9.680; 1009.460
973.649;  107.747;  -11.440;  809.480
974.203;  106.570;  -11.210;  829.040
974.757;  106.915;  -10.240;  855.220
975.311;  106.638;  -13.720;  872.600
975.865;  106.296;  -13.770;  881.820
976.419;  103.050;  -11.690;  857.400
976.973;  101.138;   -9.510;  849.620
977.526;  100.100;  -12.620;  949.920
978.080;   96.468;  -12.010;  796.780
978.634;   95.704;  -10.170;  921.320
979.187;   96.055;   -9.020;  905.400
979.741;   98.256;   -9.820; 1018.380
980.294;   95.349;  -14.870;  789.160
980.848;   94.075;  -12.380;  717.220
981.401;   94.766;  -10.350;  816.540
981.955;   93.294;  -13.720;  844.300
982.508;   89.294;  -11.490;  746.340
983.061;   90.787;  -10.000;  915.260
983.615;   88.431;  -11.480;  798.800
984.168;   86.165;  -13.220;  770.080
984.721;   84.923;  -13.960;  880.760
985.274;   83.137;  -10.870;  867.500
985.827;   81.441;   -9.790;  834.220
986.380;   77.750;  -13.120;  721.340
986.933;   78.183;  -12.450;  864.800
987.486;   77.238;  -10.210;  861.920
988.039;   77.893;   -8.430;  863.100
988.591;   77.208;  -10.520;  893.260
989.144;   74.655;  -14.860;  737.260
989.697;   73.165;  -13.080;  758.740
990.250;   73.073;  -10.150;  858.100
990.802;   71.287;  -13.430;  755.860
991.355;   70.564;  -12.750;  974.880
991.907;   68.690;  -12.040;  864.320
992.460;   66.816;  -11.330;  753.760
993.012;   65.265;  -13.610;  749.540
993.565;   62.943;  -13.460;  711.360
994.117;   64.366;   -9.360;  950.780
994.669;   61.008;  -11.300;  701.320
995.221;   60.626;  -13.540;  791.920
995.774;   59.306;  -13.430;  787.580
996.326;   57.760;  -12.520;  740.220
996.878;   58.635;  -10.950;  838.420
997.430;   55.165;  -14.300;  699.860
997.982;   54.417;  -13.760;  750.140
998.534;   54.168;  -11.530;  739.060
999.086;   52.951;  -10.310;  738.220
999.638;   52.390;  -12.530;  661.380
1000.190;   50.962;  -11.840;  699.320
1000.741;   50.638;  -10.260;  742.700
1001.293;   50.330;   -8.860;  686.020
1001.845;   49.787;  -13.700;  676.640
1002.396;   49.138;  -12.100;  743.400
1002.948;   48.051;  -12.760;  737.400
1003.500;   46.696;  -10.380;  723.780
1004.051;   47.595;  -11.900;  907.580
1004.603;   45.464;  -12.250;  791.820
1005.154;   42.476;  -13.210;  608.980
1005.705;   42.641;  -10.950;  723.960
1006.257;   42.305;  -13.880;  707.220
1006.808;   40.834;  -12.840;  685.460
1007.359;   40.070;  -10.570;  763.240
1007.910;   39.733;   -9.620;  646.640
1008.461;   39.405;  -13.630;  732.940
1009.013;   37.342;  -17.200;  588.340
1009.564;   38.964;  -10.200;  793.520
1010.115;   36.578;  -12.570;  597.040
1010.665;   36.772;  -15.150;  602.160
1011.216;   37.393;  -14.480;  667.920
1011.767;   36.526;  -11.340;  697.920
1012.318;   36.285;   -9.780;  736.980
1012.869;   36.350;  -12.380;  679.000
1013.419;   35.277;  -15.560;  603.120
1013.970;   34.914;  -11.010;  666.640
1014.521;   35.183;  -11.610;  620.620
1015.071;   34.986;  -13.450;  670.380
1015.622;   34.950;  -13.870;  635.460
1016.172;   33.506;  -11.610;  596.820
1016.723;   33.752;  -12.120;  614.380
1017.273;   33.155;  -13.620;  604.160
1017.823;   33.435;  -14.140;  650.340
1018.374;   32.528;  -12.800;  611.760
1018.924;   32.719;  -12.340;  716.880
1019.474;   34.154;  -11.410;  718.880
1020.024;   31.447;  -14.770;  657.580
1020.574;   32.318;   -9.780;  726.160
1021.124;   32.523;   -8.560;  673.580
1021.674;   31.346;  -15.190;  559.120
1022.224;   32.874;  -13.530;  708.940
1022.774;   31.767;  -13.280;  668.820
1023.324;   31.534;  -10.690;  753.520
1023.874;   33.173;  -10.240;  875.760
1024.423;   31.008;  -12.540;  613.700
1024.973;   29.742;  -10.010;  610.760
1025.523;   29.224;  -10.550;  620.960
1026.072;   29.566;  -13.560;  606.420
1026.622;   29.510;  -15.120;  675.740
1027.172;   31.342;  -11.260;  715.660
1027.721;   29.597;  -11.410;  601.220
1028.270;   29.948;  -13.530;  663.400
1028.820;   29.629;  -13.680;  638.080
1029.369;   29.204;  -13.520;  612.700
1029.918;   28.486;  -10.980;  649.840
1030.468;   28.613;  -13.530;  564.780
1031.017;   29.031;  -13.170;  634.800
1031.566;   27.262;  -12.200;  608.900
1032.115;   28.306;   -9.960;  694.500
1032.664;   27.530;  -13.210;  596.480
1033.213;   28.052;  -12.500;  735.420
1033.762;   26.894;  -11.910;  635.620
1034.311;   27.759;   -9.640;  677.220
1034.860;   26.791;  -13.310;  691.000
1035.408;   26.941;  -11.830;  722.720
1035.957;   26.710;  -12.000;  719.540
1036.506;   25.098;  -11.690;  530.800
1037.055;   27.807;  -10.990;  844.320
1037.603;   26.016;  -15.120;  664.000
1038.152;   24.473;  -12.450;  534.760
1038.700;   24.613;  -10.560;  585.740
1039.249;   24.591;  -11.080;  681.220
1039.797;   25.528;  -12.540;  633.360
1040.345;   24.921;  -11.920;  705.420
1040.894;   24.488;  -11.410;  625.300
1041.442;   24.640;  -14.320;  632.200
1041.990;   23.445;  -16.240;  559.160
1042.538;   23.485;  -11.680;  536.180
1043.087;   24.130;  -10.760;  570.860
1043.635;   24.289;  -11.850;  670.500
1044.183;   23.470;  -15.480;  586.400
1044.731;   22.450;  -11.770;  576.000
1045.279;   23.591;  -13.090;  674.920
1045.827;   24.983;  -12.440;  892.400
1046.374;   22.008;  -13.840;  515.420
1046.922;   21.920;  -13.220;  590.580
1047.470;   23.644;  -10.230;  691.300
1048.018;   23.526;  -14.590;  647.960
1048.565;   23.800;  -12.050;  708.600
1049.113;   21.577;  -11.650;  557.000
1049.660;   21.733;  -10.510;  629.660
1050.208;   22.612;  -13.310;  675.640
1050.755;   21.311;  -15.900;  606.580
1051.303;   21.334;  -11.430;  686.820
1051.850;   21.072;   -8.480;  635.120
1052.397;   20.079;  -15.010;  473.960
1052.945;   20.552;  -13.960;  617.760
1053.492;   20.735;  -13.150;  741.840
1054.039;   21.917;   -9.630;  720.180
1054.586;   19.584;  -13.680;  557.240
1055.133;   21.487;  -14.570;  693.140
1055.680;   21.113;  -13.820;  646.620
1056.227;   20.126;  -11.730;  542.780
1056.774;   21.631;  -12.480;  794.980
1057.321;   19.959;  -13.930;  523.260
1057.868;   19.242;  -11.690;  651.320
1058.415;   19.857;   -9.520;  651.980
1058.961;   19.808;  -13.160;  678.940
1059.508;   19.564;  -12.920;  643.820
1060.055;   18.735;  -11.920;  581.780
1060.601;   19.703;  -11.500;  624.300
1061.148;   19.258;  -14.330;  616.820
1061.694;   18.476;  -16.870;  592.580
1062.241;   18.089;  -10.330;  596.320
1062.787;   19.307;  -10.620;  663.140
1063.334;   20.150;  -10.110;  808.560
1063.880;   18.921;  -13.400;  668.360
1064.426;   18.311;  -10.680;  706.820
1064.972;   18.107;   -9.920;  601.340
1065.518;   16.470;  -10.980;  566.640
1066.065;   17.917;  -14.890;  624.460
1066.611;   17.133;  -12.870;  598.800
1067.157;   17.871;  -12.950;  641.860
1067.703;   18.263;  -13.540;  668.480
1068.249;   16.865;  -13.540;  605.220
1068.794;   17.359;  -12.600;  626.880
1069.340;   16.065;  -10.620;  578.960
1069.886;   16.933;  -12.830;  590.700
1070.432;   15.861;  -14.870;  541.720
1070.977;   16.244;  -11.980;  601.080
1071.523;   16.145;   -8.200;  573.060
1072.068;   15.905;  -12.330;  582.000
1072.614;   16.240;  -16.370;  527.760
1073.160;   16.189;  -11.100;  687.040
1073.705;   15.394;  -10.480;  572.520
1074.250;   15.567;  -14.520;  559.900
1074.796;   16.654;  -11.460;  655.160
1075.341;   15.863;  -11.950;  664.100
1075.886;   14.499;  -11.460;  594.240
1076.431;   15.113;  -13.770;  649.880
1076.976;   14.602;  -12.680;  639.220
1077.521;   14.136;  -13.170;  583.080
1078.067;   14.099;  -10.860;  579.400
1078.612;   15.163;  -13.920;  661.620
1079.156;   14.264;  -13.880;  601.540
1079.701;   14.793;  -13.120;  693.260
1080.246;   15.575;   -9.940;  696.300
1080.791;   14.625;  -14.740;  625.020
1081.336;   14.957;  -13.750;  659.320
1081.880;   13.567;  -13.400;  649.680
1082.425;   13.177;  -12.220;  573.480
1082.970;   14.870;  -11.610;  717.040
1083.514;   13.381;  -13.580;  597.000
1084.059;   12.529;  -12.810;  586.720
1084.603;   12.961;  -12.320;  565.840
1085.147;   13.377;  -13.190;  645.220
1085.692;   13.962;  -12.480;  716.800
1086.236;   11.980;  -13.020;  503.140
1086.780;   14.520;   -9.190;  751.440
1087.325;   13.392;  -12.480;  654.620
1087.869;   12.459;  -12.450;  610.700
1088.413;   13.234;  -12.240;  705.040
1088.957;   12.294;   -9.020;  543.400
1089.501;   13.238;  -10.320;  766.640
1090.045;   12.489;  -12.720;  726.480
1090.589;   11.104;  -13.690;  569.920
1091.133;   12.669;  -10.020;  673.340
1091.676;   12.257;  -12.330;  591.940
1092.220;   12.427;  -14.970;  600.920
1092.764;   12.222;  -12.430;  706.960
1093.307;   11.425;   -9.800;  673.780
1093.851;   10.675;  -14.970;  556.540
1094.395;   12.375;  -15.310;  683.140
1094.938;   11.048;  -10.370;  632.520
1095.482;   10.811;  -11.050;  559.800
1096.025;   12.295;  -11.840;  710.880
1096.568;   12.402;  -12.840;  779.280
1097.112;    9.999;  -14.700;  508.180
1097.655;   11.152;   -8.720;  603.000
1098.198;   10.428;  -13.610;  600.180
1098.741;   10.012;  -13.350;  612.860
1099.285;   11.047;  -11.230;  657.300
1099.828;    9.226;  -11.840;  439.400
1100.371;   10.179;  -10.840;  608.160
1100.914;   10.505;  -14.190;  682.660
1101.457;    9.422;  -11.240;  679.900
1101.999;    9.186;  -11.270;  584.680
1102.542;   10.271;  -11.480;  641.440
1103.085;    9.806;  -11.750;  658.500
1103.628;   10.075;  -11.400;  762.060
1104.170;    9.402;  -10.490;  588.280
1104.713;    9.844;  -10.600;  646.700
1105.256;    8.649;  -14.360;  557.440
1105.798;    7.451;  -13.210;  499.980
1106.341;    9.822;  -10.270;  728.900
1106.883;    9.162;  -12.200;  521.340
1107.425;    8.785;  -13.110;  668.180
1107.968;    8.869;  -12.840;  612.380
1108.510;    9.557;   -6.480;  684.960
1109.052;    7.499;  -13.940;  612.620
1109.594;    7.494;  -13.690;  554.440
1110.136;    8.195;  -11.880;  643.220
1110.679;    7.606;   -9.500;  633.080
1111.221;    8.554;  -14.160;  604.460
1111.763;    7.795;  -13.980;  559.220
1112.304;    6.836;  -13.880;  547.140
1112.846;    7.867;  -12.210;  666.240
1113.388;   10.327;  -11.390;  942.180
1113.930;    7.950;  -14.540;  694.200
1114.472;    7.309;  -12.640;  606.540
1115.013;    5.451;  -11.620;  551.280
1115.555;    7.148;  -13.640;  587.100
1116.097;    6.024;  -15.380;  579.480
1116.638;    7.375;  -12.640;  684.600
1117.180;    7.137;   -9.850;  667.740
1117.721;    7.384;  -13.690;  568.580
1118.262;    6.749;  -12.680;  677.960
1118.804;    7.414;  -12.530;  637.340
1119.345;    6.137;  -11.690;  578.400
1119.886;    7.050;  -13.380;  704.040
1120.427;    5.926;  -14.070;  589.020
1120.969;    5.161;  -13.500;  597.920
1121.510;    5.122;  -11.480;  563.060
1122.051;    5.867;  -12.830;  723.580
1122.592;    5.116;  -14.290;  655.420
1123.133;    4.667;  -12.400;  547.940
1123.673;    6.267;  -10.130;  706.480
1124.214;    5.775;  -12.930;  612.460
1124.755;    5.962;  -14.380;  639.460
1125.296;    5.225;  -14.000;  627.320
1125.836;    5.791;  -10.070;  691.500
1126.377;    4.871;  -12.640;  599.660
1126.918;    5.613;  -12.960;  614.980
1127.458;    4.679;  -13.350;  622.220
1127.999;    5.280;  -10.750;  656.980
1128.539;    5.639;  -12.350;  694.240
1129.079;    4.630;  -14.860;  632.720
1129.620;    3.749;  -13.840;  558.100
1130.160;    3.981;  -12.330;  539.480
1130.700;    5.256;  -14.530;  640.840
1131.240;    4.772;  -12.530;  643.700
1131.781;    4.148;  -14.450;  619.680
1132.321;    4.445;   -9.790;  599.120
1132.861;    3.049;  -14.860;  564.200
1133.401;    2.905;  -14.290;  593.940
1133.941;    4.066;  -11.750;  626.280
1134.481;    3.264;   -9.920;  597.580
1135.020;    4.140;  -12.290;  609.160
1135.560;    4.209;  -11.650;  674.940
1136.100;    3.088;  -16.270;  501.160
1136.640;    2.612;  -10.890;  510.480
1137.179;    2.983;  -14.180;  537.960
1137.719;    3.581;  -16.250;  605.400
1138.258;    2.972;  -14.230;  587.360
1138.798;    2.995;   -9.090;  663.780
1139.337;    1.725;  -15.130;  482.840
1139.877;    2.884;  -13.680;  642.360
1140.416;    4.507;  -11.320;  878.060
1140.955;    2.596;  -10.860;  535.380
1141.494;    2.702;  -12.920;  669.280
1142.034;    2.111;  -13.930;  583.520
1142.573;    3.219;  -11.440;  646.280
1143.112;    2.246;  -12.000;  553.480
1143.651;    2.374;  -13.670;  536.480
1144.190;    2.962;  -12.730;  691.640
1144.729;    1.868;  -14.560;  607.420
1145.267;    2.748;  -11.830;  584.900
1145.806;    3.700;  -12.230;  637.040
1146.345;    1.118;  -14.130;  635.020
1146.884;    1.404;  -11.590;  622.500
1147.422;    1.770;  -12.550;  533.060
1147.961;    3.549;  -11.180;  708.460
1148.500;    2.313;  -11.510;  669.720
1149.038;    2.753;  -11.640;  632.500
1149.577;    2.268;  -10.130;  698.640
1150.115;    0.077;  -13.970;  452.280
1150.653;    1.761;  -14.520;  607.340
1151.192;    1.357;  -12.810;  552.920
1151.730;    0.979;   -9.100;  652.560
1152.268;    0.929;  -12.220;  589.520
1152.806;    0.056;  -14.140;  571.180
1153.344;   -0.091;  -12.350;  577.640
1153.882;    0.961;   -8.980;  600.060
1154.421;    0.664;  -15.190;  470.620
1154.958;    0.159;  -15.210;  595.240
1155.496;    1.312;  -12.850;  645.280
1156.034;    1.558;   -9.940;  721.880
1156.572;    1.943;  -13.570;  667.060
1157.110;   -0.919;  -14.590;  473.940
1157.647;    0.303;  -13.030;  676.960
1158.185;   -0.281;  -12.140;  564.320
1158.723;   -1.283;  -14.390;  509.200
1159.260;    0.787;  -14.090;  701.700
1159.798;    0.258;  -11.920;  658.160
1160.335;    0.180;  -11.110;  631.820

