
Integration time [ms]:   3.882
Averaging Nr. [scans]: 1000
Smoothing Nr. [pixels]: 0
Data measured with spectrometer [name]: 7414430SP
Wave   ;Sample   ;Dark     ;Reference
[nm]   ;[counts] ;[counts] ;[counts] 

288.544;  125.934;   10.292;  793.890
289.143;  129.380;    4.564;  681.602
289.742;  131.228;    6.144;  828.814
290.341;  118.562;    4.396;  789.841
290.940;  108.513;    0.938;  730.702
291.538;  109.288;   -0.684;  881.108
292.137;  108.435;   -2.845;  792.581
292.736;  113.130;   -0.144;  975.101
293.335;  109.398;   -6.352;  735.086
293.934;  110.860;   -7.642;  781.677
294.532;  110.964;   -4.992; 1031.958
295.131;   96.627;   -5.478;  834.394
295.730;   96.001;   -6.549;  809.588
296.328;   94.113;   -9.558;  783.442
296.927;   95.375;   -8.118;  779.652
297.525;   96.718;   -6.908;  781.236
298.124;   85.439;   -9.195;  654.009
298.722;   89.953;   -8.198;  761.933
299.321;   89.116;   -8.817;  708.597
299.919;   87.341;   -7.716;  751.918
300.518;   83.546;  -10.745;  689.338
301.116;   84.564;   -9.647;  691.381
301.715;   85.628;  -10.828;  730.222
302.313;   84.687;   -6.087;  704.943
302.911;   79.154;   -6.824;  733.830
303.509;   85.486;   -8.807;  925.627
304.108;   82.186;   -8.198;  760.383
304.706;   82.578;   -6.218;  801.664
305.304;   77.259;   -7.185;  796.707
305.902;   83.196;   -8.568;  784.484
306.500;   78.507;   -7.737;  728.200
307.098;   77.195;   -6.026;  746.560
307.696;   74.550;   -7.176;  780.432
308.294;   75.858;   -8.656;  731.359
308.892;   78.246;   -6.838;  759.769
309.490;   73.483;   -2.596;  712.161
310.088;   71.537;   -4.485;  788.444
310.686;   76.163;   -3.907;  821.749
311.284;   72.789;   -2.806;  766.040
311.882;   69.781;   -2.845;  731.225
312.480;   66.888;   -3.274;  697.167
313.078;   69.333;   -3.645;  808.331
313.675;   70.854;   -4.997;  691.600
314.273;   65.429;   -0.894;  797.837
314.871;   64.009;   -2.854;  589.829
315.468;   62.015;   -3.644;  652.090
316.066;   66.327;   -3.947;  694.427
316.664;   58.711;   -1.824;  656.351
317.261;   63.157;    1.565;  910.128
317.859;   58.828;   -3.955;  768.735
318.456;   60.042;   -2.886;  830.096
319.054;   56.249;   -0.995;  787.828
319.651;   55.113;   -1.765;  759.928
320.249;   54.680;   -3.685;  810.188
320.846;   53.253;   -3.736;  714.286
321.443;   50.776;   -2.065;  832.135
322.041;   47.374;   -5.635;  812.315
322.638;   46.019;   -5.985;  701.456
323.235;   47.941;   -6.677;  665.683
323.833;   46.850;   -3.497;  740.354
324.430;   41.160;   -6.756;  615.900
325.027;   42.781;   -7.647;  876.855
325.624;   43.769;   -7.598;  644.532
326.221;   40.543;   -5.848;  689.717
326.818;   39.513;   -5.777;  818.332
327.415;   42.276;   -8.769;  748.828
328.012;   42.309;   -6.299;  690.585
328.609;   40.320;   -6.639;  731.389
329.206;   37.545;   -6.358;  778.621
329.803;   37.354;   -8.698;  737.841
330.400;   39.882;   -8.379;  704.260
330.997;   39.908;   -6.178;  817.147
331.594;   37.531;   -5.646;  788.185
332.191;   42.421;   -6.928;  728.722
332.787;   44.962;   -6.057;  844.463
333.384;   43.003;   -6.445;  763.093
333.981;   39.389;   -8.002;  815.687
334.578;   41.102;   -8.443;  708.378
335.174;   44.215;   -6.053;  731.469
335.771;   43.886;   -5.791;  836.456
336.367;   40.155;   -6.570;  710.631
336.964;   42.262;   -6.741;  793.266
337.561;   44.496;   -5.710;  731.112
338.157;   40.355;   -3.928;  911.916
338.754;   34.277;   -5.577;  796.589
339.350;   34.799;   -9.667;  722.493
339.946;   39.402;   -5.269;  773.135
340.543;   30.661;   -4.485;  846.136
341.139;   24.877;   -7.584;  720.836
341.735;   23.625;   -8.553;  772.593
342.332;   22.982;   -4.984;  691.472
342.928;   23.842;   -3.475;  795.394
343.524;   17.348;   -6.653;  761.684
344.120;   14.153;   -7.173;  738.562
344.716;   19.284;   -4.385;  723.717
345.313;   15.916;   -3.565;  795.342
345.909;   11.240;   -7.495;  627.336
346.505;   13.391;   -8.276;  740.247
347.101;   15.025;   -5.697;  827.864
347.697;   14.174;   -4.767;  785.398
348.293;    8.671;   -7.226;  627.244
348.889;   10.345;   -7.547;  745.914
349.485;   10.261;   -9.147;  688.205
350.081;   11.199;   -6.568;  772.592
350.676;    6.472;   -6.516;  691.606
351.272;   10.250;   -7.378;  809.530
351.868;   11.028;   -6.759;  780.497
352.464;    8.400;   -4.798;  723.932
353.059;    4.087;   -7.977;  646.017
353.655;    7.306;   -8.769;  777.063
354.251;    8.855;   -5.920;  759.845
354.846;    3.970;   -7.647;  740.646
355.442;    1.547;   -6.956;  753.071
356.038;    3.691;   -9.928;  751.708
356.633;    3.486;   -7.698;  728.594
357.229;    2.120;   -6.307;  724.757
357.824;    0.023;   -7.647;  703.600
358.420;   -0.017;  -10.047;  679.726
359.015;    0.192;   -7.458;  695.357
359.610;    1.582;   -5.748;  763.920
360.206;   -5.196;   -9.346;  603.240
360.801;   -2.239;  -11.268;  646.503
361.396;    0.754;   -8.789;  725.975
361.992;   -3.304;   -6.347;  668.220
362.587;   -7.216;   -6.476;  670.160
363.182;   -4.845;   -9.457;  689.631
363.777;   -3.325;   -7.147;  738.242
364.372;   -3.039;   -5.507;  737.314
364.967;   -7.616;   -6.386;  680.744
365.563;   -2.953;   -7.858;  815.567
366.158;   -5.601;   -8.517;  685.161
366.753;   -5.518;   -8.728;  649.263
367.348;   -6.946;   -7.677;  746.056
367.942;   -7.157;  -10.387;  697.298
368.537;   -7.007;   -7.187;  754.245
369.132;   -7.575;   -8.587;  703.428
369.727;  -12.331;   -8.606;  638.079
370.322;  -10.203;  -10.426;  580.186
370.917;  -10.266;   -5.776;  710.646
371.511;   -6.991;   -6.007;  861.834
372.106;  -10.785;   -6.686;  776.964
372.701;  -13.932;   -9.335;  585.988
373.296;   -7.717;   -6.777;  863.135
373.890;  -13.284;   -7.546;  647.840
374.485;  -15.648;   -8.755;  691.199
375.079;  -10.336;   -9.797;  738.685
375.674;   -8.748;   -6.327;  812.970
376.268;  -13.644;   -9.046;  691.759
376.863;  -19.546;   -7.993;  580.327
377.457;  -13.026;   -9.206;  662.490
378.052;  -14.557;   -5.345;  764.884
378.646;  -15.580;   -5.605;  741.167
379.240;  -15.400;   -6.825;  721.176
379.835;  -14.602;  -10.476;  636.978
380.429;  -16.224;   -8.676;  562.557
381.023;  -16.355;   -4.945;  779.205
381.617;  -19.579;   -8.094;  680.106
382.212;  -15.525;  -10.646;  685.303
382.806;  -14.081;   -8.136;  760.690
383.400;  -17.949;   -7.855;  672.281
383.994;  -19.855;   -8.125;  664.870
384.588;  -15.383;   -7.637;  697.701
385.182;  -13.313;   -7.458;  726.624
385.776;  -15.459;   -6.277;  706.875
386.370;  -18.850;   -7.485;  681.968
386.964;  -17.355;   -9.416;  684.155
387.558;  -14.614;   -8.518;  598.360
388.152;  -19.363;   -7.096;  681.959
388.745;  -17.195;   -7.656;  814.707
389.339;  -15.140;   -8.927;  747.642
389.933;  -14.018;   -9.538;  695.370
390.527;  -15.133;   -5.857;  859.029
391.120;  -21.929;   -9.455;  595.318
391.714;  -18.766;   -9.746;  711.633
392.308;  -14.344;   -7.857;  780.253
392.901;  -19.182;   -9.106;  642.460
393.495;  -21.016;  -10.365;  595.414
394.089;  -18.527;   -9.696;  760.452
394.682;  -19.397;   -7.016;  697.188
395.275;  -19.266;   -8.466;  719.927
395.869;  -21.396;   -8.985;  667.314
396.462;  -19.546;  -11.496;  616.609
397.056;  -15.403;   -7.838;  776.621
397.649;  -19.180;   -6.895;  731.575
398.242;  -17.068;   -5.017;  712.645
398.836;  -15.615;   -8.787;  766.408
399.429;  -17.268;   -8.967;  631.041
400.022;  -20.938;   -8.815;  665.902
400.615;  -17.661;   -6.276;  805.609
401.208;  -16.258;   -8.407;  691.451
401.802;  -18.093;   -7.296;  699.329
402.395;  -19.587;   -7.585;  683.502
402.988;  -20.448;   -8.015;  696.627
403.581;  -17.363;   -9.577;  646.878
404.174;  -14.212;   -7.588;  686.568
404.767;  -17.736;   -7.906;  638.583
405.360;  -20.563;   -7.875;  621.445
405.953;  -14.690;   -8.127;  759.034
406.545;  -13.355;   -7.198;  725.342
407.138;  -18.513;   -8.916;  618.350
407.731;  -17.210;   -9.767;  613.303
408.324;  -12.576;  -10.659;  660.554
408.917;  -14.257;   -8.068;  681.864
409.509;  -15.419;   -9.837;  740.396
410.102;  -17.603;   -8.146;  643.948
410.695;  -11.663;   -7.969;  665.758
411.287;  -12.622;   -8.579;  599.821
411.880;  -12.949;   -6.968;  585.421
412.472;  -16.251;   -9.487;  613.092
413.065;  -13.234;  -10.338;  629.408
413.657;  -11.429;   -9.169;  576.678
414.250;  -10.644;  -10.119;  646.681
414.842;  -13.303;   -9.938;  676.353
415.434;  -10.511;  -10.409;  570.463
416.027;   -6.154;   -9.591;  652.196
416.619;   -8.720;   -7.379;  713.400
417.211;   -9.035;   -9.159;  599.352
417.804;   -5.442;   -9.191;  628.499
418.396;   -9.493;   -8.159;  607.643
418.988;   -6.722;   -6.960;  659.238
419.580;  -10.292;  -11.389;  568.276
420.172;   -8.519;  -13.460;  536.196
420.764;   -3.493;  -10.701;  672.482
421.356;   -5.062;   -8.961;  636.898
421.948;   -5.926;   -9.770;  677.661
422.540;   -1.091;   -8.832;  680.027
423.132;   -1.328;   -8.153;  600.641
423.724;   -4.923;   -8.481;  561.267
424.316;   -2.842;   -9.261;  621.345
424.908;    0.424;   -9.643;  591.517
425.500;    2.409;   -8.663;  647.978
426.092;    2.694;   -8.503;  648.268
426.683;    1.051;  -10.522;  684.836
427.275;    3.770;  -11.734;  641.471
427.867;    6.028;  -10.264;  668.948
428.458;    6.741;   -7.644;  732.344
429.050;    4.418;   -7.853;  680.749
429.642;    6.748;   -8.904;  743.124
430.233;    7.106;  -10.795;  569.356
430.825;    9.106;   -7.665;  724.809
431.416;    5.922;   -8.843;  698.241
432.008;    9.508;   -9.885;  651.723
432.599;   10.878;   -9.966;  656.073
433.190;    7.441;   -9.164;  637.670
433.782;    6.360;   -8.584;  590.395
434.373;   14.443;   -8.296;  884.765
434.964;   12.516;   -9.896;  602.920
435.556;   10.074;   -8.255;  634.537
436.147;   13.828;   -8.075;  758.490
436.738;   12.836;   -9.716;  701.099
437.329;   18.873;   -7.318;  721.723
437.920;   12.121;   -6.694;  666.688
438.511;   10.604;   -9.644;  564.526
439.103;   18.606;   -9.427;  623.998
439.694;   20.707;  -10.748;  681.583
440.285;   21.276;   -7.997;  764.432
440.876;   19.414;  -10.046;  845.738
441.466;   18.140;  -13.467;  575.162
442.057;   24.335;   -9.329;  665.814
442.648;   22.993;   -7.707;  746.255
443.239;   20.662;   -9.017;  620.477
443.830;   25.847;  -10.279;  704.958
444.421;   28.135;  -12.630;  655.474
445.011;   24.379;   -8.697;  693.619
445.602;   24.256;   -7.787;  743.126
446.193;   26.058;  -13.329;  488.117
446.783;   31.219;   -9.171;  640.397
447.374;   26.598;   -7.457;  692.759
447.964;   26.987;   -9.277;  713.770
448.555;   35.159;   -9.041;  822.742
449.145;   31.180;   -8.969;  662.853
449.736;   32.666;   -6.809;  803.179
450.326;   32.314;   -7.229;  713.626
450.917;   36.854;  -11.391;  675.324
451.507;   37.141;   -9.501;  600.661
452.097;   37.116;   -8.460;  746.267
452.688;   38.233;  -10.080;  742.160
453.278;   38.112;  -12.861;  566.840
453.868;   43.093;   -8.372;  793.550
454.458;   40.609;   -8.131;  651.141
455.048;   40.816;   -8.520;  711.783
455.639;   41.926;  -13.632;  567.096
456.229;   46.459;  -10.143;  710.694
456.819;   48.337;   -9.163;  751.158
457.409;   47.447;   -8.652;  773.993
457.999;   50.776;   -9.933;  737.505
458.589;   51.206;  -10.363;  686.606
459.179;   50.312;  -10.633;  717.658
459.769;   48.355;  -12.442;  627.099
460.358;   53.457;   -9.844;  797.262
460.948;   53.069;   -9.924;  689.503
461.538;   55.059;  -10.484;  660.677
462.128;   53.454;  -10.703;  664.934
462.717;   59.548;  -11.486;  710.326
463.307;   63.273;  -10.767;  705.846
463.897;   58.287;   -8.814;  656.942
464.486;   57.622;   -8.182;  837.128
465.076;   61.981;   -9.985;  733.776
465.666;   66.276;  -10.447;  652.900
466.255;   64.316;   -7.754;  785.651
466.845;   62.379;  -10.884;  666.749
467.434;   66.458;  -12.525;  725.873
468.023;   67.414;  -11.456;  658.357
468.613;   64.785;   -9.173;  713.946
469.202;   68.390;   -9.306;  646.507
469.791;   73.384;   -8.917;  737.811
470.381;   75.212;   -9.657;  742.813
470.970;   75.254;   -9.947;  711.099
471.559;   74.853;   -9.256;  733.291
472.148;   77.008;  -13.397;  675.737
472.738;   79.945;   -9.928;  765.466
473.327;   79.603;  -10.897;  637.529
473.916;   79.088;   -8.526;  737.446
474.505;   83.204;  -11.078;  751.703
475.094;   87.135;   -9.559;  806.570
475.683;   86.270;   -8.838;  797.699
476.272;   86.716;  -10.198;  730.632
476.861;   89.030;  -11.489;  706.754
477.449;   96.340;  -10.721;  728.487
478.038;   90.416;   -9.818;  692.513
478.627;   90.981;   -9.887;  714.852
479.216;   98.125;  -10.030;  769.441
479.805;  101.374;   -9.401;  783.375
480.393;  101.911;   -5.739; 1008.945
480.982;  100.450;   -7.838;  874.501
481.571;  106.791;   -9.111;  858.333
482.159;  107.024;  -10.601;  705.386
482.748;  107.508;   -8.500;  821.385
483.336;  110.555;   -9.241;  858.209
483.925;  110.932;  -10.440;  774.373
484.513;  119.651;  -11.063;  758.962
485.102;  115.337;   -9.540;  810.965
485.690;  124.666;   -6.742; 1011.050
486.278;  127.170;   -8.442;  979.329
486.867;  127.159;  -10.472;  809.662
487.455;  130.002;   -8.811;  898.229
488.043;  130.531;  -10.721;  748.361
488.631;  139.884;  -10.393; 1005.079
489.220;  144.259;  -10.843;  908.626
489.808;  143.459;  -10.572;  741.415
490.396;  151.334;  -10.482;  914.645
490.984;  158.870;  -11.542;  830.161
491.572;  169.491;   -8.463;  940.315
492.160;  172.988;   -8.491;  919.081
492.748;  182.943;   -9.681;  884.341
493.336;  203.437;  -10.493; 1019.693
493.924;  230.732;   -9.354;  958.077
494.512;  265.052;   -9.132; 1066.638
495.100;  304.337;   -9.001; 1103.280
495.687;  356.106;  -11.924; 1206.373
496.275;  429.742;  -11.193; 1150.796
496.863;  537.232;   -9.241; 1281.171
497.451;  658.354;  -11.341; 1386.805
498.038;  761.714;  -11.364; 1556.729
498.626;  874.923;   -8.104; 1741.407
499.214; 1057.610;   -8.842; 2016.609
499.801; 1257.896;  -10.112; 2220.633
500.389; 1479.245;  -11.953; 2312.494
500.976; 1744.339;  -10.023; 2744.849
501.564; 2062.903;   -8.662; 3148.565
502.151; 2450.197;  -10.531; 3515.999
502.738; 2835.141;  -13.853; 3971.274
503.326; 3412.434;  -10.794; 4403.796
503.913; 4054.064;   -8.663; 5161.749
504.500; 4473.641;  -10.172; 5986.420
505.088; 4844.412;  -13.472; 6381.201
505.675; 5564.695;  -10.924; 6925.547
506.262; 6423.178;   -8.551; 7619.060
506.849; 7260.497;  -10.523; 8733.969
507.436; 7885.426;  -10.834; 9790.121
508.023; 8019.921;   -9.093; 9985.472
508.610; 8396.202;  -10.073;10434.618
509.197; 8966.156;   -9.500;11198.435
509.784;10192.771;  -13.242;12391.194
510.371;11035.655;  -10.964;13603.713
510.958;10920.742;   -9.772;14426.586
511.545;12014.573;   -7.842;15243.775
512.132;12439.142;  -12.184;15945.876
512.719;12573.245;   -9.733;16340.369
513.305;14434.622;   -9.172;18011.766
513.892;16131.545;   -9.581;19754.971
514.479;17916.096;  -10.253;20967.805
515.066;20120.205;   -8.183;22299.793
515.652;21478.848;   -9.253;22908.660
516.239;22487.719;   -9.412;23798.875
516.825;25061.545;  -11.153;25567.275
517.412;25185.246;  -10.263;28154.959
517.998;25072.766;   -8.802;28344.111
518.585;24540.768;  -10.401;27134.219
519.171;24197.994;  -12.744;27268.576
519.758;25967.555;  -11.793;28964.129
520.344;28260.238;   -8.912;30664.494
520.930;27924.877;  -10.901;32550.605
521.516;28173.588;  -12.034;35422.895
522.103;28968.348;  -10.473;38280.004
522.689;30108.492;   -8.311;37835.117
523.275;33654.035;  -10.691;37288.613
523.861;34916.609;  -11.193;37281.395
524.447;35291.789;  -11.484;37846.949
525.033;35018.008;   -7.702;38321.949
525.619;34175.000;  -11.241;38579.285
526.205;34039.734;  -12.152;40622.875
526.791;32590.197;  -11.423;42258.836
527.377;29617.879;   -7.981;42966.902
527.963;30598.912;   -9.450;42018.949
528.549;35599.391;  -11.351;42476.828
529.135;39294.504;  -10.202;41854.852
529.721;39475.512;   -8.672;41237.711
530.306;37882.785;   -9.111;41259.445
530.892;39069.543;  -11.252;41506.047
531.478;41295.602;  -10.432;43559.613
532.063;44062.824;  -10.721;47695.563
532.649;45847.180;   -7.450;50808.324
533.235;46128.098;  -11.811;51787.500
533.820;45731.938;   -9.383;52145.035
534.406;44832.289;   -9.400;51133.488
534.991;43768.512;   -8.861;49996.805
535.576;42165.867;  -10.612;48882.852
536.162;40472.074;   -7.322;46942.285
536.747;41397.516;   -9.360;45711.746
537.333;43007.516;  -10.450;48510.180
537.918;43490.410;  -12.610;50439.891
538.503;43516.105;  -12.132;50863.711
539.088;39801.324;  -10.831;50906.922
539.673;34719.480;  -11.220;52621.965
540.259;34565.109;  -11.481;52368.094
540.844;39661.586;  -11.462;50879.109
541.429;45312.512;   -7.869;52077.777
542.014;48976.715;  -11.859;52716.695
542.599;49518.316;  -11.061;52363.281
543.184;49054.727;  -12.300;53187.137
543.769;48494.168;   -9.369;54697.605
544.354;48082.992;  -12.020;53913.914
544.938;44989.102;  -10.350;49680.164
545.523;42704.051;  -10.841;47386.277
546.108;43889.316;   -8.579;49151.949
546.693;46159.098;   -8.818;51384.637
547.278;47319.676;  -11.331;51853.254
547.862;44269.629;  -10.292;51173.750
548.447;40307.320;   -8.349;51691.395
549.031;41361.594;  -10.838;52456.703
549.616;46854.578;  -11.681;52714.516
550.201;49968.488;  -11.140;52414.598
550.785;48208.035;   -8.649;52355.059
551.370;48002.383;  -11.889;54589.453
551.954;48313.426;  -11.239;58267.348
552.538;47772.930;   -8.850;59062.176
553.123;48989.102;  -10.829;58115.285
553.707;49139.855;   -8.887;56556.285
554.291;48141.637;  -10.430;56201.668
554.876;46150.008;   -9.799;55335.762
555.460;46792.598;  -10.018;54155.703
556.044;47855.809;   -7.307;53721.484
556.628;45255.191;  -12.229;53731.016
557.212;42408.516;   -9.820;54312.531
557.796;41626.480;   -9.109;53797.773
558.380;43647.090;   -9.707;56145.984
558.964;42606.473;  -10.980;57277.930
559.548;42481.891;  -12.010;56459.641
560.132;45814.246;   -7.928;54434.543
560.716;47782.270;  -10.247;54800.617
561.300;47852.375;  -11.250;57606.945
561.884;49793.313;  -10.568;58972.445
562.467;48271.379;   -9.727;57327.570
563.051;46884.359;  -11.847;54962.434
563.635;45974.586;  -10.747;52594.473
564.219;42857.629;  -13.108;50610.410
564.802;39601.227;  -11.417;49551.180
565.386;40604.254;  -10.457;48370.953
565.969;42883.668;   -8.959;48178.871
566.553;42758.242;  -10.328;49957.305
567.136;41097.223;  -10.257;50369.594
567.720;40587.520;  -10.186;49492.004
568.303;40719.414;  -10.027;50616.352
568.887;41709.754;  -10.397;50727.148
569.470;40617.313;   -8.185;51698.379
570.053;39793.070;  -11.596;52122.078
570.637;39913.750;  -11.378;52536.438
571.220;39509.555;   -9.138;51186.098
571.803;38614.766;   -7.675;51032.762
572.386;37117.508;   -8.976;49609.887
572.969;34634.754;  -12.477;48285.926
573.552;35575.957;   -9.767;47624.285
574.135;36213.105;   -8.175;45498.641
574.718;32788.625;  -11.096;41970.434
575.301;30785.316;  -11.966;41447.137
575.884;28782.008;  -12.836;40923.836
576.467;32812.301;   -9.116;45267.723
577.050;34040.867;  -10.536;48175.543
577.633;35169.105;  -11.027;47729.328
578.216;35942.457;   -9.946;47579.793
578.799;35805.738;   -9.645;47820.996
579.381;37166.133;   -9.446;48115.551
579.964;39162.836;  -12.217;47333.766
580.547;40367.121;  -10.586;46668.969
581.129;40463.723;   -8.374;44466.141
581.712;38354.410;  -10.434;44164.922
582.294;36290.691;  -10.896;46477.855
582.877;36136.141;   -8.906;48244.254
583.459;37126.547;   -9.994;47437.895
584.042;37804.348;  -10.084;46943.219
584.624;37898.391;  -13.534;46792.227
585.206;35931.574;  -12.716;46557.250
585.789;36017.379;  -11.614;45793.773
586.371;34046.895;  -10.203;43836.391
586.953;31313.371;  -10.314;42972.492
587.536;32108.908;   -9.776;42487.211
588.118;34038.688;   -9.821;42086.414
588.700;35466.094;  -10.073;43389.930
589.282;34140.555;  -12.395;43646.039
589.864;32910.582;  -11.514;43438.109
590.446;32807.469;  -10.803;43151.926
591.028;32065.658;  -11.043;42781.867
591.610;32298.857;  -13.244;42839.098
592.192;32172.117;  -11.095;42820.402
592.774;30889.359;  -10.823;40724.277
593.356;30030.787;  -11.052;39874.789
593.937;31629.441;  -11.664;39980.648
594.519;35317.660;  -10.454;42069.633
595.101;38111.211;  -10.322;42976.031
595.683;37642.359;  -10.042;44084.441
596.264;34113.348;  -14.334;43478.797
596.846;35128.078;  -10.863;43803.672
597.427;33850.691;   -9.901;42986.934
598.009;32100.779;  -10.911;42832.219
598.591;32340.123;  -10.483;42580.086
599.172;34262.141;   -9.663;43061.805
599.753;35413.820;  -10.631;41691.469
600.335;35973.676;   -9.371;40692.520
600.916;33977.777;  -13.992;39982.422
601.498;32823.230;   -8.352;40318.617
602.079;33486.523;   -8.411;40670.609
602.660;33600.559;  -10.841;41450.898
603.241;33363.305;  -12.963;41137.738
603.823;34012.633;  -11.523;38868.797
604.404;33660.707;  -11.881;38182.785
604.985;34349.992;  -11.721;38078.047
605.566;34181.781;   -9.293;38056.633
606.147;32418.688;  -10.940;37020.418
606.728;34074.840;  -11.840;37883.359
607.309;35295.402;  -11.781;38748.273
607.890;35642.191;  -11.262;38850.230
608.471;33658.445;  -10.111;37457.918
609.051;32994.578;   -7.709;36066.457
609.632;30267.625;  -12.409;35991.074
610.213;30400.664;  -10.811;37402.641
610.794;32088.918;  -11.630;38383.363
611.374;35670.008;   -8.030;40562.387
611.955;36264.359;  -10.809;38533.727
612.536;34832.945;  -10.531;36951.789
613.116;34746.277;  -12.820;37197.891
613.697;35344.563;  -11.419;38411.125
614.277;36764.832;   -9.768;38673.938
614.858;34059.621;  -10.251;37075.863
615.438;30608.092;  -11.981;35092.906
616.019;28307.930;   -8.978;33666.301
616.599;30612.064;  -12.219;34189.023
617.179;32517.607;  -14.170;36952.047
617.760;33219.551;   -9.211;39582.574
618.340;33201.332;   -9.018;38943.977
618.920;33627.621;   -9.249;37594.156
619.500;33849.734;  -12.728;37866.938
620.080;34319.043;  -12.939;37869.043
620.660;35318.461;  -11.586;36868.617
621.241;35008.723;  -11.538;36352.309
621.821;33629.570;  -11.398;35459.520
622.401;32090.795;  -10.179;35207.414
622.980;31994.443;  -11.587;35980.422
623.560;33586.559;  -12.888;37351.328
624.140;31947.135;  -13.149;34388.582
624.720;27765.551;   -9.928;32368.764
625.300;27351.477;  -10.869;32638.629
625.880;30360.668;   -8.617;34599.035
626.459;31063.887;  -12.138;36831.738
627.039;32856.227;  -12.267;38299.098
627.619;36109.148;   -7.476;38289.574
628.198;38363.879;  -11.347;37220.695
628.778;36191.055;  -11.678;37632.563
629.357;33443.844;  -12.438;38003.012
629.937;32409.969;   -9.576;38402.039
630.516;32162.799;  -11.096;37868.801
631.096;33231.500;  -11.828;35760.410
631.675;34553.613;  -11.565;35225.219
632.254;34935.070;  -11.845;35130.289
632.834;36512.313;  -11.545;35794.570
633.413;36252.098;  -10.887;35788.922
633.992;35493.785;  -10.175;34532.863
634.571;35810.383;   -9.704;33590.113
635.151;34517.195;  -10.815;34943.863
635.730;33480.203;  -11.617;35352.523
636.309;33239.645;  -10.836;35366.605
636.888;33756.504;   -9.755;36165.637
637.467;33848.293;  -11.684;37515.902
638.046;33972.648;  -11.987;39288.695
638.625;33410.027;  -10.455;38279.699
639.204;33055.684;  -11.234;37741.598
639.782;33920.484;  -12.023;38364.551
640.361;32215.605;  -11.506;36740.621
640.940;29400.949;  -12.316;34950.082
641.519;27412.779;  -11.616;34137.398
642.097;29154.754;   -9.266;35654.258
642.676;33225.188;  -12.936;35637.957
643.255;34417.582;   -9.966;36567.074
643.833;35128.949;   -8.916;37809.434
644.412;32935.375;  -10.936;37337.293
644.990;31959.697;  -12.176;37018.531
645.569;32790.453;  -12.246;36518.469
646.147;35331.570;  -12.107;36186.430
646.726;37974.090;  -12.937;36267.688
647.304;35264.516;  -12.547;36647.625
647.882;34416.277;  -12.597;39286.742
648.461;33886.707;   -9.427;39157.703
649.039;33799.012;   -8.937;35412.883
649.617;34455.367;  -11.067;34744.918
650.195;32692.143;  -10.657;35403.098
650.773;30015.672;  -10.097;35053.797
651.352;29366.160;  -11.887;33756.816
651.930;28065.193;  -13.557;31868.773
652.508;27763.451;  -11.767;33121.551
653.086;30669.016;  -10.777;33564.793
653.663;33882.152;  -12.067;34054.668
654.241;36842.180;  -14.918;35693.309
654.819;36708.098;  -11.788;36422.906
655.397;34474.031;  -11.268;38213.484
655.975;32351.959;  -11.738;39507.625
656.553;30149.541;  -11.018;39498.223
657.130;29041.828;  -12.848;40395.480
657.708;27846.688;  -10.098;39242.020
658.286;28657.111;  -11.678;38920.020
658.863;31588.291;  -11.498;40202.898
659.441;34631.461;  -11.008;39677.938
660.018;36627.754;  -11.048;40413.355
660.596;37695.406;  -12.058;39931.414
661.173;38305.105;  -14.158;39604.531
661.750;37327.773;  -12.298;39700.070
662.328;36357.340;  -10.699;39292.809
662.905;35570.188;  -12.119;38235.648
663.482;31870.234;  -11.829;36212.305
664.060;27929.299;  -11.009;35944.945
664.637;31116.961;  -10.369;35170.785
665.214;33834.547;  -10.459;34197.523
665.791;32943.355;  -12.599;34549.520
666.368;30618.695;  -12.919;35118.578
666.945;28868.141;  -10.699;36019.418
667.522;29833.170;  -11.359;36048.438
668.099;30398.438;  -13.529;36243.914
668.676;28875.074;  -10.229;35958.875
669.253;28476.914;   -9.279;37384.730
669.830;28297.834;  -11.370;36779.629
670.407;28307.215;  -10.950;35231.289
670.984;29389.164;  -12.850;35544.270
671.560;27949.574;   -8.440;35466.867
672.137;28569.369;  -13.520;34280.863
672.714;30183.742;  -13.620;34632.863
673.290;30770.418;  -10.450;35135.422
673.867;29785.291;  -10.960;36114.480
674.443;30728.492;  -13.300;36152.859
675.020;29207.828;  -12.370;35327.238
675.596;28645.727;  -11.250;35795.176
676.173;29545.424;  -11.080;35430.355
676.749;29483.330;  -13.220;33549.516
677.326;30385.096;  -13.000;32210.012
677.902;30007.365;  -12.701;32068.871
678.478;28420.244;  -12.801;32583.891
679.054;29360.504;   -8.601;32088.928
679.631;30485.760;  -12.631;30978.848
680.207;31310.303;   -9.451;33160.887
680.783;31212.219;  -11.701;35570.363
681.359;31664.623;  -12.701;36125.184
681.935;33315.707;  -13.271;35240.922
682.511;35210.500;  -10.791;34429.961
683.087;33134.055;  -10.791;34463.680
683.663;29670.789;   -8.121;34648.898
684.239;27164.113;  -13.261;34546.457
684.815;27473.385;  -10.581;35586.375
685.390;29651.988;   -9.961;35821.895
685.966;29353.748;  -11.182;35085.871
686.542;28575.242;  -13.512;34198.230
687.118;26410.645;  -11.472;32847.707
687.693;25119.051;  -10.152;32794.027
688.269;25725.375;  -14.442;33072.367
688.844;24966.414;  -11.852;33141.664
689.420;24050.566;  -13.942;33965.742
689.995;25309.002;   -9.702;34655.523
690.571;27187.133;  -11.312;33576.742
691.146;27395.893;  -14.332;32657.219
691.722;27012.178;  -11.192;32526.979
692.297;27652.324;  -10.962;33014.617
692.872;28781.693;  -11.082;34012.254
693.448;29414.492;  -14.732;34237.434
694.023;29064.627;  -12.363;34142.672
694.598;27523.416;  -12.393;34132.031
695.173;27979.121;  -11.023;34205.250
695.748;29735.197;  -12.743;32882.488
696.323;29318.971;  -11.103;32864.906
696.898;28435.646;   -8.123;33170.004
697.473;28117.746;  -12.603;32432.984
698.048;28422.789;  -12.553;31649.303
698.623;29556.832;  -12.573;30778.141
699.198;29179.605;  -12.743;31140.119
699.773;28734.863;  -12.843;31764.299
700.348;29513.770;  -16.683;31780.816
700.922;30624.316;  -11.403;32046.375
701.497;32023.621;  -11.253;32603.574
702.072;31231.523;  -10.044;34799.871
702.646;30335.381;  -13.054;35793.172
703.221;30658.666;  -11.414;35201.590
703.795;30264.611;  -10.644;34764.527
704.370;28572.150;  -13.484;34307.367
704.944;27539.252;  -12.144;33509.887
705.519;26892.324;  -12.024;31388.584
706.093;28761.240;  -11.234;31340.104
706.668;30370.162;   -9.874;32630.281
707.242;29560.033;  -12.404;32728.779
707.816;27629.650;  -10.644;32947.238
708.390;26940.641;  -11.174;33277.855
708.965;26705.664;  -10.324;33834.336
709.539;27192.537;  -12.014;33709.273
710.113;27715.066;  -12.295;33044.313
710.687;29202.777;  -10.965;31953.992
711.261;31555.842;  -13.685;30505.949
711.835;30191.633;  -15.335;30262.369
712.409;28766.633;  -13.785;31254.447
712.983;29099.361;  -10.525;32754.986
713.557;27517.695;  -13.175;34018.824
714.131;26845.363;  -13.245;34579.625
714.704;29582.027;  -13.175;33890.262
715.278;32042.619;  -11.545;33531.102
715.852;30945.521;  -10.975;33601.660
716.425;29144.148;  -10.075;33515.117
716.999;29162.307;  -12.185;33185.555
717.573;31521.592;   -9.685;33905.996
718.146;32839.508;  -10.516;35199.293
718.720;31327.123;  -12.106;35060.551
719.293;29463.539;  -12.386;34973.230
719.867;29081.516;  -12.456;36394.449
720.440;28749.457;  -10.686;36663.008
721.013;28823.752;  -12.596;35102.426
721.587;30365.123;  -13.956;33985.266
722.160;32522.137;   -9.806;33524.965
722.733;33424.070;  -11.676;32987.043
723.306;32977.023;  -14.276;33066.301
723.880;30619.836;  -12.126;33399.500
724.453;28329.164;  -10.156;33468.297
725.026;27952.938;  -12.956;33816.637
725.599;28076.789;  -11.676;32797.996
726.172;28213.840;  -12.337;33187.434
726.745;28394.908;  -11.277;35136.613
727.318;28603.234;  -11.927;35751.730
727.891;28283.098;  -13.607;35890.430
728.463;26098.146;  -11.327;34822.090
729.036;25509.865;  -11.917;32895.086
729.609;27059.471;  -12.697;31823.225
730.182;28131.666;  -11.787;31445.283
730.754;27738.699;  -12.957;32373.223
731.327;27172.455;  -11.017;33676.820
731.900;26596.092;  -12.797;33417.000
732.472;26099.617;  -10.677;31978.498
733.045;25534.662;  -12.797;30368.777
733.617;25823.131;  -13.908;30574.215
734.190;25060.592;  -12.258;31280.975
734.762;25048.070;  -13.438;31674.412
735.334;26180.195;  -11.758;31247.291
735.907;28899.383;  -11.158;29876.211
736.479;32512.752;  -11.258;29808.488
737.051;33047.668;  -10.918;30233.547
737.623;31705.330;  -11.038;31469.086
738.195;32775.137;  -12.188;31784.225
738.768;31085.537;  -11.378;32120.523
739.340;25642.615;  -12.598;32094.342
739.912;23535.861;  -11.568;31312.680
740.484;24979.531;   -9.348;31946.238
741.056;27498.072;  -12.628;32984.059
741.628;29693.037;  -13.349;33897.715
742.199;28571.662;  -11.309;33213.016
742.771;28433.221;  -12.699;31369.113
743.343;29394.795;  -11.919;31865.473
743.915;29499.443;  -11.679;32388.631
744.487;28566.578;  -12.249;31079.568
745.058;26540.471;  -11.119;30570.107
745.630;25108.258;   -9.439;29970.127
746.201;23897.244;  -11.949;29186.766
746.773;23767.434;  -12.639;28805.723
747.344;24845.883;  -11.039;29591.223
747.916;26865.113;  -12.549;31412.201
748.487;25965.314;  -12.659;32194.898
749.059;24207.354;  -13.059;32533.719
749.630;23405.656;  -12.080;32158.518
750.201;21738.682;  -13.100;30855.395
750.773;21061.178;  -15.310;28622.555
751.344;21039.359;  -12.240;28405.732
751.915;20983.736;  -11.960;28461.551
752.486;19772.926;  -13.200;27842.850
753.057;18328.344;  -15.230;27845.008
753.628;19228.297;  -13.130;27728.107
754.199;21700.068;  -12.720;27381.086
754.770;22136.609;  -10.680;25882.203
755.341;21026.686;  -11.010;25886.184
755.912;20552.725;  -12.990;26050.861
756.483;20082.561;  -11.110;26798.779
757.054;19699.430;  -12.190;27048.238
757.625;19822.686;  -13.981;26294.838
758.195;19843.205;  -11.041;26142.076
758.766;20796.277;  -11.861;26392.234
759.337;21204.988;  -11.461;26334.594
759.907;20435.707;  -15.001;27579.652
760.478;19185.951;   -9.681;28352.770
761.048;18029.059;  -12.421;27325.088
761.619;19138.004;  -11.761;26460.428
762.189;19900.389;  -12.391;26029.826
762.760;19147.570;  -10.201;26430.145
763.330;19594.037;  -10.811;26670.902
763.900;20232.799;  -10.261;26603.021
764.471;19313.402;  -13.061;25542.740
765.041;18018.693;  -11.051;24358.459
765.611;17836.721;  -11.032;23991.297
766.181;17906.529;  -10.532;24470.236
766.751;18102.500;  -13.502;24845.975
767.321;19051.229;  -11.392;24533.633
767.891;20703.006;  -11.522;24916.492
768.461;22192.816;  -13.672;24776.771
769.031;20165.229;  -14.652;24757.988
769.601;17359.551;  -10.182;24181.088
770.171;16194.098;  -11.752;23670.387
770.741;15336.725;  -12.272;22960.045
771.311;14917.592;  -13.112;22917.523
771.880;15700.952;  -14.122;23562.941
772.450;16416.184;  -11.782;24216.500
773.020;16706.396;  -12.642;24140.398
773.589;15865.078;  -13.043;24414.857
774.159;15125.146;  -11.783;23858.717
774.729;15900.537;  -13.473;22942.135
775.298;16795.729;  -14.523;22324.033
775.867;16600.408;  -12.013;21140.313
776.437;15945.596;  -12.113;20838.092
777.006;15439.138;  -13.543;20599.510
777.576;15948.087;  -12.523;20508.809
778.145;16187.342;  -12.173;20732.947
778.714;15562.837;  -12.153;21062.465
779.283;14740.209;  -11.833;20949.664
779.853;14914.854;  -13.483;20508.623
780.422;15290.289;  -12.933;20649.082
780.991;14876.368;  -13.173;21527.520
781.560;14438.865;  -10.224;22632.658
782.129;14811.024;  -12.684;23048.277
782.698;15002.167;  -11.284;23438.555
783.267;14885.220;  -11.684;23267.734
783.836;14594.500;  -10.974;22415.133
784.404;14162.925;  -13.534;20443.152
784.973;13386.474;  -16.734;19699.150
785.542;12208.415;  -12.594;19763.828
786.111;11704.892;  -11.644;20341.408
786.679;12684.719;  -11.384;20207.967
787.248;12907.529;  -12.014;19516.465
787.817;11698.750;  -12.804;18900.363
788.385;10407.595;  -11.994;17879.121
788.954;10741.039;  -12.564;17658.301
789.522;11767.279;  -12.225;17788.879
790.090;11788.422;  -13.775;18118.277
790.659;11609.808;  -12.485;18338.736
791.227;12272.115;  -12.295;18508.615
791.795;12896.840;  -13.415;17898.254
792.364;13314.334;  -12.995;17295.133
792.932;13082.081;   -8.365;16822.051
793.500;11964.684;  -11.925;17040.148
794.068;11965.035;  -13.245;17179.787
794.636;12889.347;  -13.815;16664.246
795.204;13049.494;  -13.375;16524.545
795.772;12802.859;  -12.125;17274.564
796.340;11930.508;  -13.855;17891.002
796.908;10349.937;  -13.456;17648.561
797.476; 9409.813;  -13.116;17064.080
798.044; 9585.557;  -13.226;16672.777
798.612; 9929.543;  -11.236;17023.996
799.180; 9882.554;  -10.476;16561.615
799.747; 9482.491;  -11.746;15962.773
800.315; 8964.465;  -12.366;15296.992
800.883; 8308.585;  -14.616;14801.771
801.450; 8379.013;  -11.996;14534.430
802.018; 9248.557;  -11.206;14173.248
802.585; 9731.513;  -12.466;14029.547
803.153; 9320.389;  -12.846;13836.846
803.720; 8710.162;  -12.136;13567.324
804.287; 8807.074;  -10.966;13360.622
804.855; 8989.690;   -9.797;13681.981
805.422; 8297.513;  -13.037;13536.560
805.989; 7589.460;  -12.697;13355.958
806.556; 7632.693;  -11.737;13747.896
807.124; 8267.566;  -11.997;13987.376
807.691; 8169.089;  -13.997;14038.674
808.258; 7626.013;  -10.927;14120.152
808.825; 7875.183;  -13.727;13860.111
809.392; 8007.265;  -11.847;13268.790
809.959; 8039.286;  -14.217;12680.389
810.526; 8022.282;   -8.277;12427.308
811.093; 8066.120;   -9.647;12030.105
811.659; 8080.558;  -10.987;11653.664
812.226; 7525.768;  -13.447;11637.183
812.793; 7104.629;  -14.418;11611.521
813.360; 7273.748;  -13.908;11885.181
813.926; 7737.735;  -12.918;12770.539
814.493; 8028.386;  -14.888;12677.638
815.060; 7650.404;  -12.758;11974.336
815.626; 7356.464;  -13.478;11594.715
816.193; 7336.150;  -13.898;11579.474
816.759; 7481.887;  -13.588;11666.972
817.325; 7545.614;  -12.018;11325.530
817.892; 7193.321;  -14.068;11105.369
818.458; 7155.453;  -13.458;10843.928
819.024; 7074.787;  -11.968;10714.406
819.591; 6860.905;  -11.028;10469.165
820.157; 6949.368;  -12.088;10235.523
820.723; 7094.594;  -12.599;10847.563
821.289; 6859.306;  -10.419;11040.980
821.855; 6672.918;  -10.939;10357.100
822.421; 6651.826;  -12.539; 9978.918
822.987; 6564.250;  -13.259; 9754.177
823.553; 6336.464;  -15.369;10065.755
824.119; 6167.302;  -10.779;10036.294
824.685; 6154.274;   -9.999;10029.192
825.251; 6051.962;  -11.819;10199.230
825.816; 6015.623;  -13.369; 9820.189
826.382; 5960.414;  -12.679; 9297.248
826.948; 5527.907;  -11.199; 9381.347
827.513; 5306.738;  -11.179; 9450.726
828.079; 5411.951;  -13.489; 9472.444
828.645; 5517.097;  -12.500; 9292.643
829.210; 5479.174;  -15.120; 9065.341
829.776; 5433.390;  -12.590; 9132.620
830.341; 5564.600;  -11.540; 9092.878
830.906; 5943.124;  -12.400; 9078.557
831.472; 5947.960;  -12.720; 8534.535
832.037; 5251.331;  -11.490; 8677.874
832.602; 4599.894;  -14.380; 8628.692
833.167; 4333.051;  -12.780; 8879.031
833.733; 4551.797;  -11.100; 9189.790
834.298; 4905.260;  -12.080; 9052.608
834.863; 4716.587;  -13.910; 8895.087
835.428; 4440.416;  -13.470; 8824.266
835.993; 4284.086;  -11.760; 8845.385
836.558; 4461.246;  -12.731; 8888.563
837.123; 4640.482;  -12.431; 8966.582
837.688; 4500.775;  -11.241; 8617.860
838.253; 4318.559;  -13.681; 8590.699
838.817; 4432.699;  -12.531; 8443.797
839.382; 4573.229;  -12.671; 8799.356
839.947; 4638.867;  -11.541; 8810.595
840.511; 4766.901;  -12.021; 8796.394
841.076; 4830.708;  -13.071; 8347.231
841.641; 5026.261;  -11.411; 8224.330
842.205; 5252.704;  -13.671; 8223.349
842.770; 5137.720;  -11.291; 8622.107
843.334; 4835.160;  -12.951; 8410.386
843.898; 4573.618;  -11.221; 8337.465
844.463; 4640.423;  -11.322; 8506.283
845.027; 4660.965;  -11.412; 8280.962
845.591; 4408.759;  -11.512; 8231.141
846.156; 4252.851;  -14.042; 7969.179
846.720; 4327.833;  -12.152; 7768.278
847.284; 4152.095;  -10.922; 7630.957
847.848; 3953.245;  -10.962; 7472.395
848.412; 3732.034;  -14.612; 7437.394
848.976; 3709.075;  -11.492; 7674.592
849.540; 3998.765;   -9.172; 7836.011
850.104; 4214.340;  -11.232; 7913.669
850.668; 4136.393;  -15.182; 7694.508
851.232; 3984.052;  -15.332; 7756.887
851.796; 3909.552;  -13.703; 7926.545
852.359; 3964.373;  -11.113; 7827.844
852.923; 4059.104;  -11.843; 7641.163
853.487; 4035.303;  -11.173; 7342.501
854.050; 3913.329;  -13.443; 7042.820
854.614; 3865.506;  -13.823; 7151.338
855.177; 3795.793;  -16.393; 7105.077
855.741; 3750.655;  -11.693; 6989.675
856.304; 3721.946;  -10.843; 6596.634
856.868; 3599.039;  -13.783; 6356.272
857.431; 3376.038;  -11.953; 6468.571
857.995; 3125.124;  -13.683; 6373.210
858.558; 3081.835;  -11.433; 6324.448
859.121; 3195.535;  -12.493; 6408.327
859.684; 3132.956;  -12.384; 6347.886
860.247; 2800.964;  -14.774; 6321.264
860.810; 2507.981;  -13.154; 6301.903
861.374; 2473.290;  -11.264; 6607.881
861.937; 2546.645;  -15.424; 6408.200
862.500; 2557.732;  -12.854; 6572.639
863.062; 2547.771;  -12.344; 6387.297
863.625; 2536.504;  -13.314; 6190.836
864.188; 2592.648;  -14.724; 5807.254
864.751; 2755.272;  -13.464; 5682.413
865.314; 3099.264;  -11.684; 5547.492
865.876; 3339.596;  -11.104; 5500.150
866.439; 3296.757;  -12.344; 5415.909
867.002; 3114.231;  -13.494; 5501.567
867.564; 2830.865;  -10.935; 5413.946
868.127; 2601.856;  -12.665; 5160.325
868.689; 2555.744;  -14.515; 5133.183
869.252; 2593.592;  -13.425; 5252.382
869.814; 2754.108;  -11.595; 5297.141
870.377; 2892.751;  -12.175; 5390.919
870.939; 2811.919;  -10.265; 5599.898
871.501; 2693.289;  -12.375; 5248.336
872.063; 2629.774;  -14.355; 4854.235
872.626; 2554.460;  -14.435; 4817.074
873.188; 2448.379;  -12.415; 4987.732
873.750; 2453.393;  -14.555; 4868.651
874.312; 2378.452;  -11.185; 4779.330
874.874; 2187.156;  -12.715; 4866.348
875.436; 2096.225;  -13.196; 4718.887
875.998; 2111.049;  -11.426; 4660.005
876.560; 2047.389;   -9.786; 4462.964
877.122; 1991.811;  -12.796; 4145.042
877.683; 1959.807;  -13.226; 4056.481
878.245; 1940.272;  -12.036; 3950.740
878.807; 1931.718;  -11.536; 4058.958
879.369; 1898.880;  -10.806; 3954.677
879.930; 1762.082;  -13.946; 3941.495
880.492; 1531.380;  -11.876; 4067.014
881.053; 1351.453;  -13.216; 3859.633
881.615; 1249.329;  -12.226; 3776.071
882.176; 1162.295;  -12.946; 3734.750
882.738; 1086.528;  -10.736; 3678.489
883.299; 1064.586;  -12.057; 3405.407
883.860; 1092.845;  -12.677; 3351.106
884.422; 1105.271;  -14.097; 3394.044
884.983; 1062.878;  -13.667; 3166.443
885.544;  994.992;  -10.717; 3189.802
886.105;  945.872;  -14.357; 3160.360
886.666;  958.726;  -14.287; 3093.059
887.227;  991.262;  -14.297; 2941.957
887.788;  999.790;  -13.137; 2974.836
888.349;  935.667;  -14.637; 2721.214
888.910;  869.231;  -12.247; 2696.493
889.471;  867.631;  -10.577; 2560.172
890.032;  869.687;  -12.937; 2558.190
890.593;  830.009;  -12.487; 2567.669
891.153;  762.143;  -11.898; 2460.307
891.714;  744.691;  -14.278; 2372.046
892.275;  750.967;  -13.308; 2309.505
892.835;  707.733;  -12.058; 2382.543
893.396;  635.586;  -15.268; 2295.502
893.956;  587.425;  -13.278; 2162.420
894.517;  558.061;  -11.968; 2125.439
895.077;  547.032;  -12.798; 2086.978
895.638;  532.270;  -11.908; 2126.316
896.198;  511.867;  -13.288; 1838.275
896.758;  489.235;  -12.198; 1892.813
897.319;  463.522;  -13.048; 1792.232
897.879;  425.215;  -13.718; 1762.751
898.439;  386.034;  -14.138; 1661.149
898.999;  374.141;  -13.659; 1781.468
899.559;  365.101;  -14.699; 1703.347
900.119;  343.180;  -14.339; 1537.525
900.679;  320.459;  -11.789; 1638.384
901.239;  297.257;  -13.629; 1527.902
901.799;  280.516;  -13.679; 1456.441
902.359;  267.221;  -13.679; 1357.140
902.919;  257.554;  -14.159; 1331.118
903.479;  247.326;  -13.419; 1317.257
904.038;  237.334;  -14.899; 1262.595
904.598;  224.571;  -14.339; 1152.034
905.158;  218.881;  -13.959; 1240.893
905.717;  214.148;  -12.749; 1233.691
906.277;  207.096;  -11.889; 1217.330
906.836;  199.698;  -12.870; 1222.408
907.396;  196.376;  -11.790; 1193.047
907.955;  193.708;  -13.750; 1182.526
908.515;  187.623;  -14.760; 1099.364
909.074;  179.810;  -12.540; 1092.863
909.633;  174.412;  -12.120; 1069.121
910.192;  173.260;  -12.550; 1196.460
910.752;  171.957;  -12.760; 1029.960
911.311;  169.678;  -14.750; 1009.780
911.870;  164.997;  -13.860;  971.460
912.429;  160.655;  -13.480; 1094.080
912.988;  154.886;  -12.370; 1081.060
913.547;  149.427;  -14.670;  940.380
914.106;  147.651;  -12.800;  999.420
914.665;  147.073;  -11.370;  984.020
915.224;  144.821;  -11.430; 1035.760
915.782;  144.818;  -12.260;  922.560
916.341;  145.246;  -12.540; 1049.840
916.900;  144.080;  -12.540;  925.260
917.458;  142.788;  -13.480;  884.220
918.017;  141.646;  -12.470;  942.600
918.576;  140.779;  -13.450;  904.440
919.134;  139.204;  -12.890;  837.980
919.693;  138.355;  -15.480;  893.060
920.251;  135.917;  -14.420;  876.500
920.809;  136.053;  -12.170;  839.580
921.368;  136.269;  -13.650;  885.360
921.926;  136.309;  -12.750;  842.940
922.484;  135.672;  -14.150;  903.360
923.042;  137.072;  -15.100;  880.340
923.601;  140.576;  -10.990;  998.680
924.159;  140.426;  -12.470;  935.560
924.717;  139.127;  -15.640;  841.080
925.275;  140.461;  -12.380;  903.240
925.833;  139.239;  -12.710;  779.320
926.391;  141.357;  -11.200;  938.380
926.949;  141.392;  -16.000;  857.680
927.506;  142.703;  -12.260;  903.500
928.064;  143.616;  -11.300;  877.580
928.622;  144.412;  -13.750;  880.100
929.180;  143.310;  -15.290;  814.180
929.737;  142.379;  -14.500;  808.540
930.295;  144.455;  -10.630;  928.480
930.853;  146.978;  -14.590;  849.100
931.410;  149.521;  -14.450;  821.120
931.968;  152.440;  -14.390;  940.660
932.525;  154.009;  -13.050;  909.380
933.082;  152.498;  -15.620;  811.440
933.640;  154.613;  -15.650;  925.900
934.197;  156.183;  -13.610;  886.360
934.754;  159.806;  -13.320;  897.780
935.312;  163.990;  -13.370;  863.340
935.869;  167.348;  -12.780; 1012.980
936.426;  165.251;  -14.480;  872.800
936.983;  165.226;  -13.180;  889.020
937.540;  166.426;  -15.710;  838.280
938.097;  167.474;  -14.980;  940.120
938.654;  170.887;  -13.060;  898.860
939.211;  171.776;  -12.760;  952.480
939.768;  172.035;  -16.230;  915.420
940.324;  174.096;  -10.940;  904.200
940.881;  172.383;  -12.570;  878.500
941.438;  170.856;  -13.650; 1021.200
941.995;  170.078;  -13.300;  992.560
942.551;  170.520;  -15.800;  875.620
943.108;  170.001;  -14.180;  937.920
943.664;  167.579;  -13.890;  869.340
944.221;  172.128;  -12.640; 1088.140
944.777;  169.076;  -14.700;  869.680
945.334;  168.344;  -13.010;  884.840
945.890;  169.752;  -13.480;  946.480
946.446;  169.979;  -14.920;  947.020
947.003;  169.035;  -13.860;  964.940
947.559;  169.424;  -12.000; 1063.040
948.115;  170.164;  -10.510; 1026.540
948.671;  169.032;  -12.760;  967.300
949.227;  165.077;  -15.390;  859.560
949.783;  161.609;  -15.570;  858.900
950.339;  161.274;  -12.800;  991.000
950.895;  159.290;  -13.780; 1023.840
951.451;  158.203;  -13.810;  925.280
952.007;  160.932;  -12.390;  998.540
952.563;  160.650;  -11.980;  937.780
953.118;  158.074;  -14.070;  904.940
953.674;  158.576;  -14.140;  935.780
954.230;  162.415;  -12.680;  949.640
954.785;  165.402;  -12.770;  936.640
955.341;  162.750;  -11.450;  998.160
955.897;  155.166;  -15.350;  834.660
956.452;  151.585;  -14.200;  953.840
957.008;  147.030;  -10.820; 1083.640
957.563;  144.588;  -13.200; 1009.540
958.118;  144.359;  -14.460;  877.700
958.674;  145.002;  -13.840;  946.780
959.229;  145.236;  -10.670; 1013.980
959.784;  144.065;  -17.040;  832.400
960.339;  146.470;  -12.970; 1001.280
960.894;  148.916;  -12.700;  963.760
961.449;  152.954;  -13.790;  859.960
962.004;  159.888;  -11.760; 1212.840
962.559;  157.565;  -14.840;  860.140
963.114;  152.738;  -14.530;  742.480
963.669;  150.471;  -12.780;  915.500
964.224;  146.355;  -14.330;  874.340
964.779;  139.921;  -14.380;  828.420
965.334;  135.942;  -12.460; 1017.860
965.888;  132.491;  -13.490;  875.360
966.443;  131.778;  -14.140;  972.380
966.998;  128.263;  -16.240;  819.460
967.552;  128.449;  -12.730;  908.380
968.107;  126.014;  -14.510;  868.300
968.661;  127.068;  -11.850;  922.440
969.216;  124.285;  -14.370;  856.280
969.770;  121.719;  -13.010;  917.200
970.324;  120.685;  -12.460;  923.140
970.879;  120.581;  -11.580;  947.180
971.433;  121.957;  -13.130;  952.720
971.987;  120.905;  -12.360;  895.340
972.541;  118.375;  -14.330;  917.100
973.095;  115.045;  -13.310; 1009.460
973.649;  111.388;  -15.830;  809.480
974.203;  112.159;  -15.830;  829.040
974.757;  114.070;  -13.480;  855.220
975.311;  116.509;  -13.720;  872.600
975.865;  116.190;  -15.780;  881.820
976.419;  115.713;  -14.290;  857.400
976.973;  114.500;  -13.210;  849.620
977.526;  111.406;  -12.300;  949.920
978.080;  105.833;  -14.840;  796.780
978.634;  104.878;  -13.100;  921.320
979.187;  102.012;  -12.300;  905.400
979.741;  100.797;  -12.020; 1018.380
980.294;   97.791;  -14.590;  789.160
980.848;   96.336;  -14.390;  717.220
981.401;   97.167;  -14.280;  816.540
981.955;   95.744;  -11.920;  844.300
982.508;   92.518;  -15.790;  746.340
983.061;   92.177;  -12.070;  915.260
983.615;   90.267;  -13.260;  798.800
984.168;   87.557;  -15.540;  770.080
984.721;   87.059;  -13.230;  880.760
985.274;   85.039;  -11.820;  867.500
985.827;   82.110;  -13.510;  834.220
986.380;   81.175;  -14.840;  721.340
986.933;   81.566;  -13.970;  864.800
987.486;   81.384;  -12.450;  861.920
988.039;   79.156;  -11.170;  863.100
988.591;   77.122;  -13.070;  893.260
989.144;   73.962;  -15.530;  737.260
989.697;   72.821;  -14.300;  758.740
990.250;   71.443;  -13.310;  858.100
990.802;   69.667;  -14.490;  755.860
991.355;   70.431;  -12.980;  974.880
991.907;   68.183;  -13.715;  864.320
992.460;   65.934;  -14.450;  753.760
993.012;   64.399;  -12.590;  749.540
993.565;   62.621;  -15.180;  711.360
994.117;   63.530;  -11.630;  950.780
994.669;   61.191;  -13.760;  701.320
995.221;   60.937;  -12.710;  791.920
995.774;   59.324;  -14.620;  787.580
996.326;   58.476;  -13.150;  740.220
996.878;   59.103;  -12.880;  838.420
997.430;   57.737;  -14.580;  699.860
997.982;   55.908;  -14.030;  750.140
998.534;   55.595;  -12.190;  739.060
999.086;   54.704;  -12.990;  738.220
999.638;   53.075;  -13.180;  661.380
1000.190;   52.116;  -14.970;  699.320
1000.741;   50.959;  -12.200;  742.700
1001.293;   52.035;  -13.400;  686.020
1001.845;   50.340;  -14.490;  676.640
1002.396;   50.700;  -15.280;  743.400
1002.948;   49.970;  -12.380;  737.400
1003.500;   49.225;  -13.260;  723.780
1004.051;   50.701;  -13.730;  907.580
1004.603;   49.070;  -12.300;  791.820
1005.154;   45.557;  -15.330;  608.980
1005.705;   45.169;  -12.800;  723.960
1006.257;   44.245;  -13.900;  707.220
1006.808;   42.733;  -14.430;  685.460
1007.359;   42.775;  -12.010;  763.240
1007.910;   41.069;  -12.690;  646.640
1008.461;   41.286;  -13.610;  732.940
1009.013;   39.695;  -14.990;  588.340
1009.564;   41.006;  -11.860;  793.520
1010.115;   38.607;  -12.640;  597.040
1010.665;   38.843;  -14.570;  602.160
1011.216;   38.028;  -15.190;  667.920
1011.767;   38.056;  -13.470;  697.920
1012.318;   39.038;  -13.760;  736.980
1012.869;   37.332;  -15.950;  679.000
1013.419;   36.463;  -15.880;  603.120
1013.970;   37.439;  -14.540;  666.640
1014.521;   36.894;  -13.220;  620.620
1015.071;   36.884;  -15.020;  670.380
1015.622;   36.058;  -17.510;  635.460
1016.172;   35.246;  -14.130;  596.820
1016.723;   35.587;  -14.220;  614.380
1017.273;   34.661;  -15.370;  604.160
1017.823;   35.057;  -15.290;  650.340
1018.374;   34.836;  -13.420;  611.760
1018.924;   34.643;  -11.740;  716.880
1019.474;   34.891;  -12.250;  718.880
1020.024;   33.185;  -15.850;  657.580
1020.574;   34.478;  -13.280;  726.160
1021.124;   34.141;  -13.560;  673.580
1021.674;   32.460;  -13.790;  559.120
1022.224;   33.546;  -14.610;  708.940
1022.774;   33.359;  -13.100;  668.820
1023.324;   33.327;  -11.470;  753.520
1023.874;   34.410;  -11.990;  875.760
1024.423;   31.752;  -14.550;  613.700
1024.973;   31.799;  -14.440;  610.760
1025.523;   30.450;  -13.250;  620.960
1026.072;   31.118;  -15.200;  606.420
1026.622;   30.457;  -14.590;  675.740
1027.172;   31.214;  -11.080;  715.660
1027.721;   30.188;  -14.010;  601.220
1028.270;   30.937;  -13.690;  663.400
1028.820;   29.704;  -15.380;  638.080
1029.369;   30.154;  -14.980;  612.700
1029.918;   30.522;  -13.100;  649.840
1030.468;   30.002;  -13.680;  564.780
1031.017;   30.359;  -13.770;  634.800
1031.566;   28.405;  -14.100;  608.900
1032.115;   29.796;  -11.770;  694.500
1032.664;   28.156;  -14.940;  596.480
1033.213;   29.187;  -13.370;  735.420
1033.762;   28.528;  -13.660;  635.620
1034.311;   28.299;  -13.650;  677.220
1034.860;   28.747;  -13.820;  691.000
1035.408;   28.628;  -12.860;  722.720
1035.957;   28.323;  -13.060;  719.540
1036.506;   26.438;  -14.510;  530.800
1037.055;   29.257;  -13.470;  844.320
1037.603;   27.019;  -14.800;  664.000
1038.152;   25.773;  -14.190;  534.760
1038.700;   26.347;  -11.810;  585.740
1039.249;   26.199;  -12.850;  681.220
1039.797;   26.901;  -14.610;  633.360
1040.345;   26.105;  -15.220;  705.420
1040.894;   26.109;  -13.480;  625.300
1041.442;   25.627;  -13.310;  632.200
1041.990;   24.676;  -14.510;  559.160
1042.538;   24.025;  -15.700;  536.180
1043.087;   24.674;  -13.910;  570.860
1043.635;   26.038;  -13.620;  670.500
1044.183;   24.151;  -14.230;  586.400
1044.731;   25.112;  -13.730;  576.000
1045.279;   24.903;  -13.970;  674.920
1045.827;   26.505;  -10.750;  892.400
1046.374;   22.394;  -15.230;  515.420
1046.922;   22.941;  -15.390;  590.580
1047.470;   24.325;  -12.320;  691.300
1048.018;   23.897;  -13.230;  647.960
1048.565;   24.560;  -13.390;  708.600
1049.113;   22.504;  -15.030;  557.000
1049.660;   22.889;  -12.540;  629.660
1050.208;   23.238;  -15.040;  675.640
1050.755;   23.213;  -14.680;  606.580
1051.303;   23.143;  -13.610;  686.820
1051.850;   22.873;  -14.340;  635.120
1052.397;   21.037;  -16.330;  473.960
1052.945;   20.607;  -15.710;  617.760
1053.492;   23.063;  -12.320;  741.840
1054.039;   23.212;  -13.730;  720.180
1054.586;   21.147;  -16.140;  557.240
1055.133;   22.056;  -14.020;  693.140
1055.680;   22.385;  -13.430;  646.620
1056.227;   21.461;  -14.570;  542.780
1056.774;   22.713;  -14.400;  794.980
1057.321;   20.158;  -14.230;  523.260
1057.868;   20.955;  -14.220;  651.320
1058.415;   21.205;  -14.060;  651.980
1058.961;   21.141;  -14.640;  678.940
1059.508;   20.507;  -13.970;  643.820
1060.055;   19.472;  -15.100;  581.780
1060.601;   20.918;  -12.180;  624.300
1061.148;   20.538;  -15.010;  616.820
1061.694;   18.999;  -14.750;  592.580
1062.241;   19.655;  -14.130;  596.320
1062.787;   20.396;  -14.770;  663.140
1063.334;   21.731;  -13.130;  808.560
1063.880;   19.168;  -14.420;  668.360
1064.426;   19.921;  -13.130;  706.820
1064.972;   18.047;  -13.960;  601.340
1065.518;   17.829;  -13.680;  566.640
1066.065;   18.810;  -15.720;  624.460
1066.611;   18.159;  -13.970;  598.800
1067.157;   18.396;  -13.920;  641.860
1067.703;   18.336;  -14.760;  668.480
1068.249;   18.017;  -14.490;  605.220
1068.794;   18.192;  -14.740;  626.880
1069.340;   17.718;  -13.220;  578.960
1069.886;   17.545;  -14.930;  590.700
1070.432;   17.035;  -14.700;  541.720
1070.977;   16.950;  -14.470;  601.080
1071.523;   17.459;  -14.330;  573.060
1072.068;   16.960;  -14.960;  582.000
1072.614;   15.794;  -16.220;  527.760
1073.160;   17.588;  -11.280;  687.040
1073.705;   15.876;  -15.990;  572.520
1074.250;   15.834;  -16.550;  559.900
1074.796;   16.739;  -14.600;  655.160
1075.341;   16.995;  -13.440;  664.100
1075.886;   16.368;  -14.450;  594.240
1076.431;   16.328;  -13.160;  649.880
1076.976;   16.299;  -14.710;  639.220
1077.521;   15.212;  -14.000;  583.080
1078.067;   15.118;  -14.470;  579.400
1078.612;   15.733;  -14.530;  661.620
1079.156;   15.280;  -15.660;  601.540
1079.701;   15.887;  -16.120;  693.260
1080.246;   15.699;  -12.960;  696.300
1080.791;   15.799;  -13.700;  625.020
1081.336;   15.731;  -15.540;  659.320
1081.880;   15.239;  -14.640;  649.680
1082.425;   14.796;  -14.220;  573.480
1082.970;   17.243;  -11.890;  717.040
1083.514;   14.611;  -13.820;  597.000
1084.059;   13.662;  -14.280;  586.720
1084.603;   13.913;  -12.890;  565.840
1085.147;   14.338;  -13.590;  645.220
1085.692;   14.521;  -14.050;  716.800
1086.236;   12.327;  -14.990;  503.140
1086.780;   15.552;  -12.640;  751.440
1087.325;   13.978;  -15.550;  654.620
1087.869;   13.839;  -14.980;  610.700
1088.413;   13.988;  -13.440;  705.040
1088.957;   12.327;  -12.170;  543.400
1089.501;   14.531;  -12.730;  766.640
1090.045;   13.845;  -14.650;  726.480
1090.589;   11.409;  -14.500;  569.920
1091.133;   13.115;  -12.320;  673.340
1091.676;   13.038;  -16.130;  591.940
1092.220;   12.379;  -13.930;  600.920
1092.764;   13.512;  -12.820;  706.960
1093.307;   13.571;  -11.700;  673.780
1093.851;   11.093;  -15.600;  556.540
1094.395;   12.188;  -13.920;  683.140
1094.938;   11.647;  -16.090;  632.520
1095.482;   11.847;  -13.820;  559.800
1096.025;   12.555;  -12.720;  710.880
1096.568;   13.117;  -12.100;  779.280
1097.112;    9.700;  -15.450;  508.180
1097.655;   11.962;  -14.310;  603.000
1098.198;    9.929;  -14.740;  600.180
1098.741;   10.313;  -15.550;  612.860
1099.285;   10.902;  -12.600;  657.300
1099.828;    9.629;  -15.050;  439.400
1100.371;   10.431;  -14.800;  608.160
1100.914;   10.530;  -16.480;  682.660
1101.457;   11.065;  -12.990;  679.900
1101.999;   10.018;  -14.110;  584.680
1102.542;   11.167;  -11.450;  641.440
1103.085;   10.041;  -13.350;  658.500
1103.628;   10.642;  -13.200;  762.060
1104.170;    9.341;  -12.310;  588.280
1104.713;   10.608;  -14.320;  646.700
1105.256;    8.882;  -16.110;  557.440
1105.798;    8.265;  -15.910;  499.980
1106.341;   11.601;  -12.200;  728.900
1106.883;    9.185;  -14.910;  521.340
1107.425;    9.637;  -14.960;  668.180
1107.968;    8.824;  -13.440;  612.380
1108.510;    9.871;  -14.010;  684.960
1109.052;    8.222;  -15.430;  612.620
1109.594;    8.670;  -15.290;  554.440
1110.136;    9.393;  -13.360;  643.220
1110.679;    8.018;  -13.820;  633.080
1111.221;    8.903;  -13.690;  604.460
1111.763;    7.689;  -14.890;  559.220
1112.304;    7.247;  -14.550;  547.140
1112.846;    8.933;  -12.760;  666.240
1113.388;   12.165;  -10.780;  942.180
1113.930;    8.380;  -12.690;  694.200
1114.472;    7.228;  -15.730;  606.540
1115.013;    7.065;  -14.620;  551.280
1115.555;    7.619;  -14.950;  587.100
1116.097;    6.243;  -16.460;  579.480
1116.638;    8.252;  -13.730;  684.600
1117.180;    8.295;  -13.810;  667.740
1117.721;    7.167;  -13.280;  568.580
1118.262;    7.856;  -15.080;  677.960
1118.804;    7.670;  -14.040;  637.340
1119.345;    6.667;  -15.430;  578.400
1119.886;    8.122;  -15.240;  704.040
1120.427;    5.821;  -15.820;  589.020
1120.969;    6.064;  -14.550;  597.920
1121.510;    6.121;  -14.030;  563.060
1122.051;    7.633;  -11.990;  723.580
1122.592;    5.705;  -16.490;  655.420
1123.133;    4.918;  -15.580;  547.940
1123.673;    6.805;  -12.850;  706.480
1124.214;    6.388;  -13.630;  612.460
1124.755;    5.991;  -14.830;  639.460
1125.296;    6.315;  -13.110;  627.320
1125.836;    7.014;  -11.320;  691.500
1126.377;    5.926;  -14.330;  599.660
1126.918;    6.185;  -12.800;  614.980
1127.458;    4.546;  -13.580;  622.220
1127.999;    6.488;  -10.330;  656.980
1128.539;    5.884;  -13.390;  694.240
1129.079;    4.783;  -16.420;  632.720
1129.620;    4.545;  -15.700;  558.100
1130.160;    4.311;  -14.790;  539.480
1130.700;    5.204;  -12.910;  640.840
1131.240;    5.307;  -15.610;  643.700
1131.781;    3.915;  -12.920;  619.680
1132.321;    4.762;  -15.300;  599.120
1132.861;    3.582;  -14.760;  564.200
1133.401;    3.088;  -15.470;  593.940
1133.941;    4.159;  -13.710;  626.280
1134.481;    3.876;  -11.820;  597.580
1135.020;    4.226;  -14.810;  609.160
1135.560;    4.363;  -13.660;  674.940
1136.100;    2.978;  -13.940;  501.160
1136.640;    3.398;  -15.410;  510.480
1137.179;    2.951;  -16.920;  537.960
1137.719;    3.693;  -16.430;  605.400
1138.258;    3.280;  -16.300;  587.360
1138.798;    5.161;  -13.710;  663.780
1139.337;    2.961;  -13.840;  482.840
1139.877;    3.861;  -16.140;  642.360
1140.416;    5.644;  -11.410;  878.060
1140.955;    3.404;  -12.820;  535.380
1141.494;    3.640;  -12.310;  669.280
1142.034;    2.664;  -16.280;  583.520
1142.573;    3.808;  -13.090;  646.280
1143.112;    2.853;  -13.770;  553.480
1143.651;    2.735;  -15.830;  536.480
1144.190;    3.703;  -15.010;  691.640
1144.729;    2.572;  -13.650;  607.420
1145.267;    2.728;  -13.670;  584.900
1145.806;    4.144;  -13.630;  637.040
1146.345;    1.519;  -14.160;  635.020
1146.884;    2.607;  -11.180;  622.500
1147.422;    2.021;  -15.890;  533.060
1147.961;    4.393;  -12.760;  708.460
1148.500;    2.957;  -15.220;  669.720
1149.038;    2.883;  -13.720;  632.500
1149.577;    3.056;  -13.250;  698.640
1150.115;    0.125;  -16.790;  452.280
1150.653;    1.811;  -15.810;  607.340
1151.192;    1.865;  -14.730;  552.920
1151.730;    2.250;  -13.660;  652.560
1152.268;    2.066;  -15.120;  589.520
1152.806;    1.328;  -15.580;  571.180
1153.344;    0.200;  -16.210;  577.640
1153.882;    1.883;  -12.810;  600.060
1154.421;    0.501;  -14.150;  470.620
1154.958;    0.754;  -15.360;  595.240
1155.496;    1.950;  -14.710;  645.280
1156.034;    1.510;  -13.640;  721.880
1156.572;    2.464;  -13.740;  667.060
1157.110;    0.006;  -16.960;  473.940
1157.647;    2.266;  -11.940;  676.960
1158.185;    0.426;  -14.090;  564.320
1158.723;    0.172;  -13.610;  509.200
1159.260;    1.094;  -14.760;  701.700
1159.798;    1.545;  -13.700;  658.160
1160.335;    0.457;  -13.820;  631.820

