membrane
Integration time [ms]:   3.882
Averaging Nr. [scans]: 1000
Smoothing Nr. [pixels]: 0
Data measured with spectrometer [name]: 7414430SP
Wave   ;Sample   ;Dark     ;Reference
[nm]   ;[counts] ;[counts] ;[counts] 

288.544;  128.684;   10.292;  793.890
289.143;  130.857;    4.564;  681.602
289.742;  131.481;    6.144;  828.814
290.341;  119.916;    4.396;  789.841
290.940;  110.245;    0.938;  730.702
291.538;  110.164;   -0.684;  881.108
292.137;  108.729;   -2.845;  792.581
292.736;  114.276;   -0.144;  975.101
293.335;  111.236;   -6.352;  735.086
293.934;  111.477;   -7.642;  781.677
294.532;  111.493;   -4.992; 1031.958
295.131;   98.272;   -5.478;  834.394
295.730;   97.635;   -6.549;  809.588
296.328;   95.600;   -9.558;  783.442
296.927;   95.565;   -8.118;  779.652
297.525;   96.594;   -6.908;  781.236
298.124;   87.379;   -9.195;  654.009
298.722;   92.730;   -8.198;  761.933
299.321;   88.939;   -8.817;  708.597
299.919;   88.147;   -7.716;  751.918
300.518;   85.056;  -10.745;  689.338
301.116;   86.009;   -9.647;  691.381
301.715;   85.657;  -10.828;  730.222
302.313;   85.542;   -6.087;  704.943
302.911;   81.149;   -6.824;  733.830
303.509;   86.619;   -8.807;  925.627
304.108;   82.829;   -8.198;  760.383
304.706;   82.321;   -6.218;  801.664
305.304;   78.475;   -7.185;  796.707
305.902;   84.997;   -8.568;  784.484
306.500;   79.224;   -7.737;  728.200
307.098;   78.884;   -6.026;  746.560
307.696;   76.760;   -7.176;  780.432
308.294;   78.111;   -8.656;  731.359
308.892;   78.713;   -6.838;  759.769
309.490;   74.715;   -2.596;  712.161
310.088;   72.335;   -4.485;  788.444
310.686;   78.522;   -3.907;  821.749
311.284;   73.183;   -2.806;  766.040
311.882;   71.150;   -2.845;  731.225
312.480;   68.612;   -3.274;  697.167
313.078;   69.896;   -3.645;  808.331
313.675;   71.824;   -4.997;  691.600
314.273;   66.268;   -0.894;  797.837
314.871;   65.702;   -2.854;  589.829
315.468;   64.166;   -3.644;  652.090
316.066;   66.977;   -3.947;  694.427
316.664;   60.607;   -1.824;  656.351
317.261;   65.119;    1.565;  910.128
317.859;   60.711;   -3.955;  768.735
318.456;   61.186;   -2.886;  830.096
319.054;   57.819;   -0.995;  787.828
319.651;   57.448;   -1.765;  759.928
320.249;   56.236;   -3.685;  810.188
320.846;   54.218;   -3.736;  714.286
321.443;   52.158;   -2.065;  832.135
322.041;   49.060;   -5.635;  812.315
322.638;   48.411;   -5.985;  701.456
323.235;   48.789;   -6.677;  665.683
323.833;   46.988;   -3.497;  740.354
324.430;   43.805;   -6.756;  615.900
325.027;   44.658;   -7.647;  876.855
325.624;   44.254;   -7.598;  644.532
326.221;   42.522;   -5.848;  689.717
326.818;   42.785;   -5.777;  818.332
327.415;   44.137;   -8.769;  748.828
328.012;   43.479;   -6.299;  690.585
328.609;   42.126;   -6.639;  731.389
329.206;   40.952;   -6.358;  778.621
329.803;   39.641;   -8.698;  737.841
330.400;   39.946;   -8.379;  704.260
330.997;   42.733;   -6.178;  817.147
331.594;   40.493;   -5.646;  788.185
332.191;   45.135;   -6.928;  728.722
332.787;   46.054;   -6.057;  844.463
333.384;   43.962;   -6.445;  763.093
333.981;   41.709;   -8.002;  815.687
334.578;   44.189;   -8.443;  708.378
335.174;   45.414;   -6.053;  731.469
335.771;   45.567;   -5.791;  836.456
336.367;   42.909;   -6.570;  710.631
336.964;   45.332;   -6.741;  793.266
337.561;   45.501;   -5.710;  731.112
338.157;   42.171;   -3.928;  911.916
338.754;   37.362;   -5.577;  796.589
339.350;   37.649;   -9.667;  722.493
339.946;   40.191;   -5.269;  773.135
340.543;   32.392;   -4.485;  846.136
341.139;   27.484;   -7.584;  720.836
341.735;   26.008;   -8.553;  772.593
342.332;   23.593;   -4.984;  691.472
342.928;   26.040;   -3.475;  795.394
343.524;   19.939;   -6.653;  761.684
344.120;   16.782;   -7.173;  738.562
344.716;   19.823;   -4.385;  723.717
345.313;   17.310;   -3.565;  795.342
345.909;   13.664;   -7.495;  627.336
346.505;   15.826;   -8.276;  740.247
347.101;   16.118;   -5.697;  827.864
347.697;   16.780;   -4.767;  785.398
348.293;   11.725;   -7.226;  627.244
348.889;   12.337;   -7.547;  745.914
349.485;   12.238;   -9.147;  688.205
350.081;   13.188;   -6.568;  772.592
350.676;    8.917;   -6.516;  691.606
351.272;   13.320;   -7.378;  809.530
351.868;   12.080;   -6.759;  780.497
352.464;   10.121;   -4.798;  723.932
353.059;    6.839;   -7.977;  646.017
353.655;    9.767;   -8.769;  777.063
354.251;   10.825;   -5.920;  759.845
354.846;    5.183;   -7.647;  740.646
355.442;    4.226;   -6.956;  753.071
356.038;    6.020;   -9.928;  751.708
356.633;    5.481;   -7.698;  728.594
357.229;    3.826;   -6.307;  724.757
357.824;    2.138;   -7.647;  703.600
358.420;    2.329;  -10.047;  679.726
359.015;    1.570;   -7.458;  695.357
359.610;    2.938;   -5.748;  763.920
360.206;   -1.761;   -9.346;  603.240
360.801;    0.586;  -11.268;  646.503
361.396;    2.044;   -8.789;  725.975
361.992;   -1.907;   -6.347;  668.220
362.587;   -4.385;   -6.476;  670.160
363.182;   -2.021;   -9.457;  689.631
363.777;   -1.267;   -7.147;  738.242
364.372;   -1.218;   -5.507;  737.314
364.967;   -5.200;   -6.386;  680.744
365.563;   -0.161;   -7.858;  815.567
366.158;   -4.462;   -8.517;  685.161
366.753;   -2.835;   -8.728;  649.263
367.348;   -3.661;   -7.677;  746.056
367.942;   -4.240;  -10.387;  697.298
368.537;   -5.720;   -7.187;  754.245
369.132;   -4.593;   -8.587;  703.428
369.727;   -8.536;   -8.606;  638.079
370.322;   -7.853;  -10.426;  580.186
370.917;   -8.067;   -5.776;  710.646
371.511;   -4.758;   -6.007;  861.834
372.106;   -7.922;   -6.686;  776.964
372.701;  -11.325;   -9.335;  585.988
373.296;   -5.372;   -6.777;  863.135
373.890;  -10.606;   -7.546;  647.840
374.485;  -11.936;   -8.755;  691.199
375.079;   -7.485;   -9.797;  738.685
375.674;   -7.134;   -6.327;  812.970
376.268;  -10.991;   -9.046;  691.759
376.863;  -16.820;   -7.993;  580.327
377.457;  -10.849;   -9.206;  662.490
378.052;  -12.553;   -5.345;  764.884
378.646;  -12.658;   -5.605;  741.167
379.240;  -12.586;   -6.825;  721.176
379.835;  -11.649;  -10.476;  636.978
380.429;  -14.063;   -8.676;  562.557
381.023;  -14.179;   -4.945;  779.205
381.617;  -15.642;   -8.094;  680.106
382.212;  -12.682;  -10.646;  685.303
382.806;  -12.603;   -8.136;  760.690
383.400;  -15.091;   -7.855;  672.281
383.994;  -16.213;   -8.125;  664.870
384.588;  -12.174;   -7.637;  697.701
385.182;  -11.062;   -7.458;  726.624
385.776;  -12.627;   -6.277;  706.875
386.370;  -15.887;   -7.485;  681.968
386.964;  -14.280;   -9.416;  684.155
387.558;  -12.837;   -8.518;  598.360
388.152;  -15.561;   -7.096;  681.959
388.745;  -13.411;   -7.656;  814.707
389.339;  -12.459;   -8.927;  747.642
389.933;  -11.935;   -9.538;  695.370
390.527;  -12.474;   -5.857;  859.029
391.120;  -18.834;   -9.455;  595.318
391.714;  -15.616;   -9.746;  711.633
392.308;  -12.958;   -7.857;  780.253
392.901;  -15.925;   -9.106;  642.460
393.495;  -17.448;  -10.365;  595.414
394.089;  -15.767;   -9.696;  760.452
394.682;  -15.919;   -7.016;  697.188
395.275;  -17.033;   -8.466;  719.927
395.869;  -17.263;   -8.985;  667.314
396.462;  -16.274;  -11.496;  616.609
397.056;  -12.687;   -7.838;  776.621
397.649;  -16.490;   -6.895;  731.575
398.242;  -13.291;   -5.017;  712.645
398.836;  -13.299;   -8.787;  766.408
399.429;  -14.937;   -8.967;  631.041
400.022;  -17.361;   -8.815;  665.902
400.615;  -14.401;   -6.276;  805.609
401.208;  -13.321;   -8.407;  691.451
401.802;  -15.786;   -7.296;  699.329
402.395;  -16.423;   -7.585;  683.502
402.988;  -17.545;   -8.015;  696.627
403.581;  -13.363;   -9.577;  646.878
404.174;  -11.638;   -7.588;  686.568
404.767;  -14.643;   -7.906;  638.583
405.360;  -16.995;   -7.875;  621.445
405.953;  -11.393;   -8.127;  759.034
406.545;  -10.850;   -7.198;  725.342
407.138;  -14.282;   -8.916;  618.350
407.731;  -13.633;   -9.767;  613.303
408.324;   -9.080;  -10.659;  660.554
408.917;  -11.110;   -8.068;  681.864
409.509;  -12.435;   -9.837;  740.396
410.102;  -13.868;   -8.146;  643.948
410.695;   -7.954;   -7.969;  665.758
411.287;   -9.309;   -8.579;  599.821
411.880;  -10.441;   -6.968;  585.421
412.472;  -12.940;   -9.487;  613.092
413.065;   -9.031;  -10.338;  629.408
413.657;   -8.160;   -9.169;  576.678
414.250;   -7.426;  -10.119;  646.681
414.842;   -9.008;   -9.938;  676.353
415.434;   -6.740;  -10.409;  570.463
416.027;   -3.485;   -9.591;  652.196
416.619;   -4.991;   -7.379;  713.400
417.211;   -4.823;   -9.159;  599.352
417.804;   -0.451;   -9.191;  628.499
418.396;   -6.917;   -8.159;  607.643
418.988;   -2.786;   -6.960;  659.238
419.580;   -6.195;  -11.389;  568.276
420.172;   -4.304;  -13.460;  536.196
420.764;   -0.057;  -10.701;  672.482
421.356;   -0.507;   -8.961;  636.898
421.948;   -1.317;   -9.770;  677.661
422.540;    3.759;   -8.832;  680.027
423.132;    2.516;   -8.153;  600.641
423.724;   -1.143;   -8.481;  561.267
424.316;    1.435;   -9.261;  621.345
424.908;    5.724;   -9.643;  591.517
425.500;    5.887;   -8.663;  647.978
426.092;    5.980;   -8.503;  648.268
426.683;    5.603;  -10.522;  684.836
427.275;    8.527;  -11.734;  641.471
427.867;    9.178;  -10.264;  668.948
428.458;   10.318;   -7.644;  732.344
429.050;    8.781;   -7.853;  680.749
429.642;   11.596;   -8.904;  743.124
430.233;   11.270;  -10.795;  569.356
430.825;   13.276;   -7.665;  724.809
431.416;   11.228;   -8.843;  698.241
432.008;   14.440;   -9.885;  651.723
432.599;   14.743;   -9.966;  656.073
433.190;   12.067;   -9.164;  637.670
433.782;   11.569;   -8.584;  590.395
434.373;   19.852;   -8.296;  884.765
434.964;   16.714;   -9.896;  602.920
435.556;   15.235;   -8.255;  634.537
436.147;   18.614;   -8.075;  758.490
436.738;   18.234;   -9.716;  701.099
437.329;   22.980;   -7.318;  721.723
437.920;   16.974;   -6.694;  666.688
438.511;   16.798;   -9.644;  564.526
439.103;   23.326;   -9.427;  623.998
439.694;   25.064;  -10.748;  681.583
440.285;   26.000;   -7.997;  764.432
440.876;   24.985;  -10.046;  845.738
441.466;   23.356;  -13.467;  575.162
442.057;   28.307;   -9.329;  665.814
442.648;   27.955;   -7.707;  746.255
443.239;   26.111;   -9.017;  620.477
443.830;   31.454;  -10.279;  704.958
444.421;   32.542;  -12.630;  655.474
445.011;   29.575;   -8.697;  693.619
445.602;   29.376;   -7.787;  743.126
446.193;   31.102;  -13.329;  488.117
446.783;   35.605;   -9.171;  640.397
447.374;   31.694;   -7.457;  692.759
447.964;   32.777;   -9.277;  713.770
448.555;   41.503;   -9.041;  822.742
449.145;   36.459;   -8.969;  662.853
449.736;   37.547;   -6.809;  803.179
450.326;   39.355;   -7.229;  713.626
450.917;   42.908;  -11.391;  675.324
451.507;   41.133;   -9.501;  600.661
452.097;   43.056;   -8.460;  746.267
452.688;   45.148;  -10.080;  742.160
453.278;   43.644;  -12.861;  566.840
453.868;   48.709;   -8.372;  793.550
454.458;   46.468;   -8.131;  651.141
455.048;   46.430;   -8.520;  711.783
455.639;   48.874;  -13.632;  567.096
456.229;   52.006;  -10.143;  710.694
456.819;   54.263;   -9.163;  751.158
457.409;   55.036;   -8.652;  773.993
457.999;   59.016;   -9.933;  737.505
458.589;   56.943;  -10.363;  686.606
459.179;   56.712;  -10.633;  717.658
459.769;   55.705;  -12.442;  627.099
460.358;   61.313;   -9.844;  797.262
460.948;   59.996;   -9.924;  689.503
461.538;   62.805;  -10.484;  660.677
462.128;   60.277;  -10.703;  664.934
462.717;   66.378;  -11.486;  710.326
463.307;   69.558;  -10.767;  705.846
463.897;   65.881;   -8.814;  656.942
464.486;   65.960;   -8.182;  837.128
465.076;   70.146;   -9.985;  733.776
465.666;   73.227;  -10.447;  652.900
466.255;   71.037;   -7.754;  785.651
466.845;   69.916;  -10.884;  666.749
467.434;   74.092;  -12.525;  725.873
468.023;   74.312;  -11.456;  658.357
468.613;   71.994;   -9.173;  713.946
469.202;   77.209;   -9.306;  646.507
469.791;   80.755;   -8.917;  737.811
470.381;   82.517;   -9.657;  742.813
470.970;   82.387;   -9.947;  711.099
471.559;   82.839;   -9.256;  733.291
472.148;   85.349;  -13.397;  675.737
472.738;   87.585;   -9.928;  765.466
473.327;   88.179;  -10.897;  637.529
473.916;   87.826;   -8.526;  737.446
474.505;   92.299;  -11.078;  751.703
475.094;   95.119;   -9.559;  806.570
475.683;   94.476;   -8.838;  797.699
476.272;   95.650;  -10.198;  730.632
476.861;   98.559;  -11.489;  706.754
477.449;  104.676;  -10.721;  728.487
478.038;   99.303;   -9.818;  692.513
478.627;  100.452;   -9.887;  714.852
479.216;  107.944;  -10.030;  769.441
479.805;  110.045;   -9.401;  783.375
480.393;  111.052;   -5.739; 1008.945
480.982;  110.280;   -7.838;  874.501
481.571;  116.208;   -9.111;  858.333
482.159;  115.655;  -10.601;  705.386
482.748;  116.965;   -8.500;  821.385
483.336;  121.372;   -9.241;  858.209
483.925;  122.760;  -10.440;  774.373
484.513;  128.413;  -11.063;  758.962
485.102;  126.363;   -9.540;  810.965
485.690;  136.211;   -6.742; 1011.050
486.278;  137.805;   -8.442;  979.329
486.867;  137.635;  -10.472;  809.662
487.455;  140.582;   -8.811;  898.229
488.043;  141.718;  -10.721;  748.361
488.631;  152.111;  -10.393; 1005.079
489.220;  154.868;  -10.843;  908.626
489.808;  155.065;  -10.572;  741.415
490.396;  163.927;  -10.482;  914.645
490.984;  171.622;  -11.542;  830.161
491.572;  181.897;   -8.463;  940.315
492.160;  187.878;   -8.491;  919.081
492.748;  198.326;   -9.681;  884.341
493.336;  219.146;  -10.493; 1019.693
493.924;  247.502;   -9.354;  958.077
494.512;  282.854;   -9.132; 1066.638
495.100;  326.143;   -9.001; 1103.280
495.687;  381.798;  -11.924; 1206.373
496.275;  457.188;  -11.193; 1150.796
496.863;  569.012;   -9.241; 1281.171
497.451;  695.651;  -11.341; 1386.805
498.038;  806.335;  -11.364; 1556.729
498.626;  929.666;   -8.104; 1741.407
499.214; 1134.573;   -8.842; 2016.609
499.801; 1356.055;  -10.112; 2220.633
500.389; 1584.001;  -11.953; 2312.494
500.976; 1869.676;  -10.023; 2744.849
501.564; 2208.274;   -8.662; 3148.565
502.151; 2621.470;  -10.531; 3515.999
502.738; 3029.990;  -13.853; 3971.274
503.326; 3653.830;  -10.794; 4403.796
503.913; 4323.456;   -8.663; 5161.749
504.500; 4760.289;  -10.172; 5986.420
505.088; 5135.968;  -13.472; 6381.201
505.675; 5923.598;  -10.924; 6925.547
506.262; 6806.145;   -8.551; 7619.060
506.849; 7705.223;  -10.523; 8733.969
507.436; 8449.108;  -10.834; 9790.121
508.023; 8681.908;   -9.093; 9985.472
508.610; 9159.922;  -10.073;10434.618
509.197; 9750.848;   -9.500;11198.435
509.784;11138.652;  -13.242;12391.194
510.371;12013.499;  -10.964;13603.713
510.958;11825.477;   -9.772;14426.586
511.545;12989.219;   -7.842;15243.775
512.132;13401.229;  -12.184;15945.876
512.719;13532.334;   -9.733;16340.369
513.305;15613.589;   -9.172;18011.766
513.892;17451.635;   -9.581;19754.971
514.479;19522.689;  -10.253;20967.805
515.066;21955.035;   -8.183;22299.793
515.652;23353.266;   -9.253;22908.660
516.239;24315.549;   -9.412;23798.875
516.825;26874.941;  -11.153;25567.275
517.412;26947.398;  -10.263;28154.959
517.998;27289.359;   -8.802;28344.111
518.585;26935.736;  -10.401;27134.219
519.171;26494.807;  -12.744;27268.576
519.758;28403.908;  -11.793;28964.129
520.344;30982.496;   -8.912;30664.494
520.930;30703.307;  -10.901;32550.605
521.516;31295.754;  -12.034;35422.895
522.103;32201.725;  -10.473;38280.004
522.689;33815.777;   -8.311;37835.117
523.275;37882.531;  -10.691;37288.613
523.861;39369.727;  -11.193;37281.395
524.447;39977.230;  -11.484;37846.949
525.033;39770.121;   -7.702;38321.949
525.619;39378.012;  -11.241;38579.285
526.205;40874.957;  -12.152;40622.875
526.791;40594.605;  -11.423;42258.836
527.377;37627.414;   -7.981;42966.902
527.963;38020.078;   -9.450;42018.949
528.549;42085.457;  -11.351;42476.828
529.135;44048.070;  -10.202;41854.852
529.721;42874.957;   -8.672;41237.711
530.306;40906.047;   -9.111;41259.445
530.892;42299.168;  -11.252;41506.047
531.478;44556.578;  -10.432;43559.613
532.063;47409.297;  -10.721;47695.563
532.649;49492.523;   -7.450;50808.324
533.235;49937.113;  -11.811;51787.500
533.820;49899.371;   -9.383;52145.035
534.406;49148.449;   -9.400;51133.488
534.991;48141.586;   -8.861;49996.805
535.576;46307.914;  -10.612;48882.852
536.162;44347.453;   -7.322;46942.285
536.747;45357.762;   -9.360;45711.746
537.333;47617.211;  -10.450;48510.180
537.918;49312.500;  -12.610;50439.891
538.503;50915.746;  -12.132;50863.711
539.088;48632.762;  -10.831;50906.922
539.673;45963.691;  -11.220;52621.965
540.259;47360.477;  -11.481;52368.094
540.844;50236.254;  -11.462;50879.109
541.429;52033.602;   -7.869;52077.777
542.014;53201.906;  -11.859;52716.695
542.599;52512.398;  -11.061;52363.281
543.184;51737.168;  -12.300;53187.137
543.769;50915.066;   -9.369;54697.605
544.354;50820.102;  -12.020;53913.914
544.938;47655.227;  -10.350;49680.164
545.523;44764.359;  -10.841;47386.277
546.108;46365.434;   -8.579;49151.949
546.693;49012.422;   -8.818;51384.637
547.278;50200.461;  -11.331;51853.254
547.862;46686.738;  -10.292;51173.750
548.447;42546.102;   -8.349;51691.395
549.031;43682.449;  -10.838;52456.703
549.616;49417.805;  -11.681;52714.516
550.201;52840.266;  -11.140;52414.598
550.785;51062.805;   -8.649;52355.059
551.370;50996.672;  -11.889;54589.453
551.954;50972.758;  -11.239;58267.348
552.538;50423.383;   -8.850;59062.176
553.123;51630.422;  -10.829;58115.285
553.707;51836.930;   -8.887;56556.285
554.291;50842.465;  -10.430;56201.668
554.876;48804.324;   -9.799;55335.762
555.460;49883.234;  -10.018;54155.703
556.044;51192.488;   -7.307;53721.484
556.628;48098.758;  -12.229;53731.016
557.212;44783.379;   -9.820;54312.531
557.796;44049.617;   -9.109;53797.773
558.380;46079.695;   -9.707;56145.984
558.964;45034.809;  -10.980;57277.930
559.548;45352.805;  -12.010;56459.641
560.132;48904.738;   -7.928;54434.543
560.716;50587.996;  -10.247;54800.617
561.300;50403.086;  -11.250;57606.945
561.884;52313.797;  -10.568;58972.445
562.467;50947.656;   -9.727;57327.570
563.051;49550.641;  -11.847;54962.434
563.635;48324.160;  -10.747;52594.473
564.219;44871.168;  -13.108;50610.410
564.802;41585.480;  -11.417;49551.180
565.386;42748.742;  -10.457;48370.953
565.969;44705.293;   -8.959;48178.871
566.553;44233.832;  -10.328;49957.305
567.136;42973.293;  -10.257;50369.594
567.720;42617.914;  -10.186;49492.004
568.303;42747.309;  -10.027;50616.352
568.887;43776.340;  -10.397;50727.148
569.470;42206.004;   -8.185;51698.379
570.053;41284.297;  -11.596;52122.078
570.637;41273.117;  -11.378;52536.438
571.220;41037.004;   -9.138;51186.098
571.803;40257.168;   -7.675;51032.762
572.386;38698.688;   -8.976;49609.887
572.969;36125.340;  -12.477;48285.926
573.552;37113.207;   -9.767;47624.285
574.135;37630.797;   -8.175;45498.641
574.718;34146.941;  -11.096;41970.434
575.301;32221.936;  -11.966;41447.137
575.884;30296.932;  -12.836;40923.836
576.467;34386.258;   -9.116;45267.723
577.050;35355.645;  -10.536;48175.543
577.633;36428.113;  -11.027;47729.328
578.216;37507.992;   -9.946;47579.793
578.799;37626.418;   -9.645;47820.996
579.381;38812.973;   -9.446;48115.551
579.964;40479.590;  -12.217;47333.766
580.547;41461.582;  -10.586;46668.969
581.129;41576.094;   -8.374;44466.141
581.712;39271.086;  -10.434;44164.922
582.294;36949.941;  -10.896;46477.855
582.877;37095.152;   -8.906;48244.254
583.459;38196.684;   -9.994;47437.895
584.042;38806.113;  -10.084;46943.219
584.624;38862.156;  -13.534;46792.227
585.206;36898.230;  -12.716;46557.250
585.789;37304.504;  -11.614;45793.773
586.371;35378.676;  -10.203;43836.391
586.953;32662.309;  -10.314;42972.492
587.536;33251.113;   -9.776;42487.211
588.118;34816.598;   -9.821;42086.414
588.700;36154.656;  -10.073;43389.930
589.282;34636.805;  -12.395;43646.039
589.864;33762.230;  -11.514;43438.109
590.446;33779.949;  -10.803;43151.926
591.028;32908.367;  -11.043;42781.867
591.610;33144.883;  -13.244;42839.098
592.192;33083.707;  -11.095;42820.402
592.774;31610.336;  -10.823;40724.277
593.356;30810.191;  -11.052;39874.789
593.937;32348.883;  -11.664;39980.648
594.519;36192.945;  -10.454;42069.633
595.101;39050.191;  -10.322;42976.031
595.683;38297.008;  -10.042;44084.441
596.264;34516.656;  -14.334;43478.797
596.846;35662.340;  -10.863;43803.672
597.427;34548.422;   -9.901;42986.934
598.009;32875.512;  -10.911;42832.219
598.591;33361.852;  -10.483;42580.086
599.172;35045.801;   -9.663;43061.805
599.753;36029.648;  -10.631;41691.469
600.335;36412.613;   -9.371;40692.520
600.916;34387.570;  -13.992;39982.422
601.498;33688.922;   -8.352;40318.617
602.079;34269.988;   -8.411;40670.609
602.660;33987.973;  -10.841;41450.898
603.241;33599.668;  -12.963;41137.738
603.823;34286.805;  -11.523;38868.797
604.404;34000.820;  -11.881;38182.785
604.985;34739.496;  -11.721;38078.047
605.566;34452.422;   -9.293;38056.633
606.147;32965.879;  -10.940;37020.418
606.728;34654.906;  -11.840;37883.359
607.309;35610.730;  -11.781;38748.273
607.890;35808.359;  -11.262;38850.230
608.471;34056.441;  -10.111;37457.918
609.051;33811.875;   -7.709;36066.457
609.632;31065.398;  -12.409;35991.074
610.213;31215.885;  -10.811;37402.641
610.794;32634.689;  -11.630;38383.363
611.374;36328.297;   -8.030;40562.387
611.955;36678.039;  -10.809;38533.727
612.536;35270.926;  -10.531;36951.789
613.116;35204.270;  -12.820;37197.891
613.697;36305.469;  -11.419;38411.125
614.277;37408.105;   -9.768;38673.938
614.858;34148.738;  -10.251;37075.863
615.438;30497.217;  -11.981;35092.906
616.019;28210.457;   -8.978;33666.301
616.599;30612.664;  -12.219;34189.023
617.179;32834.754;  -14.170;36952.047
617.760;33732.395;   -9.211;39582.574
618.340;33774.922;   -9.018;38943.977
618.920;34089.246;   -9.249;37594.156
619.500;34231.422;  -12.728;37866.938
620.080;34701.781;  -12.939;37869.043
620.660;35832.641;  -11.586;36868.617
621.241;35403.047;  -11.538;36352.309
621.821;34018.609;  -11.398;35459.520
622.401;32490.064;  -10.179;35207.414
622.980;32351.465;  -11.587;35980.422
623.560;33884.625;  -12.888;37351.328
624.140;32202.086;  -13.149;34388.582
624.720;27969.467;   -9.928;32368.764
625.300;27595.619;  -10.869;32638.629
625.880;30377.119;   -8.617;34599.035
626.459;31355.480;  -12.138;36831.738
627.039;33721.582;  -12.267;38299.098
627.619;37126.590;   -7.476;38289.574
628.198;38896.898;  -11.347;37220.695
628.778;36317.461;  -11.678;37632.563
629.357;33689.781;  -12.438;38003.012
629.937;32891.590;   -9.576;38402.039
630.516;32539.668;  -11.096;37868.801
631.096;33482.477;  -11.828;35760.410
631.675;34874.922;  -11.565;35225.219
632.254;35454.008;  -11.845;35130.289
632.834;37011.559;  -11.545;35794.570
633.413;36465.492;  -10.887;35788.922
633.992;36015.070;  -10.175;34532.863
634.571;36571.105;   -9.704;33590.113
635.151;34967.699;  -10.815;34943.863
635.730;33653.996;  -11.617;35352.523
636.309;33508.172;  -10.836;35366.605
636.888;34275.270;   -9.755;36165.637
637.467;34400.879;  -11.684;37515.902
638.046;34462.113;  -11.987;39288.695
638.625;34063.277;  -10.455;38279.699
639.204;33781.266;  -11.234;37741.598
639.782;34556.609;  -12.023;38364.551
640.361;32748.414;  -11.506;36740.621
640.940;29671.426;  -12.316;34950.082
641.519;27620.885;  -11.616;34137.398
642.097;29902.859;   -9.266;35654.258
642.676;33885.492;  -12.936;35637.957
643.255;34711.789;   -9.966;36567.074
643.833;35307.523;   -8.916;37809.434
644.412;33120.469;  -10.936;37337.293
644.990;32244.727;  -12.176;37018.531
645.569;33189.047;  -12.246;36518.469
646.147;36104.527;  -12.107;36186.430
646.726;38946.449;  -12.937;36267.688
647.304;35895.047;  -12.547;36647.625
647.882;34650.461;  -12.597;39286.742
648.461;33911.043;   -9.427;39157.703
649.039;33985.188;   -8.937;35412.883
649.617;34824.438;  -11.067;34744.918
650.195;33303.352;  -10.657;35403.098
650.773;30597.525;  -10.097;35053.797
651.352;29963.260;  -11.887;33756.816
651.930;28774.771;  -13.557;31868.773
652.508;28621.160;  -11.767;33121.551
653.086;31533.223;  -10.777;33564.793
653.663;34404.992;  -12.067;34054.668
654.241;37194.902;  -14.918;35693.309
654.819;37018.148;  -11.788;36422.906
655.397;34794.785;  -11.268;38213.484
655.975;32864.188;  -11.738;39507.625
656.553;30880.691;  -11.018;39498.223
657.130;29625.875;  -12.848;40395.480
657.708;28387.955;  -10.098;39242.020
658.286;29405.281;  -11.678;38920.020
658.863;32131.939;  -11.498;40202.898
659.441;35140.727;  -11.008;39677.938
660.018;37105.387;  -11.048;40413.355
660.596;37945.332;  -12.058;39931.414
661.173;38424.324;  -14.158;39604.531
661.750;37577.723;  -12.298;39700.070
662.328;36811.887;  -10.699;39292.809
662.905;36274.570;  -12.119;38235.648
663.482;32429.070;  -11.829;36212.305
664.060;28477.621;  -11.009;35944.945
664.637;31696.994;  -10.369;35170.785
665.214;34421.523;  -10.459;34197.523
665.791;33606.973;  -12.599;34549.520
666.368;31016.451;  -12.919;35118.578
666.945;29188.756;  -10.699;36019.418
667.522;30338.117;  -11.359;36048.438
668.099;30957.281;  -13.529;36243.914
668.676;29655.475;  -10.229;35958.875
669.253;29220.799;   -9.279;37384.730
669.830;28815.785;  -11.370;36779.629
670.407;28615.656;  -10.950;35231.289
670.984;29570.510;  -12.850;35544.270
671.560;28415.318;   -8.440;35466.867
672.137;29422.516;  -13.520;34280.863
672.714;31177.201;  -13.620;34632.863
673.290;31767.004;  -10.450;35135.422
673.867;30595.078;  -10.960;36114.480
674.443;31418.080;  -13.300;36152.859
675.020;29656.225;  -12.370;35327.238
675.596;29039.176;  -11.250;35795.176
676.173;29712.225;  -11.080;35430.355
676.749;29458.490;  -13.220;33549.516
677.326;30421.377;  -13.000;32210.012
677.902;30207.637;  -12.701;32068.871
678.478;28750.744;  -12.801;32583.891
679.054;29360.754;   -8.601;32088.928
679.631;30413.922;  -12.631;30978.848
680.207;31377.951;   -9.451;33160.887
680.783;30941.799;  -11.701;35570.363
681.359;31339.262;  -12.701;36125.184
681.935;33162.883;  -13.271;35240.922
682.511;35176.836;  -10.791;34429.961
683.087;33135.719;  -10.791;34463.680
683.663;29715.078;   -8.121;34648.898
684.239;27302.385;  -13.261;34546.457
684.815;27903.354;  -10.581;35586.375
685.390;29855.355;   -9.961;35821.895
685.966;29318.869;  -11.182;35085.871
686.542;28528.084;  -13.512;34198.230
687.118;26560.000;  -11.472;32847.707
687.693;25430.146;  -10.152;32794.027
688.269;25851.359;  -14.442;33072.367
688.844;24903.600;  -11.852;33141.664
689.420;23875.186;  -13.942;33965.742
689.995;25098.998;   -9.702;34655.523
690.571;26856.148;  -11.312;33576.742
691.146;27008.885;  -14.332;32657.219
691.722;26661.184;  -11.192;32526.979
692.297;27483.135;  -10.962;33014.617
692.872;28926.523;  -11.082;34012.254
693.448;29630.350;  -14.732;34237.434
694.023;28933.342;  -12.363;34142.672
694.598;27194.385;  -12.393;34132.031
695.173;27834.857;  -11.023;34205.250
695.748;29415.141;  -12.743;32882.488
696.323;28887.525;  -11.103;32864.906
696.898;28211.539;   -8.123;33170.004
697.473;27904.891;  -12.603;32432.984
698.048;28127.777;  -12.553;31649.303
698.623;29355.150;  -12.573;30778.141
699.198;29016.059;  -12.743;31140.119
699.773;28308.246;  -12.843;31764.299
700.348;28907.320;  -16.683;31780.816
700.922;30033.008;  -11.403;32046.375
701.497;31560.430;  -11.253;32603.574
702.072;30878.680;  -10.044;34799.871
702.646;30139.924;  -13.054;35793.172
703.221;30768.539;  -11.414;35201.590
703.795;30137.574;  -10.644;34764.527
704.370;28074.291;  -13.484;34307.367
704.944;27038.410;  -12.144;33509.887
705.519;26530.820;  -12.024;31388.584
706.093;28281.201;  -11.234;31340.104
706.668;29650.980;   -9.874;32630.281
707.242;28875.396;  -12.404;32728.779
707.816;27113.266;  -10.644;32947.238
708.390;26507.727;  -11.174;33277.855
708.965;26419.875;  -10.324;33834.336
709.539;27068.885;  -12.014;33709.273
710.113;27392.635;  -12.295;33044.313
710.687;28886.816;  -10.965;31953.992
711.261;30986.234;  -13.685;30505.949
711.835;29593.033;  -15.335;30262.369
712.409;28341.268;  -13.785;31254.447
712.983;28564.281;  -10.525;32754.986
713.557;26832.006;  -13.175;34018.824
714.131;26493.576;  -13.245;34579.625
714.704;29433.699;  -13.175;33890.262
715.278;31801.545;  -11.545;33531.102
715.852;30587.725;  -10.975;33601.660
716.425;28998.844;  -10.075;33515.117
716.999;29323.473;  -12.185;33185.555
717.573;31570.096;   -9.685;33905.996
718.146;32495.174;  -10.516;35199.293
718.720;31148.676;  -12.106;35060.551
719.293;29429.025;  -12.386;34973.230
719.867;29215.164;  -12.456;36394.449
720.440;28974.416;  -10.686;36663.008
721.013;28965.361;  -12.596;35102.426
721.587;30410.211;  -13.956;33985.266
722.160;32501.795;   -9.806;33524.965
722.733;33357.316;  -11.676;32987.043
723.306;32943.031;  -14.276;33066.301
723.880;30738.420;  -12.126;33399.500
724.453;28340.330;  -10.156;33468.297
725.026;27953.639;  -12.956;33816.637
725.599;28009.203;  -11.676;32797.996
726.172;28280.459;  -12.337;33187.434
726.745;28432.230;  -11.277;35136.613
727.318;28428.482;  -11.927;35751.730
727.891;27787.703;  -13.607;35890.430
728.463;25622.158;  -11.327;34822.090
729.036;25433.264;  -11.917;32895.086
729.609;27116.875;  -12.697;31823.225
730.182;28002.848;  -11.787;31445.283
730.754;27598.252;  -12.957;32373.223
731.327;27212.076;  -11.017;33676.820
731.900;26808.111;  -12.797;33417.000
732.472;26175.424;  -10.677;31978.498
733.045;25628.385;  -12.797;30368.777
733.617;25869.387;  -13.908;30574.215
734.190;24901.473;  -12.258;31280.975
734.762;25047.180;  -13.438;31674.412
735.334;26376.514;  -11.758;31247.291
735.907;28981.094;  -11.158;29876.211
736.479;32135.748;  -11.258;29808.488
737.051;32483.543;  -10.918;30233.547
737.623;31349.588;  -11.038;31469.086
738.195;32635.320;  -12.188;31784.225
738.768;30462.100;  -11.378;32120.523
739.340;24748.729;  -12.598;32094.342
739.912;22984.723;  -11.568;31312.680
740.484;24706.211;   -9.348;31946.238
741.056;27378.225;  -12.628;32984.059
741.628;29353.467;  -13.349;33897.715
742.199;28231.766;  -11.309;33213.016
742.771;28290.225;  -12.699;31369.113
743.343;29037.285;  -11.919;31865.473
743.915;28944.045;  -11.679;32388.631
744.487;27743.189;  -12.249;31079.568
745.058;25706.475;  -11.119;30570.107
745.630;24549.270;   -9.439;29970.127
746.201;23674.328;  -11.949;29186.766
746.773;23645.285;  -12.639;28805.723
747.344;24685.791;  -11.039;29591.223
747.916;26726.850;  -12.549;31412.201
748.487;25785.904;  -12.659;32194.898
749.059;24159.152;  -13.059;32533.719
749.630;23348.158;  -12.080;32158.518
750.201;21729.883;  -13.100;30855.395
750.773;20997.734;  -15.310;28622.555
751.344;20855.410;  -12.240;28405.732
751.915;21083.244;  -11.960;28461.551
752.486;20225.713;  -13.200;27842.850
753.057;18872.348;  -15.230;27845.008
753.628;19880.914;  -13.130;27728.107
754.199;22252.594;  -12.720;27381.086
754.770;22394.637;  -10.680;25882.203
755.341;21004.105;  -11.010;25886.184
755.912;20481.693;  -12.990;26050.861
756.483;19961.061;  -11.110;26798.779
757.054;19582.115;  -12.190;27048.238
757.625;19574.594;  -13.981;26294.838
758.195;19674.277;  -11.041;26142.076
758.766;20758.904;  -11.861;26392.234
759.337;21178.590;  -11.461;26334.594
759.907;20461.824;  -15.001;27579.652
760.478;19226.197;   -9.681;28352.770
761.048;18099.229;  -12.421;27325.088
761.619;18992.293;  -11.761;26460.428
762.189;19591.291;  -12.391;26029.826
762.760;19001.111;  -10.201;26430.145
763.330;19596.389;  -10.811;26670.902
763.900;20174.918;  -10.261;26603.021
764.471;19189.664;  -13.061;25542.740
765.041;17806.002;  -11.051;24358.459
765.611;17699.021;  -11.032;23991.297
766.181;17855.834;  -10.532;24470.236
766.751;18187.365;  -13.502;24845.975
767.321;19281.184;  -11.392;24533.633
767.891;20975.869;  -11.522;24916.492
768.461;22277.602;  -13.672;24776.771
769.031;20000.914;  -14.652;24757.988
769.601;17247.498;  -10.182;24181.088
770.171;16065.273;  -11.752;23670.387
770.741;15136.381;  -12.272;22960.045
771.311;14847.569;  -13.112;22917.523
771.880;15763.402;  -14.122;23562.941
772.450;16507.105;  -11.782;24216.500
773.020;16721.568;  -12.642;24140.398
773.589;15877.279;  -13.043;24414.857
774.159;15244.526;  -11.783;23858.717
774.729;16003.901;  -13.473;22942.135
775.298;16746.719;  -14.523;22324.033
775.867;16408.393;  -12.013;21140.313
776.437;15738.210;  -12.113;20838.092
777.006;15401.948;  -13.543;20599.510
777.576;16006.457;  -12.523;20508.809
778.145;16169.738;  -12.173;20732.947
778.714;15498.940;  -12.153;21062.465
779.283;14682.124;  -11.833;20949.664
779.853;14776.714;  -13.483;20508.623
780.422;14957.560;  -12.933;20649.082
780.991;14538.976;  -13.173;21527.520
781.560;14281.790;  -10.224;22632.658
782.129;14717.990;  -12.684;23048.277
782.698;14772.728;  -11.284;23438.555
783.267;14644.629;  -11.684;23267.734
783.836;14410.896;  -10.974;22415.133
784.404;13997.529;  -13.534;20443.152
784.973;13154.776;  -16.734;19699.150
785.542;11984.102;  -12.594;19763.828
786.111;11591.246;  -11.644;20341.408
786.679;12592.323;  -11.384;20207.967
787.248;12853.445;  -12.014;19516.465
787.817;11695.314;  -12.804;18900.363
788.385;10451.559;  -11.994;17879.121
788.954;10759.942;  -12.564;17658.301
789.522;11731.819;  -12.225;17788.879
790.090;11744.069;  -13.775;18118.277
790.659;11583.507;  -12.485;18338.736
791.227;12273.353;  -12.295;18508.615
791.795;12934.767;  -13.415;17898.254
792.364;13366.410;  -12.995;17295.133
792.932;13086.791;   -8.365;16822.051
793.500;11964.874;  -11.925;17040.148
794.068;12017.008;  -13.245;17179.787
794.636;12791.725;  -13.815;16664.246
795.204;12846.644;  -13.375;16524.545
795.772;12618.270;  -12.125;17274.564
796.340;11811.560;  -13.855;17891.002
796.908;10261.354;  -13.456;17648.561
797.476; 9431.377;  -13.116;17064.080
798.044; 9632.311;  -13.226;16672.777
798.612; 9959.109;  -11.236;17023.996
799.180; 9876.447;  -10.476;16561.615
799.747; 9474.269;  -11.746;15962.773
800.315; 8982.732;  -12.366;15296.992
800.883; 8342.852;  -14.616;14801.771
801.450; 8423.735;  -11.996;14534.430
802.018; 9262.363;  -11.206;14173.248
802.585; 9716.974;  -12.466;14029.547
803.153; 9285.575;  -12.846;13836.846
803.720; 8686.591;  -12.136;13567.324
804.287; 8784.835;  -10.966;13360.622
804.855; 8908.239;   -9.797;13681.981
805.422; 8187.482;  -13.037;13536.560
805.989; 7528.575;  -12.697;13355.958
806.556; 7687.728;  -11.737;13747.896
807.124; 8376.287;  -11.997;13987.376
807.691; 8198.218;  -13.997;14038.674
808.258; 7591.265;  -10.927;14120.152
808.825; 7789.552;  -13.727;13860.111
809.392; 7862.800;  -11.847;13268.790
809.959; 7880.604;  -14.217;12680.389
810.526; 7869.971;   -8.277;12427.308
811.093; 7997.852;   -9.647;12030.105
811.659; 8041.208;  -10.987;11653.664
812.226; 7454.364;  -13.447;11637.183
812.793; 7003.281;  -14.418;11611.521
813.360; 7177.514;  -13.908;11885.181
813.926; 7662.904;  -12.918;12770.539
814.493; 7907.236;  -14.888;12677.638
815.060; 7531.354;  -12.758;11974.336
815.626; 7244.152;  -13.478;11594.715
816.193; 7209.820;  -13.898;11579.474
816.759; 7335.916;  -13.588;11666.972
817.325; 7336.198;  -12.018;11325.530
817.892; 7000.316;  -14.068;11105.369
818.458; 7037.509;  -13.458;10843.928
819.024; 6950.373;  -11.968;10714.406
819.591; 6725.646;  -11.028;10469.165
820.157; 6805.458;  -12.088;10235.523
820.723; 6941.525;  -12.599;10847.563
821.289; 6691.574;  -10.419;11040.980
821.855; 6504.432;  -10.939;10357.100
822.421; 6490.911;  -12.539; 9978.918
822.987; 6429.601;  -13.259; 9754.177
823.553; 6224.770;  -15.369;10065.755
824.119; 6086.067;  -10.779;10036.294
824.685; 6087.615;   -9.999;10029.192
825.251; 5953.650;  -11.819;10199.230
825.816; 5884.827;  -13.369; 9820.189
826.382; 5775.847;  -12.679; 9297.248
826.948; 5333.708;  -11.199; 9381.347
827.513; 5151.170;  -11.179; 9450.726
828.079; 5269.607;  -13.489; 9472.444
828.645; 5393.433;  -12.500; 9292.643
829.210; 5386.504;  -15.120; 9065.341
829.776; 5337.175;  -12.590; 9132.620
830.341; 5456.416;  -11.540; 9092.878
830.906; 5811.185;  -12.400; 9078.557
831.472; 5789.807;  -12.720; 8534.535
832.037; 5086.620;  -11.490; 8677.874
832.602; 4436.053;  -14.380; 8628.692
833.167; 4184.386;  -12.780; 8879.031
833.733; 4429.342;  -11.100; 9189.790
834.298; 4785.401;  -12.080; 9052.608
834.863; 4620.123;  -13.910; 8895.087
835.428; 4332.594;  -13.470; 8824.266
835.993; 4179.752;  -11.760; 8845.385
836.558; 4354.919;  -12.731; 8888.563
837.123; 4503.792;  -12.431; 8966.582
837.688; 4346.950;  -11.241; 8617.860
838.253; 4170.879;  -13.681; 8590.699
838.817; 4287.050;  -12.531; 8443.797
839.382; 4416.174;  -12.671; 8799.356
839.947; 4474.393;  -11.541; 8810.595
840.511; 4600.541;  -12.021; 8796.394
841.076; 4670.435;  -13.071; 8347.231
841.641; 4878.060;  -11.411; 8224.330
842.205; 5119.408;  -13.671; 8223.349
842.770; 5009.708;  -11.291; 8622.107
843.334; 4713.836;  -12.951; 8410.386
843.898; 4448.577;  -11.221; 8337.465
844.463; 4505.604;  -11.322; 8506.283
845.027; 4505.307;  -11.412; 8280.962
845.591; 4259.494;  -11.512; 8231.141
846.156; 4120.292;  -14.042; 7969.179
846.720; 4167.142;  -12.152; 7768.278
847.284; 3977.973;  -10.922; 7630.957
847.848; 3789.666;  -10.962; 7472.395
848.412; 3576.903;  -14.612; 7437.394
848.976; 3575.224;  -11.492; 7674.592
849.540; 3852.136;   -9.172; 7836.011
850.104; 4052.782;  -11.232; 7913.669
850.668; 3975.330;  -15.182; 7694.508
851.232; 3849.164;  -15.332; 7756.887
851.796; 3792.561;  -13.703; 7926.545
852.359; 3847.115;  -11.113; 7827.844
852.923; 3938.625;  -11.843; 7641.163
853.487; 3909.755;  -11.173; 7342.501
854.050; 3788.135;  -13.443; 7042.820
854.614; 3735.725;  -13.823; 7151.338
855.177; 3656.549;  -16.393; 7105.077
855.741; 3613.906;  -11.693; 6989.675
856.304; 3596.305;  -10.843; 6596.634
856.868; 3483.847;  -13.783; 6356.272
857.431; 3262.396;  -11.953; 6468.571
857.995; 3004.665;  -13.683; 6373.210
858.558; 2961.824;  -11.433; 6324.448
859.121; 3072.612;  -12.493; 6408.327
859.684; 3002.278;  -12.384; 6347.886
860.247; 2688.764;  -14.774; 6321.264
860.810; 2423.318;  -13.154; 6301.903
861.374; 2400.390;  -11.264; 6607.881
861.937; 2457.114;  -15.424; 6408.200
862.500; 2448.048;  -12.854; 6572.639
863.062; 2435.937;  -12.344; 6387.297
863.625; 2436.373;  -13.314; 6190.836
864.188; 2514.211;  -14.724; 5807.254
864.751; 2690.961;  -13.464; 5682.413
865.314; 3029.747;  -11.684; 5547.492
865.876; 3245.476;  -11.104; 5500.150
866.439; 3188.153;  -12.344; 5415.909
867.002; 3005.186;  -13.494; 5501.567
867.564; 2738.440;  -10.935; 5413.946
868.127; 2534.731;  -12.665; 5160.325
868.689; 2489.099;  -14.515; 5133.183
869.252; 2531.241;  -13.425; 5252.382
869.814; 2694.345;  -11.595; 5297.141
870.377; 2808.549;  -12.175; 5390.919
870.939; 2706.404;  -10.265; 5599.898
871.501; 2576.293;  -12.375; 5248.336
872.063; 2497.171;  -14.355; 4854.235
872.626; 2423.712;  -14.435; 4817.074
873.188; 2327.548;  -12.415; 4987.732
873.750; 2343.192;  -14.555; 4868.651
874.312; 2269.721;  -11.185; 4779.330
874.874; 2081.062;  -12.715; 4866.348
875.436; 1985.427;  -13.196; 4718.887
875.998; 1971.918;  -11.426; 4660.005
876.560; 1893.144;   -9.786; 4462.964
877.122; 1837.855;  -12.796; 4145.042
877.683; 1825.013;  -13.226; 4056.481
878.245; 1817.572;  -12.036; 3950.740
878.807; 1817.921;  -11.536; 4058.958
879.369; 1810.278;  -10.806; 3954.677
879.930; 1721.933;  -13.946; 3941.495
880.492; 1585.700;  -11.876; 4067.014
881.053; 1547.151;  -13.216; 3859.633
881.615; 1606.505;  -12.226; 3776.071
882.176; 1646.020;  -12.946; 3734.750
882.738; 1583.863;  -10.736; 3678.489
883.299; 1509.427;  -12.057; 3405.407
883.860; 1475.020;  -12.677; 3351.106
884.422; 1433.137;  -14.097; 3394.044
884.983; 1331.433;  -13.667; 3166.443
885.544; 1193.954;  -10.717; 3189.802
886.105; 1091.528;  -14.357; 3160.360
886.666; 1074.816;  -14.287; 3093.059
887.227; 1084.536;  -14.297; 2941.957
887.788; 1078.438;  -13.137; 2974.836
888.349;  998.640;  -14.637; 2721.214
888.910;  919.358;  -12.247; 2696.493
889.471;  911.462;  -10.577; 2560.172
890.032;  904.683;  -12.937; 2558.190
890.593;  859.318;  -12.487; 2567.669
891.153;  789.397;  -11.898; 2460.307
891.714;  773.075;  -14.278; 2372.046
892.275;  778.111;  -13.308; 2309.505
892.835;  728.478;  -12.058; 2382.543
893.396;  651.634;  -15.268; 2295.502
893.956;  597.657;  -13.278; 2162.420
894.517;  563.375;  -11.968; 2125.439
895.077;  551.287;  -12.798; 2086.978
895.638;  533.828;  -11.908; 2126.316
896.198;  510.557;  -13.288; 1838.275
896.758;  488.129;  -12.198; 1892.813
897.319;  463.042;  -13.048; 1792.232
897.879;  425.416;  -13.718; 1762.751
898.439;  385.513;  -14.138; 1661.149
898.999;  372.083;  -13.659; 1781.468
899.559;  362.094;  -14.699; 1703.347
900.119;  341.616;  -14.339; 1537.525
900.679;  317.500;  -11.789; 1638.384
901.239;  294.132;  -13.629; 1527.902
901.799;  278.717;  -13.679; 1456.441
902.359;  264.468;  -13.679; 1357.140
902.919;  254.189;  -14.159; 1331.118
903.479;  244.466;  -13.419; 1317.257
904.038;  233.823;  -14.899; 1262.595
904.598;  223.168;  -14.339; 1152.034
905.158;  215.922;  -13.959; 1240.893
905.717;  212.361;  -12.749; 1233.691
906.277;  205.566;  -11.889; 1217.330
906.836;  198.453;  -12.870; 1222.408
907.396;  196.019;  -11.790; 1193.047
907.955;  192.795;  -13.750; 1182.526
908.515;  186.370;  -14.760; 1099.364
909.074;  179.560;  -12.540; 1092.863
909.633;  173.178;  -12.120; 1069.121
910.192;  170.606;  -12.550; 1196.460
910.752;  169.153;  -12.760; 1029.960
911.311;  166.852;  -14.750; 1009.780
911.870;  162.223;  -13.860;  971.460
912.429;  160.863;  -13.480; 1094.080
912.988;  157.759;  -12.370; 1081.060
913.547;  153.022;  -14.670;  940.380
914.106;  149.800;  -12.800;  999.420
914.665;  147.201;  -11.370;  984.020
915.224;  145.644;  -11.430; 1035.760
915.782;  145.046;  -12.260;  922.560
916.341;  145.565;  -12.540; 1049.840
916.900;  143.527;  -12.540;  925.260
917.458;  142.626;  -13.480;  884.220
918.017;  141.659;  -12.470;  942.600
918.576;  140.883;  -13.450;  904.440
919.134;  138.612;  -12.890;  837.980
919.693;  137.587;  -15.480;  893.060
920.251;  135.702;  -14.420;  876.500
920.809;  135.123;  -12.170;  839.580
921.368;  134.041;  -13.650;  885.360
921.926;  135.289;  -12.750;  842.940
922.484;  136.141;  -14.150;  903.360
923.042;  135.698;  -15.100;  880.340
923.601;  139.323;  -10.990;  998.680
924.159;  139.830;  -12.470;  935.560
924.717;  139.147;  -15.640;  841.080
925.275;  139.742;  -12.380;  903.240
925.833;  138.126;  -12.710;  779.320
926.391;  140.804;  -11.200;  938.380
926.949;  140.969;  -16.000;  857.680
927.506;  141.613;  -12.260;  903.500
928.064;  141.933;  -11.300;  877.580
928.622;  142.871;  -13.750;  880.100
929.180;  142.818;  -15.290;  814.180
929.737;  141.447;  -14.500;  808.540
930.295;  142.365;  -10.630;  928.480
930.853;  146.609;  -14.590;  849.100
931.410;  148.355;  -14.450;  821.120
931.968;  150.869;  -14.390;  940.660
932.525;  151.386;  -13.050;  909.380
933.082;  151.090;  -15.620;  811.440
933.640;  153.121;  -15.650;  925.900
934.197;  154.936;  -13.610;  886.360
934.754;  158.079;  -13.320;  897.780
935.312;  162.024;  -13.370;  863.340
935.869;  165.603;  -12.780; 1012.980
936.426;  163.614;  -14.480;  872.800
936.983;  164.368;  -13.180;  889.020
937.540;  165.316;  -15.710;  838.280
938.097;  167.643;  -14.980;  940.120
938.654;  169.292;  -13.060;  898.860
939.211;  169.696;  -12.760;  952.480
939.768;  170.062;  -16.230;  915.420
940.324;  171.080;  -10.940;  904.200
940.881;  169.697;  -12.570;  878.500
941.438;  169.054;  -13.650; 1021.200
941.995;  168.441;  -13.300;  992.560
942.551;  169.699;  -15.800;  875.620
943.108;  168.844;  -14.180;  937.920
943.664;  166.739;  -13.890;  869.340
944.221;  171.407;  -12.640; 1088.140
944.777;  168.396;  -14.700;  869.680
945.334;  167.582;  -13.010;  884.840
945.890;  168.719;  -13.480;  946.480
946.446;  168.695;  -14.920;  947.020
947.003;  167.880;  -13.860;  964.940
947.559;  168.438;  -12.000; 1063.040
948.115;  167.182;  -10.510; 1026.540
948.671;  167.278;  -12.760;  967.300
949.227;  164.241;  -15.390;  859.560
949.783;  159.250;  -15.570;  858.900
950.339;  158.952;  -12.800;  991.000
950.895;  157.503;  -13.780; 1023.840
951.451;  156.925;  -13.810;  925.280
952.007;  159.928;  -12.390;  998.540
952.563;  158.965;  -11.980;  937.780
953.118;  156.978;  -14.070;  904.940
953.674;  158.553;  -14.140;  935.780
954.230;  162.266;  -12.680;  949.640
954.785;  162.877;  -12.770;  936.640
955.341;  160.033;  -11.450;  998.160
955.897;  153.201;  -15.350;  834.660
956.452;  149.755;  -14.200;  953.840
957.008;  144.809;  -10.820; 1083.640
957.563;  142.250;  -13.200; 1009.540
958.118;  143.335;  -14.460;  877.700
958.674;  143.992;  -13.840;  946.780
959.229;  141.853;  -10.670; 1013.980
959.784;  142.950;  -17.040;  832.400
960.339;  146.848;  -12.970; 1001.280
960.894;  148.597;  -12.700;  963.760
961.449;  151.258;  -13.790;  859.960
962.004;  158.931;  -11.760; 1212.840
962.559;  156.031;  -14.840;  860.140
963.114;  150.689;  -14.530;  742.480
963.669;  148.464;  -12.780;  915.500
964.224;  144.765;  -14.330;  874.340
964.779;  139.405;  -14.380;  828.420
965.334;  135.270;  -12.460; 1017.860
965.888;  130.612;  -13.490;  875.360
966.443;  129.942;  -14.140;  972.380
966.998;  127.020;  -16.240;  819.460
967.552;  126.855;  -12.730;  908.380
968.107;  123.326;  -14.510;  868.300
968.661;  125.053;  -11.850;  922.440
969.216;  122.841;  -14.370;  856.280
969.770;  120.958;  -13.010;  917.200
970.324;  119.153;  -12.460;  923.140
970.879;  119.736;  -11.580;  947.180
971.433;  121.460;  -13.130;  952.720
971.987;  119.310;  -12.360;  895.340
972.541;  115.615;  -14.330;  917.100
973.095;  113.409;  -13.310; 1009.460
973.649;  109.801;  -15.830;  809.480
974.203;  110.506;  -15.830;  829.040
974.757;  112.201;  -13.480;  855.220
975.311;  114.296;  -13.720;  872.600
975.865;  115.974;  -15.780;  881.820
976.419;  114.507;  -14.290;  857.400
976.973;  111.827;  -13.210;  849.620
977.526;  110.709;  -12.300;  949.920
978.080;  105.574;  -14.840;  796.780
978.634;  102.994;  -13.100;  921.320
979.187;   99.147;  -12.300;  905.400
979.741;  100.204;  -12.020; 1018.380
980.294;   97.493;  -14.590;  789.160
980.848;   96.066;  -14.390;  717.220
981.401;   95.747;  -14.280;  816.540
981.955;   95.525;  -11.920;  844.300
982.508;   93.601;  -15.790;  746.340
983.061;   92.690;  -12.070;  915.260
983.615;   88.977;  -13.260;  798.800
984.168;   86.978;  -15.540;  770.080
984.721;   86.942;  -13.230;  880.760
985.274;   83.448;  -11.820;  867.500
985.827;   80.762;  -13.510;  834.220
986.380;   79.942;  -14.840;  721.340
986.933;   81.101;  -13.970;  864.800
987.486;   80.444;  -12.450;  861.920
988.039;   77.995;  -11.170;  863.100
988.591;   76.321;  -13.070;  893.260
989.144;   73.628;  -15.530;  737.260
989.697;   71.874;  -14.300;  758.740
990.250;   70.222;  -13.310;  858.100
990.802;   68.620;  -14.490;  755.860
991.355;   70.437;  -12.980;  974.880
991.907;   67.480;  -13.715;  864.320
992.460;   64.524;  -14.450;  753.760
993.012;   63.878;  -12.590;  749.540
993.565;   62.712;  -15.180;  711.360
994.117;   63.385;  -11.630;  950.780
994.669;   59.574;  -13.760;  701.320
995.221;   59.438;  -12.710;  791.920
995.774;   60.123;  -14.620;  787.580
996.326;   58.648;  -13.150;  740.220
996.878;   58.133;  -12.880;  838.420
997.430;   56.608;  -14.580;  699.860
997.982;   55.767;  -14.030;  750.140
998.534;   55.341;  -12.190;  739.060
999.086;   53.888;  -12.990;  738.220
999.638;   52.243;  -13.180;  661.380
1000.190;   51.248;  -14.970;  699.320
1000.741;   51.257;  -12.200;  742.700
1001.293;   50.785;  -13.400;  686.020
1001.845;   49.856;  -14.490;  676.640
1002.396;   51.268;  -15.280;  743.400
1002.948;   50.163;  -12.380;  737.400
1003.500;   48.746;  -13.260;  723.780
1004.051;   50.224;  -13.730;  907.580
1004.603;   49.701;  -12.300;  791.820
1005.154;   45.632;  -15.330;  608.980
1005.705;   43.918;  -12.800;  723.960
1006.257;   43.544;  -13.900;  707.220
1006.808;   43.247;  -14.430;  685.460
1007.359;   43.081;  -12.010;  763.240
1007.910;   40.537;  -12.690;  646.640
1008.461;   40.643;  -13.610;  732.940
1009.013;   39.694;  -14.990;  588.340
1009.564;   40.734;  -11.860;  793.520
1010.115;   37.954;  -12.640;  597.040
1010.665;   38.693;  -14.570;  602.160
1011.216;   38.637;  -15.190;  667.920
1011.767;   37.979;  -13.470;  697.920
1012.318;   37.416;  -13.760;  736.980
1012.869;   37.572;  -15.950;  679.000
1013.419;   36.867;  -15.880;  603.120
1013.970;   37.817;  -14.540;  666.640
1014.521;   36.052;  -13.220;  620.620
1015.071;   36.447;  -15.020;  670.380
1015.622;   36.281;  -17.510;  635.460
1016.172;   34.933;  -14.130;  596.820
1016.723;   34.277;  -14.220;  614.380
1017.273;   34.591;  -15.370;  604.160
1017.823;   35.685;  -15.290;  650.340
1018.374;   34.372;  -13.420;  611.760
1018.924;   33.690;  -11.740;  716.880
1019.474;   35.154;  -12.250;  718.880
1020.024;   33.764;  -15.850;  657.580
1020.574;   35.161;  -13.280;  726.160
1021.124;   33.832;  -13.560;  673.580
1021.674;   32.412;  -13.790;  559.120
1022.224;   34.354;  -14.610;  708.940
1022.774;   33.906;  -13.100;  668.820
1023.324;   32.932;  -11.470;  753.520
1023.874;   35.084;  -11.990;  875.760
1024.423;   32.030;  -14.550;  613.700
1024.973;   31.670;  -14.440;  610.760
1025.523;   30.781;  -13.250;  620.960
1026.072;   30.802;  -15.200;  606.420
1026.622;   31.223;  -14.590;  675.740
1027.172;   31.643;  -11.080;  715.660
1027.721;   29.609;  -14.010;  601.220
1028.270;   30.958;  -13.690;  663.400
1028.820;   30.115;  -15.380;  638.080
1029.369;   30.031;  -14.980;  612.700
1029.918;   30.795;  -13.100;  649.840
1030.468;   29.448;  -13.680;  564.780
1031.017;   30.232;  -13.770;  634.800
1031.566;   28.954;  -14.100;  608.900
1032.115;   29.889;  -11.770;  694.500
1032.664;   28.274;  -14.940;  596.480
1033.213;   29.609;  -13.370;  735.420
1033.762;   28.489;  -13.660;  635.620
1034.311;   27.656;  -13.650;  677.220
1034.860;   28.795;  -13.820;  691.000
1035.408;   28.915;  -12.860;  722.720
1035.957;   28.771;  -13.060;  719.540
1036.506;   26.119;  -14.510;  530.800
1037.055;   29.493;  -13.470;  844.320
1037.603;   27.738;  -14.800;  664.000
1038.152;   25.291;  -14.190;  534.760
1038.700;   25.250;  -11.810;  585.740
1039.249;   26.567;  -12.850;  681.220
1039.797;   26.686;  -14.610;  633.360
1040.345;   26.198;  -15.220;  705.420
1040.894;   25.543;  -13.480;  625.300
1041.442;   25.225;  -13.310;  632.200
1041.990;   24.648;  -14.510;  559.160
1042.538;   24.662;  -15.700;  536.180
1043.087;   23.742;  -13.910;  570.860
1043.635;   26.192;  -13.620;  670.500
1044.183;   25.110;  -14.230;  586.400
1044.731;   24.625;  -13.730;  576.000
1045.279;   23.384;  -13.970;  674.920
1045.827;   26.889;  -10.750;  892.400
1046.374;   22.985;  -15.230;  515.420
1046.922;   22.665;  -15.390;  590.580
1047.470;   24.247;  -12.320;  691.300
1048.018;   23.714;  -13.230;  647.960
1048.565;   25.439;  -13.390;  708.600
1049.113;   22.793;  -15.030;  557.000
1049.660;   22.836;  -12.540;  629.660
1050.208;   23.375;  -15.040;  675.640
1050.755;   22.726;  -14.680;  606.580
1051.303;   23.436;  -13.610;  686.820
1051.850;   22.280;  -14.340;  635.120
1052.397;   20.807;  -16.330;  473.960
1052.945;   21.409;  -15.710;  617.760
1053.492;   22.956;  -12.320;  741.840
1054.039;   22.101;  -13.730;  720.180
1054.586;   21.404;  -16.140;  557.240
1055.133;   22.020;  -14.020;  693.140
1055.680;   22.673;  -13.430;  646.620
1056.227;   20.857;  -14.570;  542.780
1056.774;   23.328;  -14.400;  794.980
1057.321;   20.595;  -14.230;  523.260
1057.868;   20.992;  -14.220;  651.320
1058.415;   20.805;  -14.060;  651.980
1058.961;   20.260;  -14.640;  678.940
1059.508;   21.683;  -13.970;  643.820
1060.055;   20.412;  -15.100;  581.780
1060.601;   21.005;  -12.180;  624.300
1061.148;   19.891;  -15.010;  616.820
1061.694;   19.635;  -14.750;  592.580
1062.241;   19.515;  -14.130;  596.320
1062.787;   19.998;  -14.770;  663.140
1063.334;   21.901;  -13.130;  808.560
1063.880;   20.394;  -14.420;  668.360
1064.426;   19.988;  -13.130;  706.820
1064.972;   18.260;  -13.960;  601.340
1065.518;   17.487;  -13.680;  566.640
1066.065;   18.899;  -15.720;  624.460
1066.611;   18.090;  -13.970;  598.800
1067.157;   17.839;  -13.920;  641.860
1067.703;   18.809;  -14.760;  668.480
1068.249;   18.474;  -14.490;  605.220
1068.794;   18.717;  -14.740;  626.880
1069.340;   16.535;  -13.220;  578.960
1069.886;   17.826;  -14.930;  590.700
1070.432;   16.280;  -14.700;  541.720
1070.977;   16.598;  -14.470;  601.080
1071.523;   16.898;  -14.330;  573.060
1072.068;   16.852;  -14.960;  582.000
1072.614;   16.992;  -16.220;  527.760
1073.160;   17.573;  -11.280;  687.040
1073.705;   15.708;  -15.990;  572.520
1074.250;   15.917;  -16.550;  559.900
1074.796;   17.592;  -14.600;  655.160
1075.341;   17.267;  -13.440;  664.100
1075.886;   15.278;  -14.450;  594.240
1076.431;   16.941;  -13.160;  649.880
1076.976;   16.366;  -14.710;  639.220
1077.521;   15.506;  -14.000;  583.080
1078.067;   14.050;  -14.470;  579.400
1078.612;   15.823;  -14.530;  661.620
1079.156;   15.373;  -15.660;  601.540
1079.701;   15.371;  -16.120;  693.260
1080.246;   15.971;  -12.960;  696.300
1080.791;   15.677;  -13.700;  625.020
1081.336;   15.071;  -15.540;  659.320
1081.880;   15.565;  -14.640;  649.680
1082.425;   13.576;  -14.220;  573.480
1082.970;   15.838;  -11.890;  717.040
1083.514;   15.385;  -13.820;  597.000
1084.059;   14.165;  -14.280;  586.720
1084.603;   13.381;  -12.890;  565.840
1085.147;   14.608;  -13.590;  645.220
1085.692;   15.095;  -14.050;  716.800
1086.236;   13.250;  -14.990;  503.140
1086.780;   14.826;  -12.640;  751.440
1087.325;   13.926;  -15.550;  654.620
1087.869;   14.708;  -14.980;  610.700
1088.413;   13.624;  -13.440;  705.040
1088.957;   12.040;  -12.170;  543.400
1089.501;   14.775;  -12.730;  766.640
1090.045;   14.828;  -14.650;  726.480
1090.589;   12.116;  -14.500;  569.920
1091.133;   12.722;  -12.320;  673.340
1091.676;   12.932;  -16.130;  591.940
1092.220;   12.289;  -13.930;  600.920
1092.764;   14.097;  -12.820;  706.960
1093.307;   12.793;  -11.700;  673.780
1093.851;   11.103;  -15.600;  556.540
1094.395;   12.914;  -13.920;  683.140
1094.938;   11.786;  -16.090;  632.520
1095.482;   11.781;  -13.820;  559.800
1096.025;   13.420;  -12.720;  710.880
1096.568;   13.884;  -12.100;  779.280
1097.112;    9.828;  -15.450;  508.180
1097.655;   12.179;  -14.310;  603.000
1098.198;    9.994;  -14.740;  600.180
1098.741;   10.819;  -15.550;  612.860
1099.285;   12.212;  -12.600;  657.300
1099.828;    8.955;  -15.050;  439.400
1100.371;   10.887;  -14.800;  608.160
1100.914;   11.179;  -16.480;  682.660
1101.457;   11.846;  -12.990;  679.900
1101.999;    9.113;  -14.110;  584.680
1102.542;   10.677;  -11.450;  641.440
1103.085;   10.316;  -13.350;  658.500
1103.628;   11.345;  -13.200;  762.060
1104.170;    9.228;  -12.310;  588.280
1104.713;   10.320;  -14.320;  646.700
1105.256;    9.350;  -16.110;  557.440
1105.798;    8.273;  -15.910;  499.980
1106.341;   10.738;  -12.200;  728.900
1106.883;    8.706;  -14.910;  521.340
1107.425;   10.243;  -14.960;  668.180
1107.968;    9.777;  -13.440;  612.380
1108.510;    9.371;  -14.010;  684.960
1109.052;    8.240;  -15.430;  612.620
1109.594;    8.664;  -15.290;  554.440
1110.136;    9.459;  -13.360;  643.220
1110.679;    7.866;  -13.820;  633.080
1111.221;    8.778;  -13.690;  604.460
1111.763;    7.632;  -14.890;  559.220
1112.304;    7.827;  -14.550;  547.140
1112.846;    8.154;  -12.760;  666.240
1113.388;   11.440;  -10.780;  942.180
1113.930;    8.933;  -12.690;  694.200
1114.472;    7.295;  -15.730;  606.540
1115.013;    5.881;  -14.620;  551.280
1115.555;    7.065;  -14.950;  587.100
1116.097;    6.908;  -16.460;  579.480
1116.638;    8.055;  -13.730;  684.600
1117.180;    7.462;  -13.810;  667.740
1117.721;    7.320;  -13.280;  568.580
1118.262;    8.579;  -15.080;  677.960
1118.804;    8.373;  -14.040;  637.340
1119.345;    6.379;  -15.430;  578.400
1119.886;    8.156;  -15.240;  704.040
1120.427;    6.434;  -15.820;  589.020
1120.969;    6.250;  -14.550;  597.920
1121.510;    5.462;  -14.030;  563.060
1122.051;    7.267;  -11.990;  723.580
1122.592;    6.617;  -16.490;  655.420
1123.133;    5.099;  -15.580;  547.940
1123.673;    6.404;  -12.850;  706.480
1124.214;    6.396;  -13.630;  612.460
1124.755;    6.857;  -14.830;  639.460
1125.296;    6.549;  -13.110;  627.320
1125.836;    7.145;  -11.320;  691.500
1126.377;    5.364;  -14.330;  599.660
1126.918;    7.138;  -12.800;  614.980
1127.458;    5.247;  -13.580;  622.220
1127.999;    5.632;  -10.330;  656.980
1128.539;    5.983;  -13.390;  694.240
1129.079;    5.378;  -16.420;  632.720
1129.620;    5.053;  -15.700;  558.100
1130.160;    4.401;  -14.790;  539.480
1130.700;    5.382;  -12.910;  640.840
1131.240;    5.878;  -15.610;  643.700
1131.781;    5.072;  -12.920;  619.680
1132.321;    4.608;  -15.300;  599.120
1132.861;    3.582;  -14.760;  564.200
1133.401;    4.157;  -15.470;  593.940
1133.941;    4.554;  -13.710;  626.280
1134.481;    3.290;  -11.820;  597.580
1135.020;    3.656;  -14.810;  609.160
1135.560;    4.894;  -13.660;  674.940
1136.100;    3.170;  -13.940;  501.160
1136.640;    2.167;  -15.410;  510.480
1137.179;    3.386;  -16.920;  537.960
1137.719;    4.008;  -16.430;  605.400
1138.258;    3.526;  -16.300;  587.360
1138.798;    3.988;  -13.710;  663.780
1139.337;    2.615;  -13.840;  482.840
1139.877;    4.489;  -16.140;  642.360
1140.416;    6.430;  -11.410;  878.060
1140.955;    2.000;  -12.820;  535.380
1141.494;    3.614;  -12.310;  669.280
1142.034;    3.101;  -16.280;  583.520
1142.573;    3.169;  -13.090;  646.280
1143.112;    3.066;  -13.770;  553.480
1143.651;    2.306;  -15.830;  536.480
1144.190;    4.545;  -15.010;  691.640
1144.729;    2.953;  -13.650;  607.420
1145.267;    2.396;  -13.670;  584.900
1145.806;    4.015;  -13.630;  637.040
1146.345;    2.975;  -14.160;  635.020
1146.884;    3.204;  -11.180;  622.500
1147.422;    1.431;  -15.890;  533.060
1147.961;    3.977;  -12.760;  708.460
1148.500;    3.670;  -15.220;  669.720
1149.038;    3.215;  -13.720;  632.500
1149.577;    2.621;  -13.250;  698.640
1150.115;    0.832;  -16.790;  452.280
1150.653;    2.479;  -15.810;  607.340
1151.192;    2.546;  -14.730;  552.920
1151.730;    1.042;  -13.660;  652.560
1152.268;    0.887;  -15.120;  589.520
1152.806;    1.818;  -15.580;  571.180
1153.344;    0.408;  -16.210;  577.640
1153.882;    1.890;  -12.810;  600.060
1154.421;    0.572;  -14.150;  470.620
1154.958;    1.857;  -15.360;  595.240
1155.496;    2.498;  -14.710;  645.280
1156.034;    0.537;  -13.640;  721.880
1156.572;    2.140;  -13.740;  667.060
1157.110;    0.363;  -16.960;  473.940
1157.647;    1.933;  -11.940;  676.960
1158.185;    0.367;  -14.090;  564.320
1158.723;   -0.609;  -13.610;  509.200
1159.260;    1.273;  -14.760;  701.700
1159.798;    2.059;  -13.700;  658.160
1160.335;   -0.293;  -13.820;  631.820

