
Integration time [ms]:   3.882
Averaging Nr. [scans]: 1000
Smoothing Nr. [pixels]: 0
Data measured with spectrometer [name]: 7414430SP
Wave   ;Sample   ;Dark     ;Reference
[nm]   ;[counts] ;[counts] ;[counts] 

288.544;  122.927;   10.292;  793.890
289.143;  125.021;    4.564;  681.602
289.742;  126.761;    6.144;  828.814
290.341;  114.933;    4.396;  789.841
290.940;  105.139;    0.938;  730.702
291.538;  106.559;   -0.684;  881.108
292.137;  105.910;   -2.845;  792.581
292.736;  109.801;   -0.144;  975.101
293.335;  105.402;   -6.352;  735.086
293.934;  106.824;   -7.642;  781.677
294.532;  107.002;   -4.992; 1031.958
295.131;   93.361;   -5.478;  834.394
295.730;   93.410;   -6.549;  809.588
296.328;   91.691;   -9.558;  783.442
296.927;   92.545;   -8.118;  779.652
297.525;   93.167;   -6.908;  781.236
298.124;   83.875;   -9.195;  654.009
298.722;   88.032;   -8.198;  761.933
299.321;   86.801;   -8.817;  708.597
299.919;   84.175;   -7.716;  751.918
300.518;   81.608;  -10.745;  689.338
301.116;   82.440;   -9.647;  691.381
301.715;   82.854;  -10.828;  730.222
302.313;   81.617;   -6.087;  704.943
302.911;   77.852;   -6.824;  733.830
303.509;   83.592;   -8.807;  925.627
304.108;   79.866;   -8.198;  760.383
304.706;   79.813;   -6.218;  801.664
305.304;   75.511;   -7.185;  796.707
305.902;   81.238;   -8.568;  784.484
306.500;   77.441;   -7.737;  728.200
307.098;   75.511;   -6.026;  746.560
307.696;   73.528;   -7.176;  780.432
308.294;   74.930;   -8.656;  731.359
308.892;   77.233;   -6.838;  759.769
309.490;   72.302;   -2.596;  712.161
310.088;   70.621;   -4.485;  788.444
310.686;   75.530;   -3.907;  821.749
311.284;   72.076;   -2.806;  766.040
311.882;   68.902;   -2.845;  731.225
312.480;   66.719;   -3.274;  697.167
313.078;   69.142;   -3.645;  808.331
313.675;   69.099;   -4.997;  691.600
314.273;   64.854;   -0.894;  797.837
314.871;   63.310;   -2.854;  589.829
315.468;   62.614;   -3.644;  652.090
316.066;   65.400;   -3.947;  694.427
316.664;   58.688;   -1.824;  656.351
317.261;   63.261;    1.565;  910.128
317.859;   58.210;   -3.955;  768.735
318.456;   60.796;   -2.886;  830.096
319.054;   55.823;   -0.995;  787.828
319.651;   55.706;   -1.765;  759.928
320.249;   54.392;   -3.685;  810.188
320.846;   53.550;   -3.736;  714.286
321.443;   50.987;   -2.065;  832.135
322.041;   48.831;   -5.635;  812.315
322.638;   46.937;   -5.985;  701.456
323.235;   48.830;   -6.677;  665.683
323.833;   46.350;   -3.497;  740.354
324.430;   42.723;   -6.756;  615.900
325.027;   43.936;   -7.647;  876.855
325.624;   44.820;   -7.598;  644.532
326.221;   41.466;   -5.848;  689.717
326.818;   41.634;   -5.777;  818.332
327.415;   43.780;   -8.769;  748.828
328.012;   42.712;   -6.299;  690.585
328.609;   42.369;   -6.639;  731.389
329.206;   40.564;   -6.358;  778.621
329.803;   39.947;   -8.698;  737.841
330.400;   41.135;   -8.379;  704.260
330.997;   41.431;   -6.178;  817.147
331.594;   39.268;   -5.646;  788.185
332.191;   44.519;   -6.928;  728.722
332.787;   46.460;   -6.057;  844.463
333.384;   42.976;   -6.445;  763.093
333.981;   40.172;   -8.002;  815.687
334.578;   43.626;   -8.443;  708.378
335.174;   44.903;   -6.053;  731.469
335.771;   45.322;   -5.791;  836.456
336.367;   40.718;   -6.570;  710.631
336.964;   44.685;   -6.741;  793.266
337.561;   45.071;   -5.710;  731.112
338.157;   41.279;   -3.928;  911.916
338.754;   36.904;   -5.577;  796.589
339.350;   36.152;   -9.667;  722.493
339.946;   40.566;   -5.269;  773.135
340.543;   32.624;   -4.485;  846.136
341.139;   27.039;   -7.584;  720.836
341.735;   25.520;   -8.553;  772.593
342.332;   25.514;   -4.984;  691.472
342.928;   26.469;   -3.475;  795.394
343.524;   21.311;   -6.653;  761.684
344.120;   17.461;   -7.173;  738.562
344.716;   20.855;   -4.385;  723.717
345.313;   18.987;   -3.565;  795.342
345.909;   14.368;   -7.495;  627.336
346.505;   17.023;   -8.276;  740.247
347.101;   17.345;   -5.697;  827.864
347.697;   18.149;   -4.767;  785.398
348.293;   13.087;   -7.226;  627.244
348.889;   14.490;   -7.547;  745.914
349.485;   13.531;   -9.147;  688.205
350.081;   14.253;   -6.568;  772.592
350.676;   10.227;   -6.516;  691.606
351.272;   13.734;   -7.378;  809.530
351.868;   13.576;   -6.759;  780.497
352.464;   11.298;   -4.798;  723.932
353.059;    8.269;   -7.977;  646.017
353.655;   11.934;   -8.769;  777.063
354.251;   12.998;   -5.920;  759.845
354.846;    7.387;   -7.647;  740.646
355.442;    5.533;   -6.956;  753.071
356.038;    8.262;   -9.928;  751.708
356.633;    6.875;   -7.698;  728.594
357.229;    5.244;   -6.307;  724.757
357.824;    4.060;   -7.647;  703.600
358.420;    3.003;  -10.047;  679.726
359.015;    3.294;   -7.458;  695.357
359.610;    5.649;   -5.748;  763.920
360.206;   -0.871;   -9.346;  603.240
360.801;    2.307;  -11.268;  646.503
361.396;    4.252;   -8.789;  725.975
361.992;   -0.171;   -6.347;  668.220
362.587;   -1.763;   -6.476;  670.160
363.182;    0.137;   -9.457;  689.631
363.777;    0.591;   -7.147;  738.242
364.372;    0.610;   -5.507;  737.314
364.967;   -3.072;   -6.386;  680.744
365.563;    0.859;   -7.858;  815.567
366.158;   -1.461;   -8.517;  685.161
366.753;   -1.327;   -8.728;  649.263
367.348;   -2.180;   -7.677;  746.056
367.942;   -1.691;  -10.387;  697.298
368.537;   -3.172;   -7.187;  754.245
369.132;   -2.869;   -8.587;  703.428
369.727;   -6.302;   -8.606;  638.079
370.322;   -5.449;  -10.426;  580.186
370.917;   -5.439;   -5.776;  710.646
371.511;   -2.214;   -6.007;  861.834
372.106;   -5.376;   -6.686;  776.964
372.701;   -8.569;   -9.335;  585.988
373.296;   -3.156;   -6.777;  863.135
373.890;   -7.575;   -7.546;  647.840
374.485;   -9.662;   -8.755;  691.199
375.079;   -5.805;   -9.797;  738.685
375.674;   -4.490;   -6.327;  812.970
376.268;   -8.665;   -9.046;  691.759
376.863;  -13.862;   -7.993;  580.327
377.457;   -7.677;   -9.206;  662.490
378.052;   -9.694;   -5.345;  764.884
378.646;   -9.804;   -5.605;  741.167
379.240;  -10.183;   -6.825;  721.176
379.835;  -10.031;  -10.476;  636.978
380.429;  -11.456;   -8.676;  562.557
381.023;  -11.373;   -4.945;  779.205
381.617;  -12.938;   -8.094;  680.106
382.212;  -10.617;  -10.646;  685.303
382.806;   -8.694;   -8.136;  760.690
383.400;  -12.262;   -7.855;  672.281
383.994;  -13.472;   -8.125;  664.870
384.588;   -9.756;   -7.637;  697.701
385.182;   -7.731;   -7.458;  726.624
385.776;   -9.534;   -6.277;  706.875
386.370;  -12.572;   -7.485;  681.968
386.964;  -11.935;   -9.416;  684.155
387.558;   -9.818;   -8.518;  598.360
388.152;  -13.304;   -7.096;  681.959
388.745;  -11.970;   -7.656;  814.707
389.339;   -9.783;   -8.927;  747.642
389.933;   -8.502;   -9.538;  695.370
390.527;   -9.897;   -5.857;  859.029
391.120;  -15.840;   -9.455;  595.318
391.714;  -12.726;   -9.746;  711.633
392.308;   -8.869;   -7.857;  780.253
392.901;  -13.197;   -9.106;  642.460
393.495;  -14.781;  -10.365;  595.414
394.089;  -11.943;   -9.696;  760.452
394.682;  -13.431;   -7.016;  697.188
395.275;  -13.205;   -8.466;  719.927
395.869;  -14.317;   -8.985;  667.314
396.462;  -13.014;  -11.496;  616.609
397.056;   -8.381;   -7.838;  776.621
397.649;  -13.485;   -6.895;  731.575
398.242;  -10.606;   -5.017;  712.645
398.836;   -9.923;   -8.787;  766.408
399.429;  -10.912;   -8.967;  631.041
400.022;  -14.441;   -8.815;  665.902
400.615;  -11.196;   -6.276;  805.609
401.208;   -9.161;   -8.407;  691.451
401.802;  -11.907;   -7.296;  699.329
402.395;  -12.745;   -7.585;  683.502
402.988;  -13.654;   -8.015;  696.627
403.581;  -10.816;   -9.577;  646.878
404.174;   -7.957;   -7.588;  686.568
404.767;  -10.730;   -7.906;  638.583
405.360;  -13.177;   -7.875;  621.445
405.953;   -7.794;   -8.127;  759.034
406.545;   -6.477;   -7.198;  725.342
407.138;  -12.174;   -8.916;  618.350
407.731;  -10.508;   -9.767;  613.303
408.324;   -6.236;  -10.659;  660.554
408.917;   -7.135;   -8.068;  681.864
409.509;   -9.380;   -9.837;  740.396
410.102;  -11.085;   -8.146;  643.948
410.695;   -4.998;   -7.969;  665.758
411.287;   -5.993;   -8.579;  599.821
411.880;   -7.015;   -6.968;  585.421
412.472;   -8.778;   -9.487;  613.092
413.065;   -5.916;  -10.338;  629.408
413.657;   -5.116;   -9.169;  576.678
414.250;   -3.532;  -10.119;  646.681
414.842;   -5.685;   -9.938;  676.353
415.434;   -3.398;  -10.409;  570.463
416.027;   -0.142;   -9.591;  652.196
416.619;   -1.334;   -7.379;  713.400
417.211;   -2.055;   -9.159;  599.352
417.804;    1.972;   -9.191;  628.499
418.396;   -2.293;   -8.159;  607.643
418.988;    0.163;   -6.960;  659.238
419.580;   -3.748;  -11.389;  568.276
420.172;   -0.590;  -13.460;  536.196
420.764;    3.540;  -10.701;  672.482
421.356;    1.422;   -8.961;  636.898
421.948;    1.380;   -9.770;  677.661
422.540;    7.064;   -8.832;  680.027
423.132;    5.732;   -8.153;  600.641
423.724;    2.432;   -8.481;  561.267
424.316;    4.884;   -9.261;  621.345
424.908;    8.422;   -9.643;  591.517
425.500;    9.104;   -8.663;  647.978
426.092;    9.269;   -8.503;  648.268
426.683;    9.505;  -10.522;  684.836
427.275;   11.818;  -11.734;  641.471
427.867;   13.213;  -10.264;  668.948
428.458;   13.427;   -7.644;  732.344
429.050;   12.609;   -7.853;  680.749
429.642;   14.627;   -8.904;  743.124
430.233;   15.307;  -10.795;  569.356
430.825;   16.459;   -7.665;  724.809
431.416;   14.081;   -8.843;  698.241
432.008;   18.032;   -9.885;  651.723
432.599;   18.888;   -9.966;  656.073
433.190;   15.811;   -9.164;  637.670
433.782;   14.542;   -8.584;  590.395
434.373;   22.791;   -8.296;  884.765
434.964;   20.463;   -9.896;  602.920
435.556;   18.296;   -8.255;  634.537
436.147;   21.693;   -8.075;  758.490
436.738;   21.441;   -9.716;  701.099
437.329;   26.116;   -7.318;  721.723
437.920;   20.669;   -6.694;  666.688
438.511;   20.645;   -9.644;  564.526
439.103;   26.512;   -9.427;  623.998
439.694;   28.382;  -10.748;  681.583
440.285;   29.903;   -7.997;  764.432
440.876;   28.031;  -10.046;  845.738
441.466;   27.009;  -13.467;  575.162
442.057;   32.421;   -9.329;  665.814
442.648;   31.794;   -7.707;  746.255
443.239;   29.589;   -9.017;  620.477
443.830;   34.554;  -10.279;  704.958
444.421;   36.356;  -12.630;  655.474
445.011;   32.862;   -8.697;  693.619
445.602;   32.993;   -7.787;  743.126
446.193;   34.525;  -13.329;  488.117
446.783;   38.261;   -9.171;  640.397
447.374;   35.032;   -7.457;  692.759
447.964;   35.227;   -9.277;  713.770
448.555;   44.032;   -9.041;  822.742
449.145;   39.822;   -8.969;  662.853
449.736;   41.687;   -6.809;  803.179
450.326;   41.304;   -7.229;  713.626
450.917;   46.372;  -11.391;  675.324
451.507;   44.828;   -9.501;  600.661
452.097;   46.773;   -8.460;  746.267
452.688;   47.466;  -10.080;  742.160
453.278;   46.502;  -12.861;  566.840
453.868;   51.670;   -8.372;  793.550
454.458;   49.955;   -8.131;  651.141
455.048;   50.489;   -8.520;  711.783
455.639;   51.315;  -13.632;  567.096
456.229;   55.007;  -10.143;  710.694
456.819;   57.300;   -9.163;  751.158
457.409;   58.153;   -8.652;  773.993
457.999;   60.731;   -9.933;  737.505
458.589;   60.038;  -10.363;  686.606
459.179;   60.240;  -10.633;  717.658
459.769;   58.826;  -12.442;  627.099
460.358;   63.403;   -9.844;  797.262
460.948;   63.837;   -9.924;  689.503
461.538;   64.850;  -10.484;  660.677
462.128;   63.455;  -10.703;  664.934
462.717;   69.660;  -11.486;  710.326
463.307;   72.349;  -10.767;  705.846
463.897;   67.938;   -8.814;  656.942
464.486;   68.757;   -8.182;  837.128
465.076;   72.526;   -9.985;  733.776
465.666;   76.133;  -10.447;  652.900
466.255;   74.256;   -7.754;  785.651
466.845;   73.666;  -10.884;  666.749
467.434;   76.110;  -12.525;  725.873
468.023;   77.300;  -11.456;  658.357
468.613;   74.759;   -9.173;  713.946
469.202;   79.295;   -9.306;  646.507
469.791;   83.741;   -8.917;  737.811
470.381;   85.697;   -9.657;  742.813
470.970;   85.443;   -9.947;  711.099
471.559;   86.354;   -9.256;  733.291
472.148;   88.746;  -13.397;  675.737
472.738;   91.201;   -9.928;  765.466
473.327;   90.884;  -10.897;  637.529
473.916;   90.619;   -8.526;  737.446
474.505;   95.086;  -11.078;  751.703
475.094;   98.493;   -9.559;  806.570
475.683;   98.183;   -8.838;  797.699
476.272;   99.449;  -10.198;  730.632
476.861;  101.964;  -11.489;  706.754
477.449;  108.885;  -10.721;  728.487
478.038;  103.018;   -9.818;  692.513
478.627;  104.758;   -9.887;  714.852
479.216;  111.780;  -10.030;  769.441
479.805;  113.926;   -9.401;  783.375
480.393;  114.093;   -5.739; 1008.945
480.982;  113.166;   -7.838;  874.501
481.571;  120.683;   -9.111;  858.333
482.159;  120.687;  -10.601;  705.386
482.748;  120.197;   -8.500;  821.385
483.336;  126.401;   -9.241;  858.209
483.925;  126.502;  -10.440;  774.373
484.513;  133.917;  -11.063;  758.962
485.102;  131.262;   -9.540;  810.965
485.690;  141.344;   -6.742; 1011.050
486.278;  142.602;   -8.442;  979.329
486.867;  143.457;  -10.472;  809.662
487.455;  146.406;   -8.811;  898.229
488.043;  149.073;  -10.721;  748.361
488.631;  158.776;  -10.393; 1005.079
489.220;  163.436;  -10.843;  908.626
489.808;  164.508;  -10.572;  741.415
490.396;  174.997;  -10.482;  914.645
490.984;  184.908;  -11.542;  830.161
491.572;  198.196;   -8.463;  940.315
492.160;  206.674;   -8.491;  919.081
492.748;  220.876;   -9.681;  884.341
493.336;  250.042;  -10.493; 1019.693
493.924;  292.086;   -9.354;  958.077
494.512;  344.414;   -9.132; 1066.638
495.100;  394.345;   -9.001; 1103.280
495.687;  463.607;  -11.924; 1206.373
496.275;  566.919;  -11.193; 1150.796
496.863;  715.689;   -9.241; 1281.171
497.451;  863.173;  -11.341; 1386.805
498.038;  977.385;  -11.364; 1556.729
498.626; 1139.707;   -8.104; 1741.407
499.214; 1404.441;   -8.842; 2016.609
499.801; 1675.634;  -10.112; 2220.633
500.389; 1951.953;  -11.953; 2312.494
500.976; 2283.536;  -10.023; 2744.849
501.564; 2733.778;   -8.662; 3148.565
502.151; 3261.748;  -10.531; 3515.999
502.738; 3807.515;  -13.853; 3971.274
503.326; 4516.270;  -10.794; 4403.796
503.913; 5137.633;   -8.663; 5161.749
504.500; 5629.467;  -10.172; 5986.420
505.088; 6238.580;  -13.472; 6381.201
505.675; 7331.466;  -10.924; 6925.547
506.262; 8375.656;   -8.551; 7619.060
506.849; 9535.203;  -10.523; 8733.969
507.436;10525.614;  -10.834; 9790.121
508.023;10808.701;   -9.093; 9985.472
508.610;11250.211;  -10.073;10434.618
509.197;12024.745;   -9.500;11198.435
509.784;14050.156;  -13.242;12391.194
510.371;14997.153;  -10.964;13603.713
510.958;15001.219;   -9.772;14426.586
511.545;16474.246;   -7.842;15243.775
512.132;16456.564;  -12.184;15945.876
512.719;16504.656;   -9.733;16340.369
513.305;18852.273;   -9.172;18011.766
513.892;20624.842;   -9.581;19754.971
514.479;22568.518;  -10.253;20967.805
515.066;24834.750;   -8.183;22299.793
515.652;25728.480;   -9.253;22908.660
516.239;26714.785;   -9.412;23798.875
516.825;28951.854;  -11.153;25567.275
517.412;27913.953;  -10.263;28154.959
517.998;27754.324;   -8.802;28344.111
518.585;27621.242;  -10.401;27134.219
519.171;27711.873;  -12.744;27268.576
519.758;31239.359;  -11.793;28964.129
520.344;33336.676;   -8.912;30664.494
520.930;32127.238;  -10.901;32550.605
521.516;33321.852;  -12.034;35422.895
522.103;34979.172;  -10.473;38280.004
522.689;37098.859;   -8.311;37835.117
523.275;39984.762;  -10.691;37288.613
523.861;39856.625;  -11.193;37281.395
524.447;40367.047;  -11.484;37846.949
525.033;40146.148;   -7.702;38321.949
525.619;39682.672;  -11.241;38579.285
526.205;40525.785;  -12.152;40622.875
526.791;39860.172;  -11.423;42258.836
527.377;37754.852;   -7.981;42966.902
527.963;38258.070;   -9.450;42018.949
528.549;41813.031;  -11.351;42476.828
529.135;43224.172;  -10.202;41854.852
529.721;41717.148;   -8.672;41237.711
530.306;40428.918;   -9.111;41259.445
530.892;41388.164;  -11.252;41506.047
531.478;43834.504;  -10.432;43559.613
532.063;45947.785;  -10.721;47695.563
532.649;46285.117;   -7.450;50808.324
533.235;45696.180;  -11.811;51787.500
533.820;46268.391;   -9.383;52145.035
534.406;46303.531;   -9.400;51133.488
534.991;45556.402;   -8.861;49996.805
535.576;43117.859;  -10.612;48882.852
536.162;41178.738;   -7.322;46942.285
536.747;43424.520;   -9.360;45711.746
537.333;47189.207;  -10.450;48510.180
537.918;49329.648;  -12.610;50439.891
538.503;49847.180;  -12.132;50863.711
539.088;46760.875;  -10.831;50906.922
539.673;44666.520;  -11.220;52621.965
540.259;47050.563;  -11.481;52368.094
540.844;49120.535;  -11.462;50879.109
541.429;50535.770;   -7.869;52077.777
542.014;51211.309;  -11.859;52716.695
542.599;50631.273;  -11.061;52363.281
543.184;49737.688;  -12.300;53187.137
543.769;48106.410;   -9.369;54697.605
544.354;47796.996;  -12.020;53913.914
544.938;45059.367;  -10.350;49680.164
545.523;43339.738;  -10.841;47386.277
546.108;45111.422;   -8.579;49151.949
546.693;48088.840;   -8.818;51384.637
547.278;49168.188;  -11.331;51853.254
547.862;45568.363;  -10.292;51173.750
548.447;42062.688;   -8.349;51691.395
549.031;43950.477;  -10.838;52456.703
549.616;49508.117;  -11.681;52714.516
550.201;51623.250;  -11.140;52414.598
550.785;50668.844;   -8.649;52355.059
551.370;51351.484;  -11.889;54589.453
551.954;50406.219;  -11.239;58267.348
552.538;50896.758;   -8.850;59062.176
553.123;50997.246;  -10.829;58115.285
553.707;50491.637;   -8.887;56556.285
554.291;49674.719;  -10.430;56201.668
554.876;48279.121;   -9.799;55335.762
555.460;49826.711;  -10.018;54155.703
556.044;50233.801;   -7.307;53721.484
556.628;47373.328;  -12.229;53731.016
557.212;45824.992;   -9.820;54312.531
557.796;45847.727;   -9.109;53797.773
558.380;47695.793;   -9.707;56145.984
558.964;46394.750;  -10.980;57277.930
559.548;47188.316;  -12.010;56459.641
560.132;51409.367;   -7.928;54434.543
560.716;53162.844;  -10.247;54800.617
561.300;52355.277;  -11.250;57606.945
561.884;52118.602;  -10.568;58972.445
562.467;49712.566;   -9.727;57327.570
563.051;49063.469;  -11.847;54962.434
563.635;48556.891;  -10.747;52594.473
564.219;45513.609;  -13.108;50610.410
564.802;43211.793;  -11.417;49551.180
565.386;44561.211;  -10.457;48370.953
565.969;45865.980;   -8.959;48178.871
566.553;45420.801;  -10.328;49957.305
567.136;44760.656;  -10.257;50369.594
567.720;44861.316;  -10.186;49492.004
568.303;45242.207;  -10.027;50616.352
568.887;46325.402;  -10.397;50727.148
569.470;45360.086;   -8.185;51698.379
570.053;44776.734;  -11.596;52122.078
570.637;44012.887;  -11.378;52536.438
571.220;42512.422;   -9.138;51186.098
571.803;41256.137;   -7.675;51032.762
572.386;40359.148;   -8.976;49609.887
572.969;38800.801;  -12.477;48285.926
573.552;39869.594;   -9.767;47624.285
574.135;40333.809;   -8.175;45498.641
574.718;36814.344;  -11.096;41970.434
575.301;35034.918;  -11.966;41447.137
575.884;33255.492;  -12.836;40923.836
576.467;38196.449;   -9.116;45267.723
577.050;38568.711;  -10.536;48175.543
577.633;38928.645;  -11.027;47729.328
578.216;40136.750;   -9.946;47579.793
578.799;41632.500;   -9.645;47820.996
579.381;42872.715;   -9.446;48115.551
579.964;43783.051;  -12.217;47333.766
580.547;44054.840;  -10.586;46668.969
581.129;43917.918;   -8.374;44466.141
581.712;41733.352;  -10.434;44164.922
582.294;40258.164;  -10.896;46477.855
582.877;40547.313;   -8.906;48244.254
583.459;40214.254;   -9.994;47437.895
584.042;40143.617;  -10.084;46943.219
584.624;40198.582;  -13.534;46792.227
585.206;39032.625;  -12.716;46557.250
585.789;39823.316;  -11.614;45793.773
586.371;37236.969;  -10.203;43836.391
586.953;34060.391;  -10.314;42972.492
587.536;33516.195;   -9.776;42487.211
588.118;34918.816;   -9.821;42086.414
588.700;36813.984;  -10.073;43389.930
589.282;36245.871;  -12.395;43646.039
589.864;36984.180;  -11.514;43438.109
590.446;36673.277;  -10.803;43151.926
591.028;35182.148;  -11.043;42781.867
591.610;35133.855;  -13.244;42839.098
592.192;35346.141;  -11.095;42820.402
592.774;34501.992;  -10.823;40724.277
593.356;33733.406;  -11.052;39874.789
593.937;34449.992;  -11.664;39980.648
594.519;38180.340;  -10.454;42069.633
595.101;41429.109;  -10.322;42976.031
595.683;38854.395;  -10.042;44084.441
596.264;34578.559;  -14.334;43478.797
596.846;35610.926;  -10.863;43803.672
597.427;35100.262;   -9.901;42986.934
598.009;33817.848;  -10.911;42832.219
598.591;35125.777;  -10.483;42580.086
599.172;36581.574;   -9.663;43061.805
599.753;37453.555;  -10.631;41691.469
600.335;37838.953;   -9.371;40692.520
600.916;35746.082;  -13.992;39982.422
601.498;35456.930;   -8.352;40318.617
602.079;35589.633;   -8.411;40670.609
602.660;34643.098;  -10.841;41450.898
603.241;34839.004;  -12.963;41137.738
603.823;35610.336;  -11.523;38868.797
604.404;35844.918;  -11.881;38182.785
604.985;36387.652;  -11.721;38078.047
605.566;34256.414;   -9.293;38056.633
606.147;32522.662;  -10.940;37020.418
606.728;34388.738;  -11.840;37883.359
607.309;35412.773;  -11.781;38748.273
607.890;35772.965;  -11.262;38850.230
608.471;34685.727;  -10.111;37457.918
609.051;34395.613;   -7.709;36066.457
609.632;31361.162;  -12.409;35991.074
610.213;31682.238;  -10.811;37402.641
610.794;33668.480;  -11.630;38383.363
611.374;37133.773;   -8.030;40562.387
611.955;35757.750;  -10.809;38533.727
612.536;34719.258;  -10.531;36951.789
613.116;34227.867;  -12.820;37197.891
613.697;35664.512;  -11.419;38411.125
614.277;35819.613;   -9.768;38673.938
614.858;32814.871;  -10.251;37075.863
615.438;29331.949;  -11.981;35092.906
616.019;27334.256;   -8.978;33666.301
616.599;28938.543;  -12.219;34189.023
617.179;31517.684;  -14.170;36952.047
617.760;32648.117;   -9.211;39582.574
618.340;32779.543;   -9.018;38943.977
618.920;32696.631;   -9.249;37594.156
619.500;32612.543;  -12.728;37866.938
620.080;33917.789;  -12.939;37869.043
620.660;35357.984;  -11.586;36868.617
621.241;34568.563;  -11.538;36352.309
621.821;32788.168;  -11.398;35459.520
622.401;31136.221;  -10.179;35207.414
622.980;31577.404;  -11.587;35980.422
623.560;32381.828;  -12.888;37351.328
624.140;30040.725;  -13.149;34388.582
624.720;25662.771;   -9.928;32368.764
625.300;25946.408;  -10.869;32638.629
625.880;28669.350;   -8.617;34599.035
626.459;30287.109;  -12.138;36831.738
627.039;33119.387;  -12.267;38299.098
627.619;35425.016;   -7.476;38289.574
628.198;36032.020;  -11.347;37220.695
628.778;33346.641;  -11.678;37632.563
629.357;31288.418;  -12.438;38003.012
629.937;31253.533;   -9.576;38402.039
630.516;31157.727;  -11.096;37868.801
631.096;31870.939;  -11.828;35760.410
631.675;32750.699;  -11.565;35225.219
632.254;33793.719;  -11.845;35130.289
632.834;35230.633;  -11.545;35794.570
633.413;34561.117;  -10.887;35788.922
633.992;35346.617;  -10.175;34532.863
634.571;35272.102;   -9.704;33590.113
635.151;33258.531;  -10.815;34943.863
635.730;32106.393;  -11.617;35352.523
636.309;32460.283;  -10.836;35366.605
636.888;33031.961;   -9.755;36165.637
637.467;33798.957;  -11.684;37515.902
638.046;33977.137;  -11.987;39288.695
638.625;33242.926;  -10.455;38279.699
639.204;32988.641;  -11.234;37741.598
639.782;33644.672;  -12.023;38364.551
640.361;31668.553;  -11.506;36740.621
640.940;27929.133;  -12.316;34950.082
641.519;25762.133;  -11.616;34137.398
642.097;29514.514;   -9.266;35654.258
642.676;33101.473;  -12.936;35637.957
643.255;33315.043;   -9.966;36567.074
643.833;32671.344;   -8.916;37809.434
644.412;30215.920;  -10.936;37337.293
644.990;30058.363;  -12.176;37018.531
645.569;31677.863;  -12.246;36518.469
646.147;35635.590;  -12.107;36186.430
646.726;38003.375;  -12.937;36267.688
647.304;34933.066;  -12.547;36647.625
647.882;34588.492;  -12.597;39286.742
648.461;33778.137;   -9.427;39157.703
649.039;33745.391;   -8.937;35412.883
649.617;33749.238;  -11.067;34744.918
650.195;31778.027;  -10.657;35403.098
650.773;29300.813;  -10.097;35053.797
651.352;29402.895;  -11.887;33756.816
651.930;29035.475;  -13.557;31868.773
652.508;28314.273;  -11.767;33121.551
653.086;29746.406;  -10.777;33564.793
653.663;32810.109;  -12.067;34054.668
654.241;36578.707;  -14.918;35693.309
654.819;36024.219;  -11.788;36422.906
655.397;34272.199;  -11.268;38213.484
655.975;32803.527;  -11.738;39507.625
656.553;31099.268;  -11.018;39498.223
657.130;29704.799;  -12.848;40395.480
657.708;28594.510;  -10.098;39242.020
658.286;29170.025;  -11.678;38920.020
658.863;30513.867;  -11.498;40202.898
659.441;32873.832;  -11.008;39677.938
660.018;34635.047;  -11.048;40413.355
660.596;35963.543;  -12.058;39931.414
661.173;36826.840;  -14.158;39604.531
661.750;36445.461;  -12.298;39700.070
662.328;36228.285;  -10.699;39292.809
662.905;35898.699;  -12.119;38235.648
663.482;31792.322;  -11.829;36212.305
664.060;28329.963;  -11.009;35944.945
664.637;31967.443;  -10.369;35170.785
665.214;33970.344;  -10.459;34197.523
665.791;32116.348;  -12.599;34549.520
666.368;29186.344;  -12.919;35118.578
666.945;28130.861;  -10.699;36019.418
667.522;30004.920;  -11.359;36048.438
668.099;30678.813;  -13.529;36243.914
668.676;30286.311;  -10.229;35958.875
669.253;30291.107;   -9.279;37384.730
669.830;29897.641;  -11.370;36779.629
670.407;29800.770;  -10.950;35231.289
670.984;30531.242;  -12.850;35544.270
671.560;29902.678;   -8.440;35466.867
672.137;31038.504;  -13.520;34280.863
672.714;31556.598;  -13.620;34632.863
673.290;31272.979;  -10.450;35135.422
673.867;30915.922;  -10.960;36114.480
674.443;31692.672;  -13.300;36152.859
675.020;29319.309;  -12.370;35327.238
675.596;28222.664;  -11.250;35795.176
676.173;28362.355;  -11.080;35430.355
676.749;28285.299;  -13.220;33549.516
677.326;29845.592;  -13.000;32210.012
677.902;29726.580;  -12.701;32068.871
678.478;28102.662;  -12.801;32583.891
679.054;28882.457;   -8.601;32088.928
679.631;30115.719;  -12.631;30978.848
680.207;30808.678;   -9.451;33160.887
680.783;30319.074;  -11.701;35570.363
681.359;30595.605;  -12.701;36125.184
681.935;31965.645;  -13.271;35240.922
682.511;33127.184;  -10.791;34429.961
683.087;31272.096;  -10.791;34463.680
683.663;28445.871;   -8.121;34648.898
684.239;27192.273;  -13.261;34546.457
684.815;28620.383;  -10.581;35586.375
685.390;29657.893;   -9.961;35821.895
685.966;28935.039;  -11.182;35085.871
686.542;28622.736;  -13.512;34198.230
687.118;26826.443;  -11.472;32847.707
687.693;26175.920;  -10.152;32794.027
688.269;26076.773;  -14.442;33072.367
688.844;24734.432;  -11.852;33141.664
689.420;23777.881;  -13.942;33965.742
689.995;25534.580;   -9.702;34655.523
690.571;27446.676;  -11.312;33576.742
691.146;27209.779;  -14.332;32657.219
691.722;27111.043;  -11.192;32526.979
692.297;27624.270;  -10.962;33014.617
692.872;28952.604;  -11.082;34012.254
693.448;30347.326;  -14.732;34237.434
694.023;29812.400;  -12.363;34142.672
694.598;27854.320;  -12.393;34132.031
695.173;28907.762;  -11.023;34205.250
695.748;29826.822;  -12.743;32882.488
696.323;28676.035;  -11.103;32864.906
696.898;27937.336;   -8.123;33170.004
697.473;27994.650;  -12.603;32432.984
698.048;28605.137;  -12.553;31649.303
698.623;29271.041;  -12.573;30778.141
699.198;28709.887;  -12.743;31140.119
699.773;28530.338;  -12.843;31764.299
700.348;28458.629;  -16.683;31780.816
700.922;29136.916;  -11.403;32046.375
701.497;30091.088;  -11.253;32603.574
702.072;29232.660;  -10.044;34799.871
702.646;28571.133;  -13.054;35793.172
703.221;29308.148;  -11.414;35201.590
703.795;28367.543;  -10.644;34764.527
704.370;26678.336;  -13.484;34307.367
704.944;25526.205;  -12.144;33509.887
705.519;25108.480;  -12.024;31388.584
706.093;27083.293;  -11.234;31340.104
706.668;27529.223;   -9.874;32630.281
707.242;26666.486;  -12.404;32728.779
707.816;25706.836;  -10.644;32947.238
708.390;25521.990;  -11.174;33277.855
708.965;25669.301;  -10.324;33834.336
709.539;26640.316;  -12.014;33709.273
710.113;26361.053;  -12.295;33044.313
710.687;27870.426;  -10.965;31953.992
711.261;29302.428;  -13.685;30505.949
711.835;27174.389;  -15.335;30262.369
712.409;26106.332;  -13.785;31254.447
712.983;26370.459;  -10.525;32754.986
713.557;24871.805;  -13.175;34018.824
714.131;25070.980;  -13.245;34579.625
714.704;27546.377;  -13.175;33890.262
715.278;28702.359;  -11.545;33531.102
715.852;26999.688;  -10.975;33601.660
716.425;26048.162;  -10.075;33515.117
716.999;27313.297;  -12.185;33185.555
717.573;29537.525;   -9.685;33905.996
718.146;29469.922;  -10.516;35199.293
718.720;28272.916;  -12.106;35060.551
719.293;27377.482;  -12.386;34973.230
719.867;27880.633;  -12.456;36394.449
720.440;27464.289;  -10.686;36663.008
721.013;27107.887;  -12.596;35102.426
721.587;28797.859;  -13.956;33985.266
722.160;30852.051;   -9.806;33524.965
722.733;31430.994;  -11.676;32987.043
723.306;30915.520;  -14.276;33066.301
723.880;29167.064;  -12.126;33399.500
724.453;26977.191;  -10.156;33468.297
725.026;26815.248;  -12.956;33816.637
725.599;26914.053;  -11.676;32797.996
726.172;27391.764;  -12.337;33187.434
726.745;27782.658;  -11.277;35136.613
727.318;28156.365;  -11.927;35751.730
727.891;27207.793;  -13.607;35890.430
728.463;24913.203;  -11.327;34822.090
729.036;24863.496;  -11.917;32895.086
729.609;25799.873;  -12.697;31823.225
730.182;25980.148;  -11.787;31445.283
730.754;26144.416;  -12.957;32373.223
731.327;26905.434;  -11.017;33676.820
731.900;26931.523;  -12.797;33417.000
732.472;25927.158;  -10.677;31978.498
733.045;25620.689;  -12.797;30368.777
733.617;25887.213;  -13.908;30574.215
734.190;24917.553;  -12.258;31280.975
734.762;25253.215;  -13.438;31674.412
735.334;26525.545;  -11.758;31247.291
735.907;29149.570;  -11.158;29876.211
736.479;31502.504;  -11.258;29808.488
737.051;30899.479;  -10.918;30233.547
737.623;29049.568;  -11.038;31469.086
738.195;30446.373;  -12.188;31784.225
738.768;28427.453;  -11.378;32120.523
739.340;23600.027;  -12.598;32094.342
739.912;22479.201;  -11.568;31312.680
740.484;23656.115;   -9.348;31946.238
741.056;25470.264;  -12.628;32984.059
741.628;26762.354;  -13.349;33897.715
742.199;26283.572;  -11.309;33213.016
742.771;27360.959;  -12.699;31369.113
743.343;28440.063;  -11.919;31865.473
743.915;28289.598;  -11.679;32388.631
744.487;26669.795;  -12.249;31079.568
745.058;23942.736;  -11.119;30570.107
745.630;22457.336;   -9.439;29970.127
746.201;21999.391;  -11.949;29186.766
746.773;21961.828;  -12.639;28805.723
747.344;23165.473;  -11.039;29591.223
747.916;24695.441;  -12.549;31412.201
748.487;23420.152;  -12.659;32194.898
749.059;22274.211;  -13.059;32533.719
749.630;21459.250;  -12.080;32158.518
750.201;20295.576;  -13.100;30855.395
750.773;19701.158;  -15.310;28622.555
751.344;19182.355;  -12.240;28405.732
751.915;19329.211;  -11.960;28461.551
752.486;18986.158;  -13.200;27842.850
753.057;18584.920;  -15.230;27845.008
753.628;20165.230;  -13.130;27728.107
754.199;22206.709;  -12.720;27381.086
754.770;21931.207;  -10.680;25882.203
755.341;20657.479;  -11.010;25886.184
755.912;20393.076;  -12.990;26050.861
756.483;19464.176;  -11.110;26798.779
757.054;19222.672;  -12.190;27048.238
757.625;19147.094;  -13.981;26294.838
758.195;19330.658;  -11.041;26142.076
758.766;20009.449;  -11.861;26392.234
759.337;20102.566;  -11.461;26334.594
759.907;19412.160;  -15.001;27579.652
760.478;18199.635;   -9.681;28352.770
761.048;17599.002;  -12.421;27325.088
761.619;18259.330;  -11.761;26460.428
762.189;18268.078;  -12.391;26029.826
762.760;17934.074;  -10.201;26430.145
763.330;18952.525;  -10.811;26670.902
763.900;19481.055;  -10.261;26603.021
764.471;18250.535;  -13.061;25542.740
765.041;16948.629;  -11.051;24358.459
765.611;17028.342;  -11.032;23991.297
766.181;17071.105;  -10.532;24470.236
766.751;17521.256;  -13.502;24845.975
767.321;18758.988;  -11.392;24533.633
767.891;20572.590;  -11.522;24916.492
768.461;21217.498;  -13.672;24776.771
769.031;18474.299;  -14.652;24757.988
769.601;16153.658;  -10.182;24181.088
770.171;15255.630;  -11.752;23670.387
770.741;14590.057;  -12.272;22960.045
771.311;14805.619;  -13.112;22917.523
771.880;15850.485;  -14.122;23562.941
772.450;16267.775;  -11.782;24216.500
773.020;15802.716;  -12.642;24140.398
773.589;14496.810;  -13.043;24414.857
774.159;13956.098;  -11.783;23858.717
774.729;14977.377;  -13.473;22942.135
775.298;15571.824;  -14.523;22324.033
775.867;15232.611;  -12.013;21140.313
776.437;14592.347;  -12.113;20838.092
777.006;14269.055;  -13.543;20599.510
777.576;14815.683;  -12.523;20508.809
778.145;14972.612;  -12.173;20732.947
778.714;14267.317;  -12.153;21062.465
779.283;13615.899;  -11.833;20949.664
779.853;13742.114;  -13.483;20508.623
780.422;13752.164;  -12.933;20649.082
780.991;13411.278;  -13.173;21527.520
781.560;13270.475;  -10.224;22632.658
782.129;13505.438;  -12.684;23048.277
782.698;13400.190;  -11.284;23438.555
783.267;13428.799;  -11.684;23267.734
783.836;13211.691;  -10.974;22415.133
784.404;12646.418;  -13.534;20443.152
784.973;11970.911;  -16.734;19699.150
785.542;11006.740;  -12.594;19763.828
786.111;11028.308;  -11.644;20341.408
786.679;11912.378;  -11.384;20207.967
787.248;12007.186;  -12.014;19516.465
787.817;11045.307;  -12.804;18900.363
788.385;10060.552;  -11.994;17879.121
788.954;10037.846;  -12.564;17658.301
789.522;10432.316;  -12.225;17788.879
790.090;10386.463;  -13.775;18118.277
790.659;10552.134;  -12.485;18338.736
791.227;11105.456;  -12.295;18508.615
791.795;11538.925;  -13.415;17898.254
792.364;11757.883;  -12.995;17295.133
792.932;11233.590;   -8.365;16822.051
793.500;10366.558;  -11.925;17040.148
794.068;10613.711;  -13.245;17179.787
794.636;10928.034;  -13.815;16664.246
795.204;10873.691;  -13.375;16524.545
795.772;10793.054;  -12.125;17274.564
796.340;10111.906;  -13.855;17891.002
796.908; 8842.442;  -13.456;17648.561
797.476; 8470.399;  -13.116;17064.080
798.044; 8749.887;  -13.226;16672.777
798.612; 8769.671;  -11.236;17023.996
799.180; 8552.800;  -10.476;16561.615
799.747; 8450.135;  -11.746;15962.773
800.315; 8285.981;  -12.366;15296.992
800.883; 7700.368;  -14.616;14801.771
801.450; 7750.326;  -11.996;14534.430
802.018; 8459.911;  -11.206;14173.248
802.585; 8729.768;  -12.466;14029.547
803.153; 8170.939;  -12.846;13836.846
803.720; 7809.577;  -12.136;13567.324
804.287; 8037.476;  -10.966;13360.622
804.855; 7974.934;   -9.797;13681.981
805.422; 7247.436;  -13.037;13536.560
805.989; 6857.252;  -12.697;13355.958
806.556; 7281.233;  -11.737;13747.896
807.124; 7839.115;  -11.997;13987.376
807.691; 7499.428;  -13.997;14038.674
808.258; 7152.425;  -10.927;14120.152
808.825; 7411.946;  -13.727;13860.111
809.392; 7378.611;  -11.847;13268.790
809.959; 7459.354;  -14.217;12680.389
810.526; 7525.028;   -8.277;12427.308
811.093; 7811.544;   -9.647;12030.105
811.659; 7791.406;  -10.987;11653.664
812.226; 7085.320;  -13.447;11637.183
812.793; 6645.556;  -14.418;11611.521
813.360; 6821.150;  -13.908;11885.181
813.926; 7339.979;  -12.918;12770.539
814.493; 7417.564;  -14.888;12677.638
815.060; 6979.668;  -12.758;11974.336
815.626; 6777.968;  -13.478;11594.715
816.193; 6763.816;  -13.898;11579.474
816.759; 6954.309;  -13.588;11666.972
817.325; 6991.177;  -12.018;11325.530
817.892; 6796.852;  -14.068;11105.369
818.458; 6967.983;  -13.458;10843.928
819.024; 6774.396;  -11.968;10714.406
819.591; 6527.796;  -11.028;10469.165
820.157; 6607.897;  -12.088;10235.523
820.723; 6628.174;  -12.599;10847.563
821.289; 6435.276;  -10.419;11040.980
821.855; 6403.144;  -10.939;10357.100
822.421; 6448.358;  -12.539; 9978.918
822.987; 6402.362;  -13.259; 9754.177
823.553; 6251.221;  -15.369;10065.755
824.119; 6294.198;  -10.779;10036.294
824.685; 6252.758;   -9.999;10029.192
825.251; 5974.101;  -11.819;10199.230
825.816; 5917.393;  -13.369; 9820.189
826.382; 5737.430;  -12.679; 9297.248
826.948; 5377.887;  -11.199; 9381.347
827.513; 5334.340;  -11.179; 9450.726
828.079; 5429.899;  -13.489; 9472.444
828.645; 5545.100;  -12.500; 9292.643
829.210; 5613.400;  -15.120; 9065.341
829.776; 5648.898;  -12.590; 9132.620
830.341; 5856.129;  -11.540; 9092.878
830.906; 6281.424;  -12.400; 9078.557
831.472; 6107.925;  -12.720; 8534.535
832.037; 5223.846;  -11.490; 8677.874
832.602; 4625.094;  -14.380; 8628.692
833.167; 4609.329;  -12.780; 8879.031
833.733; 5054.789;  -11.100; 9189.790
834.298; 5331.316;  -12.080; 9052.608
834.863; 5061.536;  -13.910; 8895.087
835.428; 4655.404;  -13.470; 8824.266
835.993; 4516.250;  -11.760; 8845.385
836.558; 4733.250;  -12.731; 8888.563
837.123; 4775.081;  -12.431; 8966.582
837.688; 4562.228;  -11.241; 8617.860
838.253; 4474.551;  -13.681; 8590.699
838.817; 4647.910;  -12.531; 8443.797
839.382; 4745.831;  -12.671; 8799.356
839.947; 4801.364;  -11.541; 8810.595
840.511; 4915.984;  -12.021; 8796.394
841.076; 4997.285;  -13.071; 8347.231
841.641; 5228.394;  -11.411; 8224.330
842.205; 5427.559;  -13.671; 8223.349
842.770; 5243.401;  -11.291; 8622.107
843.334; 4948.523;  -12.951; 8410.386
843.898; 4722.408;  -11.221; 8337.465
844.463; 4745.800;  -11.322; 8506.283
845.027; 4623.222;  -11.412; 8280.962
845.591; 4368.880;  -11.512; 8231.141
846.156; 4259.449;  -14.042; 7969.179
846.720; 4264.566;  -12.152; 7768.278
847.284; 4122.010;  -10.922; 7630.957
847.848; 3940.746;  -10.962; 7472.395
848.412; 3715.786;  -14.612; 7437.394
848.976; 3822.545;  -11.492; 7674.592
849.540; 4198.247;   -9.172; 7836.011
850.104; 4370.935;  -11.232; 7913.669
850.668; 4229.101;  -15.182; 7694.508
851.232; 4068.554;  -15.332; 7756.887
851.796; 3950.644;  -13.703; 7926.545
852.359; 3924.836;  -11.113; 7827.844
852.923; 3966.115;  -11.843; 7641.163
853.487; 3941.091;  -11.173; 7342.501
854.050; 3836.419;  -13.443; 7042.820
854.614; 3789.044;  -13.823; 7151.338
855.177; 3694.520;  -16.393; 7105.077
855.741; 3615.675;  -11.693; 6989.675
856.304; 3560.225;  -10.843; 6596.634
856.868; 3406.767;  -13.783; 6356.272
857.431; 3153.779;  -11.953; 6468.571
857.995; 2922.989;  -13.683; 6373.210
858.558; 2914.500;  -11.433; 6324.448
859.121; 2935.809;  -12.493; 6408.327
859.684; 2746.554;  -12.384; 6347.886
860.247; 2440.797;  -14.774; 6321.264
860.810; 2276.508;  -13.154; 6301.903
861.374; 2305.140;  -11.264; 6607.881
861.937; 2350.434;  -15.424; 6408.200
862.500; 2315.760;  -12.854; 6572.639
863.062; 2312.435;  -12.344; 6387.297
863.625; 2364.433;  -13.314; 6190.836
864.188; 2458.115;  -14.724; 5807.254
864.751; 2668.283;  -13.464; 5682.413
865.314; 2987.649;  -11.684; 5547.492
865.876; 3144.570;  -11.104; 5500.150
866.439; 3099.836;  -12.344; 5415.909
867.002; 2918.220;  -13.494; 5501.567
867.564; 2713.493;  -10.935; 5413.946
868.127; 2630.870;  -12.665; 5160.325
868.689; 2612.757;  -14.515; 5133.183
869.252; 2655.302;  -13.425; 5252.382
869.814; 2827.537;  -11.595; 5297.141
870.377; 2839.828;  -12.175; 5390.919
870.939; 2687.657;  -10.265; 5599.898
871.501; 2553.226;  -12.375; 5248.336
872.063; 2463.406;  -14.355; 4854.235
872.626; 2393.904;  -14.435; 4817.074
873.188; 2351.616;  -12.415; 4987.732
873.750; 2376.091;  -14.555; 4868.651
874.312; 2302.155;  -11.185; 4779.330
874.874; 2160.179;  -12.715; 4866.348
875.436; 2109.005;  -13.196; 4718.887
875.998; 2061.792;  -11.426; 4660.005
876.560; 1990.610;   -9.786; 4462.964
877.122; 1967.961;  -12.796; 4145.042
877.683; 1956.122;  -13.226; 4056.481
878.245; 1899.557;  -12.036; 3950.740
878.807; 1863.775;  -11.536; 4058.958
879.369; 1865.267;  -10.806; 3954.677
879.930; 1787.844;  -13.946; 3941.495
880.492; 1660.925;  -11.876; 4067.014
881.053; 1652.186;  -13.216; 3859.633
881.615; 1722.637;  -12.226; 3776.071
882.176; 1719.583;  -12.946; 3734.750
882.738; 1636.069;  -10.736; 3678.489
883.299; 1568.528;  -12.057; 3405.407
883.860; 1542.266;  -12.677; 3351.106
884.422; 1501.327;  -14.097; 3394.044
884.983; 1397.260;  -13.667; 3166.443
885.544; 1254.099;  -10.717; 3189.802
886.105; 1166.925;  -14.357; 3160.360
886.666; 1166.340;  -14.287; 3093.059
887.227; 1176.745;  -14.297; 2941.957
887.788; 1156.783;  -13.137; 2974.836
888.349; 1068.971;  -14.637; 2721.214
888.910; 1006.364;  -12.247; 2696.493
889.471; 1000.770;  -10.577; 2560.172
890.032;  986.652;  -12.937; 2558.190
890.593;  917.739;  -12.487; 2567.669
891.153;  849.510;  -11.898; 2460.307
891.714;  853.062;  -14.278; 2372.046
892.275;  846.951;  -13.308; 2309.505
892.835;  770.586;  -12.058; 2382.543
893.396;  691.459;  -15.268; 2295.502
893.956;  646.404;  -13.278; 2162.420
894.517;  618.583;  -11.968; 2125.439
895.077;  604.428;  -12.798; 2086.978
895.638;  572.938;  -11.908; 2126.316
896.198;  538.088;  -13.288; 1838.275
896.758;  515.192;  -12.198; 1892.813
897.319;  486.534;  -13.048; 1792.232
897.879;  439.439;  -13.718; 1762.751
898.439;  400.783;  -14.138; 1661.149
898.999;  391.303;  -13.659; 1781.468
899.559;  378.155;  -14.699; 1703.347
900.119;  355.498;  -14.339; 1537.525
900.679;  334.581;  -11.789; 1638.384
901.239;  308.853;  -13.629; 1527.902
901.799;  291.151;  -13.679; 1456.441
902.359;  277.166;  -13.679; 1357.140
902.919;  266.208;  -14.159; 1331.118
903.479;  252.779;  -13.419; 1317.257
904.038;  238.424;  -14.899; 1262.595
904.598;  226.002;  -14.339; 1152.034
905.158;  220.294;  -13.959; 1240.893
905.717;  215.370;  -12.749; 1233.691
906.277;  206.352;  -11.889; 1217.330
906.836;  199.360;  -12.870; 1222.408
907.396;  196.298;  -11.790; 1193.047
907.955;  192.308;  -13.750; 1182.526
908.515;  184.725;  -14.760; 1099.364
909.074;  179.173;  -12.540; 1092.863
909.633;  172.621;  -12.120; 1069.121
910.192;  170.962;  -12.550; 1196.460
910.752;  168.893;  -12.760; 1029.960
911.311;  166.199;  -14.750; 1009.780
911.870;  161.224;  -13.860;  971.460
912.429;  158.637;  -13.480; 1094.080
912.988;  154.434;  -12.370; 1081.060
913.547;  149.984;  -14.670;  940.380
914.106;  147.455;  -12.800;  999.420
914.665;  145.710;  -11.370;  984.020
915.224;  144.612;  -11.430; 1035.760
915.782;  144.501;  -12.260;  922.560
916.341;  144.348;  -12.540; 1049.840
916.900;  140.696;  -12.540;  925.260
917.458;  139.959;  -13.480;  884.220
918.017;  139.476;  -12.470;  942.600
918.576;  137.978;  -13.450;  904.440
919.134;  136.738;  -12.890;  837.980
919.693;  134.780;  -15.480;  893.060
920.251;  133.239;  -14.420;  876.500
920.809;  133.686;  -12.170;  839.580
921.368;  131.900;  -13.650;  885.360
921.926;  131.461;  -12.750;  842.940
922.484;  131.239;  -14.150;  903.360
923.042;  132.250;  -15.100;  880.340
923.601;  136.818;  -10.990;  998.680
924.159;  138.036;  -12.470;  935.560
924.717;  136.526;  -15.640;  841.080
925.275;  137.813;  -12.380;  903.240
925.833;  138.316;  -12.710;  779.320
926.391;  139.554;  -11.200;  938.380
926.949;  140.028;  -16.000;  857.680
927.506;  141.792;  -12.260;  903.500
928.064;  143.310;  -11.300;  877.580
928.622;  143.260;  -13.750;  880.100
929.180;  141.364;  -15.290;  814.180
929.737;  141.204;  -14.500;  808.540
930.295;  143.196;  -10.630;  928.480
930.853;  145.942;  -14.590;  849.100
931.410;  149.559;  -14.450;  821.120
931.968;  150.466;  -14.390;  940.660
932.525;  149.277;  -13.050;  909.380
933.082;  149.236;  -15.620;  811.440
933.640;  153.842;  -15.650;  925.900
934.197;  157.830;  -13.610;  886.360
934.754;  162.147;  -13.320;  897.780
935.312;  165.990;  -13.370;  863.340
935.869;  168.107;  -12.780; 1012.980
936.426;  163.889;  -14.480;  872.800
936.983;  165.424;  -13.180;  889.020
937.540;  166.287;  -15.710;  838.280
938.097;  167.616;  -14.980;  940.120
938.654;  169.102;  -13.060;  898.860
939.211;  170.599;  -12.760;  952.480
939.768;  169.092;  -16.230;  915.420
940.324;  167.934;  -10.940;  904.200
940.881;  166.230;  -12.570;  878.500
941.438;  166.816;  -13.650; 1021.200
941.995;  166.834;  -13.300;  992.560
942.551;  168.300;  -15.800;  875.620
943.108;  167.952;  -14.180;  937.920
943.664;  167.253;  -13.890;  869.340
944.221;  171.872;  -12.640; 1088.140
944.777;  170.355;  -14.700;  869.680
945.334;  169.269;  -13.010;  884.840
945.890;  170.394;  -13.480;  946.480
946.446;  168.927;  -14.920;  947.020
947.003;  166.731;  -13.860;  964.940
947.559;  166.242;  -12.000; 1063.040
948.115;  166.007;  -10.510; 1026.540
948.671;  166.576;  -12.760;  967.300
949.227;  162.640;  -15.390;  859.560
949.783;  156.428;  -15.570;  858.900
950.339;  156.125;  -12.800;  991.000
950.895;  155.914;  -13.780; 1023.840
951.451;  156.176;  -13.810;  925.280
952.007;  156.284;  -12.390;  998.540
952.563;  155.210;  -11.980;  937.780
953.118;  152.965;  -14.070;  904.940
953.674;  155.824;  -14.140;  935.780
954.230;  159.488;  -12.680;  949.640
954.785;  160.664;  -12.770;  936.640
955.341;  156.746;  -11.450;  998.160
955.897;  148.507;  -15.350;  834.660
956.452;  143.834;  -14.200;  953.840
957.008;  141.553;  -10.820; 1083.640
957.563;  140.234;  -13.200; 1009.540
958.118;  140.292;  -14.460;  877.700
958.674;  141.658;  -13.840;  946.780
959.229;  141.290;  -10.670; 1013.980
959.784;  139.354;  -17.040;  832.400
960.339;  142.794;  -12.970; 1001.280
960.894;  145.937;  -12.700;  963.760
961.449;  149.876;  -13.790;  859.960
962.004;  153.941;  -11.760; 1212.840
962.559;  150.719;  -14.840;  860.140
963.114;  145.068;  -14.530;  742.480
963.669;  140.748;  -12.780;  915.500
964.224;  136.767;  -14.330;  874.340
964.779;  133.100;  -14.380;  828.420
965.334;  129.871;  -12.460; 1017.860
965.888;  126.540;  -13.490;  875.360
966.443;  126.242;  -14.140;  972.380
966.998;  125.349;  -16.240;  819.460
967.552;  124.938;  -12.730;  908.380
968.107;  121.783;  -14.510;  868.300
968.661;  122.660;  -11.850;  922.440
969.216;  121.181;  -14.370;  856.280
969.770;  118.149;  -13.010;  917.200
970.324;  116.748;  -12.460;  923.140
970.879;  117.931;  -11.580;  947.180
971.433;  119.866;  -13.130;  952.720
971.987;  116.252;  -12.360;  895.340
972.541;  112.584;  -14.330;  917.100
973.095;  110.605;  -13.310; 1009.460
973.649;  107.788;  -15.830;  809.480
974.203;  106.863;  -15.830;  829.040
974.757;  110.006;  -13.480;  855.220
975.311;  112.844;  -13.720;  872.600
975.865;  113.631;  -15.780;  881.820
976.419;  111.304;  -14.290;  857.400
976.973;  107.774;  -13.210;  849.620
977.526;  106.501;  -12.300;  949.920
978.080;  101.339;  -14.840;  796.780
978.634;   99.032;  -13.100;  921.320
979.187;   96.316;  -12.300;  905.400
979.741;   95.918;  -12.020; 1018.380
980.294;   93.237;  -14.590;  789.160
980.848;   91.833;  -14.390;  717.220
981.401;   92.099;  -14.280;  816.540
981.955;   91.512;  -11.920;  844.300
982.508;   88.360;  -15.790;  746.340
983.061;   88.192;  -12.070;  915.260
983.615;   84.883;  -13.260;  798.800
984.168;   83.668;  -15.540;  770.080
984.721;   82.555;  -13.230;  880.760
985.274;   80.143;  -11.820;  867.500
985.827;   78.228;  -13.510;  834.220
986.380;   76.983;  -14.840;  721.340
986.933;   77.989;  -13.970;  864.800
987.486;   76.398;  -12.450;  861.920
988.039;   74.432;  -11.170;  863.100
988.591;   72.026;  -13.070;  893.260
989.144;   69.440;  -15.530;  737.260
989.697;   69.036;  -14.300;  758.740
990.250;   68.973;  -13.310;  858.100
990.802;   66.246;  -14.490;  755.860
991.355;   67.727;  -12.980;  974.880
991.907;   65.638;  -13.715;  864.320
992.460;   63.549;  -14.450;  753.760
993.012;   61.799;  -12.590;  749.540
993.565;   59.949;  -15.180;  711.360
994.117;   61.225;  -11.630;  950.780
994.669;   57.773;  -13.760;  701.320
995.221;   58.395;  -12.710;  791.920
995.774;   57.695;  -14.620;  787.580
996.326;   56.186;  -13.150;  740.220
996.878;   56.767;  -12.880;  838.420
997.430;   54.548;  -14.580;  699.860
997.982;   53.632;  -14.030;  750.140
998.534;   53.496;  -12.190;  739.060
999.086;   51.658;  -12.990;  738.220
999.638;   50.422;  -13.180;  661.380
1000.190;   49.651;  -14.970;  699.320
1000.741;   48.949;  -12.200;  742.700
1001.293;   49.198;  -13.400;  686.020
1001.845;   48.014;  -14.490;  676.640
1002.396;   49.221;  -15.280;  743.400
1002.948;   48.308;  -12.380;  737.400
1003.500;   48.277;  -13.260;  723.780
1004.051;   48.658;  -13.730;  907.580
1004.603;   47.717;  -12.300;  791.820
1005.154;   43.942;  -15.330;  608.980
1005.705;   42.636;  -12.800;  723.960
1006.257;   42.270;  -13.900;  707.220
1006.808;   41.902;  -14.430;  685.460
1007.359;   41.278;  -12.010;  763.240
1007.910;   39.204;  -12.690;  646.640
1008.461;   39.271;  -13.610;  732.940
1009.013;   38.114;  -14.990;  588.340
1009.564;   39.295;  -11.860;  793.520
1010.115;   36.462;  -12.640;  597.040
1010.665;   36.587;  -14.570;  602.160
1011.216;   37.564;  -15.190;  667.920
1011.767;   37.074;  -13.470;  697.920
1012.318;   37.251;  -13.760;  736.980
1012.869;   35.881;  -15.950;  679.000
1013.419;   35.510;  -15.880;  603.120
1013.970;   35.229;  -14.540;  666.640
1014.521;   34.242;  -13.220;  620.620
1015.071;   34.952;  -15.020;  670.380
1015.622;   34.549;  -17.510;  635.460
1016.172;   33.599;  -14.130;  596.820
1016.723;   33.343;  -14.220;  614.380
1017.273;   33.265;  -15.370;  604.160
1017.823;   34.108;  -15.290;  650.340
1018.374;   33.367;  -13.420;  611.760
1018.924;   32.828;  -11.740;  716.880
1019.474;   33.200;  -12.250;  718.880
1020.024;   32.568;  -15.850;  657.580
1020.574;   32.855;  -13.280;  726.160
1021.124;   33.108;  -13.560;  673.580
1021.674;   30.433;  -13.790;  559.120
1022.224;   32.611;  -14.610;  708.940
1022.774;   31.597;  -13.100;  668.820
1023.324;   31.799;  -11.470;  753.520
1023.874;   33.066;  -11.990;  875.760
1024.423;   30.780;  -14.550;  613.700
1024.973;   29.321;  -14.440;  610.760
1025.523;   29.242;  -13.250;  620.960
1026.072;   29.110;  -15.200;  606.420
1026.622;   29.133;  -14.590;  675.740
1027.172;   30.540;  -11.080;  715.660
1027.721;   28.682;  -14.010;  601.220
1028.270;   29.831;  -13.690;  663.400
1028.820;   30.065;  -15.380;  638.080
1029.369;   28.702;  -14.980;  612.700
1029.918;   28.497;  -13.100;  649.840
1030.468;   27.938;  -13.680;  564.780
1031.017;   29.479;  -13.770;  634.800
1031.566;   27.164;  -14.100;  608.900
1032.115;   28.617;  -11.770;  694.500
1032.664;   27.159;  -14.940;  596.480
1033.213;   28.792;  -13.370;  735.420
1033.762;   27.171;  -13.660;  635.620
1034.311;   26.490;  -13.650;  677.220
1034.860;   27.785;  -13.820;  691.000
1035.408;   27.830;  -12.860;  722.720
1035.957;   27.249;  -13.060;  719.540
1036.506;   24.527;  -14.510;  530.800
1037.055;   28.438;  -13.470;  844.320
1037.603;   26.378;  -14.800;  664.000
1038.152;   24.950;  -14.190;  534.760
1038.700;   24.916;  -11.810;  585.740
1039.249;   25.212;  -12.850;  681.220
1039.797;   25.616;  -14.610;  633.360
1040.345;   25.770;  -15.220;  705.420
1040.894;   24.389;  -13.480;  625.300
1041.442;   24.096;  -13.310;  632.200
1041.990;   23.376;  -14.510;  559.160
1042.538;   23.733;  -15.700;  536.180
1043.087;   22.913;  -13.910;  570.860
1043.635;   25.017;  -13.620;  670.500
1044.183;   23.549;  -14.230;  586.400
1044.731;   23.160;  -13.730;  576.000
1045.279;   22.796;  -13.970;  674.920
1045.827;   25.566;  -10.750;  892.400
1046.374;   22.797;  -15.230;  515.420
1046.922;   22.515;  -15.390;  590.580
1047.470;   23.621;  -12.320;  691.300
1048.018;   22.975;  -13.230;  647.960
1048.565;   24.136;  -13.390;  708.600
1049.113;   21.032;  -15.030;  557.000
1049.660;   21.193;  -12.540;  629.660
1050.208;   21.541;  -15.040;  675.640
1050.755;   21.698;  -14.680;  606.580
1051.303;   21.862;  -13.610;  686.820
1051.850;   22.084;  -14.340;  635.120
1052.397;   18.988;  -16.330;  473.960
1052.945;   21.009;  -15.710;  617.760
1053.492;   21.888;  -12.320;  741.840
1054.039;   21.710;  -13.730;  720.180
1054.586;   19.686;  -16.140;  557.240
1055.133;   20.969;  -14.020;  693.140
1055.680;   20.751;  -13.430;  646.620
1056.227;   19.388;  -14.570;  542.780
1056.774;   22.299;  -14.400;  794.980
1057.321;   19.133;  -14.230;  523.260
1057.868;   19.871;  -14.220;  651.320
1058.415;   19.269;  -14.060;  651.980
1058.961;   20.477;  -14.640;  678.940
1059.508;   19.625;  -13.970;  643.820
1060.055;   18.634;  -15.100;  581.780
1060.601;   19.541;  -12.180;  624.300
1061.148;   19.027;  -15.010;  616.820
1061.694;   19.002;  -14.750;  592.580
1062.241;   18.687;  -14.130;  596.320
1062.787;   18.272;  -14.770;  663.140
1063.334;   20.675;  -13.130;  808.560
1063.880;   18.275;  -14.420;  668.360
1064.426;   18.906;  -13.130;  706.820
1064.972;   17.443;  -13.960;  601.340
1065.518;   16.680;  -13.680;  566.640
1066.065;   18.330;  -15.720;  624.460
1066.611;   16.933;  -13.970;  598.800
1067.157;   17.405;  -13.920;  641.860
1067.703;   17.035;  -14.760;  668.480
1068.249;   17.752;  -14.490;  605.220
1068.794;   17.424;  -14.740;  626.880
1069.340;   15.656;  -13.220;  578.960
1069.886;   16.455;  -14.930;  590.700
1070.432;   16.118;  -14.700;  541.720
1070.977;   16.092;  -14.470;  601.080
1071.523;   15.808;  -14.330;  573.060
1072.068;   16.117;  -14.960;  582.000
1072.614;   15.728;  -16.220;  527.760
1073.160;   17.132;  -11.280;  687.040
1073.705;   15.048;  -15.990;  572.520
1074.250;   14.428;  -16.550;  559.900
1074.796;   16.775;  -14.600;  655.160
1075.341;   16.103;  -13.440;  664.100
1075.886;   15.162;  -14.450;  594.240
1076.431;   15.462;  -13.160;  649.880
1076.976;   15.044;  -14.710;  639.220
1077.521;   14.433;  -14.000;  583.080
1078.067;   13.802;  -14.470;  579.400
1078.612;   14.762;  -14.530;  661.620
1079.156;   14.691;  -15.660;  601.540
1079.701;   14.827;  -16.120;  693.260
1080.246;   15.483;  -12.960;  696.300
1080.791;   14.371;  -13.700;  625.020
1081.336;   15.483;  -15.540;  659.320
1081.880;   14.441;  -14.640;  649.680
1082.425;   13.398;  -14.220;  573.480
1082.970;   15.740;  -11.890;  717.040
1083.514;   13.593;  -13.820;  597.000
1084.059;   13.379;  -14.280;  586.720
1084.603;   13.084;  -12.890;  565.840
1085.147;   13.412;  -13.590;  645.220
1085.692;   14.269;  -14.050;  716.800
1086.236;   11.296;  -14.990;  503.140
1086.780;   13.891;  -12.640;  751.440
1087.325;   12.769;  -15.550;  654.620
1087.869;   13.030;  -14.980;  610.700
1088.413;   13.651;  -13.440;  705.040
1088.957;   11.481;  -12.170;  543.400
1089.501;   14.051;  -12.730;  766.640
1090.045;   13.390;  -14.650;  726.480
1090.589;   10.704;  -14.500;  569.920
1091.133;   12.596;  -12.320;  673.340
1091.676;   11.895;  -16.130;  591.940
1092.220;   11.765;  -13.930;  600.920
1092.764;   13.220;  -12.820;  706.960
1093.307;   12.482;  -11.700;  673.780
1093.851;   10.840;  -15.600;  556.540
1094.395;   12.495;  -13.920;  683.140
1094.938;   11.115;  -16.090;  632.520
1095.482;   11.124;  -13.820;  559.800
1096.025;   12.677;  -12.720;  710.880
1096.568;   13.128;  -12.100;  779.280
1097.112;    8.899;  -15.450;  508.180
1097.655;   10.928;  -14.310;  603.000
1098.198;    9.700;  -14.740;  600.180
1098.741;   10.075;  -15.550;  612.860
1099.285;   10.976;  -12.600;  657.300
1099.828;    8.574;  -15.050;  439.400
1100.371;   10.152;  -14.800;  608.160
1100.914;   10.866;  -16.480;  682.660
1101.457;   10.303;  -12.990;  679.900
1101.999;    8.985;  -14.110;  584.680
1102.542;   10.167;  -11.450;  641.440
1103.085;    9.647;  -13.350;  658.500
1103.628;    9.883;  -13.200;  762.060
1104.170;    8.829;  -12.310;  588.280
1104.713;   10.460;  -14.320;  646.700
1105.256;    9.063;  -16.110;  557.440
1105.798;    7.621;  -15.910;  499.980
1106.341;   10.175;  -12.200;  728.900
1106.883;    8.395;  -14.910;  521.340
1107.425;    9.122;  -14.960;  668.180
1107.968;    8.948;  -13.440;  612.380
1108.510;   10.071;  -14.010;  684.960
1109.052;    8.131;  -15.430;  612.620
1109.594;    7.835;  -15.290;  554.440
1110.136;    8.420;  -13.360;  643.220
1110.679;    8.286;  -13.820;  633.080
1111.221;    8.350;  -13.690;  604.460
1111.763;    7.132;  -14.890;  559.220
1112.304;    6.847;  -14.550;  547.140
1112.846;    8.122;  -12.760;  666.240
1113.388;   11.157;  -10.780;  942.180
1113.930;    8.967;  -12.690;  694.200
1114.472;    7.601;  -15.730;  606.540
1115.013;    5.748;  -14.620;  551.280
1115.555;    6.264;  -14.950;  587.100
1116.097;    6.748;  -16.460;  579.480
1116.638;    7.485;  -13.730;  684.600
1117.180;    7.280;  -13.810;  667.740
1117.721;    6.872;  -13.280;  568.580
1118.262;    7.477;  -15.080;  677.960
1118.804;    7.548;  -14.040;  637.340
1119.345;    6.037;  -15.430;  578.400
1119.886;    7.923;  -15.240;  704.040
1120.427;    6.434;  -15.820;  589.020
1120.969;    5.577;  -14.550;  597.920
1121.510;    4.931;  -14.030;  563.060
1122.051;    6.807;  -11.990;  723.580
1122.592;    5.775;  -16.490;  655.420
1123.133;    4.473;  -15.580;  547.940
1123.673;    6.624;  -12.850;  706.480
1124.214;    5.643;  -13.630;  612.460
1124.755;    6.552;  -14.830;  639.460
1125.296;    5.687;  -13.110;  627.320
1125.836;    6.274;  -11.320;  691.500
1126.377;    5.297;  -14.330;  599.660
1126.918;    6.645;  -12.800;  614.980
1127.458;    4.585;  -13.580;  622.220
1127.999;    4.757;  -10.330;  656.980
1128.539;    5.583;  -13.390;  694.240
1129.079;    5.656;  -16.420;  632.720
1129.620;    4.478;  -15.700;  558.100
1130.160;    3.600;  -14.790;  539.480
1130.700;    4.758;  -12.910;  640.840
1131.240;    5.575;  -15.610;  643.700
1131.781;    4.010;  -12.920;  619.680
1132.321;    3.688;  -15.300;  599.120
1132.861;    3.278;  -14.760;  564.200
1133.401;    3.864;  -15.470;  593.940
1133.941;    4.305;  -13.710;  626.280
1134.481;    3.554;  -11.820;  597.580
1135.020;    3.106;  -14.810;  609.160
1135.560;    4.459;  -13.660;  674.940
1136.100;    3.152;  -13.940;  501.160
1136.640;    3.133;  -15.410;  510.480
1137.179;    2.593;  -16.920;  537.960
1137.719;    3.821;  -16.430;  605.400
1138.258;    2.965;  -16.300;  587.360
1138.798;    3.592;  -13.710;  663.780
1139.337;    1.903;  -13.840;  482.840
1139.877;    3.900;  -16.140;  642.360
1140.416;    5.986;  -11.410;  878.060
1140.955;    2.017;  -12.820;  535.380
1141.494;    3.559;  -12.310;  669.280
1142.034;    2.529;  -16.280;  583.520
1142.573;    4.114;  -13.090;  646.280
1143.112;    2.323;  -13.770;  553.480
1143.651;    1.802;  -15.830;  536.480
1144.190;    4.358;  -15.010;  691.640
1144.729;    2.637;  -13.650;  607.420
1145.267;    2.520;  -13.670;  584.900
1145.806;    3.351;  -13.630;  637.040
1146.345;    2.034;  -14.160;  635.020
1146.884;    1.934;  -11.180;  622.500
1147.422;    1.576;  -15.890;  533.060
1147.961;    2.996;  -12.760;  708.460
1148.500;    2.171;  -15.220;  669.720
1149.038;    2.950;  -13.720;  632.500
1149.577;    2.599;  -13.250;  698.640
1150.115;    0.244;  -16.790;  452.280
1150.653;    2.421;  -15.810;  607.340
1151.192;    1.820;  -14.730;  552.920
1151.730;    1.747;  -13.660;  652.560
1152.268;    0.922;  -15.120;  589.520
1152.806;    1.242;  -15.580;  571.180
1153.344;    0.291;  -16.210;  577.640
1153.882;    1.791;  -12.810;  600.060
1154.421;   -0.009;  -14.150;  470.620
1154.958;    1.320;  -15.360;  595.240
1155.496;    1.925;  -14.710;  645.280
1156.034;    1.910;  -13.640;  721.880
1156.572;    2.276;  -13.740;  667.060
1157.110;   -0.480;  -16.960;  473.940
1157.647;    1.291;  -11.940;  676.960
1158.185;    0.145;  -14.090;  564.320
1158.723;   -1.316;  -13.610;  509.200
1159.260;    1.477;  -14.760;  701.700
1159.798;    1.186;  -13.700;  658.160
1160.335;    0.077;  -13.820;  631.820

