
Integration time [ms]:   3.276
Averaging Nr. [scans]: 1000
Smoothing Nr. [pixels]: 0
Data measured with spectrometer [name]: 7414430SP
Wave   ;Sample   ;Dark     ;Reference
[nm]   ;[counts] ;[counts] ;[counts] 

288.544;  150.129;    7.793;  793.890
289.143;  152.777;    7.462;  681.602
289.742;  153.333;    8.602;  828.814
290.341;  138.134;    1.321;  789.841
290.940;  126.917;   -0.709;  730.702
291.538;  127.735;    0.881;  881.108
292.137;  128.163;    0.122;  792.581
292.736;  132.426;   -1.929;  975.101
293.335;  130.114;   -8.229;  735.086
293.934;  130.226;   -5.279;  781.677
294.532;  127.615;   -1.369; 1031.958
295.131;  114.454;   -7.641;  834.394
295.730;  113.867;   -8.420;  809.588
296.328;  112.645;   -5.611;  783.442
296.927;  114.058;   -5.781;  779.652
297.525;  115.188;   -6.361;  781.236
298.124;  105.234;  -11.382;  654.009
298.722;  109.174;   -7.641;  761.933
299.321;  106.716;   -6.811;  708.597
299.919;  105.430;   -6.991;  751.918
300.518;  103.012;  -10.362;  689.338
301.116;  104.653;   -9.581;  691.381
301.715;  104.140;   -4.891;  730.222
302.313;  102.521;   -8.801;  704.943
302.911;   97.761;   -8.522;  733.830
303.509;  103.875;   -6.171;  925.627
304.108;  101.359;   -7.311;  760.383
304.706;  100.561;   -8.321;  801.664
305.304;   94.674;  -10.222;  796.707
305.902;   99.754;   -6.021;  784.484
306.500;   95.882;   -4.971;  728.200
307.098;   95.128;   -7.061;  746.560
307.696;   92.479;   -8.801;  780.432
308.294;   92.555;   -6.411;  731.359
308.892;   94.711;   -2.901;  759.769
309.490;   91.590;   -5.041;  712.161
310.088;   89.179;   -5.002;  788.444
310.686;   93.190;   -2.041;  821.749
311.284;   88.542;   -2.351;  766.040
311.882;   87.670;   -4.422;  731.225
312.480;   84.305;   -4.192;  697.167
313.078;   84.729;   -1.172;  808.331
313.675;   86.135;   -2.601;  691.600
314.273;   81.632;   -1.312;  797.837
314.871;   80.996;   -3.942;  589.829
315.468;   78.262;   -2.802;  652.090
316.066;   81.588;   -0.701;  694.427
316.664;   74.092;   -4.362;  656.351
317.261;   78.639;   -2.872;  910.128
317.859;   73.404;   -2.022;  768.735
318.456;   75.299;   -0.531;  830.096
319.054;   70.518;   -3.912;  787.828
319.651;   69.889;   -4.752;  759.928
320.249;   68.048;   -2.602;  810.188
320.846;   65.654;   -0.821;  714.286
321.443;   63.275;   -4.642;  832.135
322.041;   60.494;   -5.002;  812.315
322.638;   57.800;   -3.982;  701.456
323.235;   59.332;   -3.411;  665.683
323.833;   57.091;   -7.361;  740.354
324.430;   52.215;   -8.611;  615.900
325.027;   52.276;   -4.061;  876.855
325.624;   52.226;   -4.031;  644.532
326.221;   51.063;   -7.481;  689.717
326.818;   48.792;   -5.281;  818.332
327.415;   52.625;   -7.460;  748.828
328.012;   52.401;   -5.510;  690.585
328.609;   51.152;   -7.880;  731.389
329.206;   49.337;   -8.331;  778.621
329.803;   49.314;   -5.121;  737.841
330.400;   52.045;   -4.510;  704.260
330.997;   53.441;   -6.441;  817.147
331.594;   52.510;   -8.831;  788.185
332.191;   57.302;   -7.621;  728.722
332.787;   59.789;   -4.591;  844.463
333.384;   59.033;   -7.412;  763.093
333.981;   56.935;   -8.293;  815.687
334.578;   60.355;   -7.052;  708.378
335.174;   62.463;   -3.102;  731.469
335.771;   63.230;   -5.943;  836.456
336.367;   59.267;   -7.393;  710.631
336.964;   62.927;   -4.063;  793.266
337.561;   60.001;   -3.813;  731.112
338.157;   56.304;   -4.654;  911.916
338.754;   54.022;   -7.934;  796.589
339.350;   51.941;   -4.414;  722.493
339.946;   52.649;   -4.664;  773.135
340.543;   46.374;   -6.375;  846.136
341.139;   40.464;   -9.815;  720.836
341.735;   38.502;   -4.526;  772.593
342.332;   36.776;   -4.895;  691.472
342.928;   37.785;   -4.295;  795.394
343.524;   32.139;   -5.476;  761.684
344.120;   28.028;   -5.856;  738.562
344.716;   30.950;   -2.155;  723.717
345.313;   29.388;   -6.275;  795.342
345.909;   24.107;   -8.815;  627.336
346.505;   25.201;   -5.305;  740.247
347.101;   26.742;   -2.674;  827.864
347.697;   26.447;   -4.344;  785.398
348.293;   21.212;   -9.975;  627.244
348.889;   22.578;   -5.774;  745.914
349.485;   21.696;   -5.004;  688.205
350.081;   22.585;   -4.704;  772.592
350.676;   17.336;   -6.635;  691.606
351.272;   21.357;   -4.504;  809.530
351.868;   21.136;   -3.914;  780.497
352.464;   17.942;   -9.044;  723.932
353.059;   14.195;   -8.314;  646.017
353.655;   18.701;   -7.024;  777.063
354.251;   19.623;   -5.343;  759.845
354.846;   14.003;   -8.604;  740.646
355.442;   11.673;   -6.945;  753.071
356.038;   13.338;   -7.564;  751.708
356.633;   13.664;   -5.814;  728.594
357.229;   11.136;   -7.364;  724.757
357.824;    9.986;   -8.024;  703.600
358.420;    8.844;   -9.384;  679.726
359.015;    9.541;   -5.104;  695.357
359.610;   10.730;   -6.854;  763.920
360.206;    5.092;  -10.185;  603.240
360.801;    7.283;   -7.054;  646.503
361.396;    8.934;   -5.034;  725.975
361.992;    5.093;   -8.284;  668.220
362.587;    2.553;   -8.625;  670.160
363.182;    4.588;   -7.674;  689.631
363.777;    5.138;   -5.164;  738.242
364.372;    5.110;   -8.604;  737.314
364.967;    1.557;   -9.055;  680.744
365.563;    5.225;   -6.114;  815.567
366.158;    2.277;   -5.814;  685.161
366.753;    2.744;   -7.854;  649.263
367.348;    1.400;   -7.804;  746.056
367.942;    0.993;   -7.954;  697.298
368.537;    0.621;   -4.984;  754.245
369.132;    0.928;   -8.564;  703.428
369.727;   -3.032;   -8.855;  638.079
370.322;   -2.187;   -6.245;  580.186
370.917;   -2.450;   -6.425;  710.646
371.511;    0.474;   -6.294;  861.834
372.106;   -2.397;   -7.685;  776.964
372.701;   -6.076;   -7.335;  585.988
373.296;   -0.897;   -4.564;  863.135
373.890;   -5.029;  -10.235;  647.840
374.485;   -7.340;   -7.885;  691.199
375.079;   -3.260;   -7.324;  738.685
375.674;   -1.648;   -3.494;  812.970
376.268;   -7.008;   -8.525;  691.759
376.863;  -11.949;  -10.086;  580.327
377.457;   -6.616;   -7.025;  662.490
378.052;   -7.894;   -3.585;  764.884
378.646;   -9.195;   -7.595;  741.167
379.240;   -8.857;   -8.335;  721.176
379.835;   -7.927;   -5.785;  636.978
380.429;  -10.401;   -4.335;  562.557
381.023;   -9.849;   -6.805;  779.205
381.617;  -12.527;   -9.195;  680.106
382.212;   -8.940;   -6.905;  685.303
382.806;   -8.649;   -3.745;  760.690
383.400;  -12.385;   -7.745;  672.281
383.994;  -13.390;   -9.765;  664.870
384.588;   -9.502;   -6.564;  697.701
385.182;   -7.834;   -5.344;  726.624
385.776;   -9.828;   -8.514;  706.875
386.370;  -12.732;   -9.555;  681.968
386.964;  -11.984;   -8.715;  684.155
387.558;   -9.999;   -6.174;  598.360
388.152;  -13.268;   -8.725;  681.959
388.745;  -12.079;   -7.965;  814.707
389.339;  -10.202;   -5.924;  747.642
389.933;   -9.382;   -5.524;  695.370
390.527;   -9.785;   -7.114;  859.029
391.120;  -15.992;  -10.725;  595.318
391.714;  -13.481;   -8.035;  711.633
392.308;  -10.259;   -3.574;  780.253
392.901;  -14.330;   -7.245;  642.460
393.495;  -14.942;   -9.285;  595.414
394.089;  -13.674;   -5.895;  760.452
394.682;  -14.395;   -4.295;  697.188
395.275;  -14.487;   -9.875;  719.927
395.869;  -16.548;   -8.485;  667.314
396.462;  -14.141;   -7.455;  616.609
397.056;  -10.834;   -5.424;  776.621
397.649;  -15.566;   -6.605;  731.575
398.242;  -12.582;   -8.224;  712.645
398.836;  -12.386;   -7.474;  766.408
399.429;  -13.024;   -7.094;  631.041
400.022;  -15.647;   -9.475;  665.902
400.615;  -13.609;   -7.145;  805.609
401.208;  -12.114;   -7.174;  691.451
401.802;  -14.672;   -5.515;  699.329
402.395;  -15.407;   -9.875;  683.502
402.988;  -16.567;   -8.845;  696.627
403.581;  -13.745;   -8.874;  646.878
404.174;  -10.940;   -5.324;  686.568
404.767;  -14.166;   -9.575;  638.583
405.360;  -16.422;  -10.965;  621.445
405.953;  -11.052;   -8.764;  759.034
406.545;  -10.143;   -7.514;  725.342
407.138;  -14.960;  -10.025;  618.350
407.731;  -14.060;  -10.034;  613.303
408.324;  -10.278;   -9.374;  660.554
408.917;  -10.571;   -6.534;  681.864
409.509;  -12.748;   -8.004;  740.396
410.102;  -15.204;   -9.875;  643.948
410.695;   -8.296;   -8.604;  665.758
411.287;   -9.561;   -6.794;  599.821
411.880;  -10.417;   -9.334;  585.421
412.472;  -13.420;  -10.254;  613.092
413.065;  -10.885;   -6.714;  629.408
413.657;   -8.760;   -7.234;  576.678
414.250;   -8.632;  -10.544;  646.681
414.842;  -10.428;   -9.744;  676.353
415.434;   -8.757;   -6.994;  570.463
416.027;   -4.067;   -5.893;  652.196
416.619;   -6.294;   -7.264;  713.400
417.211;   -6.764;  -10.374;  599.352
417.804;   -3.839;   -7.993;  628.499
418.396;   -7.157;   -7.234;  607.643
418.988;   -5.056;   -9.443;  659.238
419.580;   -8.201;  -10.724;  568.276
420.172;   -6.180;  -10.323;  536.196
420.764;   -1.617;   -8.793;  672.482
421.356;   -3.029;  -11.143;  636.898
421.948;   -3.799;   -8.293;  677.661
422.540;    1.304;   -7.893;  680.027
423.132;    0.207;   -7.082;  600.641
423.724;   -2.639;   -8.653;  561.267
424.316;   -1.118;  -10.213;  621.345
424.908;    1.948;   -9.762;  591.517
425.500;    2.984;   -5.572;  647.978
426.092;    3.797;   -8.422;  648.268
426.683;    3.104;   -9.283;  684.836
427.275;    5.713;   -7.852;  641.471
427.867;    7.668;   -5.272;  668.948
428.458;    7.298;   -7.682;  732.344
429.050;    5.089;  -10.612;  680.749
429.642;    7.579;   -9.882;  743.124
430.233;    8.732;   -6.962;  569.356
430.825;   10.107;   -6.842;  724.809
431.416;    6.764;   -9.672;  698.241
432.008;   10.179;   -6.552;  651.723
432.599;   11.851;   -6.891;  656.073
433.190;    8.292;  -10.912;  637.670
433.782;    7.126;  -11.172;  590.395
434.373;   14.803;   -6.061;  884.765
434.964;   14.082;   -8.251;  602.920
435.556;   11.723;   -9.722;  634.537
436.147;   14.023;   -9.082;  758.490
436.738;   14.342;   -8.041;  701.099
437.329;   19.415;   -7.341;  721.723
437.920;   12.896;   -8.162;  666.688
438.511;   12.277;  -11.802;  564.526
439.103;   18.914;  -10.191;  623.998
439.694;   20.357;   -7.601;  681.583
440.285;   21.659;   -8.541;  764.432
440.876;   18.973;   -9.751;  845.738
441.466;   19.406;   -9.401;  575.162
442.057;   24.638;   -7.760;  665.814
442.648;   23.739;   -9.971;  746.255
443.239;   21.466;  -11.001;  620.477
443.830;   26.016;   -7.990;  704.958
444.421;   27.997;   -7.910;  655.474
445.011;   24.608;   -8.131;  693.619
445.602;   23.939;   -7.111;  743.126
446.193;   25.917;  -10.920;  488.117
446.783;   31.027;   -6.500;  640.397
447.374;   26.016;   -8.671;  692.759
447.964;   26.764;  -10.781;  713.770
448.555;   35.282;   -9.650;  822.742
449.145;   31.334;   -8.660;  662.853
449.736;   33.437;   -8.990;  803.179
450.326;   31.993;   -9.500;  713.626
450.917;   37.290;   -8.680;  675.324
451.507;   35.654;   -7.520;  600.661
452.097;   37.059;   -8.590;  746.267
452.688;   37.992;  -11.340;  742.160
453.278;   37.372;  -10.100;  566.840
453.868;   42.294;   -6.019;  793.550
454.458;   40.797;   -9.440;  651.141
455.048;   40.018;  -10.560;  711.783
455.639;   41.807;  -11.799;  567.096
456.229;   44.344;   -6.899;  710.694
456.819;   47.492;   -7.389;  751.158
457.409;   47.403;  -11.119;  773.993
457.999;   49.431;   -9.289;  737.505
458.589;   49.166;   -6.139;  686.606
459.179;   50.302;   -8.729;  717.658
459.769;   48.334;   -9.789;  627.099
460.358;   52.827;  -10.259;  797.262
460.948;   52.715;   -7.299;  689.503
461.538;   54.660;  -10.289;  660.677
462.128;   52.305;  -11.269;  664.934
462.717;   59.090;   -9.368;  710.326
463.307;   62.169;   -7.908;  705.846
463.897;   57.800;   -9.599;  656.942
464.486;   56.924;   -9.769;  837.128
465.076;   61.236;   -8.048;  733.776
465.666;   65.296;   -9.358;  652.900
466.255;   62.817;   -7.919;  785.651
466.845;   61.620;  -11.689;  666.749
467.434;   65.009;   -7.818;  725.873
468.023;   65.700;   -7.678;  658.357
468.613;   63.918;  -10.939;  713.946
469.202;   67.031;  -10.118;  646.507
469.791;   71.656;   -9.108;  737.811
470.381;   73.448;   -6.058;  742.813
470.970;   74.080;  -10.428;  711.099
471.559;   72.927;  -10.268;  733.291
472.148;   76.444;   -8.448;  675.737
472.738;   78.541;   -6.917;  765.466
473.327;   77.946;  -11.978;  637.529
473.916;   77.230;  -11.888;  737.446
474.505;   81.962;   -9.437;  751.703
475.094;   85.074;   -6.747;  806.570
475.683;   84.788;   -9.367;  797.699
476.272;   85.387;  -12.637;  730.632
476.861;   88.185;  -10.027;  706.754
477.449;   94.431;   -8.716;  728.487
478.038;   89.391;   -9.577;  692.513
478.627;   91.012;   -9.718;  714.852
479.216;   97.581;   -8.947;  769.441
479.805;  100.115;   -6.256;  783.375
480.393;   98.931;   -7.937; 1008.945
480.982;   97.761;   -7.717;  874.501
481.571;  105.184;   -9.266;  858.333
482.159;  105.362;   -7.636;  705.386
482.748;  105.991;   -9.667;  821.385
483.336;  109.795;  -10.376;  858.209
483.925;  109.790;   -7.147;  774.373
484.513;  117.352;   -7.996;  758.962
485.102;  113.383;  -10.027;  810.965
485.690;  122.797;  -10.446; 1011.050
486.278;  124.962;   -8.446;  979.329
486.867;  125.502;   -6.356;  809.662
487.455;  126.933;   -9.136;  898.229
488.043;  128.495;  -10.646;  748.361
488.631;  137.514;   -7.456; 1005.079
489.220;  141.372;   -6.636;  908.626
489.808;  141.732;  -11.036;  741.415
490.396;  149.394;  -10.246;  914.645
490.984;  155.885;   -8.556;  830.161
491.572;  167.005;   -5.886;  940.315
492.160;  172.542;   -9.486;  919.081
492.748;  186.262;  -10.976;  884.341
493.336;  210.229;   -8.776; 1019.693
493.924;  239.008;   -5.465;  958.077
494.512;  269.252;   -9.986; 1066.638
495.100;  308.979;  -10.636; 1103.280
495.687;  366.823;  -10.885; 1206.373
496.275;  435.891;   -8.126; 1150.796
496.863;  510.599;  -10.586; 1281.171
497.451;  619.637;  -11.926; 1386.805
498.038;  757.636;  -10.885; 1556.729
498.626;  873.200;   -6.315; 1741.407
499.214; 1037.868;   -7.326; 2016.609
499.801; 1245.960;  -11.906; 2220.633
500.389; 1516.135;  -10.466; 2312.494
500.976; 1836.454;   -5.236; 2744.849
501.564; 2307.696;   -8.936; 3148.565
502.151; 2694.667;  -13.176; 3515.999
502.738; 3148.136;  -10.646; 3971.274
503.326; 3572.112;   -9.525; 4403.796
503.913; 3985.086;  -10.856; 5161.749
504.500; 4373.162;  -11.586; 5986.420
505.088; 4810.813;  -10.336; 6381.201
505.675; 5331.828;   -6.355; 6925.547
506.262; 6066.636;   -9.046; 7619.060
506.849; 6799.390;  -10.416; 8733.969
507.436; 7266.303;  -10.305; 9790.121
508.023; 7844.031;   -5.496; 9985.472
508.610; 8145.053;   -7.856;10434.618
509.197; 8827.898;  -10.097;11198.435
509.784;10164.433;  -10.886;12391.194
510.371;11242.793;   -9.315;13603.713
510.958;11948.194;   -9.936;14426.586
511.545;12688.747;   -9.326;15243.775
512.132;13432.109;  -10.075;15945.876
512.719;13891.260;   -7.796;16340.369
513.305;14868.397;  -10.606;18011.766
513.892;15553.507;  -11.486;19754.971
514.479;16846.709;   -9.126;20967.805
515.066;18498.711;   -6.026;22299.793
515.652;19882.957;   -8.466;22908.660
516.239;20903.629;  -10.886;23798.875
516.825;21661.586;  -11.496;25567.275
517.412;22599.477;   -5.796;28154.959
517.998;23288.066;  -10.506;28344.111
518.585;23510.695;  -10.076;27134.219
519.171;23978.227;   -8.315;27268.576
519.758;25274.822;   -8.596;28964.129
520.344;27030.016;   -8.466;30664.494
520.930;27027.893;  -11.006;32550.605
521.516;28056.828;  -10.495;35422.895
522.103;30011.563;   -5.526;38280.004
522.689;30262.697;   -8.746;37835.117
523.275;29848.000;  -11.376;37288.613
523.861;31365.594;  -11.156;37281.395
524.447;32722.594;   -8.135;37846.949
525.033;32254.678;   -7.896;38321.949
525.619;31923.531;  -12.476;38579.285
526.205;33085.684;   -9.516;40622.875
526.791;34838.961;   -6.926;42258.836
527.377;33742.590;   -8.346;42966.902
527.963;32850.809;   -8.717;42018.949
528.549;30810.736;  -11.016;42476.828
529.135;31366.604;   -8.536;41854.852
529.721;33400.457;   -9.666;41237.711
530.306;34232.770;  -10.066;41259.445
530.892;34316.902;  -11.356;41506.047
531.478;35722.574;   -6.596;43559.613
532.063;38475.648;   -8.836;47695.563
532.649;39121.066;  -10.047;50808.324
533.235;39725.695;   -9.746;51787.500
533.820;39749.816;   -6.566;52145.035
534.406;41052.957;  -10.817;51133.488
534.991;40604.867;   -9.416;49996.805
535.576;38770.340;   -9.036;48882.852
536.162;38902.879;   -6.156;46942.285
536.747;38926.930;  -11.607;45711.746
537.333;40542.617;  -11.787;48510.180
537.918;41071.918;  -12.437;50439.891
538.503;38185.578;   -7.196;50863.711
539.088;34806.813;  -10.556;50906.922
539.673;36257.188;   -8.767;52621.965
540.259;39435.688;  -10.026;52368.094
540.844;40016.523;   -7.416;50879.109
541.429;42947.328;   -9.467;52077.777
542.014;46042.574;   -9.527;52716.695
542.599;45422.324;   -9.946;52363.281
543.184;43202.750;   -7.927;53187.137
543.769;44597.113;   -9.297;54697.605
544.354;44114.184;  -10.127;53913.914
544.938;42726.789;   -9.267;49680.164
545.523;44688.195;   -6.506;47386.277
546.108;47925.047;   -9.787;49151.949
546.693;49656.934;  -11.587;51384.637
547.278;49170.684;  -10.986;51853.254
547.862;46665.699;   -8.206;51173.750
548.447;42318.879;  -10.067;51691.395
549.031;41598.293;   -9.637;52456.703
549.616;46475.531;   -9.926;52714.516
550.201;46215.352;   -6.347;52414.598
550.785;47406.340;   -7.917;52355.059
551.370;46171.832;  -10.867;54589.453
551.954;45191.887;   -9.047;58267.348
552.538;45921.703;   -7.827;59062.176
553.123;44363.316;  -10.287;58115.285
553.707;41988.598;  -12.178;56556.285
554.291;43496.191;   -8.717;56201.668
554.876;46359.934;   -7.457;55335.762
555.460;46547.090;  -10.387;54155.703
556.044;47302.379;   -9.618;53721.484
556.628;46037.426;  -11.567;53731.016
557.212;44998.723;   -8.097;54312.531
557.796;43459.641;  -11.077;53797.773
558.380;43691.484;  -11.108;56145.984
558.964;44188.055;   -9.057;57277.930
559.548;45747.477;   -6.977;56459.641
560.132;43955.965;  -11.457;54434.543
560.716;42266.449;  -11.378;54800.617
561.300;43089.059;   -9.577;57606.945
561.884;44334.770;   -7.127;58972.445
562.467;42852.906;   -7.118;57327.570
563.051;42342.793;  -13.358;54962.434
563.635;43370.961;  -10.178;52594.473
564.219;43368.316;   -7.837;50610.410
564.802;44464.828;  -11.398;49551.180
565.386;44424.957;  -12.788;48370.953
565.969;43683.324;   -9.077;48178.871
566.553;42529.594;   -6.207;49957.305
567.136;43350.102;   -8.568;50369.594
567.720;40097.414;  -11.868;49492.004
568.303;37923.863;   -8.268;50616.352
568.887;37888.875;   -8.698;50727.148
569.470;38230.195;   -6.808;51698.379
570.053;37020.945;  -13.188;52122.078
570.637;35457.508;  -12.037;52536.438
571.220;35562.898;   -8.577;51186.098
571.803;36205.781;   -8.498;51032.762
572.386;38318.887;  -10.498;49609.887
572.969;40917.348;   -9.388;48285.926
573.552;39306.090;   -8.338;47624.285
574.135;37721.551;   -8.518;45498.641
574.718;35217.059;  -13.628;41970.434
575.301;34491.480;  -10.893;41447.137
575.884;33765.902;   -8.158;40923.836
576.467;34865.273;  -10.328;45267.723
577.050;36420.148;  -13.058;48175.543
577.633;37787.539;   -9.458;47729.328
578.216;37068.676;   -8.928;47579.793
578.799;36130.348;   -9.358;47820.996
579.381;35138.711;  -11.388;48115.551
579.964;33160.348;  -11.718;47333.766
580.547;34692.910;   -8.588;46668.969
581.129;35755.801;   -8.859;44466.141
581.712;36810.672;  -10.729;44164.922
582.294;37508.746;  -11.118;46477.855
582.877;37301.945;   -5.218;48244.254
583.459;35225.355;   -8.679;47437.895
584.042;33249.652;  -10.709;46943.219
584.624;33322.863;  -11.669;46792.227
585.206;32930.488;   -8.218;46557.250
585.789;32802.977;  -10.569;45793.773
586.371;35752.457;  -11.859;43836.391
586.953;36700.070;  -10.719;42972.492
587.536;38241.141;   -7.198;42487.211
588.118;38552.887;   -8.720;42086.414
588.700;34515.453;  -10.439;43389.930
589.282;33329.805;   -9.198;43646.039
589.864;34005.590;   -9.199;43438.109
590.446;35197.043;  -11.319;43151.926
591.028;35388.375;  -11.159;42781.867
591.610;34339.266;  -11.779;42839.098
592.192;31633.771;   -7.668;42820.402
592.774;30066.357;  -11.949;40724.277
593.356;28725.357;  -12.129;39874.789
593.937;27606.020;  -10.669;39980.648
594.519;29613.277;   -6.509;42069.633
595.101;31769.502;  -10.849;42976.031
595.683;32064.537;  -11.679;44084.441
596.264;33156.563;   -9.049;43478.797
596.846;32766.900;   -8.849;43803.672
597.427;32704.975;   -9.570;42986.934
598.009;34287.742;  -12.620;42832.219
598.591;34821.617;  -10.039;42580.086
599.172;34270.172;  -10.369;43061.805
599.753;34345.746;   -9.140;41691.469
600.335;35809.090;  -11.430;40692.520
600.916;33782.590;   -9.939;39982.422
601.498;31092.098;   -8.479;40318.617
602.079;29725.764;  -10.920;40670.609
602.660;29535.363;  -11.480;41450.898
603.241;31208.711;  -11.699;41137.738
603.823;30092.328;   -9.579;38868.797
604.404;29194.260;  -10.620;38182.785
604.985;30856.375;  -10.450;38078.047
605.566;30888.617;   -9.129;38056.633
606.147;31063.168;   -7.510;37020.418
606.728;32497.711;  -10.660;37883.359
607.309;31120.434;  -11.740;38748.273
607.890;30669.537;   -9.759;38850.230
608.471;30098.596;   -8.250;37457.918
609.051;29363.211;   -9.240;36066.457
609.632;28379.102;  -12.120;35991.074
610.213;28985.473;   -9.110;37402.641
610.794;29709.314;   -8.030;38383.363
611.374;29317.561;   -8.110;40562.387
611.955;30095.242;  -13.560;38533.727
612.536;31560.619;  -11.400;36951.789
613.116;31248.203;   -8.070;37197.891
613.697;31479.020;  -10.830;38411.125
614.277;29819.289;  -11.641;38673.938
614.858;30664.521;  -13.310;37075.863
615.438;29715.086;   -7.460;35092.906
616.019;27178.545;   -7.601;33666.301
616.599;27899.160;  -12.020;34189.023
617.179;29848.934;  -11.780;36952.047
617.760;30945.729;   -8.570;39582.574
618.340;31953.463;  -11.471;38943.977
618.920;33093.734;  -11.170;37594.156
619.500;32674.004;  -11.071;37866.938
620.080;31609.834;   -7.750;37869.043
620.660;32674.920;  -12.711;36868.617
621.241;34073.516;  -10.211;36352.309
621.821;34457.523;  -10.961;35459.520
622.401;33507.496;   -7.720;35207.414
622.980;32844.266;   -8.981;35980.422
623.560;31360.314;   -9.331;37351.328
624.140;29889.080;   -9.850;34388.582
624.720;24882.123;   -7.451;32368.764
625.300;21432.123;   -9.070;32638.629
625.880;24685.705;  -12.601;34599.035
626.459;28492.488;  -11.751;36831.738
627.039;31592.969;   -9.281;38299.098
627.619;31662.926;   -8.801;38289.574
628.198;30243.939;  -12.071;37220.695
628.778;29489.520;   -9.461;37632.563
629.357;30061.969;   -8.491;38003.012
629.937;29797.383;   -9.721;38402.039
630.516;29210.412;   -9.951;37868.801
631.096;29093.063;  -11.731;35760.410
631.675;31316.088;   -8.572;35225.219
632.254;36317.355;  -11.282;35130.289
632.834;35807.707;  -13.322;35794.570
633.413;34024.273;  -10.301;35788.922
633.992;31581.209;   -8.582;34532.863
634.571;32394.287;   -8.352;33590.113
635.151;35498.285;  -11.912;34943.863
635.730;33759.844;  -10.511;35352.523
636.309;30025.232;   -7.731;35366.605
636.888;27446.051;   -9.952;36165.637
637.467;27923.438;  -11.672;37515.902
638.046;29572.498;   -8.901;39288.695
638.625;32637.520;   -7.912;38279.699
639.204;32528.156;  -10.022;37741.598
639.782;31227.951;  -12.252;38364.551
640.361;27791.033;  -10.041;36740.621
640.940;25007.902;  -11.161;34950.082
641.519;25705.896;   -9.701;34137.398
642.097;28374.021;  -11.271;35654.258
642.676;31244.934;   -8.651;35637.957
643.255;32077.920;   -8.711;36567.074
643.833;31339.314;   -9.581;37809.434
644.412;31121.670;  -13.711;37337.293
644.990;29926.250;  -11.811;37018.531
645.569;29568.561;   -9.411;36518.469
646.147;28719.799;  -10.291;36186.430
646.726;28942.828;  -12.401;36267.688
647.304;30376.369;  -10.411;36647.625
647.882;32019.139;   -9.651;39286.742
648.461;33521.980;   -9.631;39157.703
649.039;31876.227;  -11.881;35412.883
649.617;31251.566;   -9.661;34744.918
650.195;30924.047;   -9.301;35403.098
650.773;29677.432;  -10.511;35053.797
651.352;27103.703;  -11.521;33756.816
651.930;24578.174;  -12.211;31868.773
652.508;23054.049;   -9.171;33121.551
653.086;26854.568;   -9.371;33564.793
653.663;29885.561;  -13.161;34054.668
654.241;28607.611;  -13.031;35693.309
654.819;30263.193;   -9.371;36422.906
655.397;30550.881;  -10.511;38213.484
655.975;29929.629;  -10.371;39507.625
656.553;29914.037;  -10.051;39498.223
657.130;28549.369;  -10.061;40395.480
657.708;27554.303;   -9.561;39242.020
658.286;27583.857;  -11.511;38920.020
658.863;28933.678;  -10.261;40202.898
659.441;31994.041;   -7.531;39677.938
660.018;31718.822;   -9.501;40413.355
660.596;30495.467;  -13.301;39931.414
661.173;32381.920;  -11.211;39604.531
661.750;32580.592;   -9.951;39700.070
662.328;31008.912;   -9.390;39292.809
662.905;30183.066;  -11.330;38235.648
663.482;26387.604;   -9.050;36212.305
664.060;24514.891;   -8.240;35944.945
664.637;27242.633;  -10.050;35170.785
665.214;28885.791;  -11.760;34197.523
665.791;30506.781;  -10.530;34549.520
666.368;29616.508;   -9.690;35118.578
666.945;30107.643;   -9.320;36019.418
667.522;31722.385;  -11.860;36048.438
668.099;31321.682;  -10.770;36243.914
668.676;30051.549;   -6.260;35958.875
669.253;28910.121;   -7.000;37384.730
669.830;29502.354;  -10.190;36779.629
670.407;29246.490;   -9.550;35231.289
670.984;28874.229;   -9.260;35544.270
671.560;29486.797;   -9.280;35466.867
672.137;28883.193;  -11.810;34280.863
672.714;29666.633;  -11.490;34632.863
673.290;30386.666;   -7.740;35135.422
673.867;30563.520;  -10.660;36114.480
674.443;30653.723;  -12.230;36152.859
675.020;28928.844;  -10.450;35327.238
675.596;29897.281;   -9.260;35795.176
676.173;30261.115;  -10.780;35430.355
676.749;29909.172;  -13.690;33549.516
677.326;29869.166;  -11.980;32210.012
677.902;29883.611;   -8.630;32068.871
678.478;29361.135;  -10.730;32583.891
679.054;28575.400;  -10.520;32088.928
679.631;28787.268;  -11.920;30978.848
680.207;30387.564;   -7.490;33160.887
680.783;32124.250;   -9.860;35570.363
681.359;31251.754;  -13.380;36125.184
681.935;30663.744;  -12.480;35240.922
682.511;30107.328;   -7.900;34429.961
683.087;30282.232;   -7.710;34463.680
683.663;29685.668;  -11.480;34648.898
684.239;28488.293;  -14.090;34546.457
684.815;28168.311;   -7.560;35586.375
685.390;28501.061;   -9.910;35821.895
685.966;29019.385;  -11.159;35085.871
686.542;31236.771;  -11.169;34198.230
687.118;33441.008;   -5.959;32847.707
687.693;33847.309;  -10.329;32794.027
688.269;33514.137;  -12.059;33072.367
688.844;31750.945;  -10.909;33141.664
689.420;29678.199;   -8.019;33965.742
689.995;27555.129;   -8.399;34655.523
690.571;26111.936;  -10.949;33576.742
691.146;26482.947;   -9.619;32657.219
691.722;26068.646;   -8.999;32526.979
692.297;25620.605;  -11.589;33014.617
692.872;27368.805;  -11.739;34012.254
693.448;27051.002;  -11.059;34237.434
694.023;26063.918;  -10.139;34142.672
694.598;28025.754;   -9.029;34132.031
695.173;28625.363;  -13.319;34205.250
695.748;27719.969;  -10.169;32882.488
696.323;27950.955;   -8.339;32864.906
696.898;28238.666;   -8.169;33170.004
697.473;28131.744;  -12.309;32432.984
698.048;27480.660;  -10.989;31649.303
698.623;27148.264;   -9.329;30778.141
699.198;28956.660;   -9.849;31140.119
699.773;30056.514;  -12.329;31764.299
700.348;28383.957;  -10.389;31780.816
700.922;28537.588;   -9.269;32046.375
701.497;29607.018;   -9.329;32603.574
702.072;29940.266;  -10.789;34799.871
702.646;28532.342;  -10.839;35793.172
703.221;26295.730;   -9.099;35201.590
703.795;28371.881;  -10.939;34764.527
704.370;28792.941;  -12.859;34307.367
704.944;29144.801;  -11.559;33509.887
705.519;29911.896;   -7.939;31388.584
706.093;31234.895;  -10.499;31340.104
706.668;31811.145;  -11.289;32630.281
707.242;30587.395;  -11.509;32728.779
707.816;28972.510;   -9.639;32947.238
708.390;27538.023;  -11.429;33277.855
708.965;27900.098;  -11.869;33834.336
709.539;27588.254;  -11.689;33709.273
710.113;27954.021;  -10.478;33044.313
710.687;27540.746;  -10.228;31953.992
711.261;26157.613;  -13.698;30505.949
711.835;26096.104;  -13.378;30262.369
712.409;26684.031;   -9.698;31254.447
712.983;28666.729;  -11.898;32754.986
713.557;29717.605;  -15.138;34018.824
714.131;29289.805;  -14.098;34579.625
714.704;28210.678;   -9.958;33890.262
715.278;26004.066;  -10.028;33531.102
715.852;24857.584;  -11.148;33601.660
716.425;25547.156;   -9.068;33515.117
716.999;26418.629;  -10.038;33185.555
717.573;27491.656;   -9.798;33905.996
718.146;28604.875;  -12.378;35199.293
718.720;28934.105;  -11.918;35060.551
719.293;28408.561;   -8.088;34973.230
719.867;31161.551;  -10.888;36394.449
720.440;31083.895;  -11.938;36663.008
721.013;29374.801;  -12.818;35102.426
721.587;27731.008;  -10.298;33985.266
722.160;26704.846;  -10.048;33524.965
722.733;25697.172;  -12.108;32987.043
723.306;25897.711;  -10.818;33066.301
723.880;28331.621;   -8.908;33399.500
724.453;30528.766;   -9.878;33468.297
725.026;29519.982;  -11.188;33816.637
725.599;26512.951;  -11.678;32797.996
726.172;26639.248;   -9.618;33187.434
726.745;27788.666;   -8.258;35136.613
727.318;29076.865;  -12.978;35751.730
727.891;29823.830;  -12.148;35890.430
728.463;29748.488;   -8.968;34822.090
729.036;28703.803;  -10.188;32895.086
729.609;29247.693;  -11.788;31823.225
730.182;26267.613;  -11.788;31445.283
730.754;23687.396;  -10.268;32373.223
731.327;23730.643;   -9.998;33676.820
731.900;23967.166;  -12.228;33417.000
732.472;25192.258;  -13.848;31978.498
733.045;27254.963;   -8.698;30368.777
733.617;27356.670;  -10.607;30574.215
734.190;27164.666;  -11.507;31280.975
734.762;24472.789;  -13.647;31674.412
735.334;22517.797;   -9.767;31247.291
735.907;22932.865;   -9.897;29876.211
736.479;23221.957;  -11.637;29808.488
737.051;23121.223;   -9.567;30233.547
737.623;24092.168;   -8.187;31469.086
738.195;24641.852;  -11.187;31784.225
738.768;26382.752;  -12.337;32120.523
739.340;26997.322;  -12.227;32094.342
739.912;26030.018;  -11.057;31312.680
740.484;24486.939;  -10.207;31946.238
741.056;23199.566;  -10.047;32984.059
741.628;24983.859;  -13.627;33897.715
742.199;27088.678;   -7.177;33213.016
742.771;25285.313;  -10.797;31369.113
743.343;23046.719;  -11.997;31865.473
743.915;22085.029;  -12.867;32388.631
744.487;22134.125;   -7.617;31079.568
745.058;22364.711;   -9.557;30570.107
745.630;22810.461;   -9.877;29970.127
746.201;23809.840;  -14.177;29186.766
746.773;24536.852;   -9.237;28805.723
747.344;24398.531;   -9.847;29591.223
747.916;22785.482;  -11.657;31412.201
748.487;22829.465;  -10.587;32194.898
749.059;23925.908;   -8.707;32533.719
749.630;24484.328;  -10.537;32158.518
750.201;23376.039;  -11.687;30855.395
750.773;21594.584;  -11.647;28622.555
751.344;21530.260;   -7.147;28405.732
751.915;22923.602;   -9.757;28461.551
752.486;23246.455;  -12.427;27842.850
753.057;20958.664;  -12.227;27845.008
753.628;19570.996;  -10.417;27728.107
754.199;20586.779;  -11.767;27381.086
754.770;21641.930;  -11.187;25882.203
755.341;21748.246;  -10.507;25886.184
755.912;21902.734;   -9.387;26050.861
756.483;21543.789;  -10.647;26798.779
757.054;19855.119;  -11.837;27048.238
757.625;18501.121;  -12.716;26294.838
758.195;18050.088;   -9.666;26142.076
758.766;17669.049;   -8.656;26392.234
759.337;18470.316;  -12.856;26334.594
759.907;20065.998;  -13.366;27579.652
760.478;20999.281;   -8.576;28352.770
761.048;20476.500;  -10.526;27325.088
761.619;19588.781;  -11.116;26460.428
762.189;19626.523;  -12.136;26029.826
762.760;20553.744;   -9.456;26430.145
763.330;21781.738;   -7.136;26670.902
763.900;21380.404;  -11.786;26603.021
764.471;18846.633;  -11.546;25542.740
765.041;17504.150;   -8.096;24358.459
765.611;17502.965;   -8.876;23991.297
766.181;17856.318;  -12.196;24470.236
766.751;18726.375;  -11.636;24845.975
767.321;18489.176;  -10.156;24533.633
767.891;16680.180;  -11.766;24916.492
768.461;16186.230;  -14.936;24776.771
769.031;16710.486;  -12.356;24757.988
769.601;18318.311;   -7.526;24181.088
770.171;18205.529;  -10.766;23670.387
770.741;17301.164;  -13.176;22960.045
771.311;17285.529;  -10.616;22917.523
771.880;17619.932;   -9.576;23562.941
772.450;17210.619;  -10.336;24216.500
773.020;17055.020;  -13.516;24140.398
773.589;16363.174;  -13.466;24414.857
774.159;15783.890;   -8.686;23858.717
774.729;15502.824;   -9.476;22942.135
775.298;15088.465;  -13.666;22324.033
775.867;14658.954;  -11.716;21140.313
776.437;14769.382;   -9.906;20838.092
777.006;14638.404;  -12.166;20599.510
777.576;14435.503;  -12.356;20508.809
778.145;14391.555;  -11.646;20732.947
778.714;14214.761;   -8.226;21062.465
779.283;13482.481;   -9.556;20949.664
779.853;12923.597;  -14.116;20508.623
780.422;13349.123;  -11.506;20649.082
780.991;12956.833;   -9.556;21527.520
781.560;11800.145;   -9.095;22632.658
782.129;11646.798;  -12.135;23048.277
782.698;11688.867;  -10.865;23438.555
783.267;11250.722;   -9.335;23267.734
783.836;11133.738;  -11.045;22415.133
784.404;12058.354;  -13.865;20443.152
784.973;12644.407;  -13.095;19699.150
785.542;12532.456;  -11.575;19763.828
786.111;12269.984;   -9.705;20341.408
786.679;11818.443;  -12.105;20207.967
787.248;11604.069;  -12.455;19516.465
787.817;11445.535;  -11.535;18900.363
788.385;11069.141;   -9.765;17879.121
788.954;10525.225;  -14.005;17658.301
789.522; 9992.094;  -11.955;17788.879
790.090;10481.701;  -10.135;18118.277
790.659;10867.719;  -10.975;18338.736
791.227;10316.602;  -13.375;18508.615
791.795;10637.407;  -12.375;17898.254
792.364;10999.983;  -10.725;17295.133
792.932;11340.765;   -9.715;16822.051
793.500;11467.556;  -12.675;17040.148
794.068;11557.788;  -13.495;17179.787
794.636;11663.480;  -10.885;16664.246
795.204;11060.090;  -11.045;16524.545
795.772;11111.987;  -13.175;17274.564
796.340;10717.779;  -12.445;17891.002
796.908;10508.985;   -9.735;17648.561
797.476;10392.930;   -9.815;17064.080
798.044;10013.434;  -13.985;16672.777
798.612; 9262.770;  -13.115;17023.996
799.180; 8869.938;  -10.185;16561.615
799.747; 8811.391;   -9.055;15962.773
800.315; 8551.938;  -12.385;15296.992
800.883; 8209.252;  -15.035;14801.771
801.450; 8197.962;  -10.365;14534.430
802.018; 8264.155;   -9.855;14173.248
802.585; 8384.998;  -11.905;14029.547
803.153; 8402.806;  -11.585;13836.846
803.720; 8216.719;   -9.095;13567.324
804.287; 7811.530;   -9.135;13360.622
804.855; 7425.181;  -11.604;13681.981
805.422; 7298.305;  -11.794;13536.560
805.989; 7316.495;  -10.734;13355.958
806.556; 7437.464;  -10.444;13747.896
807.124; 7618.042;  -12.764;13987.376
807.691; 7595.828;  -12.964;14038.674
808.258; 7434.620;  -11.134;14120.152
808.825; 7216.363;   -9.854;13860.111
809.392; 7329.832;  -10.504;13268.790
809.959; 6877.540;  -13.054;12680.389
810.526; 6434.612;   -8.294;12427.308
811.093; 6481.320;   -8.394;12030.105
811.659; 7103.312;  -12.304;11653.664
812.226; 7634.737;  -13.944;11637.183
812.793; 7429.977;  -10.484;11611.521
813.360; 6879.150;  -10.144;11885.181
813.926; 6590.448;  -11.684;12770.539
814.493; 6384.231;  -13.644;12677.638
815.060; 6002.181;   -9.724;11974.336
815.626; 5983.051;   -9.854;11594.715
816.193; 6375.998;  -13.254;11579.474
816.759; 6411.030;  -13.204;11666.972
817.325; 6464.823;   -9.434;11325.530
817.892; 6844.646;  -10.134;11105.369
818.458; 7294.112;  -13.474;10843.928
819.024; 6964.304;  -11.854;10714.406
819.591; 6682.822;  -10.244;10469.165
820.157; 6478.052;  -10.704;10235.523
820.723; 6003.499;  -12.324;10847.563
821.289; 5738.565;   -9.444;11040.980
821.855; 5698.618;   -8.374;10357.100
822.421; 5752.338;  -10.234; 9978.918
822.987; 5837.443;  -13.294; 9754.177
823.553; 5531.710;  -10.884;10065.755
824.119; 5317.710;   -8.884;10036.294
824.685; 5418.974;   -6.784;10029.192
825.251; 5543.569;  -12.004;10199.230
825.816; 5521.525;  -11.474; 9820.189
826.382; 5284.451;   -9.174; 9297.248
826.948; 5477.351;   -9.214; 9381.347
827.513; 5925.587;  -10.774; 9450.726
828.079; 5820.145;  -11.924; 9472.444
828.645; 5252.042;  -10.543; 9292.643
829.210; 5135.395;  -10.533; 9065.341
829.776; 5133.529;  -10.753; 9132.620
830.341; 5051.737;  -10.173; 9092.878
830.906; 5263.271;  -10.743; 9078.557
831.472; 5674.602;  -11.113; 8534.535
832.037; 5476.425;  -10.603; 8677.874
832.602; 4921.087;  -13.323; 8628.692
833.167; 4629.258;  -10.823; 8879.031
833.733; 4535.305;  -10.113; 9189.790
834.298; 4697.184;  -13.583; 9052.608
834.863; 4822.705;  -12.703; 8895.087
835.428; 4819.631;  -10.523; 8824.266
835.993; 4662.813;   -6.963; 8845.385
836.558; 4476.553;  -10.763; 8888.563
837.123; 4595.954;   -9.903; 8966.582
837.688; 4846.237;   -9.913; 8617.860
838.253; 5130.122;  -10.283; 8590.699
838.817; 5355.223;  -12.963; 8443.797
839.382; 5260.704;  -14.243; 8799.356
839.947; 4928.626;  -10.733; 8810.595
840.511; 4625.554;   -9.383; 8796.394
841.076; 4217.964;  -12.563; 8347.231
841.641; 4253.200;  -12.953; 8224.330
842.205; 4350.619;   -7.043; 8223.349
842.770; 4440.579;   -8.163; 8622.107
843.334; 4598.543;  -12.503; 8410.386
843.898; 4504.039;  -11.693; 8337.465
844.463; 4496.032;  -10.203; 8506.283
845.027; 4262.268;   -9.533; 8280.962
845.591; 4075.573;  -13.443; 8231.141
846.156; 4088.516;  -13.143; 7969.179
846.720; 3983.356;   -9.433; 7768.278
847.284; 3863.230;  -11.033; 7630.957
847.848; 3722.223;  -10.403; 7472.395
848.412; 3620.050;  -11.553; 7437.394
848.976; 3655.797;   -8.393; 7674.592
849.540; 3560.668;   -8.713; 7836.011
850.104; 3652.782;  -12.463; 7913.669
850.668; 4014.634;  -12.973; 7694.508
851.232; 4115.509;  -10.793; 7756.887
851.796; 3942.010;  -10.662; 7926.545
852.359; 3635.240;  -13.082; 7827.844
852.923; 3431.370;  -12.192; 7641.163
853.487; 3227.629;  -11.912; 7342.501
854.050; 3176.663;  -10.892; 7042.820
854.614; 3312.466;  -13.992; 7151.338
855.177; 3437.716;  -11.732; 7105.077
855.741; 3452.023;   -8.962; 6989.675
856.304; 3309.536;   -9.442; 6596.634
856.868; 3254.985;  -14.192; 6356.272
857.431; 3326.149;  -12.702; 6468.571
857.995; 3425.379;   -9.942; 6373.210
858.558; 3429.286;   -9.112; 6324.448
859.121; 3150.387;  -12.932; 6408.327
859.684; 3012.277;  -13.442; 6347.886
860.247; 3112.940;  -10.632; 6321.264
860.810; 3116.386;  -11.272; 6301.903
861.374; 2862.479;   -9.832; 6607.881
861.937; 2601.833;  -11.762; 6408.200
862.500; 2586.448;   -9.722; 6572.639
863.062; 2759.626;  -10.512; 6387.297
863.625; 2924.093;  -11.232; 6190.836
864.188; 3070.468;  -14.112; 5807.254
864.751; 3128.597;  -11.302; 5682.413
865.314; 3012.620;  -10.112; 5547.492
865.876; 2794.736;  -12.182; 5500.150
866.439; 2765.624;  -10.722; 5415.909
867.002; 2716.881;   -9.252; 5501.567
867.564; 2534.852;   -9.572; 5413.946
868.127; 2341.240;  -13.142; 5160.325
868.689; 2250.334;  -12.902; 5133.183
869.252; 2156.589;   -9.732; 5252.382
869.814; 2067.955;   -9.432; 5297.141
870.377; 2074.554;  -11.552; 5390.919
870.939; 2135.032;   -9.052; 5599.898
871.501; 2200.077;  -10.982; 5248.336
872.063; 2205.774;  -12.292; 4854.235
872.626; 2166.710;  -14.912; 4817.074
873.188; 2205.855;  -13.112; 4987.732
873.750; 2190.344;  -13.442; 4868.651
874.312; 2091.155;   -9.402; 4779.330
874.874; 2009.804;  -11.062; 4866.348
875.436; 1915.536;  -13.931; 4718.887
875.998; 1909.366;   -9.561; 4660.005
876.560; 1956.886;  -11.321; 4462.964
877.122; 1916.179;  -12.221; 4145.042
877.683; 1826.468;  -12.191; 4056.481
878.245; 1759.077;  -12.101; 3950.740
878.807; 1791.629;   -8.971; 4058.958
879.369; 1802.721;  -12.071; 3954.677
879.930; 1702.448;  -14.621; 3941.495
880.492; 1673.981;  -10.311; 4067.014
881.053; 1739.786;  -10.901; 3859.633
881.615; 1738.794;  -14.411; 3776.071
882.176; 1632.462;  -13.761; 3734.750
882.738; 1412.685;   -9.181; 3678.489
883.299; 1118.786;  -11.791; 3405.407
883.860;  882.305;  -13.121; 3351.106
884.422;  775.608;  -11.211; 3394.044
884.983;  764.424;  -10.091; 3166.443
885.544;  783.096;   -8.461; 3189.802
886.105;  798.215;  -12.361; 3160.360
886.666;  812.212;  -14.141; 3093.059
887.227;  814.838;  -11.361; 2941.957
887.788;  789.463;  -11.401; 2974.836
888.349;  759.682;  -13.791; 2721.214
888.910;  774.477;  -13.191; 2696.493
889.471;  792.355;   -9.881; 2560.172
890.032;  784.888;   -9.881; 2558.190
890.593;  773.057;  -10.371; 2567.669
891.153;  753.840;  -13.301; 2460.307
891.714;  713.741;  -11.431; 2372.046
892.275;  684.703;  -11.291; 2309.505
892.835;  653.803;  -11.471; 2382.543
893.396;  607.454;  -11.541; 2295.502
893.956;  556.869;  -11.181; 2162.420
894.517;  521.441;  -11.741; 2125.439
895.077;  516.091;  -11.671; 2086.978
895.638;  517.538;  -11.311; 2126.316
896.198;  490.191;   -9.831; 1838.275
896.758;  446.879;   -8.421; 1892.813
897.319;  416.814;  -12.351; 1792.232
897.879;  401.874;  -13.511; 1762.751
898.439;  375.780;  -12.001; 1661.149
898.999;  353.117;  -10.180; 1781.468
899.559;  345.757;  -12.030; 1703.347
900.119;  342.363;  -15.710; 1537.525
900.679;  338.299;   -8.900; 1638.384
901.239;  322.274;   -8.340; 1527.902
901.799;  310.976;  -13.910; 1456.441
902.359;  303.708;  -13.460; 1357.140
902.919;  297.328;  -11.490; 1331.118
903.479;  283.770;  -12.110; 1317.257
904.038;  262.850;  -11.720; 1262.595
904.598;  248.215;  -13.610; 1152.034
905.158;  244.308;  -11.040; 1240.893
905.717;  237.258;  -10.900; 1233.691
906.277;  226.210;  -15.080; 1217.330
906.836;  216.750;  -13.380; 1222.408
907.396;  207.653;  -10.780; 1193.047
907.955;  200.157;   -8.500; 1182.526
908.515;  194.476;  -12.760; 1099.364
909.074;  187.246;  -11.900; 1092.863
909.633;  179.790;   -8.950; 1069.121
910.192;  174.048;   -8.770; 1196.460
910.752;  167.396;  -12.390; 1029.960
911.311;  161.700;  -13.680; 1009.780
911.870;  159.259;  -12.370;  971.460
912.429;  161.253;  -10.900; 1094.080
912.988;  160.778;  -11.690; 1081.060
913.547;  156.993;  -13.240;  940.380
914.106;  153.245;  -11.990;  999.420
914.665;  149.039;   -9.990;  984.020
915.224;  148.052;  -12.880; 1035.760
915.782;  149.110;  -12.350;  922.560
916.341;  148.432;   -9.110; 1049.840
916.900;  144.931;   -9.270;  925.260
917.458;  143.904;  -13.240;  884.220
918.017;  143.094;  -13.550;  942.600
918.576;  142.352;  -12.320;  904.440
919.134;  140.727;  -11.490;  837.980
919.693;  139.650;  -13.670;  893.060
920.251;  135.973;  -15.470;  876.500
920.809;  137.048;  -11.290;  839.580
921.368;  136.157;  -10.210;  885.360
921.926;  135.439;  -12.140;  842.940
922.484;  133.436;  -13.080;  903.360
923.042;  133.348;  -11.720;  880.340
923.601;  135.648;   -7.480;  998.680
924.159;  134.927;  -11.570;  935.560
924.717;  131.269;  -13.840;  841.080
925.275;  131.242;  -10.640;  903.240
925.833;  130.376;  -11.540;  779.320
926.391;  132.308;  -12.960;  938.380
926.949;  130.147;  -14.130;  857.680
927.506;  130.951;  -11.750;  903.500
928.064;  129.985;  -10.250;  877.580
928.622;  129.611;  -13.030;  880.100
929.180;  130.249;  -13.400;  814.180
929.737;  131.472;  -10.700;  808.540
930.295;  134.730;  -10.070;  928.480
930.853;  136.117;  -11.960;  849.100
931.410;  135.987;  -13.120;  821.120
931.968;  135.904;  -10.770;  940.660
932.525;  135.735;  -10.680;  909.380
933.082;  136.231;  -13.130;  811.440
933.640;  136.893;  -13.210;  925.900
934.197;  135.002;  -11.060;  886.360
934.754;  135.986;   -9.580;  897.780
935.312;  138.771;  -14.000;  863.340
935.869;  143.019;  -10.710; 1012.980
936.426;  143.043;   -9.860;  872.800
936.983;  143.777;   -9.710;  889.020
937.540;  143.682;  -13.990;  838.280
938.097;  142.415;  -14.040;  940.120
938.654;  141.895;  -10.310;  898.860
939.211;  145.717;  -10.560;  952.480
939.768;  149.143;  -13.900;  915.420
940.324;  152.435;  -14.760;  904.200
940.881;  152.864;  -10.370;  878.500
941.438;  153.608;   -8.260; 1021.200
941.995;  150.539;  -12.540;  992.560
942.551;  147.639;  -14.670;  875.620
943.108;  148.328;  -10.450;  937.920
943.664;  149.923;  -10.750;  869.340
944.221;  153.204;  -11.550; 1088.140
944.777;  149.910;  -14.770;  869.680
945.334;  150.522;  -12.820;  884.840
945.890;  152.725;  -10.130;  946.480
946.446;  153.369;  -13.470;  947.020
947.003;  154.563;  -12.120;  964.940
947.559;  156.708;   -9.980; 1063.040
948.115;  156.925;   -9.080; 1026.540
948.671;  154.035;  -10.830;  967.300
949.227;  151.068;  -12.440;  859.560
949.783;  149.043;  -12.910;  858.900
950.339;  150.768;  -10.270;  991.000
950.895;  151.172;  -13.630; 1023.840
951.451;  149.635;  -15.100;  925.280
952.007;  150.612;  -11.330;  998.540
952.563;  151.662;  -10.580;  937.780
953.118;  149.561;  -13.440;  904.940
953.674;  149.343;  -12.710;  935.780
954.230;  150.154;  -10.350;  949.640
954.785;  147.137;   -9.190;  936.640
955.341;  144.660;  -11.200;  998.160
955.897;  142.656;  -16.560;  834.660
956.452;  143.217;  -12.570;  953.840
957.008;  143.364;   -7.970; 1083.640
957.563;  140.775;  -11.940; 1009.540
958.118;  134.209;  -13.450;  877.700
958.674;  136.131;  -12.030;  946.780
959.229;  137.001;   -9.410; 1013.980
959.784;  133.911;  -12.000;  832.400
960.339;  134.666;  -14.780; 1001.280
960.894;  130.534;   -9.860;  963.760
961.449;  127.864;   -9.970;  859.960
962.004;  128.088;  -10.900; 1212.840
962.559;  122.537;  -13.150;  860.140
963.114;  119.290;  -13.740;  742.480
963.669;  119.318;   -9.820;  915.500
964.224;  118.220;  -13.890;  874.340
964.779;  116.840;  -12.600;  828.420
965.334;  117.348;  -10.950; 1017.860
965.888;  117.561;  -11.170;  875.360
966.443;  120.168;  -12.540;  972.380
966.998;  119.502;  -15.780;  819.460
967.552;  119.087;   -9.760;  908.380
968.107;  114.474;   -9.060;  868.300
968.661;  115.166;  -11.950;  922.440
969.216;  116.470;  -12.800;  856.280
969.770;  115.509;  -11.210;  917.200
970.324;  114.814;  -11.610;  923.140
970.879;  112.171;  -11.370;  947.180
971.433;  109.004;  -12.540;  952.720
971.987;  104.612;  -11.320;  895.340
972.541;  101.643;  -10.720;  917.100
973.095;  102.247;   -9.680; 1009.460
973.649;  100.143;  -11.440;  809.480
974.203;   98.346;  -11.210;  829.040
974.757;   98.517;  -10.240;  855.220
975.311;   99.144;  -13.720;  872.600
975.865;   97.640;  -13.770;  881.820
976.419;   96.021;  -11.690;  857.400
976.973;   96.250;   -9.510;  849.620
977.526;   97.786;  -12.620;  949.920
978.080;   96.999;  -12.010;  796.780
978.634;   98.648;  -10.170;  921.320
979.187;   96.048;   -9.020;  905.400
979.741;   94.020;   -9.820; 1018.380
980.294;   87.876;  -14.870;  789.160
980.848;   86.634;  -12.380;  717.220
981.401;   88.477;  -10.350;  816.540
981.955;   90.835;  -13.720;  844.300
982.508;   89.302;  -11.490;  746.340
983.061;   90.391;  -10.000;  915.260
983.615;   86.089;  -11.480;  798.800
984.168;   83.160;  -13.220;  770.080
984.721;   81.442;  -13.960;  880.760
985.274;   81.809;  -10.870;  867.500
985.827;   80.155;   -9.790;  834.220
986.380;   77.899;  -13.120;  721.340
986.933;   77.258;  -12.450;  864.800
987.486;   76.149;  -10.210;  861.920
988.039;   74.614;   -8.430;  863.100
988.591;   73.626;  -10.520;  893.260
989.144;   71.206;  -14.860;  737.260
989.697;   69.398;  -13.080;  758.740
990.250;   71.044;  -10.150;  858.100
990.802;   69.562;  -13.430;  755.860
991.355;   69.672;  -12.750;  974.880
991.907;   67.871;  -12.040;  864.320
992.460;   66.070;  -11.330;  753.760
993.012;   65.212;  -13.610;  749.540
993.565;   63.913;  -13.460;  711.360
994.117;   65.975;   -9.360;  950.780
994.669;   62.360;  -11.300;  701.320
995.221;   60.722;  -13.540;  791.920
995.774;   58.218;  -13.430;  787.580
996.326;   57.856;  -12.520;  740.220
996.878;   58.017;  -10.950;  838.420
997.430;   55.230;  -14.300;  699.860
997.982;   54.179;  -13.760;  750.140
998.534;   53.359;  -11.530;  739.060
999.086;   52.563;  -10.310;  738.220
999.638;   51.592;  -12.530;  661.380
1000.190;   50.847;  -11.840;  699.320
1000.741;   50.596;  -10.260;  742.700
1001.293;   49.697;   -8.860;  686.020
1001.845;   49.188;  -13.700;  676.640
1002.396;   48.190;  -12.100;  743.400
1002.948;   47.754;  -12.760;  737.400
1003.500;   46.928;  -10.380;  723.780
1004.051;   47.565;  -11.900;  907.580
1004.603;   45.290;  -12.250;  791.820
1005.154;   42.214;  -13.210;  608.980
1005.705;   41.044;  -10.950;  723.960
1006.257;   40.967;  -13.880;  707.220
1006.808;   39.894;  -12.840;  685.460
1007.359;   39.843;  -10.570;  763.240
1007.910;   38.805;   -9.620;  646.640
1008.461;   38.168;  -13.630;  732.940
1009.013;   37.247;  -17.200;  588.340
1009.564;   38.364;  -10.200;  793.520
1010.115;   36.023;  -12.570;  597.040
1010.665;   36.110;  -15.150;  602.160
1011.216;   36.209;  -14.480;  667.920
1011.767;   35.969;  -11.340;  697.920
1012.318;   35.956;   -9.780;  736.980
1012.869;   34.931;  -12.380;  679.000
1013.419;   33.891;  -15.560;  603.120
1013.970;   34.787;  -11.010;  666.640
1014.521;   34.116;  -11.610;  620.620
1015.071;   33.889;  -13.450;  670.380
1015.622;   33.450;  -13.870;  635.460
1016.172;   33.593;  -11.610;  596.820
1016.723;   32.616;  -12.120;  614.380
1017.273;   32.592;  -13.620;  604.160
1017.823;   32.337;  -14.140;  650.340
1018.374;   32.113;  -12.800;  611.760
1018.924;   32.044;  -12.340;  716.880
1019.474;   32.251;  -11.410;  718.880
1020.024;   30.082;  -14.770;  657.580
1020.574;   31.596;   -9.780;  726.160
1021.124;   32.054;   -8.560;  673.580
1021.674;   30.449;  -15.190;  559.120
1022.224;   31.499;  -13.530;  708.940
1022.774;   31.035;  -13.280;  668.820
1023.324;   31.297;  -10.690;  753.520
1023.874;   31.996;  -10.240;  875.760
1024.423;   30.048;  -12.540;  613.700
1024.973;   29.990;  -10.010;  610.760
1025.523;   28.644;  -10.550;  620.960
1026.072;   28.715;  -13.560;  606.420
1026.622;   28.211;  -15.120;  675.740
1027.172;   29.470;  -11.260;  715.660
1027.721;   27.839;  -11.410;  601.220
1028.270;   28.967;  -13.530;  663.400
1028.820;   28.685;  -13.680;  638.080
1029.369;   27.858;  -13.520;  612.700
1029.918;   28.310;  -10.980;  649.840
1030.468;   27.921;  -13.530;  564.780
1031.017;   27.592;  -13.170;  634.800
1031.566;   26.340;  -12.200;  608.900
1032.115;   27.565;   -9.960;  694.500
1032.664;   26.370;  -13.210;  596.480
1033.213;   27.085;  -12.500;  735.420
1033.762;   26.469;  -11.910;  635.620
1034.311;   26.669;   -9.640;  677.220
1034.860;   27.023;  -13.310;  691.000
1035.408;   26.842;  -11.830;  722.720
1035.957;   27.019;  -12.000;  719.540
1036.506;   24.797;  -11.690;  530.800
1037.055;   27.505;  -10.990;  844.320
1037.603;   25.340;  -15.120;  664.000
1038.152;   24.145;  -12.450;  534.760
1038.700;   24.303;  -10.560;  585.740
1039.249;   24.210;  -11.080;  681.220
1039.797;   24.150;  -12.540;  633.360
1040.345;   24.926;  -11.920;  705.420
1040.894;   24.313;  -11.410;  625.300
1041.442;   23.849;  -14.320;  632.200
1041.990;   22.799;  -16.240;  559.160
1042.538;   23.320;  -11.680;  536.180
1043.087;   22.862;  -10.760;  570.860
1043.635;   24.294;  -11.850;  670.500
1044.183;   23.142;  -15.480;  586.400
1044.731;   22.994;  -11.770;  576.000
1045.279;   22.359;  -13.090;  674.920
1045.827;   24.354;  -12.440;  892.400
1046.374;   21.075;  -13.840;  515.420
1046.922;   21.556;  -13.220;  590.580
1047.470;   22.395;  -10.230;  691.300
1048.018;   22.276;  -14.590;  647.960
1048.565;   22.926;  -12.050;  708.600
1049.113;   20.849;  -11.650;  557.000
1049.660;   21.047;  -10.510;  629.660
1050.208;   21.486;  -13.310;  675.640
1050.755;   20.564;  -15.900;  606.580
1051.303;   21.044;  -11.430;  686.820
1051.850;   20.829;   -8.480;  635.120
1052.397;   19.165;  -15.010;  473.960
1052.945;   19.857;  -13.960;  617.760
1053.492;   21.249;  -13.150;  741.840
1054.039;   20.949;   -9.630;  720.180
1054.586;   19.983;  -13.680;  557.240
1055.133;   20.511;  -14.570;  693.140
1055.680;   20.459;  -13.820;  646.620
1056.227;   18.900;  -11.730;  542.780
1056.774;   20.760;  -12.480;  794.980
1057.321;   18.913;  -13.930;  523.260
1057.868;   19.466;  -11.690;  651.320
1058.415;   19.083;   -9.520;  651.980
1058.961;   19.973;  -13.160;  678.940
1059.508;   19.139;  -12.920;  643.820
1060.055;   18.749;  -11.920;  581.780
1060.601;   18.980;  -11.500;  624.300
1061.148;   18.546;  -14.330;  616.820
1061.694;   17.921;  -16.870;  592.580
1062.241;   17.950;  -10.330;  596.320
1062.787;   17.619;  -10.620;  663.140
1063.334;   19.413;  -10.110;  808.560
1063.880;   18.573;  -13.400;  668.360
1064.426;   17.883;  -10.680;  706.820
1064.972;   16.723;   -9.920;  601.340
1065.518;   16.380;  -10.980;  566.640
1066.065;   17.560;  -14.890;  624.460
1066.611;   16.806;  -12.870;  598.800
1067.157;   17.010;  -12.950;  641.860
1067.703;   17.350;  -13.540;  668.480
1068.249;   17.069;  -13.540;  605.220
1068.794;   16.841;  -12.600;  626.880
1069.340;   15.782;  -10.620;  578.960
1069.886;   16.754;  -12.830;  590.700
1070.432;   15.091;  -14.870;  541.720
1070.977;   15.620;  -11.980;  601.080
1071.523;   15.831;   -8.200;  573.060
1072.068;   15.862;  -12.330;  582.000
1072.614;   15.501;  -16.370;  527.760
1073.160;   16.465;  -11.100;  687.040
1073.705;   14.982;  -10.480;  572.520
1074.250;   15.150;  -14.520;  559.900
1074.796;   16.201;  -11.460;  655.160
1075.341;   15.702;  -11.950;  664.100
1075.886;   15.325;  -11.460;  594.240
1076.431;   14.528;  -13.770;  649.880
1076.976;   14.366;  -12.680;  639.220
1077.521;   13.631;  -13.170;  583.080
1078.067;   13.465;  -10.860;  579.400
1078.612;   14.373;  -13.920;  661.620
1079.156;   13.706;  -13.880;  601.540
1079.701;   14.100;  -13.120;  693.260
1080.246;   14.567;   -9.940;  696.300
1080.791;   14.251;  -14.740;  625.020
1081.336;   13.626;  -13.750;  659.320
1081.880;   14.025;  -13.400;  649.680
1082.425;   12.890;  -12.220;  573.480
1082.970;   14.062;  -11.610;  717.040
1083.514;   12.883;  -13.580;  597.000
1084.059;   12.911;  -12.810;  586.720
1084.603;   11.855;  -12.320;  565.840
1085.147;   12.752;  -13.190;  645.220
1085.692;   13.954;  -12.480;  716.800
1086.236;   11.963;  -13.020;  503.140
1086.780;   13.578;   -9.190;  751.440
1087.325;   13.144;  -12.480;  654.620
1087.869;   12.031;  -12.450;  610.700
1088.413;   12.999;  -12.240;  705.040
1088.957;   10.648;   -9.020;  543.400
1089.501;   13.100;  -10.320;  766.640
1090.045;   11.587;  -12.720;  726.480
1090.589;   10.355;  -13.690;  569.920
1091.133;   11.743;  -10.020;  673.340
1091.676;   11.963;  -12.330;  591.940
1092.220;   10.642;  -14.970;  600.920
1092.764;   11.775;  -12.430;  706.960
1093.307;   11.470;   -9.800;  673.780
1093.851;   10.982;  -14.970;  556.540
1094.395;   11.447;  -15.310;  683.140
1094.938;   10.748;  -10.370;  632.520
1095.482;   10.710;  -11.050;  559.800
1096.025;   11.437;  -11.840;  710.880
1096.568;   11.655;  -12.840;  779.280
1097.112;    9.211;  -14.700;  508.180
1097.655;   10.289;   -8.720;  603.000
1098.198;    9.486;  -13.610;  600.180
1098.741;    9.944;  -13.350;  612.860
1099.285;   10.634;  -11.230;  657.300
1099.828;    8.586;  -11.840;  439.400
1100.371;    9.615;  -10.840;  608.160
1100.914;    9.750;  -14.190;  682.660
1101.457;    9.691;  -11.240;  679.900
1101.999;    8.412;  -11.270;  584.680
1102.542;    9.071;  -11.480;  641.440
1103.085;    8.993;  -11.750;  658.500
1103.628;    9.374;  -11.400;  762.060
1104.170;    8.825;  -10.490;  588.280
1104.713;    9.568;  -10.600;  646.700
1105.256;    7.977;  -14.360;  557.440
1105.798;    7.994;  -13.210;  499.980
1106.341;    9.444;  -10.270;  728.900
1106.883;    8.346;  -12.200;  521.340
1107.425;    8.618;  -13.110;  668.180
1107.968;    8.550;  -12.840;  612.380
1108.510;    8.329;   -6.480;  684.960
1109.052;    7.351;  -13.940;  612.620
1109.594;    6.606;  -13.690;  554.440
1110.136;    7.903;  -11.880;  643.220
1110.679;    7.585;   -9.500;  633.080
1111.221;    7.875;  -14.160;  604.460
1111.763;    7.740;  -13.980;  559.220
1112.304;    6.741;  -13.880;  547.140
1112.846;    7.766;  -12.210;  666.240
1113.388;   10.239;  -11.390;  942.180
1113.930;    7.431;  -14.540;  694.200
1114.472;    6.831;  -12.640;  606.540
1115.013;    5.622;  -11.620;  551.280
1115.555;    6.538;  -13.640;  587.100
1116.097;    5.680;  -15.380;  579.480
1116.638;    6.585;  -12.640;  684.600
1117.180;    6.761;   -9.850;  667.740
1117.721;    6.969;  -13.690;  568.580
1118.262;    6.954;  -12.680;  677.960
1118.804;    6.623;  -12.530;  637.340
1119.345;    4.772;  -11.690;  578.400
1119.886;    6.826;  -13.380;  704.040
1120.427;    5.473;  -14.070;  589.020
1120.969;    4.943;  -13.500;  597.920
1121.510;    4.746;  -11.480;  563.060
1122.051;    6.466;  -12.830;  723.580
1122.592;    4.878;  -14.290;  655.420
1123.133;    4.389;  -12.400;  547.940
1123.673;    6.403;  -10.130;  706.480
1124.214;    5.448;  -12.930;  612.460
1124.755;    5.509;  -14.380;  639.460
1125.296;    4.855;  -14.000;  627.320
1125.836;    5.716;  -10.070;  691.500
1126.377;    5.485;  -12.640;  599.660
1126.918;    4.557;  -12.960;  614.980
1127.458;    4.223;  -13.350;  622.220
1127.999;    5.523;  -10.750;  656.980
1128.539;    5.393;  -12.350;  694.240
1129.079;    4.083;  -14.860;  632.720
1129.620;    3.781;  -13.840;  558.100
1130.160;    3.519;  -12.330;  539.480
1130.700;    4.500;  -14.530;  640.840
1131.240;    4.491;  -12.530;  643.700
1131.781;    3.406;  -14.450;  619.680
1132.321;    3.140;   -9.790;  599.120
1132.861;    3.135;  -14.860;  564.200
1133.401;    2.696;  -14.290;  593.940
1133.941;    4.023;  -11.750;  626.280
1134.481;    3.097;   -9.920;  597.580
1135.020;    3.309;  -12.290;  609.160
1135.560;    3.197;  -11.650;  674.940
1136.100;    2.882;  -16.270;  501.160
1136.640;    2.440;  -10.890;  510.480
1137.179;    3.042;  -14.180;  537.960
1137.719;    2.724;  -16.250;  605.400
1138.258;    2.906;  -14.230;  587.360
1138.798;    2.656;   -9.090;  663.780
1139.337;    2.233;  -15.130;  482.840
1139.877;    3.118;  -13.680;  642.360
1140.416;    4.324;  -11.320;  878.060
1140.955;    1.412;  -10.860;  535.380
1141.494;    2.570;  -12.920;  669.280
1142.034;    2.026;  -13.930;  583.520
1142.573;    2.623;  -11.440;  646.280
1143.112;    0.664;  -12.000;  553.480
1143.651;    1.977;  -13.670;  536.480
1144.190;    2.030;  -12.730;  691.640
1144.729;    2.614;  -14.560;  607.420
1145.267;    1.704;  -11.830;  584.900
1145.806;    2.559;  -12.230;  637.040
1146.345;    1.310;  -14.130;  635.020
1146.884;    1.541;  -11.590;  622.500
1147.422;    0.506;  -12.550;  533.060
1147.961;    2.787;  -11.180;  708.460
1148.500;    2.401;  -11.510;  669.720
1149.038;    2.195;  -11.640;  632.500
1149.577;    2.108;  -10.130;  698.640
1150.115;    0.008;  -13.970;  452.280
1150.653;    1.750;  -14.520;  607.340
1151.192;    1.155;  -12.810;  552.920
1151.730;    0.984;   -9.100;  652.560
1152.268;    0.786;  -12.220;  589.520
1152.806;    0.615;  -14.140;  571.180
1153.344;   -0.226;  -12.350;  577.640
1153.882;    0.468;   -8.980;  600.060
1154.421;   -0.567;  -15.190;  470.620
1154.958;   -0.750;  -15.210;  595.240
1155.496;    1.987;  -12.850;  645.280
1156.034;    0.351;   -9.940;  721.880
1156.572;    2.078;  -13.570;  667.060
1157.110;   -1.435;  -14.590;  473.940
1157.647;    0.683;  -13.030;  676.960
1158.185;   -0.276;  -12.140;  564.320
1158.723;   -1.569;  -14.390;  509.200
1159.260;   -0.241;  -14.090;  701.700
1159.798;    0.345;  -11.920;  658.160
1160.335;    0.248;  -11.110;  631.820

