
Integration time [ms]:   3.276
Averaging Nr. [scans]: 1000
Smoothing Nr. [pixels]: 0
Data measured with spectrometer [name]: 7414430SP
Wave   ;Sample   ;Dark     ;Reference
[nm]   ;[counts] ;[counts] ;[counts] 

288.544;  148.784;    7.793;  793.890
289.143;  154.099;    7.462;  681.602
289.742;  153.277;    8.602;  828.814
290.341;  138.477;    1.321;  789.841
290.940;  128.013;   -0.709;  730.702
291.538;  128.045;    0.881;  881.108
292.137;  128.945;    0.122;  792.581
292.736;  132.539;   -1.929;  975.101
293.335;  129.521;   -8.229;  735.086
293.934;  130.068;   -5.279;  781.677
294.532;  127.817;   -1.369; 1031.958
295.131;  114.063;   -7.641;  834.394
295.730;  113.390;   -8.420;  809.588
296.328;  114.000;   -5.611;  783.442
296.927;  115.063;   -5.781;  779.652
297.525;  114.764;   -6.361;  781.236
298.124;  105.753;  -11.382;  654.009
298.722;  108.356;   -7.641;  761.933
299.321;  107.015;   -6.811;  708.597
299.919;  105.300;   -6.991;  751.918
300.518;  102.505;  -10.362;  689.338
301.116;  104.796;   -9.581;  691.381
301.715;  103.537;   -4.891;  730.222
302.313;  103.080;   -8.801;  704.943
302.911;   98.507;   -8.522;  733.830
303.509;  103.630;   -6.171;  925.627
304.108;  101.682;   -7.311;  760.383
304.706;  100.656;   -8.321;  801.664
305.304;   94.988;  -10.222;  796.707
305.902;  100.232;   -6.021;  784.484
306.500;   95.561;   -4.971;  728.200
307.098;   94.623;   -7.061;  746.560
307.696;   92.268;   -8.801;  780.432
308.294;   93.764;   -6.411;  731.359
308.892;   94.995;   -2.901;  759.769
309.490;   91.406;   -5.041;  712.161
310.088;   90.023;   -5.002;  788.444
310.686;   94.084;   -2.041;  821.749
311.284;   89.360;   -2.351;  766.040
311.882;   88.211;   -4.422;  731.225
312.480;   83.765;   -4.192;  697.167
313.078;   85.220;   -1.172;  808.331
313.675;   87.133;   -2.601;  691.600
314.273;   81.909;   -1.312;  797.837
314.871;   80.876;   -3.942;  589.829
315.468;   79.705;   -2.802;  652.090
316.066;   82.140;   -0.701;  694.427
316.664;   75.042;   -4.362;  656.351
317.261;   79.150;   -2.872;  910.128
317.859;   74.701;   -2.022;  768.735
318.456;   75.757;   -0.531;  830.096
319.054;   71.726;   -3.912;  787.828
319.651;   69.611;   -4.752;  759.928
320.249;   68.776;   -2.602;  810.188
320.846;   67.586;   -0.821;  714.286
321.443;   64.016;   -4.642;  832.135
322.041;   60.976;   -5.002;  812.315
322.638;   59.304;   -3.982;  701.456
323.235;   60.167;   -3.411;  665.683
323.833;   57.617;   -7.361;  740.354
324.430;   52.677;   -8.611;  615.900
325.027;   54.005;   -4.061;  876.855
325.624;   54.160;   -4.031;  644.532
326.221;   50.940;   -7.481;  689.717
326.818;   49.908;   -5.281;  818.332
327.415;   54.015;   -7.460;  748.828
328.012;   53.101;   -5.510;  690.585
328.609;   51.849;   -7.880;  731.389
329.206;   50.410;   -8.331;  778.621
329.803;   50.979;   -5.121;  737.841
330.400;   52.795;   -4.510;  704.260
330.997;   54.001;   -6.441;  817.147
331.594;   52.823;   -8.831;  788.185
332.191;   58.495;   -7.621;  728.722
332.787;   61.852;   -4.591;  844.463
333.384;   59.774;   -7.412;  763.093
333.981;   58.792;   -8.293;  815.687
334.578;   61.564;   -7.052;  708.378
335.174;   63.593;   -3.102;  731.469
335.771;   62.554;   -5.943;  836.456
336.367;   59.437;   -7.393;  710.631
336.964;   63.964;   -4.063;  793.266
337.561;   61.224;   -3.813;  731.112
338.157;   56.508;   -4.654;  911.916
338.754;   54.600;   -7.934;  796.589
339.350;   53.352;   -4.414;  722.493
339.946;   54.792;   -4.664;  773.135
340.543;   46.867;   -6.375;  846.136
341.139;   41.839;   -9.815;  720.836
341.735;   40.420;   -4.526;  772.593
342.332;   38.713;   -4.895;  691.472
342.928;   38.499;   -4.295;  795.394
343.524;   33.242;   -5.476;  761.684
344.120;   29.797;   -5.856;  738.562
344.716;   33.390;   -2.155;  723.717
345.313;   30.616;   -6.275;  795.342
345.909;   25.640;   -8.815;  627.336
346.505;   27.498;   -5.305;  740.247
347.101;   28.596;   -2.674;  827.864
347.697;   28.053;   -4.344;  785.398
348.293;   23.020;   -9.975;  627.244
348.889;   23.908;   -5.774;  745.914
349.485;   23.825;   -5.004;  688.205
350.081;   23.213;   -4.704;  772.592
350.676;   19.017;   -6.635;  691.606
351.272;   23.266;   -4.504;  809.530
351.868;   23.308;   -3.914;  780.497
352.464;   20.122;   -9.044;  723.932
353.059;   16.968;   -8.314;  646.017
353.655;   20.455;   -7.024;  777.063
354.251;   21.391;   -5.343;  759.845
354.846;   15.339;   -8.604;  740.646
355.442;   13.566;   -6.945;  753.071
356.038;   15.704;   -7.564;  751.708
356.633;   15.538;   -5.814;  728.594
357.229;   12.876;   -7.364;  724.757
357.824;   11.322;   -8.024;  703.600
358.420;   11.046;   -9.384;  679.726
359.015;   11.988;   -5.104;  695.357
359.610;   12.312;   -6.854;  763.920
360.206;    6.602;  -10.185;  603.240
360.801;    9.265;   -7.054;  646.503
361.396;   11.835;   -5.034;  725.975
361.992;    6.625;   -8.284;  668.220
362.587;    4.220;   -8.625;  670.160
363.182;    6.715;   -7.674;  689.631
363.777;    7.727;   -5.164;  738.242
364.372;    6.824;   -8.604;  737.314
364.967;    3.776;   -9.055;  680.744
365.563;    8.103;   -6.114;  815.567
366.158;    4.947;   -5.814;  685.161
366.753;    5.251;   -7.854;  649.263
367.348;    3.204;   -7.804;  746.056
367.942;    3.339;   -7.954;  697.298
368.537;    3.262;   -4.984;  754.245
369.132;    3.244;   -8.564;  703.428
369.727;   -1.036;   -8.855;  638.079
370.322;    1.096;   -6.245;  580.186
370.917;   -0.307;   -6.425;  710.646
371.511;    2.976;   -6.294;  861.834
372.106;   -0.378;   -7.685;  776.964
372.701;   -2.861;   -7.335;  585.988
373.296;    1.800;   -4.564;  863.135
373.890;   -3.154;  -10.235;  647.840
374.485;   -4.410;   -7.885;  691.199
375.079;   -1.258;   -7.324;  738.685
375.674;    0.715;   -3.494;  812.970
376.268;   -4.036;   -8.525;  691.759
376.863;   -9.507;  -10.086;  580.327
377.457;   -3.563;   -7.025;  662.490
378.052;   -5.219;   -3.585;  764.884
378.646;   -6.169;   -7.595;  741.167
379.240;   -6.385;   -8.335;  721.176
379.835;   -5.272;   -5.785;  636.978
380.429;   -7.815;   -4.335;  562.557
381.023;   -7.839;   -6.805;  779.205
381.617;   -9.777;   -9.195;  680.106
382.212;   -6.551;   -6.905;  685.303
382.806;   -4.553;   -3.745;  760.690
383.400;  -10.145;   -7.745;  672.281
383.994;  -11.464;   -9.765;  664.870
384.588;   -6.628;   -6.564;  697.701
385.182;   -5.280;   -5.344;  726.624
385.776;   -7.741;   -8.514;  706.875
386.370;  -10.268;   -9.555;  681.968
386.964;   -8.938;   -8.715;  684.155
387.558;   -7.331;   -6.174;  598.360
388.152;  -11.161;   -8.725;  681.959
388.745;   -8.979;   -7.965;  814.707
389.339;   -7.023;   -5.924;  747.642
389.933;   -5.923;   -5.524;  695.370
390.527;   -7.286;   -7.114;  859.029
391.120;  -13.391;  -10.725;  595.318
391.714;  -10.443;   -8.035;  711.633
392.308;   -7.636;   -3.574;  780.253
392.901;  -11.365;   -7.245;  642.460
393.495;  -13.952;   -9.285;  595.414
394.089;  -11.161;   -5.895;  760.452
394.682;  -11.293;   -4.295;  697.188
395.275;  -11.594;   -9.875;  719.927
395.869;  -13.280;   -8.485;  667.314
396.462;  -11.167;   -7.455;  616.609
397.056;   -7.319;   -5.424;  776.621
397.649;  -12.506;   -6.605;  731.575
398.242;   -9.806;   -8.224;  712.645
398.836;   -8.548;   -7.474;  766.408
399.429;  -10.327;   -7.094;  631.041
400.022;  -13.177;   -9.475;  665.902
400.615;  -10.870;   -7.145;  805.609
401.208;   -8.612;   -7.174;  691.451
401.802;  -11.157;   -5.515;  699.329
402.395;  -12.167;   -9.875;  683.502
402.988;  -13.619;   -8.845;  696.627
403.581;   -9.375;   -8.874;  646.878
404.174;   -8.140;   -5.324;  686.568
404.767;  -11.132;   -9.575;  638.583
405.360;  -12.775;  -10.965;  621.445
405.953;   -7.335;   -8.764;  759.034
406.545;   -6.985;   -7.514;  725.342
407.138;  -11.475;  -10.025;  618.350
407.731;  -10.335;  -10.034;  613.303
408.324;   -5.730;   -9.374;  660.554
408.917;   -6.960;   -6.534;  681.864
409.509;   -9.326;   -8.004;  740.396
410.102;  -11.647;   -9.875;  643.948
410.695;   -4.251;   -8.604;  665.758
411.287;   -5.541;   -6.794;  599.821
411.880;   -7.265;   -9.334;  585.421
412.472;   -9.893;  -10.254;  613.092
413.065;   -6.906;   -6.714;  629.408
413.657;   -5.275;   -7.234;  576.678
414.250;   -4.866;  -10.544;  646.681
414.842;   -7.579;   -9.744;  676.353
415.434;   -4.186;   -6.994;  570.463
416.027;    0.003;   -5.893;  652.196
416.619;   -2.332;   -7.264;  713.400
417.211;   -3.146;  -10.374;  599.352
417.804;    0.724;   -7.993;  628.499
418.396;   -3.198;   -7.234;  607.643
418.988;   -1.113;   -9.443;  659.238
419.580;   -4.616;  -10.724;  568.276
420.172;   -2.045;  -10.323;  536.196
420.764;    2.137;   -8.793;  672.482
421.356;    0.528;  -11.143;  636.898
421.948;   -0.246;   -8.293;  677.661
422.540;    5.433;   -7.893;  680.027
423.132;    5.122;   -7.082;  600.641
423.724;    1.314;   -8.653;  561.267
424.316;    2.608;  -10.213;  621.345
424.908;    6.062;   -9.762;  591.517
425.500;    7.788;   -5.572;  647.978
426.092;    7.345;   -8.422;  648.268
426.683;    6.737;   -9.283;  684.836
427.275;    9.975;   -7.852;  641.471
427.867;   11.207;   -5.272;  668.948
428.458;   11.582;   -7.682;  732.344
429.050;   10.405;  -10.612;  680.749
429.642;   11.816;   -9.882;  743.124
430.233;   13.159;   -6.962;  569.356
430.825;   13.973;   -6.842;  724.809
431.416;   11.867;   -9.672;  698.241
432.008;   14.898;   -6.552;  651.723
432.599;   16.553;   -6.891;  656.073
433.190;   12.749;  -10.912;  637.670
433.782;   12.186;  -11.172;  590.395
434.373;   19.846;   -6.061;  884.765
434.964;   18.041;   -8.251;  602.920
435.556;   16.044;   -9.722;  634.537
436.147;   18.704;   -9.082;  758.490
436.738;   19.170;   -8.041;  701.099
437.329;   24.016;   -7.341;  721.723
437.920;   16.870;   -8.162;  666.688
438.511;   17.335;  -11.802;  564.526
439.103;   24.274;  -10.191;  623.998
439.694;   26.005;   -7.601;  681.583
440.285;   26.956;   -8.541;  764.432
440.876;   23.993;   -9.751;  845.738
441.466;   24.297;   -9.401;  575.162
442.057;   29.260;   -7.760;  665.814
442.648;   29.047;   -9.971;  746.255
443.239;   26.603;  -11.001;  620.477
443.830;   31.528;   -7.990;  704.958
444.421;   33.231;   -7.910;  655.474
445.011;   29.267;   -8.131;  693.619
445.602;   28.454;   -7.111;  743.126
446.193;   31.546;  -10.920;  488.117
446.783;   36.067;   -6.500;  640.397
447.374;   31.276;   -8.671;  692.759
447.964;   31.223;  -10.781;  713.770
448.555;   40.239;   -9.650;  822.742
449.145;   37.246;   -8.660;  662.853
449.736;   37.968;   -8.990;  803.179
450.326;   38.951;   -9.500;  713.626
450.917;   42.599;   -8.680;  675.324
451.507;   41.909;   -7.520;  600.661
452.097;   42.364;   -8.590;  746.267
452.688;   42.847;  -11.340;  742.160
453.278;   43.053;  -10.100;  566.840
453.868;   47.753;   -6.019;  793.550
454.458;   45.859;   -9.440;  651.141
455.048;   45.991;  -10.560;  711.783
455.639;   47.471;  -11.799;  567.096
456.229;   52.137;   -6.899;  710.694
456.819;   53.197;   -7.389;  751.158
457.409;   52.861;  -11.119;  773.993
457.999;   55.410;   -9.289;  737.505
458.589;   56.458;   -6.139;  686.606
459.179;   55.877;   -8.729;  717.658
459.769;   53.563;   -9.789;  627.099
460.358;   58.522;  -10.259;  797.262
460.948;   59.356;   -7.299;  689.503
461.538;   60.619;  -10.289;  660.677
462.128;   57.840;  -11.269;  664.934
462.717;   65.613;   -9.368;  710.326
463.307;   68.420;   -7.908;  705.846
463.897;   64.179;   -9.599;  656.942
464.486;   64.284;   -9.769;  837.128
465.076;   67.785;   -8.048;  733.776
465.666;   71.875;   -9.358;  652.900
466.255;   68.716;   -7.919;  785.651
466.845;   68.326;  -11.689;  666.749
467.434;   71.806;   -7.818;  725.873
468.023;   73.302;   -7.678;  658.357
468.613;   69.426;  -10.939;  713.946
469.202;   74.393;  -10.118;  646.507
469.791;   78.813;   -9.108;  737.811
470.381;   81.187;   -6.058;  742.813
470.970;   80.610;  -10.428;  711.099
471.559;   79.825;  -10.268;  733.291
472.148;   83.361;   -8.448;  675.737
472.738;   86.266;   -6.917;  765.466
473.327;   85.701;  -11.978;  637.529
473.916;   85.439;  -11.888;  737.446
474.505;   89.983;   -9.437;  751.703
475.094;   92.718;   -6.747;  806.570
475.683;   92.055;   -9.367;  797.699
476.272;   93.136;  -12.637;  730.632
476.861;   96.253;  -10.027;  706.754
477.449;  102.948;   -8.716;  728.487
478.038;   96.626;   -9.577;  692.513
478.627;   98.068;   -9.718;  714.852
479.216;  105.138;   -8.947;  769.441
479.805;  108.346;   -6.256;  783.375
480.393;  108.605;   -7.937; 1008.945
480.982;  107.209;   -7.717;  874.501
481.571;  113.648;   -9.266;  858.333
482.159;  114.429;   -7.636;  705.386
482.748;  114.147;   -9.667;  821.385
483.336;  118.493;  -10.376;  858.209
483.925;  120.150;   -7.147;  774.373
484.513;  126.527;   -7.996;  758.962
485.102;  122.729;  -10.027;  810.965
485.690;  131.986;  -10.446; 1011.050
486.278;  133.772;   -8.446;  979.329
486.867;  135.246;   -6.356;  809.662
487.455;  136.800;   -9.136;  898.229
488.043;  139.426;  -10.646;  748.361
488.631;  148.189;   -7.456; 1005.079
489.220;  151.946;   -6.636;  908.626
489.808;  153.120;  -11.036;  741.415
490.396;  161.952;  -10.246;  914.645
490.984;  169.404;   -8.556;  830.161
491.572;  180.768;   -5.886;  940.315
492.160;  187.305;   -9.486;  919.081
492.748;  202.457;  -10.976;  884.341
493.336;  229.517;   -8.776; 1019.693
493.924;  260.197;   -5.465;  958.077
494.512;  292.699;   -9.986; 1066.638
495.100;  338.727;  -10.636; 1103.280
495.687;  401.870;  -10.885; 1206.373
496.275;  477.658;   -8.126; 1150.796
496.863;  559.281;  -10.586; 1281.171
497.451;  677.637;  -11.926; 1386.805
498.038;  827.692;  -10.885; 1556.729
498.626;  950.036;   -6.315; 1741.407
499.214; 1120.648;   -7.326; 2016.609
499.801; 1358.909;  -11.906; 2220.633
500.389; 1649.167;  -10.466; 2312.494
500.976; 2011.146;   -5.236; 2744.849
501.564; 2517.396;   -8.936; 3148.565
502.151; 2956.745;  -13.176; 3515.999
502.738; 3472.446;  -10.646; 3971.274
503.326; 3905.639;   -9.525; 4403.796
503.913; 4337.764;  -10.856; 5161.749
504.500; 4746.318;  -11.586; 5986.420
505.088; 5209.771;  -10.336; 6381.201
505.675; 5799.868;   -6.355; 6925.547
506.262; 6587.047;   -9.046; 7619.060
506.849; 7352.528;  -10.416; 8733.969
507.436; 7858.509;  -10.305; 9790.121
508.023; 8502.199;   -5.496; 9985.472
508.610; 8774.157;   -7.856;10434.618
509.197; 9450.463;  -10.097;11198.435
509.784;10960.104;  -10.886;12391.194
510.371;12077.905;   -9.315;13603.713
510.958;12810.157;   -9.936;14426.586
511.545;13625.068;   -9.326;15243.775
512.132;14557.183;  -10.075;15945.876
512.719;15245.533;   -7.796;16340.369
513.305;16273.101;  -10.606;18011.766
513.892;17080.242;  -11.486;19754.971
514.479;18465.561;   -9.126;20967.805
515.066;19974.418;   -6.026;22299.793
515.652;21365.701;   -8.466;22908.660
516.239;22706.125;  -10.886;23798.875
516.825;23750.664;  -11.496;25567.275
517.412;24974.799;   -5.796;28154.959
517.998;25691.246;  -10.506;28344.111
518.585;25681.029;  -10.076;27134.219
519.171;26091.809;   -8.315;27268.576
519.758;27643.568;   -8.596;28964.129
520.344;29403.729;   -8.466;30664.494
520.930;29367.783;  -11.006;32550.605
521.516;31096.795;  -10.495;35422.895
522.103;33453.301;   -5.526;38280.004
522.689;33972.789;   -8.746;37835.117
523.275;33174.949;  -11.376;37288.613
523.861;34221.539;  -11.156;37281.395
524.447;35816.359;   -8.135;37846.949
525.033;35605.445;   -7.896;38321.949
525.619;35552.570;  -12.476;38579.285
526.205;37294.152;   -9.516;40622.875
526.791;39753.242;   -6.926;42258.836
527.377;39795.965;   -8.346;42966.902
527.963;41370.234;   -8.717;42018.949
528.549;39590.922;  -11.016;42476.828
529.135;38368.980;   -8.536;41854.852
529.721;37886.281;   -9.666;41237.711
530.306;37256.090;  -10.066;41259.445
530.892;36808.844;  -11.356;41506.047
531.478;38244.098;   -6.596;43559.613
532.063;41122.918;   -8.836;47695.563
532.649;41306.277;  -10.047;50808.324
533.235;42424.074;   -9.746;51787.500
533.820;43264.027;   -6.566;52145.035
534.406;44710.152;  -10.817;51133.488
534.991;44422.867;   -9.416;49996.805
535.576;42823.031;   -9.036;48882.852
536.162;43190.625;   -6.156;46942.285
536.747;44351.035;  -11.607;45711.746
537.333;48549.480;  -11.787;48510.180
537.918;51196.004;  -12.437;50439.891
538.503;49638.082;   -7.196;50863.711
539.088;46448.766;  -10.556;50906.922
539.673;46182.398;   -8.767;52621.965
540.259;45990.727;  -10.026;52368.094
540.844;43553.414;   -7.416;50879.109
541.429;45015.863;   -9.467;52077.777
542.014;47920.535;   -9.527;52716.695
542.599;47010.559;   -9.946;52363.281
543.184;44862.836;   -7.927;53187.137
543.769;46796.203;   -9.297;54697.605
544.354;45935.969;  -10.127;53913.914
544.938;44446.457;   -9.267;49680.164
545.523;46279.984;   -6.506;47386.277
546.108;49040.383;   -9.787;49151.949
546.693;51268.496;  -11.587;51384.637
547.278;51138.664;  -10.986;51853.254
547.862;48148.852;   -8.206;51173.750
548.447;43568.098;  -10.067;51691.395
549.031;43201.629;   -9.637;52456.703
549.616;48396.898;   -9.926;52714.516
550.201;47464.230;   -6.347;52414.598
550.785;48692.395;   -7.917;52355.059
551.370;47642.656;  -10.867;54589.453
551.954;47533.730;   -9.047;58267.348
552.538;48267.313;   -7.827;59062.176
553.123;46520.348;  -10.287;58115.285
553.707;44405.727;  -12.178;56556.285
554.291;45839.469;   -8.717;56201.668
554.876;48186.367;   -7.457;55335.762
555.460;48655.480;  -10.387;54155.703
556.044;49728.348;   -9.618;53721.484
556.628;48186.891;  -11.567;53731.016
557.212;46767.711;   -8.097;54312.531
557.796;45305.672;  -11.077;53797.773
558.380;45293.973;  -11.108;56145.984
558.964;45767.809;   -9.057;57277.930
559.548;46847.629;   -6.977;56459.641
560.132;45242.332;  -11.457;54434.543
560.716;44069.816;  -11.378;54800.617
561.300;45266.199;   -9.577;57606.945
561.884;46314.211;   -7.127;58972.445
562.467;44879.988;   -7.118;57327.570
563.051;44107.648;  -13.358;54962.434
563.635;44814.953;  -10.178;52594.473
564.219;45224.457;   -7.837;50610.410
564.802;46399.020;  -11.398;49551.180
565.386;46508.625;  -12.788;48370.953
565.969;45884.738;   -9.077;48178.871
566.553;45297.469;   -6.207;49957.305
567.136;45637.086;   -8.568;50369.594
567.720;41701.238;  -11.868;49492.004
568.303;39548.688;   -8.268;50616.352
568.887;39607.500;   -8.698;50727.148
569.470;39866.668;   -6.808;51698.379
570.053;38525.684;  -13.188;52122.078
570.637;36841.551;  -12.037;52536.438
571.220;36584.516;   -8.577;51186.098
571.803;37006.766;   -8.498;51032.762
572.386;39754.063;  -10.498;49609.887
572.969;42477.328;   -9.388;48285.926
573.552;40334.203;   -8.338;47624.285
574.135;38803.195;   -8.518;45498.641
574.718;36271.273;  -13.628;41970.434
575.301;35156.055;  -10.893;41447.137
575.884;34040.836;   -8.158;40923.836
576.467;35404.574;  -10.328;45267.723
577.050;38036.590;  -13.058;48175.543
577.633;39441.840;   -9.458;47729.328
578.216;38237.766;   -8.928;47579.793
578.799;37235.617;   -9.358;47820.996
579.381;35930.996;  -11.388;48115.551
579.964;34454.082;  -11.718;47333.766
580.547;35947.523;   -8.588;46668.969
581.129;37000.340;   -8.859;44466.141
581.712;37735.371;  -10.729;44164.922
582.294;38517.820;  -11.118;46477.855
582.877;38449.988;   -5.218;48244.254
583.459;35998.391;   -8.679;47437.895
584.042;34062.711;  -10.709;46943.219
584.624;34690.617;  -11.669;46792.227
585.206;34132.723;   -8.218;46557.250
585.789;34291.164;  -10.569;45793.773
586.371;37237.973;  -11.859;43836.391
586.953;37617.156;  -10.719;42972.492
587.536;39278.164;   -7.198;42487.211
588.118;38989.457;   -8.720;42086.414
588.700;35403.570;  -10.439;43389.930
589.282;34462.938;   -9.198;43646.039
589.864;35196.102;   -9.199;43438.109
590.446;36033.211;  -11.319;43151.926
591.028;35763.879;  -11.159;42781.867
591.610;34784.465;  -11.779;42839.098
592.192;32447.596;   -7.668;42820.402
592.774;31079.553;  -11.949;40724.277
593.356;29723.283;  -12.129;39874.789
593.937;28714.791;  -10.669;39980.648
594.519;30970.293;   -6.509;42069.633
595.101;33095.711;  -10.849;42976.031
595.683;33194.914;  -11.679;44084.441
596.264;34376.453;   -9.049;43478.797
596.846;33577.660;   -8.849;43803.672
597.427;33437.113;   -9.570;42986.934
598.009;35170.523;  -12.620;42832.219
598.591;35515.992;  -10.039;42580.086
599.172;34525.621;  -10.369;43061.805
599.753;34510.883;   -9.140;41691.469
600.335;36094.160;  -11.430;40692.520
600.916;34311.594;   -9.939;39982.422
601.498;31754.227;   -8.479;40318.617
602.079;30279.801;  -10.920;40670.609
602.660;30442.059;  -11.480;41450.898
603.241;32015.844;  -11.699;41137.738
603.823;30742.148;   -9.579;38868.797
604.404;30596.088;  -10.620;38182.785
604.985;32023.332;  -10.450;38078.047
605.566;31495.422;   -9.129;38056.633
606.147;31595.521;   -7.510;37020.418
606.728;33233.422;  -10.660;37883.359
607.309;31906.322;  -11.740;38748.273
607.890;31334.582;   -9.759;38850.230
608.471;30776.295;   -8.250;37457.918
609.051;29869.855;   -9.240;36066.457
609.632;28874.049;  -12.120;35991.074
610.213;29777.771;   -9.110;37402.641
610.794;30345.533;   -8.030;38383.363
611.374;29810.986;   -8.110;40562.387
611.955;30388.051;  -13.560;38533.727
612.536;31755.756;  -11.400;36951.789
613.116;31709.916;   -8.070;37197.891
613.697;31729.391;  -10.830;38411.125
614.277;30319.709;  -11.641;38673.938
614.858;31356.227;  -13.310;37075.863
615.438;30247.961;   -7.460;35092.906
616.019;27305.078;   -7.601;33666.301
616.599;28138.182;  -12.020;34189.023
617.179;30013.543;  -11.780;36952.047
617.760;30973.654;   -8.570;39582.574
618.340;32033.697;  -11.471;38943.977
618.920;33296.574;  -11.170;37594.156
619.500;33130.906;  -11.071;37866.938
620.080;32403.264;   -7.750;37869.043
620.660;33633.195;  -12.711;36868.617
621.241;34967.684;  -10.211;36352.309
621.821;35075.285;  -10.961;35459.520
622.401;34012.469;   -7.720;35207.414
622.980;33256.324;   -8.981;35980.422
623.560;31830.557;   -9.331;37351.328
624.140;30695.865;   -9.850;34388.582
624.720;25305.500;   -7.451;32368.764
625.300;21651.229;   -9.070;32638.629
625.880;24969.420;  -12.601;34599.035
626.459;28980.967;  -11.751;36831.738
627.039;32215.635;   -9.281;38299.098
627.619;32119.848;   -8.801;38289.574
628.198;30473.172;  -12.071;37220.695
628.778;29684.219;   -9.461;37632.563
629.357;30347.441;   -8.491;38003.012
629.937;30209.146;   -9.721;38402.039
630.516;29606.520;   -9.951;37868.801
631.096;29230.832;  -11.731;35760.410
631.675;32358.842;   -8.572;35225.219
632.254;37360.664;  -11.282;35130.289
632.834;36595.105;  -13.322;35794.570
633.413;34485.848;  -10.301;35788.922
633.992;31524.832;   -8.582;34532.863
634.571;32551.621;   -8.352;33590.113
635.151;35520.066;  -11.912;34943.863
635.730;33705.930;  -10.511;35352.523
636.309;30349.369;   -7.731;35366.605
636.888;28024.582;   -9.952;36165.637
637.467;28881.531;  -11.672;37515.902
638.046;30499.418;   -8.901;39288.695
638.625;33581.156;   -7.912;38279.699
639.204;33273.352;  -10.022;37741.598
639.782;31901.654;  -12.252;38364.551
640.361;28118.699;  -10.041;36740.621
640.940;25314.076;  -11.161;34950.082
641.519;25901.631;   -9.701;34137.398
642.097;28777.850;  -11.271;35654.258
642.676;31653.469;   -8.651;35637.957
643.255;32060.184;   -8.711;36567.074
643.833;31223.266;   -9.581;37809.434
644.412;31293.691;  -13.711;37337.293
644.990;30423.748;  -11.811;37018.531
645.569;30561.779;   -9.411;36518.469
646.147;29418.332;  -10.291;36186.430
646.726;29001.160;  -12.401;36267.688
647.304;30088.768;  -10.411;36647.625
647.882;32102.717;   -9.651;39286.742
648.461;33711.586;   -9.631;39157.703
649.039;31690.830;  -11.881;35412.883
649.617;31097.166;   -9.661;34744.918
650.195;30932.189;   -9.301;35403.098
650.773;29466.559;  -10.511;35053.797
651.352;27125.891;  -11.521;33756.816
651.930;24804.814;  -12.211;31868.773
652.508;23137.363;   -9.171;33121.551
653.086;27024.934;   -9.371;33564.793
653.663;29741.160;  -13.161;34054.668
654.241;28769.447;  -13.031;35693.309
654.819;30565.270;   -9.371;36422.906
655.397;30720.320;  -10.511;38213.484
655.975;30296.012;  -10.371;39507.625
656.553;29962.068;  -10.051;39498.223
657.130;28480.377;  -10.061;40395.480
657.708;27992.617;   -9.561;39242.020
658.286;28038.250;  -11.511;38920.020
658.863;29072.133;  -10.261;40202.898
659.441;32037.754;   -7.531;39677.938
660.018;31475.846;   -9.501;40413.355
660.596;30340.447;  -13.301;39931.414
661.173;32408.557;  -11.211;39604.531
661.750;32658.211;   -9.951;39700.070
662.328;31530.451;   -9.390;39292.809
662.905;30644.525;  -11.330;38235.648
663.482;26231.443;   -9.050;36212.305
664.060;24455.916;   -8.240;35944.945
664.637;27203.076;  -10.050;35170.785
665.214;28933.115;  -11.760;34197.523
665.791;30231.951;  -10.530;34549.520
666.368;29037.373;   -9.690;35118.578
666.945;30075.111;   -9.320;36019.418
667.522;31602.240;  -11.860;36048.438
668.099;31260.816;  -10.770;36243.914
668.676;30122.219;   -6.260;35958.875
669.253;28934.043;   -7.000;37384.730
669.830;29607.844;  -10.190;36779.629
670.407;29222.783;   -9.550;35231.289
670.984;29357.047;   -9.260;35544.270
671.560;29772.031;   -9.280;35466.867
672.137;28771.018;  -11.810;34280.863
672.714;29564.693;  -11.490;34632.863
673.290;30015.619;   -7.740;35135.422
673.867;30344.895;  -10.660;36114.480
674.443;30109.609;  -12.230;36152.859
675.020;28542.494;  -10.450;35327.238
675.596;29865.363;   -9.260;35795.176
676.173;30280.908;  -10.780;35430.355
676.749;30101.740;  -13.690;33549.516
677.326;30139.033;  -11.980;32210.012
677.902;30088.664;   -8.630;32068.871
678.478;29353.902;  -10.730;32583.891
679.054;28776.992;  -10.520;32088.928
679.631;28966.602;  -11.920;30978.848
680.207;30473.412;   -7.490;33160.887
680.783;32055.607;   -9.860;35570.363
681.359;31092.230;  -13.380;36125.184
681.935;30490.273;  -12.480;35240.922
682.511;29631.164;   -7.900;34429.961
683.087;29830.715;   -7.710;34463.680
683.663;29476.529;  -11.480;34648.898
684.239;28100.160;  -14.090;34546.457
684.815;27827.227;   -7.560;35586.375
685.390;28347.266;   -9.910;35821.895
685.966;28852.273;  -11.159;35085.871
686.542;31326.248;  -11.169;34198.230
687.118;33292.844;   -5.959;32847.707
687.693;33199.887;  -10.329;32794.027
688.269;32856.895;  -12.059;33072.367
688.844;31013.928;  -10.909;33141.664
689.420;28851.805;   -8.019;33965.742
689.995;26563.371;   -8.399;34655.523
690.571;25290.633;  -10.949;33576.742
691.146;25862.883;   -9.619;32657.219
691.722;25353.623;   -8.999;32526.979
692.297;25450.660;  -11.589;33014.617
692.872;27363.900;  -11.739;34012.254
693.448;26728.402;  -11.059;34237.434
694.023;25820.594;  -10.139;34142.672
694.598;27944.869;   -9.029;34132.031
695.173;28218.281;  -13.319;34205.250
695.748;27408.607;  -10.169;32882.488
696.323;27406.439;   -8.339;32864.906
696.898;27713.678;   -8.169;33170.004
697.473;27488.627;  -12.309;32432.984
698.048;26806.930;  -10.989;31649.303
698.623;26821.002;   -9.329;30778.141
699.198;28854.783;   -9.849;31140.119
699.773;29542.410;  -12.329;31764.299
700.348;27913.018;  -10.389;31780.816
700.922;28067.590;   -9.269;32046.375
701.497;28813.627;   -9.329;32603.574
702.072;28819.031;  -10.789;34799.871
702.646;27540.787;  -10.839;35793.172
703.221;25912.400;   -9.099;35201.590
703.795;27859.088;  -10.939;34764.527
704.370;27997.031;  -12.859;34307.367
704.944;28517.559;  -11.559;33509.887
705.519;29453.223;   -7.939;31388.584
706.093;30918.756;  -10.499;31340.104
706.668;31128.277;  -11.289;32630.281
707.242;29978.752;  -11.509;32728.779
707.816;28455.656;   -9.639;32947.238
708.390;27063.857;  -11.429;33277.855
708.965;27761.426;  -11.869;33834.336
709.539;28040.473;  -11.689;33709.273
710.113;28461.658;  -10.478;33044.313
710.687;27543.592;  -10.228;31953.992
711.261;25886.291;  -13.698;30505.949
711.835;25870.393;  -13.378;30262.369
712.409;26750.244;   -9.698;31254.447
712.983;28513.758;  -11.898;32754.986
713.557;29286.465;  -15.138;34018.824
714.131;28814.266;  -14.098;34579.625
714.704;27786.174;   -9.958;33890.262
715.278;25644.811;  -10.028;33531.102
715.852;24785.203;  -11.148;33601.660
716.425;25672.979;   -9.068;33515.117
716.999;26442.166;  -10.038;33185.555
717.573;27518.701;   -9.798;33905.996
718.146;28557.395;  -12.378;35199.293
718.720;28510.203;  -11.918;35060.551
719.293;28061.412;   -8.088;34973.230
719.867;30823.703;  -10.888;36394.449
720.440;30245.967;  -11.938;36663.008
721.013;28451.346;  -12.818;35102.426
721.587;27120.484;  -10.298;33985.266
722.160;26354.260;  -10.048;33524.965
722.733;25391.063;  -12.108;32987.043
723.306;25705.533;  -10.818;33066.301
723.880;27982.730;   -8.908;33399.500
724.453;29587.477;   -9.878;33468.297
725.026;28497.174;  -11.188;33816.637
725.599;26090.072;  -11.678;32797.996
726.172;26899.889;   -9.618;33187.434
726.745;28078.264;   -8.258;35136.613
727.318;29362.486;  -12.978;35751.730
727.891;29564.012;  -12.148;35890.430
728.463;29287.447;   -8.968;34822.090
729.036;28417.459;  -10.188;32895.086
729.609;28817.246;  -11.788;31823.225
730.182;25736.959;  -11.788;31445.283
730.754;23187.289;  -10.268;32373.223
731.327;23255.918;   -9.998;33676.820
731.900;23717.883;  -12.228;33417.000
732.472;25133.604;  -13.848;31978.498
733.045;26905.006;   -8.698;30368.777
733.617;26923.148;  -10.607;30574.215
734.190;26357.180;  -11.507;31280.975
734.762;23377.754;  -13.647;31674.412
735.334;21855.820;   -9.767;31247.291
735.907;22533.938;   -9.897;29876.211
736.479;22523.164;  -11.637;29808.488
737.051;22314.281;   -9.567;30233.547
737.623;23361.625;   -8.187;31469.086
738.195;24313.656;  -11.187;31784.225
738.768;26311.027;  -12.337;32120.523
739.340;26282.770;  -12.227;32094.342
739.912;24985.152;  -11.057;31312.680
740.484;23545.449;  -10.207;31946.238
741.056;22666.957;  -10.047;32984.059
741.628;24512.813;  -13.627;33897.715
742.199;26571.725;   -7.177;33213.016
742.771;24893.973;  -10.797;31369.113
743.343;22687.498;  -11.997;31865.473
743.915;21725.250;  -12.867;32388.631
744.487;21821.916;   -7.617;31079.568
745.058;21962.348;   -9.557;30570.107
745.630;22403.041;   -9.877;29970.127
746.201;23155.881;  -14.177;29186.766
746.773;23518.980;   -9.237;28805.723
747.344;23435.912;   -9.847;29591.223
747.916;22166.953;  -11.657;31412.201
748.487;22516.820;  -10.587;32194.898
749.059;23711.928;   -8.707;32533.719
749.630;24377.328;  -10.537;32158.518
750.201;23440.490;  -11.687;30855.395
750.773;21701.840;  -11.647;28622.555
751.344;21672.885;   -7.147;28405.732
751.915;22794.787;   -9.757;28461.551
752.486;22433.867;  -12.427;27842.850
753.057;20242.371;  -12.227;27845.008
753.628;19201.166;  -10.417;27728.107
754.199;20345.461;  -11.767;27381.086
754.770;21328.141;  -11.187;25882.203
755.341;21403.891;  -10.507;25886.184
755.912;21308.676;   -9.387;26050.861
756.483;20784.885;  -10.647;26798.779
757.054;18955.953;  -11.837;27048.238
757.625;17679.596;  -12.716;26294.838
758.195;17491.832;   -9.666;26142.076
758.766;17273.301;   -8.656;26392.234
759.337;18111.031;  -12.856;26334.594
759.907;19802.865;  -13.366;27579.652
760.478;20578.371;   -8.576;28352.770
761.048;19790.410;  -10.526;27325.088
761.619;18974.203;  -11.116;26460.428
762.189;19169.135;  -12.136;26029.826
762.760;20389.273;   -9.456;26430.145
763.330;21347.109;   -7.136;26670.902
763.900;20599.824;  -11.786;26603.021
764.471;17984.594;  -11.546;25542.740
765.041;16708.607;   -8.096;24358.459
765.611;16791.432;   -8.876;23991.297
766.181;17249.217;  -12.196;24470.236
766.751;18144.670;  -11.636;24845.975
767.321;17801.955;  -10.156;24533.633
767.891;15868.162;  -11.766;24916.492
768.461;15451.130;  -14.936;24776.771
769.031;16102.854;  -12.356;24757.988
769.601;17544.391;   -7.526;24181.088
770.171;17234.564;  -10.766;23670.387
770.741;16589.877;  -13.176;22960.045
771.311;16823.350;  -10.616;22917.523
771.880;16999.127;   -9.576;23562.941
772.450;16624.859;  -10.336;24216.500
773.020;16698.820;  -13.516;24140.398
773.589;16131.020;  -13.466;24414.857
774.159;15590.891;   -8.686;23858.717
774.729;15272.442;   -9.476;22942.135
775.298;14736.766;  -13.666;22324.033
775.867;14306.595;  -11.716;21140.313
776.437;14321.492;   -9.906;20838.092
777.006;14117.402;  -12.166;20599.510
777.576;13971.331;  -12.356;20508.809
778.145;14071.695;  -11.646;20732.947
778.714;13853.857;   -8.226;21062.465
779.283;13109.238;   -9.556;20949.664
779.853;12686.664;  -14.116;20508.623
780.422;13122.874;  -11.506;20649.082
780.991;12713.944;   -9.556;21527.520
781.560;11640.125;   -9.095;22632.658
782.129;11510.873;  -12.135;23048.277
782.698;11532.715;  -10.865;23438.555
783.267;11087.944;   -9.335;23267.734
783.836;11031.428;  -11.045;22415.133
784.404;11972.566;  -13.865;20443.152
784.973;12429.354;  -13.095;19699.150
785.542;12336.366;  -11.575;19763.828
786.111;12153.662;   -9.705;20341.408
786.679;11626.990;  -12.105;20207.967
787.248;11408.979;  -12.455;19516.465
787.817;11224.848;  -11.535;18900.363
788.385;10807.602;   -9.765;17879.121
788.954;10259.425;  -14.005;17658.301
789.522; 9792.850;  -11.955;17788.879
790.090;10306.480;  -10.135;18118.277
790.659;10607.655;  -10.975;18338.736
791.227;10086.059;  -13.375;18508.615
791.795;10465.031;  -12.375;17898.254
792.364;10734.505;  -10.725;17295.133
792.932;10962.049;   -9.715;16822.051
793.500;11104.003;  -12.675;17040.148
794.068;11306.297;  -13.495;17179.787
794.636;11366.389;  -10.885;16664.246
795.204;10898.231;  -11.045;16524.545
795.772;10959.189;  -13.175;17274.564
796.340;10511.410;  -12.445;17891.002
796.908;10329.775;   -9.735;17648.561
797.476;10171.700;   -9.815;17064.080
798.044; 9771.038;  -13.985;16672.777
798.612; 9035.664;  -13.115;17023.996
799.180; 8687.414;  -10.185;16561.615
799.747; 8638.294;   -9.055;15962.773
800.315; 8405.609;  -12.385;15296.992
800.883; 8031.931;  -15.035;14801.771
801.450; 7960.476;  -10.365;14534.430
802.018; 7996.085;   -9.855;14173.248
802.585; 8127.018;  -11.905;14029.547
803.153; 8192.317;  -11.585;13836.846
803.720; 8027.307;   -9.095;13567.324
804.287; 7599.056;   -9.135;13360.622
804.855; 7243.056;  -11.604;13681.981
805.422; 7148.235;  -11.794;13536.560
805.989; 7128.916;  -10.734;13355.958
806.556; 7296.164;  -10.444;13747.896
807.124; 7530.309;  -12.764;13987.376
807.691; 7508.743;  -12.964;14038.674
808.258; 7304.780;  -11.134;14120.152
808.825; 7002.030;   -9.854;13860.111
809.392; 7068.352;  -10.504;13268.790
809.959; 6654.450;  -13.054;12680.389
810.526; 6292.474;   -8.294;12427.308
811.093; 6391.470;   -8.394;12030.105
811.659; 6940.659;  -12.304;11653.664
812.226; 7360.266;  -13.944;11637.183
812.793; 7066.941;  -10.484;11611.521
813.360; 6520.849;  -10.144;11885.181
813.926; 6279.898;  -11.684;12770.539
814.493; 6085.175;  -13.644;12677.638
815.060; 5740.699;   -9.724;11974.336
815.626; 5779.702;   -9.854;11594.715
816.193; 6161.579;  -13.254;11579.474
816.759; 6203.660;  -13.204;11666.972
817.325; 6318.732;   -9.434;11325.530
817.892; 6714.652;  -10.134;11105.369
818.458; 7119.395;  -13.474;10843.928
819.024; 6725.933;  -11.854;10714.406
819.591; 6434.698;  -10.244;10469.165
820.157; 6243.274;  -10.704;10235.523
820.723; 5830.410;  -12.324;10847.563
821.289; 5592.700;   -9.444;11040.980
821.855; 5504.594;   -8.374;10357.100
822.421; 5466.176;  -10.234; 9978.918
822.987; 5488.441;  -13.294; 9754.177
823.553; 5254.426;  -10.884;10065.755
824.119; 5124.825;   -8.884;10036.294
824.685; 5210.779;   -6.784;10029.192
825.251; 5289.646;  -12.004;10199.230
825.816; 5267.765;  -11.474; 9820.189
826.382; 5079.666;   -9.174; 9297.248
826.948; 5339.842;   -9.214; 9381.347
827.513; 5735.929;  -10.774; 9450.726
828.079; 5560.608;  -11.924; 9472.444
828.645; 5047.840;  -10.543; 9292.643
829.210; 5007.908;  -10.533; 9065.341
829.776; 4995.882;  -10.753; 9132.620
830.341; 4898.963;  -10.173; 9092.878
830.906; 5124.592;  -10.743; 9078.557
831.472; 5485.625;  -11.113; 8534.535
832.037; 5201.737;  -10.603; 8677.874
832.602; 4645.796;  -13.323; 8628.692
833.167; 4398.781;  -10.823; 8879.031
833.733; 4338.709;  -10.113; 9189.790
834.298; 4482.946;  -13.583; 9052.608
834.863; 4563.683;  -12.703; 8895.087
835.428; 4577.251;  -10.523; 8824.266
835.993; 4468.150;   -6.963; 8845.385
836.558; 4335.306;  -10.763; 8888.563
837.123; 4487.639;   -9.903; 8966.582
837.688; 4726.968;   -9.913; 8617.860
838.253; 4952.033;  -10.283; 8590.699
838.817; 5134.655;  -12.963; 8443.797
839.382; 5027.183;  -14.243; 8799.356
839.947; 4718.404;  -10.733; 8810.595
840.511; 4411.519;   -9.383; 8796.394
841.076; 4029.733;  -12.563; 8347.231
841.641; 4110.419;  -12.953; 8224.330
842.205; 4216.718;   -7.043; 8223.349
842.770; 4345.423;   -8.163; 8622.107
843.334; 4520.444;  -12.503; 8410.386
843.898; 4459.692;  -11.693; 8337.465
844.463; 4469.427;  -10.203; 8506.283
845.027; 4234.225;   -9.533; 8280.962
845.591; 4059.699;  -13.443; 8231.141
846.156; 4021.754;  -13.143; 7969.179
846.720; 3886.992;   -9.433; 7768.278
847.284; 3753.953;  -11.033; 7630.957
847.848; 3616.332;  -10.403; 7472.395
848.412; 3497.707;  -11.553; 7437.394
848.976; 3507.195;   -8.393; 7674.592
849.540; 3440.650;   -8.713; 7836.011
850.104; 3579.647;  -12.463; 7913.669
850.668; 3914.861;  -12.973; 7694.508
851.232; 3968.121;  -10.793; 7756.887
851.796; 3791.810;  -10.662; 7926.545
852.359; 3494.165;  -13.082; 7827.844
852.923; 3326.789;  -12.192; 7641.163
853.487; 3131.528;  -11.912; 7342.501
854.050; 3067.148;  -10.892; 7042.820
854.614; 3169.642;  -13.992; 7151.338
855.177; 3272.702;  -11.732; 7105.077
855.741; 3285.962;   -8.962; 6989.675
856.304; 3164.082;   -9.442; 6596.634
856.868; 3117.762;  -14.192; 6356.272
857.431; 3203.778;  -12.702; 6468.571
857.995; 3318.367;   -9.942; 6373.210
858.558; 3318.712;   -9.112; 6324.448
859.121; 3047.844;  -12.932; 6408.327
859.684; 2926.834;  -13.442; 6347.886
860.247; 3007.641;  -10.632; 6321.264
860.810; 2976.121;  -11.272; 6301.903
861.374; 2724.044;   -9.832; 6607.881
861.937; 2486.997;  -11.762; 6408.200
862.500; 2493.782;   -9.722; 6572.639
863.062; 2661.527;  -10.512; 6387.297
863.625; 2800.744;  -11.232; 6190.836
864.188; 2930.639;  -14.112; 5807.254
864.751; 2977.087;  -11.302; 5682.413
865.314; 2855.632;  -10.112; 5547.492
865.876; 2668.928;  -12.182; 5500.150
866.439; 2666.928;  -10.722; 5415.909
867.002; 2610.449;   -9.252; 5501.567
867.564; 2411.208;   -9.572; 5413.946
868.127; 2215.256;  -13.142; 5160.325
868.689; 2126.240;  -12.902; 5133.183
869.252; 2023.527;   -9.732; 5252.382
869.814; 1936.029;   -9.432; 5297.141
870.377; 1958.840;  -11.552; 5390.919
870.939; 2030.279;   -9.052; 5599.898
871.501; 2082.118;  -10.982; 5248.336
872.063; 2074.611;  -12.292; 4854.235
872.626; 2040.685;  -14.912; 4817.074
873.188; 2082.205;  -13.112; 4987.732
873.750; 2058.957;  -13.442; 4868.651
874.312; 1979.708;   -9.402; 4779.330
874.874; 1896.054;  -11.062; 4866.348
875.436; 1809.528;  -13.931; 4718.887
875.998; 1801.329;   -9.561; 4660.005
876.560; 1824.927;  -11.321; 4462.964
877.122; 1770.186;  -12.221; 4145.042
877.683; 1690.756;  -12.191; 4056.481
878.245; 1636.070;  -12.101; 3950.740
878.807; 1683.205;   -8.971; 4058.958
879.369; 1704.512;  -12.071; 3954.677
879.930; 1616.720;  -14.621; 3941.495
880.492; 1562.588;  -10.311; 4067.014
881.053; 1521.184;  -10.901; 3859.633
881.615; 1416.128;  -14.411; 3776.071
882.176; 1330.367;  -13.761; 3734.750
882.738; 1292.923;   -9.181; 3678.489
883.299; 1276.480;  -11.791; 3405.407
883.860; 1288.274;  -13.121; 3351.106
884.422; 1285.540;  -11.211; 3394.044
884.983; 1235.196;  -10.091; 3166.443
885.544; 1156.860;   -8.461; 3189.802
886.105; 1079.016;  -12.361; 3160.360
886.666; 1019.314;  -14.141; 3093.059
887.227;  970.622;  -11.361; 2941.957
887.788;  911.261;  -11.401; 2974.836
888.349;  852.393;  -13.791; 2721.214
888.910;  856.630;  -13.191; 2696.493
889.471;  866.792;   -9.881; 2560.172
890.032;  843.926;   -9.881; 2558.190
890.593;  823.895;  -10.371; 2567.669
891.153;  800.432;  -13.301; 2460.307
891.714;  751.045;  -11.431; 2372.046
892.275;  711.450;  -11.291; 2309.505
892.835;  668.470;  -11.471; 2382.543
893.396;  613.214;  -11.541; 2295.502
893.956;  557.560;  -11.181; 2162.420
894.517;  522.728;  -11.741; 2125.439
895.077;  520.659;  -11.671; 2086.978
895.638;  521.325;  -11.311; 2126.316
896.198;  492.582;   -9.831; 1838.275
896.758;  448.173;   -8.421; 1892.813
897.319;  417.789;  -12.351; 1792.232
897.879;  400.636;  -13.511; 1762.751
898.439;  374.674;  -12.001; 1661.149
898.999;  350.283;  -10.180; 1781.468
899.559;  341.234;  -12.030; 1703.347
900.119;  336.696;  -15.710; 1537.525
900.679;  332.758;   -8.900; 1638.384
901.239;  317.336;   -8.340; 1527.902
901.799;  305.584;  -13.910; 1456.441
902.359;  299.265;  -13.460; 1357.140
902.919;  291.329;  -11.490; 1331.118
903.479;  279.489;  -12.110; 1317.257
904.038;  257.365;  -11.720; 1262.595
904.598;  243.584;  -13.610; 1152.034
905.158;  239.900;  -11.040; 1240.893
905.717;  232.401;  -10.900; 1233.691
906.277;  220.545;  -15.080; 1217.330
906.836;  210.523;  -13.380; 1222.408
907.396;  201.658;  -10.780; 1193.047
907.955;  194.730;   -8.500; 1182.526
908.515;  188.618;  -12.760; 1099.364
909.074;  183.138;  -11.900; 1092.863
909.633;  177.922;   -8.950; 1069.121
910.192;  173.412;   -8.770; 1196.460
910.752;  167.065;  -12.390; 1029.960
911.311;  163.606;  -13.680; 1009.780
911.870;  161.771;  -12.370;  971.460
912.429;  163.288;  -10.900; 1094.080
912.988;  160.979;  -11.690; 1081.060
913.547;  157.214;  -13.240;  940.380
914.106;  151.903;  -11.990;  999.420
914.665;  148.515;   -9.990;  984.020
915.224;  147.517;  -12.880; 1035.760
915.782;  147.069;  -12.350;  922.560
916.341;  146.981;   -9.110; 1049.840
916.900;  142.957;   -9.270;  925.260
917.458;  141.145;  -13.240;  884.220
918.017;  140.430;  -13.550;  942.600
918.576;  141.110;  -12.320;  904.440
919.134;  137.859;  -11.490;  837.980
919.693;  136.645;  -13.670;  893.060
920.251;  135.485;  -15.470;  876.500
920.809;  134.226;  -11.290;  839.580
921.368;  133.592;  -10.210;  885.360
921.926;  132.646;  -12.140;  842.940
922.484;  130.646;  -13.080;  903.360
923.042;  131.401;  -11.720;  880.340
923.601;  134.321;   -7.480;  998.680
924.159;  132.383;  -11.570;  935.560
924.717;  127.837;  -13.840;  841.080
925.275;  128.443;  -10.640;  903.240
925.833;  128.433;  -11.540;  779.320
926.391;  129.371;  -12.960;  938.380
926.949;  126.898;  -14.130;  857.680
927.506;  128.209;  -11.750;  903.500
928.064;  127.604;  -10.250;  877.580
928.622;  126.552;  -13.030;  880.100
929.180;  126.156;  -13.400;  814.180
929.737;  128.600;  -10.700;  808.540
930.295;  131.705;  -10.070;  928.480
930.853;  132.697;  -11.960;  849.100
931.410;  134.236;  -13.120;  821.120
931.968;  133.993;  -10.770;  940.660
932.525;  132.401;  -10.680;  909.380
933.082;  132.737;  -13.130;  811.440
933.640;  133.245;  -13.210;  925.900
934.197;  132.245;  -11.060;  886.360
934.754;  133.066;   -9.580;  897.780
935.312;  135.871;  -14.000;  863.340
935.869;  139.493;  -10.710; 1012.980
936.426;  140.721;   -9.860;  872.800
936.983;  141.476;   -9.710;  889.020
937.540;  140.238;  -13.990;  838.280
938.097;  138.296;  -14.040;  940.120
938.654;  137.954;  -10.310;  898.860
939.211;  141.395;  -10.560;  952.480
939.768;  144.630;  -13.900;  915.420
940.324;  147.593;  -14.760;  904.200
940.881;  149.646;  -10.370;  878.500
941.438;  149.729;   -8.260; 1021.200
941.995;  144.904;  -12.540;  992.560
942.551;  143.305;  -14.670;  875.620
943.108;  143.863;  -10.450;  937.920
943.664;  146.476;  -10.750;  869.340
944.221;  149.620;  -11.550; 1088.140
944.777;  146.224;  -14.770;  869.680
945.334;  147.867;  -12.820;  884.840
945.890;  148.878;  -10.130;  946.480
946.446;  148.666;  -13.470;  947.020
947.003;  150.751;  -12.120;  964.940
947.559;  152.950;   -9.980; 1063.040
948.115;  152.510;   -9.080; 1026.540
948.671;  150.281;  -10.830;  967.300
949.227;  148.923;  -12.440;  859.560
949.783;  147.453;  -12.910;  858.900
950.339;  148.071;  -10.270;  991.000
950.895;  147.960;  -13.630; 1023.840
951.451;  145.975;  -15.100;  925.280
952.007;  148.188;  -11.330;  998.540
952.563;  147.743;  -10.580;  937.780
953.118;  146.417;  -13.440;  904.940
953.674;  145.923;  -12.710;  935.780
954.230;  145.773;  -10.350;  949.640
954.785;  143.313;   -9.190;  936.640
955.341;  141.286;  -11.200;  998.160
955.897;  139.108;  -16.560;  834.660
956.452;  140.703;  -12.570;  953.840
957.008;  139.735;   -7.970; 1083.640
957.563;  137.777;  -11.940; 1009.540
958.118;  132.650;  -13.450;  877.700
958.674;  134.326;  -12.030;  946.780
959.229;  135.132;   -9.410; 1013.980
959.784;  132.342;  -12.000;  832.400
960.339;  131.922;  -14.780; 1001.280
960.894;  129.574;   -9.860;  963.760
961.449;  125.291;   -9.970;  859.960
962.004;  124.675;  -10.900; 1212.840
962.559;  119.572;  -13.150;  860.140
963.114;  117.151;  -13.740;  742.480
963.669;  117.492;   -9.820;  915.500
964.224;  115.819;  -13.890;  874.340
964.779;  114.373;  -12.600;  828.420
965.334;  116.384;  -10.950; 1017.860
965.888;  115.233;  -11.170;  875.360
966.443;  117.510;  -12.540;  972.380
966.998;  116.224;  -15.780;  819.460
967.552;  115.469;   -9.760;  908.380
968.107;  112.009;   -9.060;  868.300
968.661;  112.930;  -11.950;  922.440
969.216;  113.339;  -12.800;  856.280
969.770;  115.157;  -11.210;  917.200
970.324;  113.415;  -11.610;  923.140
970.879;  110.199;  -11.370;  947.180
971.433;  107.005;  -12.540;  952.720
971.987;  102.518;  -11.320;  895.340
972.541;   99.532;  -10.720;  917.100
973.095;   98.704;   -9.680; 1009.460
973.649;   97.987;  -11.440;  809.480
974.203;   96.529;  -11.210;  829.040
974.757;   97.198;  -10.240;  855.220
975.311;   96.604;  -13.720;  872.600
975.865;   95.169;  -13.770;  881.820
976.419;   94.433;  -11.690;  857.400
976.973;   94.572;   -9.510;  849.620
977.526;   96.266;  -12.620;  949.920
978.080;   94.716;  -12.010;  796.780
978.634;   96.769;  -10.170;  921.320
979.187;   93.804;   -9.020;  905.400
979.741;   91.102;   -9.820; 1018.380
980.294;   86.801;  -14.870;  789.160
980.848;   84.690;  -12.380;  717.220
981.401;   86.278;  -10.350;  816.540
981.955;   88.432;  -13.720;  844.300
982.508;   86.839;  -11.490;  746.340
983.061;   88.502;  -10.000;  915.260
983.615;   84.590;  -11.480;  798.800
984.168;   80.727;  -13.220;  770.080
984.721;   80.537;  -13.960;  880.760
985.274;   80.273;  -10.870;  867.500
985.827;   78.805;   -9.790;  834.220
986.380;   76.233;  -13.120;  721.340
986.933;   75.694;  -12.450;  864.800
987.486;   74.697;  -10.210;  861.920
988.039;   73.768;   -8.430;  863.100
988.591;   71.595;  -10.520;  893.260
989.144;   69.460;  -14.860;  737.260
989.697;   69.085;  -13.080;  758.740
990.250;   69.625;  -10.150;  858.100
990.802;   68.389;  -13.430;  755.860
991.355;   70.412;  -12.750;  974.880
991.907;   67.458;  -12.040;  864.320
992.460;   64.504;  -11.330;  753.760
993.012;   63.614;  -13.610;  749.540
993.565;   63.192;  -13.460;  711.360
994.117;   65.221;   -9.360;  950.780
994.669;   61.583;  -11.300;  701.320
995.221;   59.114;  -13.540;  791.920
995.774;   56.984;  -13.430;  787.580
996.326;   56.380;  -12.520;  740.220
996.878;   55.779;  -10.950;  838.420
997.430;   54.239;  -14.300;  699.860
997.982;   52.674;  -13.760;  750.140
998.534;   52.696;  -11.530;  739.060
999.086;   52.311;  -10.310;  738.220
999.638;   49.776;  -12.530;  661.380
1000.190;   49.947;  -11.840;  699.320
1000.741;   49.827;  -10.260;  742.700
1001.293;   48.401;   -8.860;  686.020
1001.845;   47.319;  -13.700;  676.640
1002.396;   47.236;  -12.100;  743.400
1002.948;   47.359;  -12.760;  737.400
1003.500;   46.133;  -10.380;  723.780
1004.051;   46.343;  -11.900;  907.580
1004.603;   44.651;  -12.250;  791.820
1005.154;   41.542;  -13.210;  608.980
1005.705;   40.254;  -10.950;  723.960
1006.257;   39.731;  -13.880;  707.220
1006.808;   38.509;  -12.840;  685.460
1007.359;   38.784;  -10.570;  763.240
1007.910;   37.685;   -9.620;  646.640
1008.461;   37.085;  -13.630;  732.940
1009.013;   35.943;  -17.200;  588.340
1009.564;   37.795;  -10.200;  793.520
1010.115;   35.610;  -12.570;  597.040
1010.665;   35.273;  -15.150;  602.160
1011.216;   34.566;  -14.480;  667.920
1011.767;   35.430;  -11.340;  697.920
1012.318;   34.665;   -9.780;  736.980
1012.869;   33.230;  -12.380;  679.000
1013.419;   33.135;  -15.560;  603.120
1013.970;   33.704;  -11.010;  666.640
1014.521;   32.637;  -11.610;  620.620
1015.071;   32.666;  -13.450;  670.380
1015.622;   32.422;  -13.870;  635.460
1016.172;   32.277;  -11.610;  596.820
1016.723;   32.074;  -12.120;  614.380
1017.273;   31.411;  -13.620;  604.160
1017.823;   31.187;  -14.140;  650.340
1018.374;   31.656;  -12.800;  611.760
1018.924;   31.403;  -12.340;  716.880
1019.474;   31.206;  -11.410;  718.880
1020.024;   29.812;  -14.770;  657.580
1020.574;   31.128;   -9.780;  726.160
1021.124;   31.067;   -8.560;  673.580
1021.674;   28.926;  -15.190;  559.120
1022.224;   30.239;  -13.530;  708.940
1022.774;   30.616;  -13.280;  668.820
1023.324;   30.217;  -10.690;  753.520
1023.874;   31.594;  -10.240;  875.760
1024.423;   29.070;  -12.540;  613.700
1024.973;   29.048;  -10.010;  610.760
1025.523;   27.919;  -10.550;  620.960
1026.072;   26.647;  -13.560;  606.420
1026.622;   27.229;  -15.120;  675.740
1027.172;   28.965;  -11.260;  715.660
1027.721;   27.754;  -11.410;  601.220
1028.270;   28.148;  -13.530;  663.400
1028.820;   27.032;  -13.680;  638.080
1029.369;   27.587;  -13.520;  612.700
1029.918;   26.688;  -10.980;  649.840
1030.468;   26.564;  -13.530;  564.780
1031.017;   26.914;  -13.170;  634.800
1031.566;   26.727;  -12.200;  608.900
1032.115;   27.578;   -9.960;  694.500
1032.664;   25.035;  -13.210;  596.480
1033.213;   27.003;  -12.500;  735.420
1033.762;   26.486;  -11.910;  635.620
1034.311;   25.359;   -9.640;  677.220
1034.860;   25.959;  -13.310;  691.000
1035.408;   25.699;  -11.830;  722.720
1035.957;   25.931;  -12.000;  719.540
1036.506;   24.684;  -11.690;  530.800
1037.055;   25.749;  -10.990;  844.320
1037.603;   24.399;  -15.120;  664.000
1038.152;   23.063;  -12.450;  534.760
1038.700;   23.709;  -10.560;  585.740
1039.249;   23.552;  -11.080;  681.220
1039.797;   22.719;  -12.540;  633.360
1040.345;   24.183;  -11.920;  705.420
1040.894;   23.679;  -11.410;  625.300
1041.442;   23.301;  -14.320;  632.200
1041.990;   22.210;  -16.240;  559.160
1042.538;   22.044;  -11.680;  536.180
1043.087;   21.673;  -10.760;  570.860
1043.635;   23.565;  -11.850;  670.500
1044.183;   21.774;  -15.480;  586.400
1044.731;   21.443;  -11.770;  576.000
1045.279;   21.562;  -13.090;  674.920
1045.827;   23.516;  -12.440;  892.400
1046.374;   20.886;  -13.840;  515.420
1046.922;   20.386;  -13.220;  590.580
1047.470;   22.575;  -10.230;  691.300
1048.018;   20.912;  -14.590;  647.960
1048.565;   21.625;  -12.050;  708.600
1049.113;   20.930;  -11.650;  557.000
1049.660;   20.808;  -10.510;  629.660
1050.208;   20.483;  -13.310;  675.640
1050.755;   19.692;  -15.900;  606.580
1051.303;   21.003;  -11.430;  686.820
1051.850;   19.944;   -8.480;  635.120
1052.397;   18.624;  -15.010;  473.960
1052.945;   18.937;  -13.960;  617.760
1053.492;   21.404;  -13.150;  741.840
1054.039;   20.199;   -9.630;  720.180
1054.586;   19.609;  -13.680;  557.240
1055.133;   19.930;  -14.570;  693.140
1055.680;   19.595;  -13.820;  646.620
1056.227;   18.452;  -11.730;  542.780
1056.774;   19.552;  -12.480;  794.980
1057.321;   18.307;  -13.930;  523.260
1057.868;   18.596;  -11.690;  651.320
1058.415;   18.507;   -9.520;  651.980
1058.961;   18.792;  -13.160;  678.940
1059.508;   18.083;  -12.920;  643.820
1060.055;   18.458;  -11.920;  581.780
1060.601;   18.771;  -11.500;  624.300
1061.148;   17.731;  -14.330;  616.820
1061.694;   16.100;  -16.870;  592.580
1062.241;   17.586;  -10.330;  596.320
1062.787;   17.866;  -10.620;  663.140
1063.334;   19.029;  -10.110;  808.560
1063.880;   17.279;  -13.400;  668.360
1064.426;   17.120;  -10.680;  706.820
1064.972;   16.508;   -9.920;  601.340
1065.518;   15.356;  -10.980;  566.640
1066.065;   17.011;  -14.890;  624.460
1066.611;   16.114;  -12.870;  598.800
1067.157;   17.380;  -12.950;  641.860
1067.703;   16.642;  -13.540;  668.480
1068.249;   16.357;  -13.540;  605.220
1068.794;   16.628;  -12.600;  626.880
1069.340;   15.112;  -10.620;  578.960
1069.886;   16.182;  -12.830;  590.700
1070.432;   14.527;  -14.870;  541.720
1070.977;   15.037;  -11.980;  601.080
1071.523;   14.865;   -8.200;  573.060
1072.068;   15.203;  -12.330;  582.000
1072.614;   14.843;  -16.370;  527.760
1073.160;   15.778;  -11.100;  687.040
1073.705;   14.748;  -10.480;  572.520
1074.250;   14.009;  -14.520;  559.900
1074.796;   14.061;  -11.460;  655.160
1075.341;   15.527;  -11.950;  664.100
1075.886;   14.885;  -11.460;  594.240
1076.431;   14.494;  -13.770;  649.880
1076.976;   13.765;  -12.680;  639.220
1077.521;   13.905;  -13.170;  583.080
1078.067;   13.803;  -10.860;  579.400
1078.612;   13.742;  -13.920;  661.620
1079.156;   12.578;  -13.880;  601.540
1079.701;   14.101;  -13.120;  693.260
1080.246;   14.519;   -9.940;  696.300
1080.791;   12.942;  -14.740;  625.020
1081.336;   13.170;  -13.750;  659.320
1081.880;   13.549;  -13.400;  649.680
1082.425;   13.023;  -12.220;  573.480
1082.970;   13.687;  -11.610;  717.040
1083.514;   12.183;  -13.580;  597.000
1084.059;   11.664;  -12.810;  586.720
1084.603;   12.720;  -12.320;  565.840
1085.147;   12.483;  -13.190;  645.220
1085.692;   12.915;  -12.480;  716.800
1086.236;   11.304;  -13.020;  503.140
1086.780;   13.277;   -9.190;  751.440
1087.325;   12.193;  -12.480;  654.620
1087.869;   11.394;  -12.450;  610.700
1088.413;   12.623;  -12.240;  705.040
1088.957;   10.606;   -9.020;  543.400
1089.501;   12.334;  -10.320;  766.640
1090.045;   10.885;  -12.720;  726.480
1090.589;   10.529;  -13.690;  569.920
1091.133;   11.215;  -10.020;  673.340
1091.676;   11.440;  -12.330;  591.940
1092.220;   10.125;  -14.970;  600.920
1092.764;   12.072;  -12.430;  706.960
1093.307;   11.491;   -9.800;  673.780
1093.851;    9.770;  -14.970;  556.540
1094.395;   10.583;  -15.310;  683.140
1094.938;    9.819;  -10.370;  632.520
1095.482;   10.288;  -11.050;  559.800
1096.025;   10.343;  -11.840;  710.880
1096.568;   10.733;  -12.840;  779.280
1097.112;    8.798;  -14.700;  508.180
1097.655;   10.979;   -8.720;  603.000
1098.198;    8.522;  -13.610;  600.180
1098.741;    9.206;  -13.350;  612.860
1099.285;   10.352;  -11.230;  657.300
1099.828;    7.882;  -11.840;  439.400
1100.371;    9.102;  -10.840;  608.160
1100.914;    9.077;  -14.190;  682.660
1101.457;    9.094;  -11.240;  679.900
1101.999;    8.068;  -11.270;  584.680
1102.542;    9.123;  -11.480;  641.440
1103.085;    8.285;  -11.750;  658.500
1103.628;    9.839;  -11.400;  762.060
1104.170;    8.802;  -10.490;  588.280
1104.713;    8.917;  -10.600;  646.700
1105.256;    8.071;  -14.360;  557.440
1105.798;    7.945;  -13.210;  499.980
1106.341;    8.991;  -10.270;  728.900
1106.883;    7.490;  -12.200;  521.340
1107.425;    7.480;  -13.110;  668.180
1107.968;    7.872;  -12.840;  612.380
1108.510;    8.842;   -6.480;  684.960
1109.052;    6.874;  -13.940;  612.620
1109.594;    5.998;  -13.690;  554.440
1110.136;    7.977;  -11.880;  643.220
1110.679;    7.568;   -9.500;  633.080
1111.221;    6.861;  -14.160;  604.460
1111.763;    6.584;  -13.980;  559.220
1112.304;    6.516;  -13.880;  547.140
1112.846;    7.369;  -12.210;  666.240
1113.388;    9.448;  -11.390;  942.180
1113.930;    6.690;  -14.540;  694.200
1114.472;    5.848;  -12.640;  606.540
1115.013;    5.467;  -11.620;  551.280
1115.555;    5.547;  -13.640;  587.100
1116.097;    4.753;  -15.380;  579.480
1116.638;    7.062;  -12.640;  684.600
1117.180;    6.736;   -9.850;  667.740
1117.721;    7.013;  -13.690;  568.580
1118.262;    5.764;  -12.680;  677.960
1118.804;    6.093;  -12.530;  637.340
1119.345;    5.919;  -11.690;  578.400
1119.886;    5.355;  -13.380;  704.040
1120.427;    4.826;  -14.070;  589.020
1120.969;    4.230;  -13.500;  597.920
1121.510;    5.242;  -11.480;  563.060
1122.051;    5.725;  -12.830;  723.580
1122.592;    4.590;  -14.290;  655.420
1123.133;    4.153;  -12.400;  547.940
1123.673;    6.457;  -10.130;  706.480
1124.214;    4.512;  -12.930;  612.460
1124.755;    4.728;  -14.380;  639.460
1125.296;    5.728;  -14.000;  627.320
1125.836;    5.822;  -10.070;  691.500
1126.377;    3.851;  -12.640;  599.660
1126.918;    4.661;  -12.960;  614.980
1127.458;    4.173;  -13.350;  622.220
1127.999;    4.265;  -10.750;  656.980
1128.539;    4.467;  -12.350;  694.240
1129.079;    3.645;  -14.860;  632.720
1129.620;    3.358;  -13.840;  558.100
1130.160;    3.466;  -12.330;  539.480
1130.700;    3.453;  -14.530;  640.840
1131.240;    4.996;  -12.530;  643.700
1131.781;    3.493;  -14.450;  619.680
1132.321;    3.679;   -9.790;  599.120
1132.861;    2.075;  -14.860;  564.200
1133.401;    2.285;  -14.290;  593.940
1133.941;    2.705;  -11.750;  626.280
1134.481;    2.618;   -9.920;  597.580
1135.020;    3.035;  -12.290;  609.160
1135.560;    3.018;  -11.650;  674.940
1136.100;    2.948;  -16.270;  501.160
1136.640;    2.649;  -10.890;  510.480
1137.179;    2.461;  -14.180;  537.960
1137.719;    2.306;  -16.250;  605.400
1138.258;    2.641;  -14.230;  587.360
1138.798;    2.877;   -9.090;  663.780
1139.337;    0.695;  -15.130;  482.840
1139.877;    1.622;  -13.680;  642.360
1140.416;    3.938;  -11.320;  878.060
1140.955;    2.024;  -10.860;  535.380
1141.494;    2.693;  -12.920;  669.280
1142.034;    1.873;  -13.930;  583.520
1142.573;    3.224;  -11.440;  646.280
1143.112;    1.824;  -12.000;  553.480
1143.651;    1.239;  -13.670;  536.480
1144.190;    2.002;  -12.730;  691.640
1144.729;    1.875;  -14.560;  607.420
1145.267;    1.624;  -11.830;  584.900
1145.806;    2.276;  -12.230;  637.040
1146.345;    0.693;  -14.130;  635.020
1146.884;    1.296;  -11.590;  622.500
1147.422;    0.763;  -12.550;  533.060
1147.961;    2.124;  -11.180;  708.460
1148.500;    1.538;  -11.510;  669.720
1149.038;    2.245;  -11.640;  632.500
1149.577;    1.784;  -10.130;  698.640
1150.115;   -0.162;  -13.970;  452.280
1150.653;    0.294;  -14.520;  607.340
1151.192;    0.681;  -12.810;  552.920
1151.730;    1.401;   -9.100;  652.560
1152.268;    0.273;  -12.220;  589.520
1152.806;   -0.271;  -14.140;  571.180
1153.344;    0.197;  -12.350;  577.640
1153.882;    0.745;   -8.980;  600.060
1154.421;   -0.768;  -15.190;  470.620
1154.958;   -0.513;  -15.210;  595.240
1155.496;    1.440;  -12.850;  645.280
1156.034;    0.016;   -9.940;  721.880
1156.572;    1.407;  -13.570;  667.060
1157.110;   -1.481;  -14.590;  473.940
1157.647;    0.682;  -13.030;  676.960
1158.185;   -0.758;  -12.140;  564.320
1158.723;   -1.464;  -14.390;  509.200
1159.260;    0.515;  -14.090;  701.700
1159.798;    0.443;  -11.920;  658.160
1160.335;   -0.466;  -11.110;  631.820

