
Integration time [ms]:   3.276
Averaging Nr. [scans]: 1000
Smoothing Nr. [pixels]: 0
Data measured with spectrometer [name]: 7414430SP
Wave   ;Sample   ;Dark     ;Reference
[nm]   ;[counts] ;[counts] ;[counts] 

288.544;  160.182;    7.793;  793.890
289.143;  163.494;    7.462;  681.602
289.742;  164.232;    8.602;  828.814
290.341;  149.987;    1.321;  789.841
290.940;  140.483;   -0.709;  730.702
291.538;  142.692;    0.881;  881.108
292.137;  142.682;    0.122;  792.581
292.736;  144.610;   -1.929;  975.101
293.335;  139.694;   -8.229;  735.086
293.934;  141.808;   -5.279;  781.677
294.532;  142.381;   -1.369; 1031.958
295.131;  129.219;   -7.641;  834.394
295.730;  129.045;   -8.420;  809.588
296.328;  126.693;   -5.611;  783.442
296.927;  124.679;   -5.781;  779.652
297.525;  127.154;   -6.361;  781.236
298.124;  118.631;  -11.382;  654.009
298.722;  122.871;   -7.641;  761.933
299.321;  120.403;   -6.811;  708.597
299.919;  116.264;   -6.991;  751.918
300.518;  112.440;  -10.362;  689.338
301.116;  115.132;   -9.581;  691.381
301.715;  116.554;   -4.891;  730.222
302.313;  114.058;   -8.801;  704.943
302.911;  108.224;   -8.522;  733.830
303.509;  115.013;   -6.171;  925.627
304.108;  112.197;   -7.311;  760.383
304.706;  111.958;   -8.321;  801.664
305.304;  106.673;  -10.222;  796.707
305.902;  110.344;   -6.021;  784.484
306.500;  105.685;   -4.971;  728.200
307.098;  105.175;   -7.061;  746.560
307.696;  103.759;   -8.801;  780.432
308.294;  103.611;   -6.411;  731.359
308.892;  105.040;   -2.901;  759.769
309.490;  100.853;   -5.041;  712.161
310.088;   99.868;   -5.002;  788.444
310.686;  104.214;   -2.041;  821.749
311.284;   99.053;   -2.351;  766.040
311.882;   97.059;   -4.422;  731.225
312.480;   94.116;   -4.192;  697.167
313.078;   95.523;   -1.172;  808.331
313.675;   95.846;   -2.601;  691.600
314.273;   92.051;   -1.312;  797.837
314.871;   89.904;   -3.942;  589.829
315.468;   87.638;   -2.802;  652.090
316.066;   91.727;   -0.701;  694.427
316.664;   83.829;   -4.362;  656.351
317.261;   88.896;   -2.872;  910.128
317.859;   83.459;   -2.022;  768.735
318.456;   84.213;   -0.531;  830.096
319.054;   79.849;   -3.912;  787.828
319.651;   79.049;   -4.752;  759.928
320.249;   76.448;   -2.602;  810.188
320.846;   74.641;   -0.821;  714.286
321.443;   73.044;   -4.642;  832.135
322.041;   68.625;   -5.002;  812.315
322.638;   66.503;   -3.982;  701.456
323.235;   68.346;   -3.411;  665.683
323.833;   64.740;   -7.361;  740.354
324.430;   60.240;   -8.611;  615.900
325.027;   61.156;   -4.061;  876.855
325.624;   60.118;   -4.031;  644.532
326.221;   57.492;   -7.481;  689.717
326.818;   56.947;   -5.281;  818.332
327.415;   59.508;   -7.460;  748.828
328.012;   59.472;   -5.510;  690.585
328.609;   58.264;   -7.880;  731.389
329.206;   56.919;   -8.331;  778.621
329.803;   56.321;   -5.121;  737.841
330.400;   59.119;   -4.510;  704.260
330.997;   60.368;   -6.441;  817.147
331.594;   57.758;   -8.831;  788.185
332.191;   62.809;   -7.621;  728.722
332.787;   66.766;   -4.591;  844.463
333.384;   66.547;   -7.412;  763.093
333.981;   63.630;   -8.293;  815.687
334.578;   67.208;   -7.052;  708.378
335.174;   70.368;   -3.102;  731.469
335.771;   70.274;   -5.943;  836.456
336.367;   67.339;   -7.393;  710.631
336.964;   70.909;   -4.063;  793.266
337.561;   70.781;   -3.813;  731.112
338.157;   65.477;   -4.654;  911.916
338.754;   62.687;   -7.934;  796.589
339.350;   62.715;   -4.414;  722.493
339.946;   64.598;   -4.664;  773.135
340.543;   54.342;   -6.375;  846.136
341.139;   48.908;   -9.815;  720.836
341.735;   47.740;   -4.526;  772.593
342.332;   46.741;   -4.895;  691.472
342.928;   46.064;   -4.295;  795.394
343.524;   39.410;   -5.476;  761.684
344.120;   36.755;   -5.856;  738.562
344.716;   38.732;   -2.155;  723.717
345.313;   35.887;   -6.275;  795.342
345.909;   31.581;   -8.815;  627.336
346.505;   32.716;   -5.305;  740.247
347.101;   33.485;   -2.674;  827.864
347.697;   32.839;   -4.344;  785.398
348.293;   27.401;   -9.975;  627.244
348.889;   28.854;   -5.774;  745.914
349.485;   27.846;   -5.004;  688.205
350.081;   28.322;   -4.704;  772.592
350.676;   23.761;   -6.635;  691.606
351.272;   27.845;   -4.504;  809.530
351.868;   27.217;   -3.914;  780.497
352.464;   24.650;   -9.044;  723.932
353.059;   20.279;   -8.314;  646.017
353.655;   24.109;   -7.024;  777.063
354.251;   25.513;   -5.343;  759.845
354.846;   19.760;   -8.604;  740.646
355.442;   17.971;   -6.945;  753.071
356.038;   19.793;   -7.564;  751.708
356.633;   19.284;   -5.814;  728.594
357.229;   17.236;   -7.364;  724.757
357.824;   15.473;   -8.024;  703.600
358.420;   14.328;   -9.384;  679.726
359.015;   15.276;   -5.104;  695.357
359.610;   15.948;   -6.854;  763.920
360.206;    9.934;  -10.185;  603.240
360.801;   12.401;   -7.054;  646.503
361.396;   15.149;   -5.034;  725.975
361.992;    9.628;   -8.284;  668.220
362.587;    7.569;   -8.625;  670.160
363.182;    9.863;   -7.674;  689.631
363.777;   10.573;   -5.164;  738.242
364.372;    9.968;   -8.604;  737.314
364.967;    6.037;   -9.055;  680.744
365.563;   10.733;   -6.114;  815.567
366.158;    7.349;   -5.814;  685.161
366.753;    7.303;   -7.854;  649.263
367.348;    6.757;   -7.804;  746.056
367.942;    6.461;   -7.954;  697.298
368.537;    4.922;   -4.984;  754.245
369.132;    5.309;   -8.564;  703.428
369.727;    1.113;   -8.855;  638.079
370.322;    2.738;   -6.245;  580.186
370.917;    2.190;   -6.425;  710.646
371.511;    5.043;   -6.294;  861.834
372.106;    1.209;   -7.685;  776.964
372.701;   -1.698;   -7.335;  585.988
373.296;    3.253;   -4.564;  863.135
373.890;   -1.578;  -10.235;  647.840
374.485;   -3.948;   -7.885;  691.199
375.079;    0.878;   -7.324;  738.685
375.674;    2.090;   -3.494;  812.970
376.268;   -2.478;   -8.525;  691.759
376.863;   -8.054;  -10.086;  580.327
377.457;   -1.492;   -7.025;  662.490
378.052;   -3.697;   -3.585;  764.884
378.646;   -4.818;   -7.595;  741.167
379.240;   -5.109;   -8.335;  721.176
379.835;   -4.022;   -5.785;  636.978
380.429;   -5.777;   -4.335;  562.557
381.023;   -6.678;   -6.805;  779.205
381.617;   -9.075;   -9.195;  680.106
382.212;   -5.234;   -6.905;  685.303
382.806;   -4.461;   -3.745;  760.690
383.400;   -9.601;   -7.745;  672.281
383.994;   -9.944;   -9.765;  664.870
384.588;   -5.660;   -6.564;  697.701
385.182;   -5.312;   -5.344;  726.624
385.776;   -6.984;   -8.514;  706.875
386.370;   -9.945;   -9.555;  681.968
386.964;   -7.902;   -8.715;  684.155
387.558;   -7.100;   -6.174;  598.360
388.152;  -10.034;   -8.725;  681.959
388.745;   -8.421;   -7.965;  814.707
389.339;   -6.545;   -5.924;  747.642
389.933;   -5.693;   -5.524;  695.370
390.527;   -6.894;   -7.114;  859.029
391.120;  -14.002;  -10.725;  595.318
391.714;   -9.843;   -8.035;  711.633
392.308;   -7.502;   -3.574;  780.253
392.901;  -11.304;   -7.245;  642.460
393.495;  -13.143;   -9.285;  595.414
394.089;  -10.395;   -5.895;  760.452
394.682;  -10.844;   -4.295;  697.188
395.275;  -11.978;   -9.875;  719.927
395.869;  -12.947;   -8.485;  667.314
396.462;  -11.399;   -7.455;  616.609
397.056;   -7.443;   -5.424;  776.621
397.649;  -12.203;   -6.605;  731.575
398.242;   -9.671;   -8.224;  712.645
398.836;   -9.153;   -7.474;  766.408
399.429;   -9.999;   -7.094;  631.041
400.022;  -14.343;   -9.475;  665.902
400.615;  -11.199;   -7.145;  805.609
401.208;   -9.450;   -7.174;  691.451
401.802;  -11.797;   -5.515;  699.329
402.395;  -12.929;   -9.875;  683.502
402.988;  -14.329;   -8.845;  696.627
403.581;   -9.867;   -8.874;  646.878
404.174;   -7.452;   -5.324;  686.568
404.767;  -11.590;   -9.575;  638.583
405.360;  -13.423;  -10.965;  621.445
405.953;   -7.548;   -8.764;  759.034
406.545;   -7.909;   -7.514;  725.342
407.138;  -11.865;  -10.025;  618.350
407.731;  -11.608;  -10.034;  613.303
408.324;   -6.559;   -9.374;  660.554
408.917;   -8.688;   -6.534;  681.864
409.509;   -9.796;   -8.004;  740.396
410.102;  -12.357;   -9.875;  643.948
410.695;   -5.369;   -8.604;  665.758
411.287;   -6.233;   -6.794;  599.821
411.880;   -8.196;   -9.334;  585.421
412.472;  -11.317;  -10.254;  613.092
413.065;   -7.884;   -6.714;  629.408
413.657;   -5.494;   -7.234;  576.678
414.250;   -6.050;  -10.544;  646.681
414.842;   -7.996;   -9.744;  676.353
415.434;   -4.509;   -6.994;  570.463
416.027;   -1.284;   -5.893;  652.196
416.619;   -2.859;   -7.264;  713.400
417.211;   -3.675;  -10.374;  599.352
417.804;   -0.194;   -7.993;  628.499
418.396;   -4.008;   -7.234;  607.643
418.988;   -1.978;   -9.443;  659.238
419.580;   -5.265;  -10.724;  568.276
420.172;   -3.638;  -10.323;  536.196
420.764;    0.492;   -8.793;  672.482
421.356;   -0.654;  -11.143;  636.898
421.948;   -2.156;   -8.293;  677.661
422.540;    4.120;   -7.893;  680.027
423.132;    3.329;   -7.082;  600.641
423.724;   -0.009;   -8.653;  561.267
424.316;    1.612;  -10.213;  621.345
424.908;    5.318;   -9.762;  591.517
425.500;    5.754;   -5.572;  647.978
426.092;    6.479;   -8.422;  648.268
426.683;    4.472;   -9.283;  684.836
427.275;    7.726;   -7.852;  641.471
427.867;    9.292;   -5.272;  668.948
428.458;    9.818;   -7.682;  732.344
429.050;    7.711;  -10.612;  680.749
429.642;   11.342;   -9.882;  743.124
430.233;   10.787;   -6.962;  569.356
430.825;   12.841;   -6.842;  724.809
431.416;    9.327;   -9.672;  698.241
432.008;   13.695;   -6.552;  651.723
432.599;   14.677;   -6.891;  656.073
433.190;   11.487;  -10.912;  637.670
433.782;   10.633;  -11.172;  590.395
434.373;   17.857;   -6.061;  884.765
434.964;   16.550;   -8.251;  602.920
435.556;   13.671;   -9.722;  634.537
436.147;   17.303;   -9.082;  758.490
436.738;   17.300;   -8.041;  701.099
437.329;   21.835;   -7.341;  721.723
437.920;   15.339;   -8.162;  666.688
438.511;   14.851;  -11.802;  564.526
439.103;   21.599;  -10.191;  623.998
439.694;   23.821;   -7.601;  681.583
440.285;   24.332;   -8.541;  764.432
440.876;   22.096;   -9.751;  845.738
441.466;   22.541;   -9.401;  575.162
442.057;   26.812;   -7.760;  665.814
442.648;   25.536;   -9.971;  746.255
443.239;   23.687;  -11.001;  620.477
443.830;   29.510;   -7.990;  704.958
444.421;   31.163;   -7.910;  655.474
445.011;   27.893;   -8.131;  693.619
445.602;   27.009;   -7.111;  743.126
446.193;   28.532;  -10.920;  488.117
446.783;   33.231;   -6.500;  640.397
447.374;   28.225;   -8.671;  692.759
447.964;   29.663;  -10.781;  713.770
448.555;   38.134;   -9.650;  822.742
449.145;   34.465;   -8.660;  662.853
449.736;   35.544;   -8.990;  803.179
450.326;   35.210;   -9.500;  713.626
450.917;   39.961;   -8.680;  675.324
451.507;   38.887;   -7.520;  600.661
452.097;   39.347;   -8.590;  746.267
452.688;   40.878;  -11.340;  742.160
453.278;   40.470;  -10.100;  566.840
453.868;   44.757;   -6.019;  793.550
454.458;   42.282;   -9.440;  651.141
455.048;   42.609;  -10.560;  711.783
455.639;   44.636;  -11.799;  567.096
456.229;   48.165;   -6.899;  710.694
456.819;   50.427;   -7.389;  751.158
457.409;   50.154;  -11.119;  773.993
457.999;   53.209;   -9.289;  737.505
458.589;   52.703;   -6.139;  686.606
459.179;   52.860;   -8.729;  717.658
459.769;   50.130;   -9.789;  627.099
460.358;   55.670;  -10.259;  797.262
460.948;   55.833;   -7.299;  689.503
461.538;   56.988;  -10.289;  660.677
462.128;   54.926;  -11.269;  664.934
462.717;   61.984;   -9.368;  710.326
463.307;   65.495;   -7.908;  705.846
463.897;   60.870;   -9.599;  656.942
464.486;   60.140;   -9.769;  837.128
465.076;   64.401;   -8.048;  733.776
465.666;   68.616;   -9.358;  652.900
466.255;   65.662;   -7.919;  785.651
466.845;   64.096;  -11.689;  666.749
467.434;   67.726;   -7.818;  725.873
468.023;   69.132;   -7.678;  658.357
468.613;   66.470;  -10.939;  713.946
469.202;   71.043;  -10.118;  646.507
469.791;   75.247;   -9.108;  737.811
470.381;   76.533;   -6.058;  742.813
470.970;   76.248;  -10.428;  711.099
471.559;   75.992;  -10.268;  733.291
472.148;   80.096;   -8.448;  675.737
472.738;   82.161;   -6.917;  765.466
473.327;   81.313;  -11.978;  637.529
473.916;   80.823;  -11.888;  737.446
474.505;   85.515;   -9.437;  751.703
475.094;   88.378;   -6.747;  806.570
475.683;   87.883;   -9.367;  797.699
476.272;   88.767;  -12.637;  730.632
476.861;   91.152;  -10.027;  706.754
477.449;   97.885;   -8.716;  728.487
478.038;   92.060;   -9.577;  692.513
478.627;   93.554;   -9.718;  714.852
479.216;  100.297;   -8.947;  769.441
479.805;  103.496;   -6.256;  783.375
480.393;  102.363;   -7.937; 1008.945
480.982;  101.508;   -7.717;  874.501
481.571;  108.527;   -9.266;  858.333
482.159;  108.447;   -7.636;  705.386
482.748;  108.650;   -9.667;  821.385
483.336;  113.103;  -10.376;  858.209
483.925;  113.936;   -7.147;  774.373
484.513;  120.775;   -7.996;  758.962
485.102;  117.728;  -10.027;  810.965
485.690;  125.429;  -10.446; 1011.050
486.278;  128.259;   -8.446;  979.329
486.867;  128.347;   -6.356;  809.662
487.455;  130.451;   -9.136;  898.229
488.043;  132.508;  -10.646;  748.361
488.631;  140.938;   -7.456; 1005.079
489.220;  145.201;   -6.636;  908.626
489.808;  145.070;  -11.036;  741.415
490.396;  152.683;  -10.246;  914.645
490.984;  159.334;   -8.556;  830.161
491.572;  170.916;   -5.886;  940.315
492.160;  176.530;   -9.486;  919.081
492.748;  188.745;  -10.976;  884.341
493.336;  211.811;   -8.776; 1019.693
493.924;  236.179;   -5.465;  958.077
494.512;  267.235;   -9.986; 1066.638
495.100;  308.606;  -10.636; 1103.280
495.687;  362.048;  -10.885; 1206.373
496.275;  426.489;   -8.126; 1150.796
496.863;  509.233;  -10.586; 1281.171
497.451;  612.143;  -11.926; 1386.805
498.038;  726.008;  -10.885; 1556.729
498.626;  852.813;   -6.315; 1741.407
499.214;  990.065;   -7.326; 2016.609
499.801; 1170.126;  -11.906; 2220.633
500.389; 1362.289;  -10.466; 2312.494
500.976; 1600.767;   -5.236; 2744.849
501.564; 1982.632;   -8.936; 3148.565
502.151; 2537.439;  -13.176; 3515.999
502.738; 3082.920;  -10.646; 3971.274
503.326; 3558.653;   -9.525; 4403.796
503.913; 3853.253;  -10.856; 5161.749
504.500; 4338.423;  -11.586; 5986.420
505.088; 4968.373;  -10.336; 6381.201
505.675; 5124.460;   -6.355; 6925.547
506.262; 5546.982;   -9.046; 7619.060
506.849; 6013.209;  -10.416; 8733.969
507.436; 6345.644;  -10.305; 9790.121
508.023; 7099.935;   -5.496; 9985.472
508.610; 7741.009;   -7.856;10434.618
509.197; 9208.817;  -10.097;11198.435
509.784;10602.460;  -10.886;12391.194
510.371;11494.328;   -9.315;13603.713
510.958;12217.866;   -9.936;14426.586
511.545;12387.410;   -9.326;15243.775
512.132;13026.103;  -10.075;15945.876
512.719;14295.063;   -7.796;16340.369
513.305;16640.902;  -10.606;18011.766
513.892;17628.045;  -11.486;19754.971
514.479;18736.324;   -9.126;20967.805
515.066;19716.342;   -6.026;22299.793
515.652;19571.203;   -8.466;22908.660
516.239;20127.314;  -10.886;23798.875
516.825;21890.518;  -11.496;25567.275
517.412;23490.924;   -5.796;28154.959
517.998;23851.203;  -10.506;28344.111
518.585;23580.627;  -10.076;27134.219
519.171;23728.969;   -8.315;27268.576
519.758;24236.537;   -8.596;28964.129
520.344;25164.244;   -8.466;30664.494
520.930;27675.088;  -11.006;32550.605
521.516;29416.346;  -10.495;35422.895
522.103;29963.029;   -5.526;38280.004
522.689;31008.539;   -8.746;37835.117
523.275;31989.145;  -11.376;37288.613
523.861;33460.199;  -11.156;37281.395
524.447;33998.645;   -8.135;37846.949
525.033;34248.914;   -7.896;38321.949
525.619;36545.715;  -12.476;38579.285
526.205;37615.801;   -9.516;40622.875
526.791;36858.672;   -6.926;42258.836
527.377;37924.129;   -8.346;42966.902
527.963;39569.500;   -8.717;42018.949
528.549;39345.430;  -11.016;42476.828
529.135;38728.984;   -8.536;41854.852
529.721;37537.109;   -9.666;41237.711
530.306;36771.508;  -10.066;41259.445
530.892;35485.281;  -11.356;41506.047
531.478;36790.480;   -6.596;43559.613
532.063;39297.656;   -8.836;47695.563
532.649;41457.125;  -10.047;50808.324
533.235;42484.609;   -9.746;51787.500
533.820;44513.992;   -6.566;52145.035
534.406;46596.832;  -10.817;51133.488
534.991;47797.645;   -9.416;49996.805
535.576;43431.895;   -9.036;48882.852
536.162;41925.715;   -6.156;46942.285
536.747;42635.727;  -11.607;45711.746
537.333;44376.473;  -11.787;48510.180
537.918;44488.555;  -12.437;50439.891
538.503;43574.824;   -7.196;50863.711
539.088;44774.688;  -10.556;50906.922
539.673;46677.332;   -8.767;52621.965
540.259;45109.949;  -10.026;52368.094
540.844;44296.180;   -7.416;50879.109
541.429;45487.625;   -9.467;52077.777
542.014;47255.230;   -9.527;52716.695
542.599;49050.664;   -9.946;52363.281
543.184;47714.055;   -7.927;53187.137
543.769;45814.867;   -9.297;54697.605
544.354;43448.953;  -10.127;53913.914
544.938;41625.379;   -9.267;49680.164
545.523;42838.930;   -6.506;47386.277
546.108;45314.941;   -9.787;49151.949
546.693;46654.328;  -11.587;51384.637
547.278;46200.219;  -10.986;51853.254
547.862;43670.746;   -8.206;51173.750
548.447;43148.074;  -10.067;51691.395
549.031;46359.781;   -9.637;52456.703
549.616;48343.012;   -9.926;52714.516
550.201;47143.816;   -6.347;52414.598
550.785;45163.000;   -7.917;52355.059
551.370;40324.012;  -10.867;54589.453
551.954;42403.199;   -9.047;58267.348
552.538;45539.289;   -7.827;59062.176
553.123;45252.457;  -10.287;58115.285
553.707;43641.855;  -12.178;56556.285
554.291;44984.230;   -8.717;56201.668
554.876;45867.441;   -7.457;55335.762
555.460;46711.930;  -10.387;54155.703
556.044;45965.191;   -9.618;53721.484
556.628;44528.070;  -11.567;53731.016
557.212;46295.926;   -8.097;54312.531
557.796;45790.742;  -11.077;53797.773
558.380;43371.223;  -11.108;56145.984
558.964;40573.758;   -9.057;57277.930
559.548;39571.320;   -6.977;56459.641
560.132;40246.645;  -11.457;54434.543
560.716;40200.922;  -11.378;54800.617
561.300;41330.582;   -9.577;57606.945
561.884;43407.340;   -7.127;58972.445
562.467;45191.445;   -7.118;57327.570
563.051;43841.816;  -13.358;54962.434
563.635;43594.211;  -10.178;52594.473
564.219;44532.238;   -7.837;50610.410
564.802;43643.676;  -11.398;49551.180
565.386;43136.863;  -12.788;48370.953
565.969;41590.320;   -9.077;48178.871
566.553;41533.012;   -6.207;49957.305
567.136;41754.723;   -8.568;50369.594
567.720;42111.434;  -11.868;49492.004
568.303;42355.352;   -8.268;50616.352
568.887;40916.930;   -8.698;50727.148
569.470;40518.758;   -6.808;51698.379
570.053;38391.473;  -13.188;52122.078
570.637;36616.086;  -12.037;52536.438
571.220;36411.793;   -8.577;51186.098
571.803;36674.203;   -8.498;51032.762
572.386;34788.090;  -10.498;49609.887
572.969;33778.473;   -9.388;48285.926
573.552;33189.578;   -8.338;47624.285
574.135;34341.363;   -8.518;45498.641
574.718;35923.273;  -13.628;41970.434
575.301;34096.055;  -10.893;41447.137
575.884;32268.838;   -8.158;40923.836
576.467;35507.859;  -10.328;45267.723
577.050;35955.836;  -13.058;48175.543
577.633;36246.262;   -9.458;47729.328
578.216;35365.926;   -8.928;47579.793
578.799;34088.777;   -9.358;47820.996
579.381;33555.465;  -11.388;48115.551
579.964;32702.746;  -11.718;47333.766
580.547;34112.250;   -8.588;46668.969
581.129;35539.207;   -8.859;44466.141
581.712;33871.328;  -10.729;44164.922
582.294;34052.945;  -11.118;46477.855
582.877;34791.836;   -5.218;48244.254
583.459;35008.313;   -8.679;47437.895
584.042;33958.609;  -10.709;46943.219
584.624;33467.754;  -11.669;46792.227
585.206;36772.676;   -8.218;46557.250
585.789;35562.258;  -10.569;45793.773
586.371;33818.516;  -11.859;43836.391
586.953;31534.764;  -10.719;42972.492
587.536;30125.277;   -7.198;42487.211
588.118;32016.592;   -8.720;42086.414
588.700;33559.695;  -10.439;43389.930
589.282;33267.668;   -9.198;43646.039
589.864;32737.107;   -9.199;43438.109
590.446;32132.537;  -11.319;43151.926
591.028;32567.902;  -11.159;42781.867
591.610;32131.887;  -11.779;42839.098
592.192;28993.412;   -7.668;42820.402
592.774;27957.420;  -11.949;40724.277
593.356;27144.967;  -12.129;39874.789
593.937;27097.703;  -10.669;39980.648
594.519;26003.449;   -6.509;42069.633
595.101;27350.813;  -10.849;42976.031
595.683;30142.496;  -11.679;44084.441
596.264;30844.369;   -9.049;43478.797
596.846;33384.574;   -8.849;43803.672
597.427;35807.215;   -9.570;42986.934
598.009;33467.293;  -12.620;42832.219
598.591;30576.486;  -10.039;42580.086
599.172;30356.494;  -10.369;43061.805
599.753;31979.631;   -9.140;41691.469
600.335;32203.844;  -11.430;40692.520
600.916;31116.941;   -9.939;39982.422
601.498;32397.836;   -8.479;40318.617
602.079;32467.020;  -10.920;40670.609
602.660;32166.961;  -11.480;41450.898
603.241;32392.697;  -11.699;41137.738
603.823;32483.234;   -9.579;38868.797
604.404;31861.404;  -10.620;38182.785
604.985;30707.947;  -10.450;38078.047
605.566;30146.945;   -9.129;38056.633
606.147;31492.787;   -7.510;37020.418
606.728;31640.936;  -10.660;37883.359
607.309;30933.281;  -11.740;38748.273
607.890;29639.955;   -9.759;38850.230
608.471;27683.209;   -8.250;37457.918
609.051;28665.561;   -9.240;36066.457
609.632;28841.193;  -12.120;35991.074
610.213;27814.813;   -9.110;37402.641
610.794;28921.727;   -8.030;38383.363
611.374;30217.455;   -8.110;40562.387
611.955;31359.018;  -13.560;38533.727
612.536;30481.869;  -11.400;36951.789
613.116;30846.703;   -8.070;37197.891
613.697;31158.439;  -10.830;38411.125
614.277;29278.176;  -11.641;38673.938
614.858;27959.811;  -13.310;37075.863
615.438;28315.553;   -7.460;35092.906
616.019;27873.166;   -7.601;33666.301
616.599;28452.035;  -12.020;34189.023
617.179;28824.182;  -11.780;36952.047
617.760;30741.314;   -8.570;39582.574
618.340;32325.012;  -11.471;38943.977
618.920;30965.111;  -11.170;37594.156
619.500;29428.305;  -11.071;37866.938
620.080;30209.096;   -7.750;37869.043
620.660;31002.006;  -12.711;36868.617
621.241;29115.752;  -10.211;36352.309
621.821;28213.297;  -10.961;35459.520
622.401;29004.473;   -7.720;35207.414
622.980;29974.479;   -8.981;35980.422
623.560;31084.275;   -9.331;37351.328
624.140;28028.643;   -9.850;34388.582
624.720;24198.557;   -7.451;32368.764
625.300;22486.674;   -9.070;32638.629
625.880;25596.029;  -12.601;34599.035
626.459;30339.041;  -11.751;36831.738
627.039;31692.123;   -9.281;38299.098
627.619;31920.398;   -8.801;38289.574
628.198;32660.281;  -12.071;37220.695
628.778;33392.641;   -9.461;37632.563
629.357;33581.355;   -8.491;38003.012
629.937;32551.908;   -9.721;38402.039
630.516;32523.811;   -9.951;37868.801
631.096;31394.652;  -11.731;35760.410
631.675;31318.920;   -8.572;35225.219
632.254;32288.805;  -11.282;35130.289
632.834;32428.035;  -13.322;35794.570
633.413;33578.527;  -10.301;35788.922
633.992;34274.660;   -8.582;34532.863
634.571;32481.383;   -8.352;33590.113
635.151;31764.852;  -11.912;34943.863
635.730;30558.016;  -10.511;35352.523
636.309;30732.746;   -7.731;35366.605
636.888;31143.736;   -9.952;36165.637
637.467;31322.990;  -11.672;37515.902
638.046;32784.453;   -8.901;39288.695
638.625;31300.750;   -7.912;38279.699
639.204;31899.559;  -10.022;37741.598
639.782;31867.260;  -12.252;38364.551
640.361;29457.803;  -10.041;36740.621
640.940;27801.469;  -11.161;34950.082
641.519;28551.350;   -9.701;34137.398
642.097;30990.180;  -11.271;35654.258
642.676;30566.293;   -8.651;35637.957
643.255;32629.566;   -8.711;36567.074
643.833;34437.539;   -9.581;37809.434
644.412;32962.473;  -13.711;37337.293
644.990;30329.551;  -11.811;37018.531
645.569;30479.002;   -9.411;36518.469
646.147;31299.730;  -10.291;36186.430
646.726;30716.695;  -12.401;36267.688
647.304;29837.291;  -10.411;36647.625
647.882;31045.734;   -9.651;39286.742
648.461;33088.906;   -9.631;39157.703
649.039;33290.328;  -11.881;35412.883
649.617;33346.387;   -9.661;34744.918
650.195;33611.941;   -9.301;35403.098
650.773;32228.674;  -10.511;35053.797
651.352;31711.623;  -11.521;33756.816
651.930;29707.512;  -12.211;31868.773
652.508;24657.658;   -9.171;33121.551
653.086;23890.221;   -9.371;33564.793
653.663;28575.271;  -13.161;34054.668
654.241;30067.734;  -13.031;35693.309
654.819;32240.936;   -9.371;36422.906
655.397;32103.779;  -10.511;38213.484
655.975;31482.412;  -10.371;39507.625
656.553;32359.061;  -10.051;39498.223
657.130;31806.934;  -10.061;40395.480
657.708;30568.861;   -9.561;39242.020
658.286;30158.123;  -11.511;38920.020
658.863;28573.324;  -10.261;40202.898
659.441;30085.801;   -7.531;39677.938
660.018;31483.297;   -9.501;40413.355
660.596;31109.318;  -13.301;39931.414
661.173;29188.652;  -11.211;39604.531
661.750;28942.592;   -9.951;39700.070
662.328;30863.639;   -9.390;39292.809
662.905;30022.957;  -11.330;38235.648
663.482;26216.230;   -9.050;36212.305
664.060;23822.838;   -8.240;35944.945
664.637;27385.408;  -10.050;35170.785
665.214;30454.715;  -11.760;34197.523
665.791;31397.387;  -10.530;34549.520
666.368;31815.400;   -9.690;35118.578
666.945;32244.135;   -9.320;36019.418
667.522;30403.465;  -11.860;36048.438
668.099;30457.717;  -10.770;36243.914
668.676;32869.352;   -6.260;35958.875
669.253;33995.902;   -7.000;37384.730
669.830;34444.324;  -10.190;36779.629
670.407;33552.527;   -9.550;35231.289
670.984;32297.283;   -9.260;35544.270
671.560;29530.371;   -9.280;35466.867
672.137;25870.660;  -11.810;34280.863
672.714;25014.391;  -11.490;34632.863
673.290;29498.695;   -7.740;35135.422
673.867;32914.277;  -10.660;36114.480
674.443;32088.428;  -12.230;36152.859
675.020;30714.063;  -10.450;35327.238
675.596;29789.922;   -9.260;35795.176
676.173;30776.332;  -10.780;35430.355
676.749;30970.172;  -13.690;33549.516
677.326;29195.680;  -11.980;32210.012
677.902;27672.867;   -8.630;32068.871
678.478;27634.525;  -10.730;32583.891
679.054;29101.639;  -10.520;32088.928
679.631;30791.951;  -11.920;30978.848
680.207;31222.273;   -7.490;33160.887
680.783;31132.049;   -9.860;35570.363
681.359;32850.746;  -13.380;36125.184
681.935;32644.822;  -12.480;35240.922
682.511;30003.572;   -7.900;34429.961
683.087;29152.635;   -7.710;34463.680
683.663;30134.818;  -11.480;34648.898
684.239;30515.756;  -14.090;34546.457
684.815;29878.971;   -7.560;35586.375
685.390;28194.398;   -9.910;35821.895
685.966;28281.260;  -11.159;35085.871
686.542;27495.867;  -11.169;34198.230
687.118;28188.641;   -5.959;32847.707
687.693;31393.797;  -10.329;32794.027
688.269;31825.400;  -12.059;33072.367
688.844;32062.596;  -10.909;33141.664
689.420;34135.102;   -8.019;33965.742
689.995;32234.695;   -8.399;34655.523
690.571;30426.455;  -10.949;33576.742
691.146;29710.518;   -9.619;32657.219
691.722;30284.072;   -8.999;32526.979
692.297;29995.643;  -11.589;33014.617
692.872;28900.592;  -11.739;34012.254
693.448;29485.404;  -11.059;34237.434
694.023;29418.633;  -10.139;34142.672
694.598;26815.484;   -9.029;34132.031
695.173;26924.428;  -13.319;34205.250
695.748;29305.691;  -10.169;32882.488
696.323;28413.010;   -8.339;32864.906
696.898;26892.063;   -8.169;33170.004
697.473;27478.473;  -12.309;32432.984
698.048;28042.201;  -10.989;31649.303
698.623;27640.799;   -9.329;30778.141
699.198;27871.486;   -9.849;31140.119
699.773;28737.498;  -12.329;31764.299
700.348;31234.982;  -10.389;31780.816
700.922;30684.850;   -9.269;32046.375
701.497;28447.184;   -9.329;32603.574
702.072;29491.055;  -10.789;34799.871
702.646;28859.557;  -10.839;35793.172
703.221;30082.434;   -9.099;35201.590
703.795;31494.742;  -10.939;34764.527
704.370;31261.783;  -12.859;34307.367
704.944;30842.920;  -11.559;33509.887
705.519;29977.385;   -7.939;31388.584
706.093;31504.180;  -10.499;31340.104
706.668;31317.680;  -11.289;32630.281
707.242;30874.848;  -11.509;32728.779
707.816;29228.008;   -9.639;32947.238
708.390;27622.586;  -11.429;33277.855
708.965;27572.592;  -11.869;33834.336
709.539;28449.832;  -11.689;33709.273
710.113;28202.059;  -10.478;33044.313
710.687;28191.035;  -10.228;31953.992
711.261;28251.303;  -13.698;30505.949
711.835;28228.818;  -13.378;30262.369
712.409;28550.373;   -9.698;31254.447
712.983;27519.400;  -11.898;32754.986
713.557;27402.158;  -15.138;34018.824
714.131;26005.311;  -14.098;34579.625
714.704;24900.250;   -9.958;33890.262
715.278;25241.051;  -10.028;33531.102
715.852;25095.227;  -11.148;33601.660
716.425;25699.625;   -9.068;33515.117
716.999;24926.385;  -10.038;33185.555
717.573;24150.102;   -9.798;33905.996
718.146;24841.586;  -12.378;35199.293
718.720;25896.912;  -11.918;35060.551
719.293;27469.291;   -8.088;34973.230
719.867;28907.041;  -10.888;36394.449
720.440;29164.697;  -11.938;36663.008
721.013;29876.240;  -12.818;35102.426
721.587;28574.346;  -10.298;33985.266
722.160;27182.652;  -10.048;33524.965
722.733;26477.266;  -12.108;32987.043
723.306;26314.795;  -10.818;33066.301
723.880;27398.543;   -8.908;33399.500
724.453;26829.201;   -9.878;33468.297
725.026;25892.248;  -11.188;33816.637
725.599;27048.314;  -11.678;32797.996
726.172;28696.828;   -9.618;33187.434
726.745;27580.807;   -8.258;35136.613
727.318;26757.768;  -12.978;35751.730
727.891;25672.932;  -12.148;35890.430
728.463;24978.039;   -8.968;34822.090
729.036;25124.043;  -10.188;32895.086
729.609;26496.088;  -11.788;31823.225
730.182;26500.010;  -11.788;31445.283
730.754;24616.393;  -10.268;32373.223
731.327;23026.762;   -9.998;33676.820
731.900;22640.857;  -12.228;33417.000
732.472;23870.912;  -13.848;31978.498
733.045;25319.850;   -8.698;30368.777
733.617;24365.119;  -10.607;30574.215
734.190;25497.553;  -11.507;31280.975
734.762;27239.832;  -13.647;31674.412
735.334;24931.105;   -9.767;31247.291
735.907;23832.297;   -9.897;29876.211
736.479;24617.227;  -11.637;29808.488
737.051;25970.301;   -9.567;30233.547
737.623;26156.330;   -8.187;31469.086
738.195;25949.721;  -11.187;31784.225
738.768;26282.326;  -12.337;32120.523
739.340;24786.752;  -12.227;32094.342
739.912;23322.566;  -11.057;31312.680
740.484;22417.938;  -10.207;31946.238
741.056;20577.463;  -10.047;32984.059
741.628;20200.523;  -13.627;33897.715
742.199;21375.545;   -7.177;33213.016
742.771;24185.574;  -10.797;31369.113
743.343;26549.463;  -11.997;31865.473
743.915;26884.900;  -12.867;32388.631
744.487;25150.227;   -7.617;31079.568
745.058;23516.488;   -9.557;30570.107
745.630;23569.764;   -9.877;29970.127
746.201;23284.738;  -14.177;29186.766
746.773;22078.074;   -9.237;28805.723
747.344;22234.053;   -9.847;29591.223
747.916;22511.699;  -11.657;31412.201
748.487;21982.834;  -10.587;32194.898
749.059;21941.139;   -8.707;32533.719
749.630;22168.400;  -10.537;32158.518
750.201;23198.752;  -11.687;30855.395
750.773;23255.848;  -11.647;28622.555
751.344;22415.637;   -7.147;28405.732
751.915;21561.145;   -9.757;28461.551
752.486;21688.229;  -12.427;27842.850
753.057;21332.430;  -12.227;27845.008
753.628;20565.773;  -10.417;27728.107
754.199;19429.232;  -11.767;27381.086
754.770;19180.549;  -11.187;25882.203
755.341;20036.711;  -10.507;25886.184
755.912;19907.119;   -9.387;26050.861
756.483;18311.836;  -10.647;26798.779
757.054;18027.961;  -11.837;27048.238
757.625;18746.045;  -12.716;26294.838
758.195;19458.541;   -9.666;26142.076
758.766;20852.111;   -8.656;26392.234
759.337;20715.834;  -12.856;26334.594
759.907;20299.371;  -13.366;27579.652
760.478;21031.998;   -8.576;28352.770
761.048;20916.498;  -10.526;27325.088
761.619;20947.518;  -11.116;26460.428
762.189;20639.775;  -12.136;26029.826
762.760;19610.498;   -9.456;26430.145
763.330;18951.328;   -7.136;26670.902
763.900;19609.883;  -11.786;26603.021
764.471;19112.090;  -11.546;25542.740
765.041;17491.740;   -8.096;24358.459
765.611;16527.018;   -8.876;23991.297
766.181;16029.399;  -12.196;24470.236
766.751;16196.069;  -11.636;24845.975
767.321;17108.313;  -10.156;24533.633
767.891;17782.539;  -11.766;24916.492
768.461;17497.463;  -14.936;24776.771
769.031;17357.301;  -12.356;24757.988
769.601;17365.611;   -7.526;24181.088
770.171;17639.955;  -10.766;23670.387
770.741;17100.975;  -13.176;22960.045
771.311;16436.174;  -10.616;22917.523
771.880;16229.238;   -9.576;23562.941
772.450;15759.761;  -10.336;24216.500
773.020;16287.438;  -13.516;24140.398
773.589;16799.049;  -13.466;24414.857
774.159;16510.717;   -8.686;23858.717
774.729;16621.387;   -9.476;22942.135
775.298;16183.664;  -13.666;22324.033
775.867;15105.541;  -11.716;21140.313
776.437;14342.134;   -9.906;20838.092
777.006;14532.551;  -12.166;20599.510
777.576;13811.479;  -12.356;20508.809
778.145;13609.598;  -11.646;20732.947
778.714;13566.825;   -8.226;21062.465
779.283;13647.500;   -9.556;20949.664
779.853;14133.628;  -14.116;20508.623
780.422;13888.320;  -11.506;20649.082
780.991;13722.382;   -9.556;21527.520
781.560;13432.778;   -9.095;22632.658
782.129;12214.832;  -12.135;23048.277
782.698;11715.918;  -10.865;23438.555
783.267;11779.847;   -9.335;23267.734
783.836;12248.953;  -11.045;22415.133
784.404;13153.922;  -13.865;20443.152
784.973;13060.959;  -13.095;19699.150
785.542;12462.470;  -11.575;19763.828
786.111;12188.112;   -9.705;20341.408
786.679;12083.326;  -12.105;20207.967
787.248;12003.524;  -12.455;19516.465
787.817;11279.507;  -11.535;18900.363
788.385;11520.881;   -9.765;17879.121
788.954;12429.571;  -14.005;17658.301
789.522;12677.819;  -11.955;17788.879
790.090;12284.657;  -10.135;18118.277
790.659;12480.953;  -10.975;18338.736
791.227;12697.944;  -13.375;18508.615
791.795;12499.306;  -12.375;17898.254
792.364;12299.792;  -10.725;17295.133
792.932;12307.708;   -9.715;16822.051
793.500;12290.976;  -12.675;17040.148
794.068;12123.158;  -13.495;17179.787
794.636;10743.481;  -10.885;16664.246
795.204; 9722.162;  -11.045;16524.545
795.772; 9538.657;  -13.175;17274.564
796.340;10569.057;  -12.445;17891.002
796.908;10773.119;   -9.735;17648.561
797.476;10752.564;   -9.815;17064.080
798.044;10897.596;  -13.985;16672.777
798.612;10734.755;  -13.115;17023.996
799.180;10180.956;  -10.185;16561.615
799.747; 9308.943;   -9.055;15962.773
800.315; 8304.367;  -12.385;15296.992
800.883; 8098.888;  -15.035;14801.771
801.450; 8668.922;  -10.365;14534.430
802.018; 9455.604;   -9.855;14173.248
802.585;10110.195;  -11.905;14029.547
803.153; 9902.042;  -11.585;13836.846
803.720; 9115.783;   -9.095;13567.324
804.287; 8698.901;   -9.135;13360.622
804.855; 9110.373;  -11.604;13681.981
805.422; 9611.520;  -11.794;13536.560
805.989; 8925.878;  -10.734;13355.958
806.556; 8748.034;  -10.444;13747.896
807.124; 8821.957;  -12.764;13987.376
807.691; 8899.639;  -12.964;14038.674
808.258; 9144.063;  -11.134;14120.152
808.825; 9211.902;   -9.854;13860.111
809.392; 8621.492;  -10.504;13268.790
809.959; 8149.676;  -13.054;12680.389
810.526; 7962.497;   -8.294;12427.308
811.093; 8095.653;   -8.394;12030.105
811.659; 7835.099;  -12.304;11653.664
812.226; 7187.825;  -13.944;11637.183
812.793; 7095.034;  -10.484;11611.521
813.360; 7306.238;  -10.144;11885.181
813.926; 7190.822;  -11.684;12770.539
814.493; 6894.348;  -13.644;12677.638
815.060; 6596.620;   -9.724;11974.336
815.626; 6361.273;   -9.854;11594.715
816.193; 6477.766;  -13.254;11579.474
816.759; 6489.568;  -13.204;11666.972
817.325; 6768.875;   -9.434;11325.530
817.892; 6758.147;  -10.134;11105.369
818.458; 6451.314;  -13.474;10843.928
819.024; 6114.862;  -11.854;10714.406
819.591; 5850.587;  -10.244;10469.165
820.157; 5631.294;  -10.704;10235.523
820.723; 5780.439;  -12.324;10847.563
821.289; 6266.176;   -9.444;11040.980
821.855; 6606.915;   -8.374;10357.100
822.421; 6574.203;  -10.234; 9978.918
822.987; 6535.124;  -13.294; 9754.177
823.553; 6712.992;  -10.884;10065.755
824.119; 6664.384;   -8.884;10036.294
824.685; 6430.745;   -6.784;10029.192
825.251; 6014.795;  -12.004;10199.230
825.816; 5997.294;  -11.474; 9820.189
826.382; 6132.480;   -9.174; 9297.248
826.948; 6050.005;   -9.214; 9381.347
827.513; 5738.390;  -10.774; 9450.726
828.079; 5449.489;  -11.924; 9472.444
828.645; 5308.166;  -10.543; 9292.643
829.210; 5282.156;  -10.533; 9065.341
829.776; 5178.170;  -10.753; 9132.620
830.341; 5096.705;  -10.173; 9092.878
830.906; 4995.833;  -10.743; 9078.557
831.472; 5076.187;  -11.113; 8534.535
832.037; 5117.143;  -10.603; 8677.874
832.602; 5170.761;  -13.323; 8628.692
833.167; 5297.611;  -10.823; 8879.031
833.733; 5004.124;  -10.113; 9189.790
834.298; 4845.810;  -13.583; 9052.608
834.863; 4980.923;  -12.703; 8895.087
835.428; 4998.535;  -10.523; 8824.266
835.993; 4817.582;   -6.963; 8845.385
836.558; 4553.762;  -10.763; 8888.563
837.123; 4498.396;   -9.903; 8966.582
837.688; 4457.791;   -9.913; 8617.860
838.253; 4506.100;  -10.283; 8590.699
838.817; 4738.986;  -12.963; 8443.797
839.382; 4779.502;  -14.243; 8799.356
839.947; 4692.422;  -10.733; 8810.595
840.511; 4463.901;   -9.383; 8796.394
841.076; 4458.023;  -12.563; 8347.231
841.641; 4493.574;  -12.953; 8224.330
842.205; 4100.683;   -7.043; 8223.349
842.770; 3902.897;   -8.163; 8622.107
843.334; 4032.569;  -12.503; 8410.386
843.898; 4268.257;  -11.693; 8337.465
844.463; 4274.576;  -10.203; 8506.283
845.027; 4128.592;   -9.533; 8280.962
845.591; 4059.466;  -13.443; 8231.141
846.156; 4053.755;  -13.143; 7969.179
846.720; 3910.882;   -9.433; 7768.278
847.284; 3446.235;  -11.033; 7630.957
847.848; 3099.678;  -10.403; 7472.395
848.412; 3221.015;  -11.553; 7437.394
848.976; 3616.090;   -8.393; 7674.592
849.540; 3866.734;   -8.713; 7836.011
850.104; 3829.002;  -12.463; 7913.669
850.668; 3745.658;  -12.973; 7694.508
851.232; 3557.273;  -10.793; 7756.887
851.796; 3432.994;  -10.662; 7926.545
852.359; 3564.761;  -13.082; 7827.844
852.923; 3536.865;  -12.192; 7641.163
853.487; 3440.941;  -11.912; 7342.501
854.050; 3550.334;  -10.892; 7042.820
854.614; 3561.136;  -13.992; 7151.338
855.177; 3387.318;  -11.732; 7105.077
855.741; 3220.615;   -8.962; 6989.675
856.304; 3171.616;   -9.442; 6596.634
856.868; 3133.116;  -14.192; 6356.272
857.431; 3113.790;  -12.702; 6468.571
857.995; 3368.309;   -9.942; 6373.210
858.558; 3508.879;   -9.112; 6324.448
859.121; 3107.945;  -12.932; 6408.327
859.684; 2732.044;  -13.442; 6347.886
860.247; 2655.900;  -10.632; 6321.264
860.810; 2834.998;  -11.272; 6301.903
861.374; 3015.814;   -9.832; 6607.881
861.937; 3044.845;  -11.762; 6408.200
862.500; 3073.770;   -9.722; 6572.639
863.062; 2996.490;  -10.512; 6387.297
863.625; 2832.672;  -11.232; 6190.836
864.188; 2666.883;  -14.112; 5807.254
864.751; 2477.039;  -11.302; 5682.413
865.314; 2397.962;  -10.112; 5547.492
865.876; 2536.221;  -12.182; 5500.150
866.439; 2766.317;  -10.722; 5415.909
867.002; 2823.203;   -9.252; 5501.567
867.564; 2702.101;   -9.572; 5413.946
868.127; 2484.353;  -13.142; 5160.325
868.689; 2327.390;  -12.902; 5133.183
869.252; 2197.995;   -9.732; 5252.382
869.814; 2101.524;   -9.432; 5297.141
870.377; 2179.083;  -11.552; 5390.919
870.939; 2259.218;   -9.052; 5599.898
871.501; 2209.367;  -10.982; 5248.336
872.063; 2224.022;  -12.292; 4854.235
872.626; 2208.344;  -14.912; 4817.074
873.188; 2157.168;  -13.112; 4987.732
873.750; 2106.621;  -13.442; 4868.651
874.312; 2017.038;   -9.402; 4779.330
874.874; 1945.199;  -11.062; 4866.348
875.436; 1952.979;  -13.931; 4718.887
875.998; 1907.980;   -9.561; 4660.005
876.560; 1772.532;  -11.321; 4462.964
877.122; 1679.628;  -12.221; 4145.042
877.683; 1639.812;  -12.191; 4056.481
878.245; 1676.134;  -12.101; 3950.740
878.807; 1760.614;   -8.971; 4058.958
879.369; 1790.769;  -12.071; 3954.677
879.930; 1701.684;  -14.621; 3941.495
880.492; 1641.528;  -10.311; 4067.014
881.053; 1573.237;  -10.901; 3859.633
881.615; 1514.228;  -14.411; 3776.071
882.176; 1480.562;  -13.761; 3734.750
882.738; 1491.935;   -9.181; 3678.489
883.299; 1461.667;  -11.791; 3405.407
883.860; 1387.304;  -13.121; 3351.106
884.422; 1284.790;  -11.211; 3394.044
884.983; 1209.125;  -10.091; 3166.443
885.544; 1178.412;   -8.461; 3189.802
886.105; 1143.718;  -12.361; 3160.360
886.666; 1087.095;  -14.141; 3093.059
887.227; 1058.366;  -11.361; 2941.957
887.788; 1045.597;  -11.401; 2974.836
888.349;  984.848;  -13.791; 2721.214
888.910;  911.640;  -13.191; 2696.493
889.471;  850.014;   -9.881; 2560.172
890.032;  789.586;   -9.881; 2558.190
890.593;  746.738;  -10.371; 2567.669
891.153;  728.990;  -13.301; 2460.307
891.714;  707.687;  -11.431; 2372.046
892.275;  659.378;  -11.291; 2309.505
892.835;  650.620;  -11.471; 2382.543
893.396;  647.576;  -11.541; 2295.502
893.956;  616.658;  -11.181; 2162.420
894.517;  557.212;  -11.741; 2125.439
895.077;  491.294;  -11.671; 2086.978
895.638;  448.387;  -11.311; 2126.316
896.198;  435.224;   -9.831; 1838.275
896.758;  430.954;   -8.421; 1892.813
897.319;  413.713;  -12.351; 1792.232
897.879;  384.833;  -13.511; 1762.751
898.439;  364.767;  -12.001; 1661.149
898.999;  353.321;  -10.180; 1781.468
899.559;  342.167;  -12.030; 1703.347
900.119;  334.644;  -15.710; 1537.525
900.679;  328.656;   -8.900; 1638.384
901.239;  310.997;   -8.340; 1527.902
901.799;  288.262;  -13.910; 1456.441
902.359;  270.207;  -13.460; 1357.140
902.919;  261.594;  -11.490; 1331.118
903.479;  257.892;  -12.110; 1317.257
904.038;  250.619;  -11.720; 1262.595
904.598;  239.006;  -13.610; 1152.034
905.158;  227.802;  -11.040; 1240.893
905.717;  218.921;  -10.900; 1233.691
906.277;  213.630;  -15.080; 1217.330
906.836;  209.412;  -13.380; 1222.408
907.396;  206.632;  -10.780; 1193.047
907.955;  201.889;   -8.500; 1182.526
908.515;  194.476;  -12.760; 1099.364
909.074;  189.855;  -11.900; 1092.863
909.633;  186.025;   -8.950; 1069.121
910.192;  183.656;   -8.770; 1196.460
910.752;  177.456;  -12.390; 1029.960
911.311;  174.043;  -13.680; 1009.780
911.870;  171.453;  -12.370;  971.460
912.429;  169.962;  -10.900; 1094.080
912.988;  165.690;  -11.690; 1081.060
913.547;  160.980;  -13.240;  940.380
914.106;  160.016;  -11.990;  999.420
914.665;  159.207;   -9.990;  984.020
915.224;  156.066;  -12.880; 1035.760
915.782;  155.407;  -12.350;  922.560
916.341;  156.231;   -9.110; 1049.840
916.900;  154.001;   -9.270;  925.260
917.458;  150.737;  -13.240;  884.220
918.017;  148.225;  -13.550;  942.600
918.576;  147.327;  -12.320;  904.440
919.134;  146.327;  -11.490;  837.980
919.693;  146.635;  -13.670;  893.060
920.251;  146.525;  -15.470;  876.500
920.809;  146.292;  -11.290;  839.580
921.368;  145.464;  -10.210;  885.360
921.926;  143.211;  -12.140;  842.940
922.484;  140.613;  -13.080;  903.360
923.042;  139.194;  -11.720;  880.340
923.601;  141.651;   -7.480;  998.680
924.159;  140.354;  -11.570;  935.560
924.717;  138.293;  -13.840;  841.080
925.275;  140.190;  -10.640;  903.240
925.833;  140.074;  -11.540;  779.320
926.391;  140.977;  -12.960;  938.380
926.949;  140.764;  -14.130;  857.680
927.506;  142.003;  -11.750;  903.500
928.064;  142.238;  -10.250;  877.580
928.622;  139.751;  -13.030;  880.100
929.180;  141.286;  -13.400;  814.180
929.737;  142.541;  -10.700;  808.540
930.295;  142.609;  -10.070;  928.480
930.853;  142.451;  -11.960;  849.100
931.410;  144.519;  -13.120;  821.120
931.968;  146.775;  -10.770;  940.660
932.525;  146.311;  -10.680;  909.380
933.082;  147.450;  -13.130;  811.440
933.640;  153.260;  -13.210;  925.900
934.197;  158.421;  -11.060;  886.360
934.754;  161.418;   -9.580;  897.780
935.312;  160.733;  -14.000;  863.340
935.869;  160.271;  -10.710; 1012.980
936.426;  157.824;   -9.860;  872.800
936.983;  158.006;   -9.710;  889.020
937.540;  158.592;  -13.990;  838.280
938.097;  159.031;  -14.040;  940.120
938.654;  161.931;  -10.310;  898.860
939.211;  160.799;  -10.560;  952.480
939.768;  158.202;  -13.900;  915.420
940.324;  159.110;  -14.760;  904.200
940.881;  162.526;  -10.370;  878.500
941.438;  166.908;   -8.260; 1021.200
941.995;  167.418;  -12.540;  992.560
942.551;  167.515;  -14.670;  875.620
943.108;  167.362;  -10.450;  937.920
943.664;  166.907;  -10.750;  869.340
944.221;  172.291;  -11.550; 1088.140
944.777;  174.327;  -14.770;  869.680
945.334;  178.670;  -12.820;  884.840
945.890;  182.218;  -10.130;  946.480
946.446;  181.767;  -13.470;  947.020
947.003;  181.349;  -12.120;  964.940
947.559;  184.682;   -9.980; 1063.040
948.115;  185.757;   -9.080; 1026.540
948.671;  188.647;  -10.830;  967.300
949.227;  185.600;  -12.440;  859.560
949.783;  178.228;  -12.910;  858.900
950.339;  173.634;  -10.270;  991.000
950.895;  171.114;  -13.630; 1023.840
951.451;  170.492;  -15.100;  925.280
952.007;  171.938;  -11.330;  998.540
952.563;  173.166;  -10.580;  937.780
953.118;  171.806;  -13.440;  904.940
953.674;  168.915;  -12.710;  935.780
954.230;  169.781;  -10.350;  949.640
954.785;  170.478;   -9.190;  936.640
955.341;  168.975;  -11.200;  998.160
955.897;  161.890;  -16.560;  834.660
956.452;  158.683;  -12.570;  953.840
957.008;  153.186;   -7.970; 1083.640
957.563;  150.936;  -11.940; 1009.540
958.118;  153.148;  -13.450;  877.700
958.674;  157.131;  -12.030;  946.780
959.229;  161.234;   -9.410; 1013.980
959.784;  162.875;  -12.000;  832.400
960.339;  162.949;  -14.780; 1001.280
960.894;  152.245;   -9.860;  963.760
961.449;  140.771;   -9.970;  859.960
962.004;  133.600;  -10.900; 1212.840
962.559;  118.850;  -13.150;  860.140
963.114;  107.903;  -13.740;  742.480
963.669;  102.867;   -9.820;  915.500
964.224;  101.313;  -13.890;  874.340
964.779;  102.273;  -12.600;  828.420
965.334;  105.499;  -10.950; 1017.860
965.888;  105.372;  -11.170;  875.360
966.443;  106.428;  -12.540;  972.380
966.998;  107.111;  -15.780;  819.460
967.552;  110.679;   -9.760;  908.380
968.107;  108.950;   -9.060;  868.300
968.661;  108.550;  -11.950;  922.440
969.216;  106.700;  -12.800;  856.280
969.770;  107.015;  -11.210;  917.200
970.324;  106.242;  -11.610;  923.140
970.879;  105.296;  -11.370;  947.180
971.433;  105.361;  -12.540;  952.720
971.987;  104.136;  -11.320;  895.340
972.541;  103.333;  -10.720;  917.100
973.095;  104.864;   -9.680; 1009.460
973.649;  106.003;  -11.440;  809.480
974.203;  105.502;  -11.210;  829.040
974.757;  104.504;  -10.240;  855.220
975.311;  103.117;  -13.720;  872.600
975.865;  104.184;  -13.770;  881.820
976.419;  105.156;  -11.690;  857.400
976.973;  105.407;   -9.510;  849.620
977.526;  104.957;  -12.620;  949.920
978.080;  100.216;  -12.010;  796.780
978.634;   99.476;  -10.170;  921.320
979.187;   94.775;   -9.020;  905.400
979.741;   95.536;   -9.820; 1018.380
980.294;   92.909;  -14.870;  789.160
980.848;   91.766;  -12.380;  717.220
981.401;   92.026;  -10.350;  816.540
981.955;   92.712;  -13.720;  844.300
982.508;   90.583;  -11.490;  746.340
983.061;   90.919;  -10.000;  915.260
983.615;   88.279;  -11.480;  798.800
984.168;   86.549;  -13.220;  770.080
984.721;   85.330;  -13.960;  880.760
985.274;   82.476;  -10.870;  867.500
985.827;   80.954;   -9.790;  834.220
986.380;   78.886;  -13.120;  721.340
986.933;   78.701;  -12.450;  864.800
987.486;   78.271;  -10.210;  861.920
988.039;   78.397;   -8.430;  863.100
988.591;   76.329;  -10.520;  893.260
989.144;   74.927;  -14.860;  737.260
989.697;   73.954;  -13.080;  758.740
990.250;   74.367;  -10.150;  858.100
990.802;   70.872;  -13.430;  755.860
991.355;   70.959;  -12.750;  974.880
991.907;   67.962;  -12.040;  864.320
992.460;   64.964;  -11.330;  753.760
993.012;   63.130;  -13.610;  749.540
993.565;   61.143;  -13.460;  711.360
994.117;   63.228;   -9.360;  950.780
994.669;   60.084;  -11.300;  701.320
995.221;   59.292;  -13.540;  791.920
995.774;   58.608;  -13.430;  787.580
996.326;   58.573;  -12.520;  740.220
996.878;   58.826;  -10.950;  838.420
997.430;   56.886;  -14.300;  699.860
997.982;   56.046;  -13.760;  750.140
998.534;   56.125;  -11.530;  739.060
999.086;   54.136;  -10.310;  738.220
999.638;   52.958;  -12.530;  661.380
1000.190;   51.706;  -11.840;  699.320
1000.741;   51.397;  -10.260;  742.700
1001.293;   51.279;   -8.860;  686.020
1001.845;   50.008;  -13.700;  676.640
1002.396;   50.953;  -12.100;  743.400
1002.948;   49.702;  -12.760;  737.400
1003.500;   49.242;  -10.380;  723.780
1004.051;   49.349;  -11.900;  907.580
1004.603;   47.709;  -12.250;  791.820
1005.154;   44.660;  -13.210;  608.980
1005.705;   43.691;  -10.950;  723.960
1006.257;   42.705;  -13.880;  707.220
1006.808;   42.057;  -12.840;  685.460
1007.359;   42.034;  -10.570;  763.240
1007.910;   40.307;   -9.620;  646.640
1008.461;   40.470;  -13.630;  732.940
1009.013;   38.795;  -17.200;  588.340
1009.564;   40.513;  -10.200;  793.520
1010.115;   39.206;  -12.570;  597.040
1010.665;   38.538;  -15.150;  602.160
1011.216;   38.439;  -14.480;  667.920
1011.767;   37.833;  -11.340;  697.920
1012.318;   37.792;   -9.780;  736.980
1012.869;   36.082;  -12.380;  679.000
1013.419;   35.766;  -15.560;  603.120
1013.970;   36.839;  -11.010;  666.640
1014.521;   35.559;  -11.610;  620.620
1015.071;   35.394;  -13.450;  670.380
1015.622;   35.477;  -13.870;  635.460
1016.172;   35.569;  -11.610;  596.820
1016.723;   35.048;  -12.120;  614.380
1017.273;   34.341;  -13.620;  604.160
1017.823;   35.161;  -14.140;  650.340
1018.374;   33.985;  -12.800;  611.760
1018.924;   33.764;  -12.340;  716.880
1019.474;   34.514;  -11.410;  718.880
1020.024;   32.939;  -14.770;  657.580
1020.574;   32.904;   -9.780;  726.160
1021.124;   33.378;   -8.560;  673.580
1021.674;   31.815;  -15.190;  559.120
1022.224;   32.945;  -13.530;  708.940
1022.774;   33.186;  -13.280;  668.820
1023.324;   33.667;  -10.690;  753.520
1023.874;   34.400;  -10.240;  875.760
1024.423;   31.267;  -12.540;  613.700
1024.973;   31.102;  -10.010;  610.760
1025.523;   30.564;  -10.550;  620.960
1026.072;   30.096;  -13.560;  606.420
1026.622;   30.112;  -15.120;  675.740
1027.172;   31.297;  -11.260;  715.660
1027.721;   30.393;  -11.410;  601.220
1028.270;   30.273;  -13.530;  663.400
1028.820;   29.935;  -13.680;  638.080
1029.369;   30.035;  -13.520;  612.700
1029.918;   29.547;  -10.980;  649.840
1030.468;   28.874;  -13.530;  564.780
1031.017;   29.464;  -13.170;  634.800
1031.566;   28.138;  -12.200;  608.900
1032.115;   28.155;   -9.960;  694.500
1032.664;   27.263;  -13.210;  596.480
1033.213;   28.797;  -12.500;  735.420
1033.762;   28.129;  -11.910;  635.620
1034.311;   27.632;   -9.640;  677.220
1034.860;   27.869;  -13.310;  691.000
1035.408;   27.705;  -11.830;  722.720
1035.957;   28.226;  -12.000;  719.540
1036.506;   25.588;  -11.690;  530.800
1037.055;   28.528;  -10.990;  844.320
1037.603;   26.589;  -15.120;  664.000
1038.152;   25.352;  -12.450;  534.760
1038.700;   25.705;  -10.560;  585.740
1039.249;   26.020;  -11.080;  681.220
1039.797;   25.518;  -12.540;  633.360
1040.345;   25.754;  -11.920;  705.420
1040.894;   25.683;  -11.410;  625.300
1041.442;   25.593;  -14.320;  632.200
1041.990;   24.399;  -16.240;  559.160
1042.538;   24.474;  -11.680;  536.180
1043.087;   24.820;  -10.760;  570.860
1043.635;   25.756;  -11.850;  670.500
1044.183;   24.164;  -15.480;  586.400
1044.731;   24.024;  -11.770;  576.000
1045.279;   23.532;  -13.090;  674.920
1045.827;   25.869;  -12.440;  892.400
1046.374;   23.978;  -13.840;  515.420
1046.922;   22.923;  -13.220;  590.580
1047.470;   24.917;  -10.230;  691.300
1048.018;   24.115;  -14.590;  647.960
1048.565;   24.498;  -12.050;  708.600
1049.113;   22.924;  -11.650;  557.000
1049.660;   23.176;  -10.510;  629.660
1050.208;   22.815;  -13.310;  675.640
1050.755;   21.238;  -15.900;  606.580
1051.303;   23.130;  -11.430;  686.820
1051.850;   22.165;   -8.480;  635.120
1052.397;   20.734;  -15.010;  473.960
1052.945;   20.966;  -13.960;  617.760
1053.492;   23.010;  -13.150;  741.840
1054.039;   22.504;   -9.630;  720.180
1054.586;   20.948;  -13.680;  557.240
1055.133;   21.722;  -14.570;  693.140
1055.680;   22.578;  -13.820;  646.620
1056.227;   21.487;  -11.730;  542.780
1056.774;   22.999;  -12.480;  794.980
1057.321;   20.211;  -13.930;  523.260
1057.868;   20.424;  -11.690;  651.320
1058.415;   20.283;   -9.520;  651.980
1058.961;   20.644;  -13.160;  678.940
1059.508;   20.137;  -12.920;  643.820
1060.055;   19.704;  -11.920;  581.780
1060.601;   20.738;  -11.500;  624.300
1061.148;   20.318;  -14.330;  616.820
1061.694;   19.314;  -16.870;  592.580
1062.241;   19.898;  -10.330;  596.320
1062.787;   20.073;  -10.620;  663.140
1063.334;   21.875;  -10.110;  808.560
1063.880;   19.731;  -13.400;  668.360
1064.426;   19.873;  -10.680;  706.820
1064.972;   18.539;   -9.920;  601.340
1065.518;   17.584;  -10.980;  566.640
1066.065;   19.301;  -14.890;  624.460
1066.611;   18.609;  -12.870;  598.800
1067.157;   18.797;  -12.950;  641.860
1067.703;   19.215;  -13.540;  668.480
1068.249;   18.770;  -13.540;  605.220
1068.794;   18.286;  -12.600;  626.880
1069.340;   17.398;  -10.620;  578.960
1069.886;   17.890;  -12.830;  590.700
1070.432;   17.321;  -14.870;  541.720
1070.977;   17.338;  -11.980;  601.080
1071.523;   17.482;   -8.200;  573.060
1072.068;   17.052;  -12.330;  582.000
1072.614;   16.381;  -16.370;  527.760
1073.160;   18.438;  -11.100;  687.040
1073.705;   16.639;  -10.480;  572.520
1074.250;   16.681;  -14.520;  559.900
1074.796;   17.422;  -11.460;  655.160
1075.341;   17.514;  -11.950;  664.100
1075.886;   16.864;  -11.460;  594.240
1076.431;   15.989;  -13.770;  649.880
1076.976;   15.781;  -12.680;  639.220
1077.521;   15.802;  -13.170;  583.080
1078.067;   14.991;  -10.860;  579.400
1078.612;   15.985;  -13.920;  661.620
1079.156;   15.522;  -13.880;  601.540
1079.701;   16.037;  -13.120;  693.260
1080.246;   16.442;   -9.940;  696.300
1080.791;   15.524;  -14.740;  625.020
1081.336;   16.084;  -13.750;  659.320
1081.880;   15.757;  -13.400;  649.680
1082.425;   14.836;  -12.220;  573.480
1082.970;   16.119;  -11.610;  717.040
1083.514;   14.033;  -13.580;  597.000
1084.059;   13.998;  -12.810;  586.720
1084.603;   13.410;  -12.320;  565.840
1085.147;   14.171;  -13.190;  645.220
1085.692;   14.986;  -12.480;  716.800
1086.236;   13.531;  -13.020;  503.140
1086.780;   15.463;   -9.190;  751.440
1087.325;   14.546;  -12.480;  654.620
1087.869;   14.460;  -12.450;  610.700
1088.413;   14.428;  -12.240;  705.040
1088.957;   12.336;   -9.020;  543.400
1089.501;   14.725;  -10.320;  766.640
1090.045;   13.699;  -12.720;  726.480
1090.589;   11.911;  -13.690;  569.920
1091.133;   13.577;  -10.020;  673.340
1091.676;   12.991;  -12.330;  591.940
1092.220;   12.400;  -14.970;  600.920
1092.764;   14.145;  -12.430;  706.960
1093.307;   13.586;   -9.800;  673.780
1093.851;   11.480;  -14.970;  556.540
1094.395;   13.531;  -15.310;  683.140
1094.938;   12.644;  -10.370;  632.520
1095.482;   12.467;  -11.050;  559.800
1096.025;   12.483;  -11.840;  710.880
1096.568;   13.140;  -12.840;  779.280
1097.112;   10.817;  -14.700;  508.180
1097.655;   12.327;   -8.720;  603.000
1098.198;   10.260;  -13.610;  600.180
1098.741;   11.437;  -13.350;  612.860
1099.285;   12.121;  -11.230;  657.300
1099.828;   10.018;  -11.840;  439.400
1100.371;   11.264;  -10.840;  608.160
1100.914;   11.989;  -14.190;  682.660
1101.457;   11.334;  -11.240;  679.900
1101.999;   10.542;  -11.270;  584.680
1102.542;   10.856;  -11.480;  641.440
1103.085;    9.929;  -11.750;  658.500
1103.628;   10.881;  -11.400;  762.060
1104.170;   10.382;  -10.490;  588.280
1104.713;   10.977;  -10.600;  646.700
1105.256;    9.592;  -14.360;  557.440
1105.798;    8.891;  -13.210;  499.980
1106.341;   11.673;  -10.270;  728.900
1106.883;    9.433;  -12.200;  521.340
1107.425;   10.000;  -13.110;  668.180
1107.968;    8.759;  -12.840;  612.380
1108.510;    9.589;   -6.480;  684.960
1109.052;    8.585;  -13.940;  612.620
1109.594;    8.669;  -13.690;  554.440
1110.136;   10.071;  -11.880;  643.220
1110.679;    9.253;   -9.500;  633.080
1111.221;    8.797;  -14.160;  604.460
1111.763;    8.293;  -13.980;  559.220
1112.304;    7.986;  -13.880;  547.140
1112.846;    9.761;  -12.210;  666.240
1113.388;   11.513;  -11.390;  942.180
1113.930;    8.997;  -14.540;  694.200
1114.472;    8.096;  -12.640;  606.540
1115.013;    6.874;  -11.620;  551.280
1115.555;    7.012;  -13.640;  587.100
1116.097;    7.057;  -15.380;  579.480
1116.638;    7.949;  -12.640;  684.600
1117.180;    8.534;   -9.850;  667.740
1117.721;    7.844;  -13.690;  568.580
1118.262;    8.049;  -12.680;  677.960
1118.804;    8.644;  -12.530;  637.340
1119.345;    7.036;  -11.690;  578.400
1119.886;    8.357;  -13.380;  704.040
1120.427;    6.915;  -14.070;  589.020
1120.969;    6.768;  -13.500;  597.920
1121.510;    6.685;  -11.480;  563.060
1122.051;    7.149;  -12.830;  723.580
1122.592;    6.023;  -14.290;  655.420
1123.133;    5.953;  -12.400;  547.940
1123.673;    7.113;  -10.130;  706.480
1124.214;    6.410;  -12.930;  612.460
1124.755;    6.859;  -14.380;  639.460
1125.296;    6.639;  -14.000;  627.320
1125.836;    6.634;  -10.070;  691.500
1126.377;    5.704;  -12.640;  599.660
1126.918;    6.524;  -12.960;  614.980
1127.458;    5.200;  -13.350;  622.220
1127.999;    6.190;  -10.750;  656.980
1128.539;    6.472;  -12.350;  694.240
1129.079;    5.465;  -14.860;  632.720
1129.620;    4.804;  -13.840;  558.100
1130.160;    5.543;  -12.330;  539.480
1130.700;    5.405;  -14.530;  640.840
1131.240;    6.301;  -12.530;  643.700
1131.781;    5.709;  -14.450;  619.680
1132.321;    5.926;   -9.790;  599.120
1132.861;    3.883;  -14.860;  564.200
1133.401;    4.231;  -14.290;  593.940
1133.941;    5.513;  -11.750;  626.280
1134.481;    4.194;   -9.920;  597.580
1135.020;    3.895;  -12.290;  609.160
1135.560;    4.537;  -11.650;  674.940
1136.100;    4.058;  -16.270;  501.160
1136.640;    3.603;  -10.890;  510.480
1137.179;    3.773;  -14.180;  537.960
1137.719;    4.105;  -16.250;  605.400
1138.258;    4.754;  -14.230;  587.360
1138.798;    4.910;   -9.090;  663.780
1139.337;    3.349;  -15.130;  482.840
1139.877;    3.951;  -13.680;  642.360
1140.416;    6.603;  -11.320;  878.060
1140.955;    3.064;  -10.860;  535.380
1141.494;    3.459;  -12.920;  669.280
1142.034;    3.276;  -13.930;  583.520
1142.573;    4.187;  -11.440;  646.280
1143.112;    2.442;  -12.000;  553.480
1143.651;    3.413;  -13.670;  536.480
1144.190;    3.686;  -12.730;  691.640
1144.729;    3.293;  -14.560;  607.420
1145.267;    3.751;  -11.830;  584.900
1145.806;    4.596;  -12.230;  637.040
1146.345;    2.316;  -14.130;  635.020
1146.884;    2.715;  -11.590;  622.500
1147.422;    2.101;  -12.550;  533.060
1147.961;    3.513;  -11.180;  708.460
1148.500;    3.315;  -11.510;  669.720
1149.038;    3.243;  -11.640;  632.500
1149.577;    2.726;  -10.130;  698.640
1150.115;    0.144;  -13.970;  452.280
1150.653;    3.332;  -14.520;  607.340
1151.192;    2.953;  -12.810;  552.920
1151.730;    2.934;   -9.100;  652.560
1152.268;    2.090;  -12.220;  589.520
1152.806;    1.368;  -14.140;  571.180
1153.344;    0.309;  -12.350;  577.640
1153.882;    2.226;   -8.980;  600.060
1154.421;   -0.026;  -15.190;  470.620
1154.958;    0.864;  -15.210;  595.240
1155.496;    3.038;  -12.850;  645.280
1156.034;    1.656;   -9.940;  721.880
1156.572;    2.590;  -13.570;  667.060
1157.110;    0.635;  -14.590;  473.940
1157.647;    2.185;  -13.030;  676.960
1158.185;    0.710;  -12.140;  564.320
1158.723;    0.243;  -14.390;  509.200
1159.260;    1.564;  -14.090;  701.700
1159.798;    2.314;  -11.920;  658.160
1160.335;    1.549;  -11.110;  631.820

