
Integration time [ms]:   3.276
Averaging Nr. [scans]: 1000
Smoothing Nr. [pixels]: 0
Data measured with spectrometer [name]: 7414430SP
Wave   ;Sample   ;Dark     ;Reference
[nm]   ;[counts] ;[counts] ;[counts] 

288.544;  150.415;    7.793;  793.890
289.143;  155.147;    7.462;  681.602
289.742;  155.718;    8.602;  828.814
290.341;  139.579;    1.321;  789.841
290.940;  129.823;   -0.709;  730.702
291.538;  130.884;    0.881;  881.108
292.137;  130.536;    0.122;  792.581
292.736;  134.572;   -1.929;  975.101
293.335;  131.887;   -8.229;  735.086
293.934;  132.200;   -5.279;  781.677
294.532;  129.851;   -1.369; 1031.958
295.131;  115.821;   -7.641;  834.394
295.730;  116.198;   -8.420;  809.588
296.328;  115.666;   -5.611;  783.442
296.927;  116.475;   -5.781;  779.652
297.525;  117.449;   -6.361;  781.236
298.124;  107.559;  -11.382;  654.009
298.722;  111.203;   -7.641;  761.933
299.321;  109.203;   -6.811;  708.597
299.919;  106.784;   -6.991;  751.918
300.518;  104.290;  -10.362;  689.338
301.116;  105.627;   -9.581;  691.381
301.715;  105.614;   -4.891;  730.222
302.313;  104.131;   -8.801;  704.943
302.911;  100.367;   -8.522;  733.830
303.509;  105.690;   -6.171;  925.627
304.108;  103.087;   -7.311;  760.383
304.706;  103.327;   -8.321;  801.664
305.304;   96.559;  -10.222;  796.707
305.902;  101.936;   -6.021;  784.484
306.500;   97.991;   -4.971;  728.200
307.098;   95.783;   -7.061;  746.560
307.696;   93.896;   -8.801;  780.432
308.294;   94.411;   -6.411;  731.359
308.892;   96.700;   -2.901;  759.769
309.490;   92.219;   -5.041;  712.161
310.088;   90.820;   -5.002;  788.444
310.686;   95.546;   -2.041;  821.749
311.284;   90.993;   -2.351;  766.040
311.882;   87.702;   -4.422;  731.225
312.480;   85.899;   -4.192;  697.167
313.078;   86.848;   -1.172;  808.331
313.675;   88.168;   -2.601;  691.600
314.273;   82.806;   -1.312;  797.837
314.871;   83.259;   -3.942;  589.829
315.468;   79.979;   -2.802;  652.090
316.066;   82.765;   -0.701;  694.427
316.664;   75.430;   -4.362;  656.351
317.261;   80.454;   -2.872;  910.128
317.859;   75.184;   -2.022;  768.735
318.456;   75.822;   -0.531;  830.096
319.054;   71.955;   -3.912;  787.828
319.651;   70.663;   -4.752;  759.928
320.249;   70.146;   -2.602;  810.188
320.846;   67.993;   -0.821;  714.286
321.443;   64.863;   -4.642;  832.135
322.041;   62.323;   -5.002;  812.315
322.638;   60.788;   -3.982;  701.456
323.235;   60.963;   -3.411;  665.683
323.833;   57.959;   -7.361;  740.354
324.430;   53.396;   -8.611;  615.900
325.027;   54.479;   -4.061;  876.855
325.624;   54.143;   -4.031;  644.532
326.221;   51.486;   -7.481;  689.717
326.818;   50.208;   -5.281;  818.332
327.415;   54.188;   -7.460;  748.828
328.012;   53.770;   -5.510;  690.585
328.609;   52.494;   -7.880;  731.389
329.206;   50.421;   -8.331;  778.621
329.803;   49.827;   -5.121;  737.841
330.400;   52.642;   -4.510;  704.260
330.997;   54.677;   -6.441;  817.147
331.594;   52.981;   -8.831;  788.185
332.191;   58.166;   -7.621;  728.722
332.787;   60.727;   -4.591;  844.463
333.384;   58.658;   -7.412;  763.093
333.981;   57.635;   -8.293;  815.687
334.578;   61.112;   -7.052;  708.378
335.174;   63.725;   -3.102;  731.469
335.771;   63.350;   -5.943;  836.456
336.367;   59.991;   -7.393;  710.631
336.964;   64.234;   -4.063;  793.266
337.561;   61.325;   -3.813;  731.112
338.157;   57.261;   -4.654;  911.916
338.754;   55.418;   -7.934;  796.589
339.350;   54.152;   -4.414;  722.493
339.946;   55.359;   -4.664;  773.135
340.543;   47.183;   -6.375;  846.136
341.139;   41.863;   -9.815;  720.836
341.735;   40.225;   -4.526;  772.593
342.332;   38.357;   -4.895;  691.472
342.928;   38.318;   -4.295;  795.394
343.524;   32.521;   -5.476;  761.684
344.120;   29.509;   -5.856;  738.562
344.716;   32.581;   -2.155;  723.717
345.313;   30.065;   -6.275;  795.342
345.909;   25.247;   -8.815;  627.336
346.505;   26.593;   -5.305;  740.247
347.101;   26.967;   -2.674;  827.864
347.697;   27.483;   -4.344;  785.398
348.293;   21.609;   -9.975;  627.244
348.889;   23.122;   -5.774;  745.914
349.485;   22.154;   -5.004;  688.205
350.081;   22.861;   -4.704;  772.592
350.676;   17.940;   -6.635;  691.606
351.272;   22.501;   -4.504;  809.530
351.868;   21.387;   -3.914;  780.497
352.464;   19.247;   -9.044;  723.932
353.059;   15.787;   -8.314;  646.017
353.655;   19.172;   -7.024;  777.063
354.251;   19.896;   -5.343;  759.845
354.846;   13.896;   -8.604;  740.646
355.442;   12.107;   -6.945;  753.071
356.038;   14.636;   -7.564;  751.708
356.633;   14.294;   -5.814;  728.594
357.229;   12.628;   -7.364;  724.757
357.824;   10.266;   -8.024;  703.600
358.420;   10.448;   -9.384;  679.726
359.015;   10.565;   -5.104;  695.357
359.610;   10.859;   -6.854;  763.920
360.206;    5.033;  -10.185;  603.240
360.801;    7.877;   -7.054;  646.503
361.396;    9.545;   -5.034;  725.975
361.992;    4.959;   -8.284;  668.220
362.587;    3.285;   -8.625;  670.160
363.182;    4.901;   -7.674;  689.631
363.777;    5.439;   -5.164;  738.242
364.372;    4.929;   -8.604;  737.314
364.967;    0.995;   -9.055;  680.744
365.563;    5.503;   -6.114;  815.567
366.158;    2.830;   -5.814;  685.161
366.753;    2.993;   -7.854;  649.263
367.348;    1.967;   -7.804;  746.056
367.942;    1.226;   -7.954;  697.298
368.537;    0.909;   -4.984;  754.245
369.132;    1.001;   -8.564;  703.428
369.727;   -3.161;   -8.855;  638.079
370.322;   -1.534;   -6.245;  580.186
370.917;   -2.156;   -6.425;  710.646
371.511;    0.595;   -6.294;  861.834
372.106;   -2.210;   -7.685;  776.964
372.701;   -5.584;   -7.335;  585.988
373.296;    0.088;   -4.564;  863.135
373.890;   -4.765;  -10.235;  647.840
374.485;   -7.166;   -7.885;  691.199
375.079;   -2.887;   -7.324;  738.685
375.674;   -2.447;   -3.494;  812.970
376.268;   -6.510;   -8.525;  691.759
376.863;  -11.840;  -10.086;  580.327
377.457;   -5.685;   -7.025;  662.490
378.052;   -7.768;   -3.585;  764.884
378.646;   -8.739;   -7.595;  741.167
379.240;   -9.309;   -8.335;  721.176
379.835;   -7.736;   -5.785;  636.978
380.429;  -10.066;   -4.335;  562.557
381.023;  -10.596;   -6.805;  779.205
381.617;  -12.395;   -9.195;  680.106
382.212;   -9.153;   -6.905;  685.303
382.806;   -8.169;   -3.745;  760.690
383.400;  -12.779;   -7.745;  672.281
383.994;  -13.049;   -9.765;  664.870
384.588;   -8.843;   -6.564;  697.701
385.182;   -8.243;   -5.344;  726.624
385.776;   -9.250;   -8.514;  706.875
386.370;  -12.302;   -9.555;  681.968
386.964;  -11.504;   -8.715;  684.155
387.558;   -9.735;   -6.174;  598.360
388.152;  -13.854;   -8.725;  681.959
388.745;  -11.662;   -7.965;  814.707
389.339;  -10.520;   -5.924;  747.642
389.933;   -8.948;   -5.524;  695.370
390.527;  -10.477;   -7.114;  859.029
391.120;  -16.732;  -10.725;  595.318
391.714;  -13.443;   -8.035;  711.633
392.308;  -10.506;   -3.574;  780.253
392.901;  -13.604;   -7.245;  642.460
393.495;  -16.112;   -9.285;  595.414
394.089;  -13.477;   -5.895;  760.452
394.682;  -14.735;   -4.295;  697.188
395.275;  -14.768;   -9.875;  719.927
395.869;  -15.433;   -8.485;  667.314
396.462;  -13.774;   -7.455;  616.609
397.056;  -10.541;   -5.424;  776.621
397.649;  -14.983;   -6.605;  731.575
398.242;  -12.841;   -8.224;  712.645
398.836;  -11.702;   -7.474;  766.408
399.429;  -12.814;   -7.094;  631.041
400.022;  -17.003;   -9.475;  665.902
400.615;  -13.769;   -7.145;  805.609
401.208;  -12.230;   -7.174;  691.451
401.802;  -14.350;   -5.515;  699.329
402.395;  -15.671;   -9.875;  683.502
402.988;  -16.340;   -8.845;  696.627
403.581;  -12.551;   -8.874;  646.878
404.174;  -10.672;   -5.324;  686.568
404.767;  -14.170;   -9.575;  638.583
405.360;  -16.270;  -10.965;  621.445
405.953;  -10.541;   -8.764;  759.034
406.545;  -10.791;   -7.514;  725.342
407.138;  -15.281;  -10.025;  618.350
407.731;  -13.695;  -10.034;  613.303
408.324;   -9.483;   -9.374;  660.554
408.917;  -10.476;   -6.534;  681.864
409.509;  -12.228;   -8.004;  740.396
410.102;  -14.414;   -9.875;  643.948
410.695;   -8.590;   -8.604;  665.758
411.287;   -8.786;   -6.794;  599.821
411.880;  -10.321;   -9.334;  585.421
412.472;  -12.919;  -10.254;  613.092
413.065;  -10.634;   -6.714;  629.408
413.657;   -8.062;   -7.234;  576.678
414.250;   -8.853;  -10.544;  646.681
414.842;  -10.745;   -9.744;  676.353
415.434;   -7.629;   -6.994;  570.463
416.027;   -4.290;   -5.893;  652.196
416.619;   -5.636;   -7.264;  713.400
417.211;   -6.693;  -10.374;  599.352
417.804;   -3.060;   -7.993;  628.499
418.396;   -7.042;   -7.234;  607.643
418.988;   -4.831;   -9.443;  659.238
419.580;   -7.407;  -10.724;  568.276
420.172;   -5.897;  -10.323;  536.196
420.764;   -0.604;   -8.793;  672.482
421.356;   -3.033;  -11.143;  636.898
421.948;   -3.390;   -8.293;  677.661
422.540;    0.946;   -7.893;  680.027
423.132;    0.754;   -7.082;  600.641
423.724;   -2.791;   -8.653;  561.267
424.316;   -0.605;  -10.213;  621.345
424.908;    2.535;   -9.762;  591.517
425.500;    3.457;   -5.572;  647.978
426.092;    3.415;   -8.422;  648.268
426.683;    2.844;   -9.283;  684.836
427.275;    5.755;   -7.852;  641.471
427.867;    7.364;   -5.272;  668.948
428.458;    7.032;   -7.682;  732.344
429.050;    6.049;  -10.612;  680.749
429.642;    8.153;   -9.882;  743.124
430.233;    9.161;   -6.962;  569.356
430.825;    9.298;   -6.842;  724.809
431.416;    7.229;   -9.672;  698.241
432.008;   11.245;   -6.552;  651.723
432.599;   12.571;   -6.891;  656.073
433.190;    8.361;  -10.912;  637.670
433.782;    8.673;  -11.172;  590.395
434.373;   14.743;   -6.061;  884.765
434.964;   14.119;   -8.251;  602.920
435.556;   11.368;   -9.722;  634.537
436.147;   14.853;   -9.082;  758.490
436.738;   14.714;   -8.041;  701.099
437.329;   19.891;   -7.341;  721.723
437.920;   12.817;   -8.162;  666.688
438.511;   12.828;  -11.802;  564.526
439.103;   19.788;  -10.191;  623.998
439.694;   21.598;   -7.601;  681.583
440.285;   21.316;   -8.541;  764.432
440.876;   19.649;   -9.751;  845.738
441.466;   19.901;   -9.401;  575.162
442.057;   25.119;   -7.760;  665.814
442.648;   23.884;   -9.971;  746.255
443.239;   22.048;  -11.001;  620.477
443.830;   27.017;   -7.990;  704.958
444.421;   27.844;   -7.910;  655.474
445.011;   25.237;   -8.131;  693.619
445.602;   24.477;   -7.111;  743.126
446.193;   26.781;  -10.920;  488.117
446.783;   30.674;   -6.500;  640.397
447.374;   26.241;   -8.671;  692.759
447.964;   26.884;  -10.781;  713.770
448.555;   35.716;   -9.650;  822.742
449.145;   31.893;   -8.660;  662.853
449.736;   32.481;   -8.990;  803.179
450.326;   32.760;   -9.500;  713.626
450.917;   37.801;   -8.680;  675.324
451.507;   36.567;   -7.520;  600.661
452.097;   37.728;   -8.590;  746.267
452.688;   38.500;  -11.340;  742.160
453.278;   38.550;  -10.100;  566.840
453.868;   42.573;   -6.019;  793.550
454.458;   40.325;   -9.440;  651.141
455.048;   40.183;  -10.560;  711.783
455.639;   42.217;  -11.799;  567.096
456.229;   46.251;   -6.899;  710.694
456.819;   47.953;   -7.389;  751.158
457.409;   47.829;  -11.119;  773.993
457.999;   51.013;   -9.289;  737.505
458.589;   50.789;   -6.139;  686.606
459.179;   50.361;   -8.729;  717.658
459.769;   48.443;   -9.789;  627.099
460.358;   54.011;  -10.259;  797.262
460.948;   53.835;   -7.299;  689.503
461.538;   54.828;  -10.289;  660.677
462.128;   52.308;  -11.269;  664.934
462.717;   59.726;   -9.368;  710.326
463.307;   62.800;   -7.908;  705.846
463.897;   59.153;   -9.599;  656.942
464.486;   57.673;   -9.769;  837.128
465.076;   62.287;   -8.048;  733.776
465.666;   65.977;   -9.358;  652.900
466.255;   63.776;   -7.919;  785.651
466.845;   62.667;  -11.689;  666.749
467.434;   66.084;   -7.818;  725.873
468.023;   66.763;   -7.678;  658.357
468.613;   64.286;  -10.939;  713.946
469.202;   69.043;  -10.118;  646.507
469.791;   73.167;   -9.108;  737.811
470.381;   75.121;   -6.058;  742.813
470.970;   74.204;  -10.428;  711.099
471.559;   74.176;  -10.268;  733.291
472.148;   77.524;   -8.448;  675.737
472.738;   79.960;   -6.917;  765.466
473.327;   78.891;  -11.978;  637.529
473.916;   78.679;  -11.888;  737.446
474.505;   83.529;   -9.437;  751.703
475.094;   87.176;   -6.747;  806.570
475.683;   85.961;   -9.367;  797.699
476.272;   86.713;  -12.637;  730.632
476.861;   89.292;  -10.027;  706.754
477.449;   96.107;   -8.716;  728.487
478.038;   89.998;   -9.577;  692.513
478.627;   90.775;   -9.718;  714.852
479.216;   97.738;   -8.947;  769.441
479.805;  100.771;   -6.256;  783.375
480.393;  100.612;   -7.937; 1008.945
480.982;   99.689;   -7.717;  874.501
481.571;  106.432;   -9.266;  858.333
482.159;  106.467;   -7.636;  705.386
482.748;  105.911;   -9.667;  821.385
483.336;  110.669;  -10.376;  858.209
483.925;  112.175;   -7.147;  774.373
484.513;  117.855;   -7.996;  758.962
485.102;  114.376;  -10.027;  810.965
485.690;  123.814;  -10.446; 1011.050
486.278;  125.329;   -8.446;  979.329
486.867;  126.055;   -6.356;  809.662
487.455;  127.754;   -9.136;  898.229
488.043;  129.569;  -10.646;  748.361
488.631;  138.241;   -7.456; 1005.079
489.220;  142.059;   -6.636;  908.626
489.808;  141.804;  -11.036;  741.415
490.396;  149.491;  -10.246;  914.645
490.984;  155.068;   -8.556;  830.161
491.572;  164.203;   -5.886;  940.315
492.160;  170.298;   -9.486;  919.081
492.748;  182.447;  -10.976;  884.341
493.336;  204.299;   -8.776; 1019.693
493.924;  229.594;   -5.465;  958.077
494.512;  256.277;   -9.986; 1066.638
495.100;  291.359;  -10.636; 1103.280
495.687;  346.970;  -10.885; 1206.373
496.275;  408.197;   -8.126; 1150.796
496.863;  476.699;  -10.586; 1281.171
497.451;  575.038;  -11.926; 1386.805
498.038;  704.696;  -10.885; 1556.729
498.626;  812.578;   -6.315; 1741.407
499.214;  960.839;   -7.326; 2016.609
499.801; 1159.802;  -11.906; 2220.633
500.389; 1391.261;  -10.466; 2312.494
500.976; 1682.855;   -5.236; 2744.849
501.564; 2105.946;   -8.936; 3148.565
502.151; 2455.419;  -13.176; 3515.999
502.738; 2862.244;  -10.646; 3971.274
503.326; 3262.483;   -9.525; 4403.796
503.913; 3678.711;  -10.856; 5161.749
504.500; 4068.463;  -11.586; 5986.420
505.088; 4436.218;  -10.336; 6381.201
505.675; 4951.266;   -6.355; 6925.547
506.262; 5620.677;   -9.046; 7619.060
506.849; 6341.265;  -10.416; 8733.969
507.436; 6881.097;  -10.305; 9790.121
508.023; 7465.967;   -5.496; 9985.472
508.610; 7673.827;   -7.856;10434.618
509.197; 8250.655;  -10.097;11198.435
509.784; 9588.119;  -10.886;12391.194
510.371;10759.575;   -9.315;13603.713
510.958;11506.855;   -9.936;14426.586
511.545;12185.277;   -9.326;15243.775
512.132;12981.660;  -10.075;15945.876
512.719;13500.288;   -7.796;16340.369
513.305;14617.805;  -10.606;18011.766
513.892;15408.657;  -11.486;19754.971
514.479;16544.184;   -9.126;20967.805
515.066;17921.160;   -6.026;22299.793
515.652;19588.070;   -8.466;22908.660
516.239;20851.855;  -10.886;23798.875
516.825;21640.109;  -11.496;25567.275
517.412;22632.387;   -5.796;28154.959
517.998;23461.297;  -10.506;28344.111
518.585;23386.357;  -10.076;27134.219
519.171;23793.035;   -8.315;27268.576
519.758;25705.512;   -8.596;28964.129
520.344;27769.271;   -8.466;30664.494
520.930;27316.703;  -11.006;32550.605
521.516;28266.232;  -10.495;35422.895
522.103;30130.951;   -5.526;38280.004
522.689;30736.354;   -8.746;37835.117
523.275;30297.656;  -11.376;37288.613
523.861;31851.838;  -11.156;37281.395
524.447;33619.695;   -8.135;37846.949
525.033;33513.844;   -7.896;38321.949
525.619;33661.551;  -12.476;38579.285
526.205;34712.551;   -9.516;40622.875
526.791;37371.395;   -6.926;42258.836
527.377;37162.191;   -8.346;42966.902
527.963;37863.395;   -8.717;42018.949
528.549;37213.594;  -11.016;42476.828
529.135;35810.102;   -8.536;41854.852
529.721;34425.180;   -9.666;41237.711
530.306;33230.512;  -10.066;41259.445
530.892;31968.904;  -11.356;41506.047
531.478;31541.879;   -6.596;43559.613
532.063;34502.051;   -8.836;47695.563
532.649;37034.883;  -10.047;50808.324
533.235;38329.051;   -9.746;51787.500
533.820;38096.934;   -6.566;52145.035
534.406;37511.211;  -10.817;51133.488
534.991;34830.035;   -9.416;49996.805
535.576;31449.787;   -9.036;48882.852
536.162;32401.033;   -6.156;46942.285
536.747;36765.992;  -11.607;45711.746
537.333;43047.375;  -11.787;48510.180
537.918;48668.531;  -12.437;50439.891
538.503;49852.145;   -7.196;50863.711
539.088;46981.965;  -10.556;50906.922
539.673;46922.777;   -8.767;52621.965
540.259;47779.406;  -10.026;52368.094
540.844;45226.891;   -7.416;50879.109
541.429;46873.664;   -9.467;52077.777
542.014;48847.719;   -9.527;52716.695
542.599;47649.359;   -9.946;52363.281
543.184;44313.469;   -7.927;53187.137
543.769;45357.813;   -9.297;54697.605
544.354;45702.879;  -10.127;53913.914
544.938;44334.254;   -9.267;49680.164
545.523;46017.391;   -6.506;47386.277
546.108;48767.918;   -9.787;49151.949
546.693;50536.176;  -11.587;51384.637
547.278;50907.891;  -10.986;51853.254
547.862;47910.492;   -8.206;51173.750
548.447;43275.195;  -10.067;51691.395
549.031;42566.566;   -9.637;52456.703
549.616;47228.344;   -9.926;52714.516
550.201;47062.586;   -6.347;52414.598
550.785;48189.223;   -7.917;52355.059
551.370;47375.781;  -10.867;54589.453
551.954;46854.348;   -9.047;58267.348
552.538;47822.133;   -7.827;59062.176
553.123;46200.117;  -10.287;58115.285
553.707;43912.313;  -12.178;56556.285
554.291;45564.219;   -8.717;56201.668
554.876;48962.273;   -7.457;55335.762
555.460;49106.223;  -10.387;54155.703
556.044;48704.973;   -9.618;53721.484
556.628;46444.242;  -11.567;53731.016
557.212;45346.426;   -8.097;54312.531
557.796;44224.383;  -11.077;53797.773
558.380;44365.055;  -11.108;56145.984
558.964;44683.633;   -9.057;57277.930
559.548;45614.289;   -6.977;56459.641
560.132;43605.141;  -11.457;54434.543
560.716;41901.805;  -11.378;54800.617
561.300;43155.008;   -9.577;57606.945
561.884;44424.184;   -7.127;58972.445
562.467;42197.641;   -7.118;57327.570
563.051;41164.930;  -13.358;54962.434
563.635;42658.289;  -10.178;52594.473
564.219;43593.363;   -7.837;50610.410
564.802;44286.824;  -11.398;49551.180
565.386;43644.344;  -12.788;48370.953
565.969;42933.199;   -9.077;48178.871
566.553;41833.977;   -6.207;49957.305
567.136;42853.039;   -8.568;50369.594
567.720;39742.512;  -11.868;49492.004
568.303;37743.836;   -8.268;50616.352
568.887;37728.180;   -8.698;50727.148
569.470;38422.852;   -6.808;51698.379
570.053;37670.105;  -13.188;52122.078
570.637;35097.680;  -12.037;52536.438
571.220;34760.730;   -8.577;51186.098
571.803;35743.449;   -8.498;51032.762
572.386;37741.113;  -10.498;49609.887
572.969;40241.199;   -9.388;48285.926
573.552;38877.652;   -8.338;47624.285
574.135;37291.926;   -8.518;45498.641
574.718;34773.082;  -13.628;41970.434
575.301;34067.203;  -10.893;41447.137
575.884;33361.320;   -8.158;40923.836
576.467;34596.418;  -10.328;45267.723
577.050;36119.309;  -13.058;48175.543
577.633;37034.527;   -9.458;47729.328
578.216;36297.996;   -8.928;47579.793
578.799;35511.672;   -9.358;47820.996
579.381;34417.977;  -11.388;48115.551
579.964;32314.098;  -11.718;47333.766
580.547;34432.816;   -8.588;46668.969
581.129;35309.551;   -8.859;44466.141
581.712;36178.117;  -10.729;44164.922
582.294;36638.117;  -11.118;46477.855
582.877;36739.434;   -5.218;48244.254
583.459;35114.930;   -8.679;47437.895
584.042;32845.512;  -10.709;46943.219
584.624;32670.484;  -11.669;46792.227
585.206;32704.773;   -8.218;46557.250
585.789;33149.453;  -10.569;45793.773
586.371;35301.469;  -11.859;43836.391
586.953;35847.938;  -10.719;42972.492
587.536;36721.727;   -7.198;42487.211
588.118;37328.215;   -8.720;42086.414
588.700;33306.543;  -10.439;43389.930
589.282;32212.227;   -9.198;43646.039
589.864;33431.418;   -9.199;43438.109
590.446;34825.473;  -11.319;43151.926
591.028;34530.488;  -11.159;42781.867
591.610;33167.430;  -11.779;42839.098
592.192;30479.025;   -7.668;42820.402
592.774;29179.994;  -11.949;40724.277
593.356;28272.201;  -12.129;39874.789
593.937;27371.996;  -10.669;39980.648
594.519;29702.445;   -6.509;42069.633
595.101;31707.867;  -10.849;42976.031
595.683;31634.732;  -11.679;44084.441
596.264;32467.293;   -9.049;43478.797
596.846;32423.678;   -8.849;43803.672
597.427;32349.629;   -9.570;42986.934
598.009;33472.512;  -12.620;42832.219
598.591;33619.988;  -10.039;42580.086
599.172;33208.152;  -10.369;43061.805
599.753;33358.547;   -9.140;41691.469
600.335;34749.309;  -11.430;40692.520
600.916;32997.105;   -9.939;39982.422
601.498;30957.740;   -8.479;40318.617
602.079;29434.807;  -10.920;40670.609
602.660;29109.004;  -11.480;41450.898
603.241;30885.629;  -11.699;41137.738
603.823;29582.299;   -9.579;38868.797
604.404;28628.803;  -10.620;38182.785
604.985;30459.938;  -10.450;38078.047
605.566;30647.320;   -9.129;38056.633
606.147;30680.418;   -7.510;37020.418
606.728;32040.443;  -10.660;37883.359
607.309;30536.438;  -11.740;38748.273
607.890;30425.867;   -9.759;38850.230
608.471;30089.830;   -8.250;37457.918
609.051;29374.609;   -9.240;36066.457
609.632;28135.457;  -12.120;35991.074
610.213;28329.287;   -9.110;37402.641
610.794;29133.160;   -8.030;38383.363
611.374;29252.049;   -8.110;40562.387
611.955;30243.441;  -13.560;38533.727
612.536;31505.514;  -11.400;36951.789
613.116;30904.346;   -8.070;37197.891
613.697;31124.594;  -10.830;38411.125
614.277;29288.045;  -11.641;38673.938
614.858;30106.232;  -13.310;37075.863
615.438;29868.682;   -7.460;35092.906
616.019;27736.582;   -7.601;33666.301
616.599;27842.422;  -12.020;34189.023
617.179;29453.063;  -11.780;36952.047
617.760;30724.986;   -8.570;39582.574
618.340;31332.449;  -11.471;38943.977
618.920;31952.502;  -11.170;37594.156
619.500;32117.807;  -11.071;37866.938
620.080;31213.516;   -7.750;37869.043
620.660;32235.713;  -12.711;36868.617
621.241;34095.543;  -10.211;36352.309
621.821;34694.359;  -10.961;35459.520
622.401;33482.250;   -7.720;35207.414
622.980;32259.549;   -8.981;35980.422
623.560;30809.348;   -9.331;37351.328
624.140;29574.875;   -9.850;34388.582
624.720;24893.809;   -7.451;32368.764
625.300;21522.135;   -9.070;32638.629
625.880;24877.092;  -12.601;34599.035
626.459;29093.141;  -11.751;36831.738
627.039;31845.066;   -9.281;38299.098
627.619;31616.535;   -8.801;38289.574
628.198;30203.324;  -12.071;37220.695
628.778;29149.762;   -9.461;37632.563
629.357;29632.416;   -8.491;38003.012
629.937;29919.406;   -9.721;38402.039
630.516;29594.918;   -9.951;37868.801
631.096;29334.563;  -11.731;35760.410
631.675;31413.342;   -8.572;35225.219
632.254;36505.750;  -11.282;35130.289
632.834;36187.559;  -13.322;35794.570
633.413;34606.113;  -10.301;35788.922
633.992;32079.430;   -8.582;34532.863
634.571;32605.982;   -8.352;33590.113
635.151;35120.250;  -11.912;34943.863
635.730;33669.008;  -10.511;35352.523
636.309;30456.178;   -7.731;35366.605
636.888;27906.492;   -9.952;36165.637
637.467;28274.639;  -11.672;37515.902
638.046;29645.281;   -8.901;39288.695
638.625;32521.641;   -7.912;38279.699
639.204;32574.309;  -10.022;37741.598
639.782;31560.205;  -12.252;38364.551
640.361;27676.168;  -10.041;36740.621
640.940;24954.762;  -11.161;34950.082
641.519;25801.568;   -9.701;34137.398
642.097;28743.908;  -11.271;35654.258
642.676;31288.410;   -8.651;35637.957
643.255;32570.273;   -8.711;36567.074
643.833;31978.637;   -9.581;37809.434
644.412;31989.475;  -13.711;37337.293
644.990;30987.357;  -11.811;37018.531
645.569;30907.547;   -9.411;36518.469
646.147;30553.240;  -10.291;36186.430
646.726;30703.086;  -12.401;36267.688
647.304;31674.951;  -10.411;36647.625
647.882;32872.027;   -9.651;39286.742
648.461;34319.758;   -9.631;39157.703
649.039;32786.230;  -11.881;35412.883
649.617;31665.688;   -9.661;34744.918
650.195;30745.916;   -9.301;35403.098
650.773;29450.150;  -10.511;35053.797
651.352;27300.998;  -11.521;33756.816
651.930;25209.219;  -12.211;31868.773
652.508;23714.959;   -9.171;33121.551
653.086;27545.396;   -9.371;33564.793
653.663;30631.400;  -13.161;34054.668
654.241;29215.201;  -13.031;35693.309
654.819;30392.738;   -9.371;36422.906
655.397;30157.400;  -10.511;38213.484
655.975;29651.455;  -10.371;39507.625
656.553;29343.391;  -10.051;39498.223
657.130;28003.072;  -10.061;40395.480
657.708;27336.924;   -9.561;39242.020
658.286;27447.852;  -11.511;38920.020
658.863;28685.258;  -10.261;40202.898
659.441;32125.656;   -7.531;39677.938
660.018;32161.730;   -9.501;40413.355
660.596;30621.941;  -13.301;39931.414
661.173;32000.373;  -11.211;39604.531
661.750;32448.014;   -9.951;39700.070
662.328;31529.908;   -9.390;39292.809
662.905;30792.441;  -11.330;38235.648
663.482;26620.385;   -9.050;36212.305
664.060;24727.049;   -8.240;35944.945
664.637;27586.045;  -10.050;35170.785
665.214;28951.311;  -11.760;34197.523
665.791;30556.377;  -10.530;34549.520
666.368;29687.236;   -9.690;35118.578
666.945;29967.609;   -9.320;36019.418
667.522;31449.135;  -11.860;36048.438
668.099;31309.012;  -10.770;36243.914
668.676;29945.953;   -6.260;35958.875
669.253;28594.520;   -7.000;37384.730
669.830;28707.043;  -10.190;36779.629
670.407;28699.260;   -9.550;35231.289
670.984;28720.604;   -9.260;35544.270
671.560;29662.256;   -9.280;35466.867
672.137;29052.900;  -11.810;34280.863
672.714;30021.703;  -11.490;34632.863
673.290;31148.332;   -7.740;35135.422
673.867;31125.848;  -10.660;36114.480
674.443;30865.066;  -12.230;36152.859
675.020;28800.865;  -10.450;35327.238
675.596;29810.564;   -9.260;35795.176
676.173;30633.412;  -10.780;35430.355
676.749;30278.014;  -13.690;33549.516
677.326;30004.896;  -11.980;32210.012
677.902;29909.391;   -8.630;32068.871
678.478;29345.340;  -10.730;32583.891
679.054;28398.967;  -10.520;32088.928
679.631;28823.318;  -11.920;30978.848
680.207;30182.902;   -7.490;33160.887
680.783;31391.930;   -9.860;35570.363
681.359;30428.766;  -13.380;36125.184
681.935;30353.775;  -12.480;35240.922
682.511;30481.826;   -7.900;34429.961
683.087;30902.176;   -7.710;34463.680
683.663;30103.371;  -11.480;34648.898
684.239;28675.963;  -14.090;34546.457
684.815;27950.840;   -7.560;35586.375
685.390;27995.326;   -9.910;35821.895
685.966;28491.943;  -11.159;35085.871
686.542;30920.369;  -11.169;34198.230
687.118;33547.480;   -5.959;32847.707
687.693;34101.836;  -10.329;32794.027
688.269;33573.289;  -12.059;33072.367
688.844;31685.738;  -10.909;33141.664
689.420;29764.824;   -8.019;33965.742
689.995;28120.879;   -8.399;34655.523
690.571;26681.572;  -10.949;33576.742
691.146;26492.844;   -9.619;32657.219
691.722;26390.666;   -8.999;32526.979
692.297;26106.164;  -11.589;33014.617
692.872;27378.520;  -11.739;34012.254
693.448;27270.545;  -11.059;34237.434
694.023;26290.199;  -10.139;34142.672
694.598;28147.471;   -9.029;34132.031
695.173;28851.383;  -13.319;34205.250
695.748;27800.438;  -10.169;32882.488
696.323;27512.846;   -8.339;32864.906
696.898;27681.188;   -8.169;33170.004
697.473;28151.402;  -12.309;32432.984
698.048;27648.150;  -10.989;31649.303
698.623;27283.484;   -9.329;30778.141
699.198;28608.895;   -9.849;31140.119
699.773;30010.721;  -12.329;31764.299
700.348;28880.719;  -10.389;31780.816
700.922;28869.693;   -9.269;32046.375
701.497;30020.033;   -9.329;32603.574
702.072;30333.848;  -10.789;34799.871
702.646;28828.039;  -10.839;35793.172
703.221;26599.225;   -9.099;35201.590
703.795;28230.049;  -10.939;34764.527
704.370;28666.219;  -12.859;34307.367
704.944;29078.041;  -11.559;33509.887
705.519;29787.271;   -7.939;31388.584
706.093;30862.865;  -10.499;31340.104
706.668;31157.268;  -11.289;32630.281
707.242;30068.367;  -11.509;32728.779
707.816;28904.580;   -9.639;32947.238
708.390;27457.951;  -11.429;33277.855
708.965;27960.146;  -11.869;33834.336
709.539;28234.307;  -11.689;33709.273
710.113;28213.953;  -10.478;33044.313
710.687;27543.156;  -10.228;31953.992
711.261;25885.715;  -13.698;30505.949
711.835;25663.867;  -13.378;30262.369
712.409;26068.443;   -9.698;31254.447
712.983;28118.012;  -11.898;32754.986
713.557;29412.029;  -15.138;34018.824
714.131;29378.828;  -14.098;34579.625
714.704;28496.656;   -9.958;33890.262
715.278;25935.305;  -10.028;33531.102
715.852;24741.125;  -11.148;33601.660
716.425;25816.152;   -9.068;33515.117
716.999;27014.063;  -10.038;33185.555
717.573;27935.914;   -9.798;33905.996
718.146;28925.133;  -12.378;35199.293
718.720;29020.246;  -11.918;35060.551
719.293;28994.393;   -8.088;34973.230
719.867;32006.406;  -10.888;36394.449
720.440;31692.471;  -11.938;36663.008
721.013;29780.361;  -12.818;35102.426
721.587;28196.316;  -10.298;33985.266
722.160;26944.879;  -10.048;33524.965
722.733;25912.676;  -12.108;32987.043
723.306;26192.121;  -10.818;33066.301
723.880;28280.086;   -8.908;33399.500
724.453;30518.352;   -9.878;33468.297
725.026;29868.156;  -11.188;33816.637
725.599;27060.098;  -11.678;32797.996
726.172;26894.914;   -9.618;33187.434
726.745;27890.801;   -8.258;35136.613
727.318;29185.162;  -12.978;35751.730
727.891;29953.020;  -12.148;35890.430
728.463;29465.447;   -8.968;34822.090
729.036;28074.152;  -10.188;32895.086
729.609;28607.957;  -11.788;31823.225
730.182;25846.629;  -11.788;31445.283
730.754;23574.555;  -10.268;32373.223
731.327;24078.248;   -9.998;33676.820
731.900;24484.797;  -12.228;33417.000
732.472;24951.031;  -13.848;31978.498
733.045;26204.254;   -8.698;30368.777
733.617;26238.711;  -10.607;30574.215
734.190;26737.865;  -11.507;31280.975
734.762;24588.111;  -13.647;31674.412
735.334;22768.910;   -9.767;31247.291
735.907;23201.008;   -9.897;29876.211
736.479;23432.867;  -11.637;29808.488
737.051;23078.643;   -9.567;30233.547
737.623;23605.469;   -8.187;31469.086
738.195;23900.680;  -11.187;31784.225
738.768;25904.934;  -12.337;32120.523
739.340;26895.371;  -12.227;32094.342
739.912;26113.422;  -11.057;31312.680
740.484;24654.303;  -10.207;31946.238
741.056;22899.299;  -10.047;32984.059
741.628;23833.611;  -13.627;33897.715
742.199;25867.242;   -7.177;33213.016
742.771;24737.230;  -10.797;31369.113
743.343;22773.531;  -11.997;31865.473
743.915;21828.820;  -12.867;32388.631
744.487;21767.346;   -7.617;31079.568
745.058;21770.176;   -9.557;30570.107
745.630;22367.689;   -9.877;29970.127
746.201;23746.445;  -14.177;29186.766
746.773;24682.840;   -9.237;28805.723
747.344;24576.439;   -9.847;29591.223
747.916;22722.855;  -11.657;31412.201
748.487;22672.678;  -10.587;32194.898
749.059;24052.830;   -8.707;32533.719
749.630;24839.641;  -10.537;32158.518
750.201;23931.582;  -11.687;30855.395
750.773;22196.090;  -11.647;28622.555
751.344;21782.994;   -7.147;28405.732
751.915;22600.141;   -9.757;28461.551
752.486;22772.320;  -12.427;27842.850
753.057;20944.770;  -12.227;27845.008
753.628;19750.994;  -10.417;27728.107
754.199;20592.293;  -11.767;27381.086
754.770;21615.516;  -11.187;25882.203
755.341;21862.910;  -10.507;25886.184
755.912;22114.670;   -9.387;26050.861
756.483;21735.836;  -10.647;26798.779
757.054;19885.180;  -11.837;27048.238
757.625;18321.203;  -12.716;26294.838
758.195;18055.369;   -9.666;26142.076
758.766;17793.561;   -8.656;26392.234
759.337;18385.598;  -12.856;26334.594
759.907;19809.359;  -13.366;27579.652
760.478;20728.068;   -8.576;28352.770
761.048;20191.086;  -10.526;27325.088
761.619;19151.145;  -11.116;26460.428
762.189;19205.846;  -12.136;26029.826
762.760;20294.184;   -9.456;26430.145
763.330;21495.549;   -7.136;26670.902
763.900;21144.932;  -11.786;26603.021
764.471;18753.344;  -11.546;25542.740
765.041;17232.732;   -8.096;24358.459
765.611;16952.502;   -8.876;23991.297
766.181;17252.385;  -12.196;24470.236
766.751;18488.385;  -11.636;24845.975
767.321;18312.727;  -10.156;24533.633
767.891;16191.981;  -11.766;24916.492
768.461;15556.236;  -14.936;24776.771
769.031;16011.832;  -12.356;24757.988
769.601;17710.365;   -7.526;24181.088
770.171;17920.875;  -10.766;23670.387
770.741;17065.957;  -13.176;22960.045
771.311;17068.234;  -10.616;22917.523
771.880;17680.281;   -9.576;23562.941
772.450;17671.270;  -10.336;24216.500
773.020;17580.527;  -13.516;24140.398
773.589;16639.803;  -13.466;24414.857
774.159;15905.037;   -8.686;23858.717
774.729;15613.139;   -9.476;22942.135
775.298;15347.419;  -13.666;22324.033
775.867;14910.528;  -11.716;21140.313
776.437;15075.891;   -9.906;20838.092
777.006;14825.504;  -12.166;20599.510
777.576;14379.036;  -12.356;20508.809
778.145;14327.214;  -11.646;20732.947
778.714;14461.431;   -8.226;21062.465
779.283;14023.437;   -9.556;20949.664
779.853;13489.379;  -14.116;20508.623
780.422;13883.791;  -11.506;20649.082
780.991;13461.816;   -9.556;21527.520
781.560;12148.498;   -9.095;22632.658
782.129;11922.735;  -12.135;23048.277
782.698;11914.695;  -10.865;23438.555
783.267;11543.548;   -9.335;23267.734
783.836;11455.499;  -11.045;22415.133
784.404;12429.189;  -13.865;20443.152
784.973;13135.332;  -13.095;19699.150
785.542;13241.911;  -11.575;19763.828
786.111;13064.779;   -9.705;20341.408
786.679;12586.148;  -12.105;20207.967
787.248;12286.157;  -12.455;19516.465
787.817;12061.396;  -11.535;18900.363
788.385;11689.246;   -9.765;17879.121
788.954;11122.516;  -14.005;17658.301
789.522;10465.799;  -11.955;17788.879
790.090;10818.499;  -10.135;18118.277
790.659;11462.811;  -10.975;18338.736
791.227;11127.794;  -13.375;18508.615
791.795;11523.128;  -12.375;17898.254
792.364;11834.405;  -10.725;17295.133
792.932;12165.656;   -9.715;16822.051
793.500;12489.291;  -12.675;17040.148
794.068;12740.686;  -13.495;17179.787
794.636;12917.149;  -10.885;16664.246
795.204;12202.467;  -11.045;16524.545
795.772;12114.138;  -13.175;17274.564
796.340;11611.989;  -12.445;17891.002
796.908;11361.690;   -9.735;17648.561
797.476;11255.196;   -9.815;17064.080
798.044;10869.768;  -13.985;16672.777
798.612;10138.483;  -13.115;17023.996
799.180; 9750.352;  -10.185;16561.615
799.747; 9591.133;   -9.055;15962.773
800.315; 9269.707;  -12.385;15296.992
800.883; 9087.563;  -15.035;14801.771
801.450; 9304.091;  -10.365;14534.430
802.018; 9411.231;   -9.855;14173.248
802.585; 9400.996;  -11.905;14029.547
803.153; 9388.120;  -11.585;13836.846
803.720; 9209.983;   -9.095;13567.324
804.287; 8700.648;   -9.135;13360.622
804.855; 8164.614;  -11.604;13681.981
805.422; 8044.370;  -11.794;13536.560
805.989; 8137.660;  -10.734;13355.958
806.556; 8347.101;  -10.444;13747.896
807.124; 8637.253;  -12.764;13987.376
807.691; 8613.811;  -12.964;14038.674
808.258; 8430.757;  -11.134;14120.152
808.825; 8051.185;   -9.854;13860.111
809.392; 8151.305;  -10.504;13268.790
809.959; 7731.852;  -13.054;12680.389
810.526; 7240.590;   -8.294;12427.308
811.093; 7189.991;   -8.394;12030.105
811.659; 7811.795;  -12.304;11653.664
812.226; 8422.599;  -13.944;11637.183
812.793; 8201.641;  -10.484;11611.521
813.360; 7540.308;  -10.144;11885.181
813.926; 7174.832;  -11.684;12770.539
814.493; 6983.194;  -13.644;12677.638
815.060; 6608.810;   -9.724;11974.336
815.626; 6542.461;   -9.854;11594.715
816.193; 6894.384;  -13.254;11579.474
816.759; 6933.917;  -13.204;11666.972
817.325; 6970.104;   -9.434;11325.530
817.892; 7343.750;  -10.134;11105.369
818.458; 7774.838;  -13.474;10843.928
819.024; 7417.175;  -11.854;10714.406
819.591; 7128.702;  -10.244;10469.165
820.157; 6941.083;  -10.704;10235.523
820.723; 6415.902;  -12.324;10847.563
821.289; 6097.607;   -9.444;11040.980
821.855; 6029.875;   -8.374;10357.100
822.421; 6003.333;  -10.234; 9978.918
822.987; 5956.224;  -13.294; 9754.177
823.553; 5559.486;  -10.884;10065.755
824.119; 5346.800;   -8.884;10036.294
824.685; 5500.498;   -6.784;10029.192
825.251; 5657.076;  -12.004;10199.230
825.816; 5612.436;  -11.474; 9820.189
826.382; 5309.851;   -9.174; 9297.248
826.948; 5433.987;   -9.214; 9381.347
827.513; 5854.253;  -10.774; 9450.726
828.079; 5749.940;  -11.924; 9472.444
828.645; 5133.822;  -10.543; 9292.643
829.210; 4911.507;  -10.533; 9065.341
829.776; 4865.920;  -10.753; 9132.620
830.341; 4749.108;  -10.173; 9092.878
830.906; 4897.935;  -10.743; 9078.557
831.472; 5247.950;  -11.113; 8534.535
832.037; 5081.375;  -10.603; 8677.874
832.602; 4579.997;  -13.323; 8628.692
833.167; 4315.156;  -10.823; 8879.031
833.733; 4269.173;  -10.113; 9189.790
834.298; 4415.962;  -13.583; 9052.608
834.863; 4562.702;  -12.703; 8895.087
835.428; 4592.319;  -10.523; 8824.266
835.993; 4426.312;   -6.963; 8845.385
836.558; 4228.891;  -10.763; 8888.563
837.123; 4289.126;   -9.903; 8966.582
837.688; 4549.812;   -9.913; 8617.860
838.253; 4831.133;  -10.283; 8590.699
838.817; 5031.824;  -12.963; 8443.797
839.382; 4956.008;  -14.243; 8799.356
839.947; 4657.135;  -10.733; 8810.595
840.511; 4351.152;   -9.383; 8796.394
841.076; 3971.288;  -12.563; 8347.231
841.641; 4021.586;  -12.953; 8224.330
842.205; 4124.555;   -7.043; 8223.349
842.770; 4142.030;   -8.163; 8622.107
843.334; 4264.973;  -12.503; 8410.386
843.898; 4218.346;  -11.693; 8337.465
844.463; 4209.003;  -10.203; 8506.283
845.027; 4000.215;   -9.533; 8280.962
845.591; 3810.638;  -13.443; 8231.141
846.156; 3816.404;  -13.143; 7969.179
846.720; 3748.002;   -9.433; 7768.278
847.284; 3655.900;  -11.033; 7630.957
847.848; 3513.632;  -10.403; 7472.395
848.412; 3403.872;  -11.553; 7437.394
848.976; 3434.626;   -8.393; 7674.592
849.540; 3351.306;   -8.713; 7836.011
850.104; 3389.446;  -12.463; 7913.669
850.668; 3739.203;  -12.973; 7694.508
851.232; 3917.333;  -10.793; 7756.887
851.796; 3794.813;  -10.662; 7926.545
852.359; 3475.447;  -13.082; 7827.844
852.923; 3289.660;  -12.192; 7641.163
853.487; 3162.063;  -11.912; 7342.501
854.050; 3151.675;  -10.892; 7042.820
854.614; 3276.779;  -13.992; 7151.338
855.177; 3372.563;  -11.732; 7105.077
855.741; 3405.783;   -8.962; 6989.675
856.304; 3298.159;   -9.442; 6596.634
856.868; 3279.480;  -14.192; 6356.272
857.431; 3413.764;  -12.702; 6468.571
857.995; 3548.640;   -9.942; 6373.210
858.558; 3586.752;   -9.112; 6324.448
859.121; 3323.105;  -12.932; 6408.327
859.684; 3134.117;  -13.442; 6347.886
860.247; 3231.889;  -10.632; 6321.264
860.810; 3279.678;  -11.272; 6301.903
861.374; 3043.257;   -9.832; 6607.881
861.937; 2772.987;  -11.762; 6408.200
862.500; 2773.950;   -9.722; 6572.639
863.062; 2917.793;  -10.512; 6387.297
863.625; 3048.260;  -11.232; 6190.836
864.188; 3212.961;  -14.112; 5807.254
864.751; 3306.402;  -11.302; 5682.413
865.314; 3230.718;  -10.112; 5547.492
865.876; 2999.682;  -12.182; 5500.150
866.439; 2959.030;  -10.722; 5415.909
867.002; 2925.219;   -9.252; 5501.567
867.564; 2743.781;   -9.572; 5413.946
868.127; 2531.854;  -13.142; 5160.325
868.689; 2407.017;  -12.902; 5133.183
869.252; 2294.519;   -9.732; 5252.382
869.814; 2185.008;   -9.432; 5297.141
870.377; 2180.724;  -11.552; 5390.919
870.939; 2242.104;   -9.052; 5599.898
871.501; 2326.644;  -10.982; 5248.336
872.063; 2353.204;  -12.292; 4854.235
872.626; 2291.516;  -14.912; 4817.074
873.188; 2271.593;  -13.112; 4987.732
873.750; 2247.805;  -13.442; 4868.651
874.312; 2172.074;   -9.402; 4779.330
874.874; 2089.799;  -11.062; 4866.348
875.436; 2008.815;  -13.931; 4718.887
875.998; 2005.183;   -9.561; 4660.005
876.560; 2037.028;  -11.321; 4462.964
877.122; 1978.344;  -12.221; 4145.042
877.683; 1870.354;  -12.191; 4056.481
878.245; 1785.733;  -12.101; 3950.740
878.807; 1822.465;   -8.971; 4058.958
879.369; 1854.862;  -12.071; 3954.677
879.930; 1770.043;  -14.621; 3941.495
880.492; 1700.779;  -10.311; 4067.014
881.053; 1665.081;  -10.901; 3859.633
881.615; 1564.528;  -14.411; 3776.071
882.176; 1467.071;  -13.761; 3734.750
882.738; 1414.752;   -9.181; 3678.489
883.299; 1391.617;  -11.791; 3405.407
883.860; 1374.909;  -13.121; 3351.106
884.422; 1355.262;  -11.211; 3394.044
884.983; 1314.956;  -10.091; 3166.443
885.544; 1267.050;   -8.461; 3189.802
886.105; 1232.541;  -12.361; 3160.360
886.666; 1167.454;  -14.141; 3093.059
887.227; 1007.575;  -11.361; 2941.957
887.788;  785.219;  -11.401; 2974.836
888.349;  606.405;  -13.791; 2721.214
888.910;  545.884;  -13.191; 2696.493
889.471;  544.743;   -9.881; 2560.172
890.032;  555.864;   -9.881; 2558.190
890.593;  569.212;  -10.371; 2567.669
891.153;  584.837;  -13.301; 2460.307
891.714;  582.391;  -11.431; 2372.046
892.275;  578.649;  -11.291; 2309.505
892.835;  569.429;  -11.471; 2382.543
893.396;  540.105;  -11.541; 2295.502
893.956;  500.880;  -11.181; 2162.420
894.517;  469.804;  -11.741; 2125.439
895.077;  467.515;  -11.671; 2086.978
895.638;  473.644;  -11.311; 2126.316
896.198;  452.790;   -9.831; 1838.275
896.758;  418.030;   -8.421; 1892.813
897.319;  390.776;  -12.351; 1792.232
897.879;  378.500;  -13.511; 1762.751
898.439;  356.513;  -12.001; 1661.149
898.999;  333.991;  -10.180; 1781.468
899.559;  325.981;  -12.030; 1703.347
900.119;  321.872;  -15.710; 1537.525
900.679;  319.646;   -8.900; 1638.384
901.239;  306.067;   -8.340; 1527.902
901.799;  298.870;  -13.910; 1456.441
902.359;  291.554;  -13.460; 1357.140
902.919;  285.895;  -11.490; 1331.118
903.479;  273.778;  -12.110; 1317.257
904.038;  255.080;  -11.720; 1262.595
904.598;  240.305;  -13.610; 1152.034
905.158;  236.906;  -11.040; 1240.893
905.717;  231.087;  -10.900; 1233.691
906.277;  219.841;  -15.080; 1217.330
906.836;  210.287;  -13.380; 1222.408
907.396;  201.997;  -10.780; 1193.047
907.955;  194.607;   -8.500; 1182.526
908.515;  189.606;  -12.760; 1099.364
909.074;  184.018;  -11.900; 1092.863
909.633;  179.246;   -8.950; 1069.121
910.192;  175.646;   -8.770; 1196.460
910.752;  170.181;  -12.390; 1029.960
911.311;  165.997;  -13.680; 1009.780
911.870;  163.332;  -12.370;  971.460
912.429;  164.768;  -10.900; 1094.080
912.988;  163.320;  -11.690; 1081.060
913.547;  159.413;  -13.240;  940.380
914.106;  155.359;  -11.990;  999.420
914.665;  152.313;   -9.990;  984.020
915.224;  150.448;  -12.880; 1035.760
915.782;  151.534;  -12.350;  922.560
916.341;  150.894;   -9.110; 1049.840
916.900;  146.381;   -9.270;  925.260
917.458;  144.223;  -13.240;  884.220
918.017;  144.502;  -13.550;  942.600
918.576;  144.523;  -12.320;  904.440
919.134;  142.868;  -11.490;  837.980
919.693;  140.685;  -13.670;  893.060
920.251;  139.054;  -15.470;  876.500
920.809;  138.731;  -11.290;  839.580
921.368;  138.037;  -10.210;  885.360
921.926;  137.306;  -12.140;  842.940
922.484;  135.909;  -13.080;  903.360
923.042;  135.723;  -11.720;  880.340
923.601;  138.712;   -7.480;  998.680
924.159;  136.612;  -11.570;  935.560
924.717;  133.015;  -13.840;  841.080
925.275;  132.593;  -10.640;  903.240
925.833;  132.193;  -11.540;  779.320
926.391;  133.389;  -12.960;  938.380
926.949;  131.643;  -14.130;  857.680
927.506;  132.071;  -11.750;  903.500
928.064;  131.885;  -10.250;  877.580
928.622;  131.437;  -13.030;  880.100
929.180;  131.335;  -13.400;  814.180
929.737;  131.989;  -10.700;  808.540
930.295;  134.622;  -10.070;  928.480
930.853;  136.940;  -11.960;  849.100
931.410;  137.883;  -13.120;  821.120
931.968;  137.661;  -10.770;  940.660
932.525;  136.723;  -10.680;  909.380
933.082;  137.131;  -13.130;  811.440
933.640;  138.230;  -13.210;  925.900
934.197;  136.372;  -11.060;  886.360
934.754;  137.284;   -9.580;  897.780
935.312;  140.932;  -14.000;  863.340
935.869;  144.820;  -10.710; 1012.980
936.426;  145.521;   -9.860;  872.800
936.983;  145.838;   -9.710;  889.020
937.540;  146.071;  -13.990;  838.280
938.097;  144.989;  -14.040;  940.120
938.654;  146.696;  -10.310;  898.860
939.211;  147.598;  -10.560;  952.480
939.768;  151.836;  -13.900;  915.420
940.324;  155.464;  -14.760;  904.200
940.881;  156.950;  -10.370;  878.500
941.438;  157.526;   -8.260; 1021.200
941.995;  152.730;  -12.540;  992.560
942.551;  149.847;  -14.670;  875.620
943.108;  150.043;  -10.450;  937.920
943.664;  152.480;  -10.750;  869.340
944.221;  155.657;  -11.550; 1088.140
944.777;  152.683;  -14.770;  869.680
945.334;  153.618;  -12.820;  884.840
945.890;  155.093;  -10.130;  946.480
946.446;  155.129;  -13.470;  947.020
947.003;  157.571;  -12.120;  964.940
947.559;  160.138;   -9.980; 1063.040
948.115;  159.878;   -9.080; 1026.540
948.671;  157.495;  -10.830;  967.300
949.227;  155.178;  -12.440;  859.560
949.783;  153.233;  -12.910;  858.900
950.339;  154.416;  -10.270;  991.000
950.895;  155.188;  -13.630; 1023.840
951.451;  153.907;  -15.100;  925.280
952.007;  152.489;  -11.330;  998.540
952.563;  152.436;  -10.580;  937.780
953.118;  151.258;  -13.440;  904.940
953.674;  150.896;  -12.710;  935.780
954.230;  150.614;  -10.350;  949.640
954.785;  148.109;   -9.190;  936.640
955.341;  146.757;  -11.200;  998.160
955.897;  144.714;  -16.560;  834.660
956.452;  146.156;  -12.570;  953.840
957.008;  145.516;   -7.970; 1083.640
957.563;  144.002;  -11.940; 1009.540
958.118;  138.330;  -13.450;  877.700
958.674;  138.768;  -12.030;  946.780
959.229;  139.733;   -9.410; 1013.980
959.784;  137.763;  -12.000;  832.400
960.339;  137.189;  -14.780; 1001.280
960.894;  133.154;   -9.860;  963.760
961.449;  129.278;   -9.970;  859.960
962.004;  130.157;  -10.900; 1212.840
962.559;  124.051;  -13.150;  860.140
963.114;  121.684;  -13.740;  742.480
963.669;  121.222;   -9.820;  915.500
964.224;  119.401;  -13.890;  874.340
964.779;  118.438;  -12.600;  828.420
965.334;  119.525;  -10.950; 1017.860
965.888;  118.403;  -11.170;  875.360
966.443;  121.114;  -12.540;  972.380
966.998;  121.563;  -15.780;  819.460
967.552;  120.797;   -9.760;  908.380
968.107;  116.768;   -9.060;  868.300
968.661;  117.213;  -11.950;  922.440
969.216;  118.563;  -12.800;  856.280
969.770;  118.650;  -11.210;  917.200
970.324;  116.578;  -11.610;  923.140
970.879;  113.854;  -11.370;  947.180
971.433;  110.561;  -12.540;  952.720
971.987;  106.351;  -11.320;  895.340
972.541;  102.799;  -10.720;  917.100
973.095;  102.233;   -9.680; 1009.460
973.649;  100.771;  -11.440;  809.480
974.203;  100.606;  -11.210;  829.040
974.757;  100.411;  -10.240;  855.220
975.311;  100.686;  -13.720;  872.600
975.865;  100.591;  -13.770;  881.820
976.419;   98.626;  -11.690;  857.400
976.973;   98.026;   -9.510;  849.620
977.526;   99.551;  -12.620;  949.920
978.080;   98.696;  -12.010;  796.780
978.634;  100.216;  -10.170;  921.320
979.187;   97.370;   -9.020;  905.400
979.741;   95.548;   -9.820; 1018.380
980.294;   91.648;  -14.870;  789.160
980.848;   88.450;  -12.380;  717.220
981.401;   89.912;  -10.350;  816.540
981.955;   92.864;  -13.720;  844.300
982.508;   91.651;  -11.490;  746.340
983.061;   92.345;  -10.000;  915.260
983.615;   88.517;  -11.480;  798.800
984.168;   85.211;  -13.220;  770.080
984.721;   84.853;  -13.960;  880.760
985.274;   83.268;  -10.870;  867.500
985.827;   82.318;   -9.790;  834.220
986.380;   79.765;  -13.120;  721.340
986.933;   79.454;  -12.450;  864.800
987.486;   77.585;  -10.210;  861.920
988.039;   77.319;   -8.430;  863.100
988.591;   75.093;  -10.520;  893.260
989.144;   72.596;  -14.860;  737.260
989.697;   72.036;  -13.080;  758.740
990.250;   72.306;  -10.150;  858.100
990.802;   70.600;  -13.430;  755.860
991.355;   72.173;  -12.750;  974.880
991.907;   69.864;  -12.040;  864.320
992.460;   67.554;  -11.330;  753.760
993.012;   67.044;  -13.610;  749.540
993.565;   65.488;  -13.460;  711.360
994.117;   67.224;   -9.360;  950.780
994.669;   63.853;  -11.300;  701.320
995.221;   62.527;  -13.540;  791.920
995.774;   60.505;  -13.430;  787.580
996.326;   58.638;  -12.520;  740.220
996.878;   58.480;  -10.950;  838.420
997.430;   56.073;  -14.300;  699.860
997.982;   55.413;  -13.760;  750.140
998.534;   55.500;  -11.530;  739.060
999.086;   53.300;  -10.310;  738.220
999.638;   52.799;  -12.530;  661.380
1000.190;   51.712;  -11.840;  699.320
1000.741;   51.579;  -10.260;  742.700
1001.293;   51.583;   -8.860;  686.020
1001.845;   50.091;  -13.700;  676.640
1002.396;   50.735;  -12.100;  743.400
1002.948;   49.204;  -12.760;  737.400
1003.500;   48.383;  -10.380;  723.780
1004.051;   48.416;  -11.900;  907.580
1004.603;   46.208;  -12.250;  791.820
1005.154;   43.999;  -13.210;  608.980
1005.705;   41.790;  -10.950;  723.960
1006.257;   41.742;  -13.880;  707.220
1006.808;   40.755;  -12.840;  685.460
1007.359;   41.809;  -10.570;  763.240
1007.910;   39.839;   -9.620;  646.640
1008.461;   39.465;  -13.630;  732.940
1009.013;   38.175;  -17.200;  588.340
1009.564;   39.410;  -10.200;  793.520
1010.115;   37.223;  -12.570;  597.040
1010.665;   37.254;  -15.150;  602.160
1011.216;   37.075;  -14.480;  667.920
1011.767;   36.878;  -11.340;  697.920
1012.318;   37.430;   -9.780;  736.980
1012.869;   35.087;  -12.380;  679.000
1013.419;   35.328;  -15.560;  603.120
1013.970;   35.237;  -11.010;  666.640
1014.521;   34.552;  -11.610;  620.620
1015.071;   35.341;  -13.450;  670.380
1015.622;   34.378;  -13.870;  635.460
1016.172;   33.871;  -11.610;  596.820
1016.723;   33.714;  -12.120;  614.380
1017.273;   33.216;  -13.620;  604.160
1017.823;   33.328;  -14.140;  650.340
1018.374;   33.446;  -12.800;  611.760
1018.924;   32.546;  -12.340;  716.880
1019.474;   32.935;  -11.410;  718.880
1020.024;   31.513;  -14.770;  657.580
1020.574;   32.486;   -9.780;  726.160
1021.124;   32.584;   -8.560;  673.580
1021.674;   30.445;  -15.190;  559.120
1022.224;   32.584;  -13.530;  708.940
1022.774;   32.025;  -13.280;  668.820
1023.324;   31.863;  -10.690;  753.520
1023.874;   32.955;  -10.240;  875.760
1024.423;   31.104;  -12.540;  613.700
1024.973;   30.590;  -10.010;  610.760
1025.523;   29.378;  -10.550;  620.960
1026.072;   29.473;  -13.560;  606.420
1026.622;   29.499;  -15.120;  675.740
1027.172;   30.553;  -11.260;  715.660
1027.721;   29.395;  -11.410;  601.220
1028.270;   29.345;  -13.530;  663.400
1028.820;   29.277;  -13.680;  638.080
1029.369;   29.036;  -13.520;  612.700
1029.918;   28.805;  -10.980;  649.840
1030.468;   28.302;  -13.530;  564.780
1031.017;   28.856;  -13.170;  634.800
1031.566;   27.887;  -12.200;  608.900
1032.115;   27.943;   -9.960;  694.500
1032.664;   26.410;  -13.210;  596.480
1033.213;   27.631;  -12.500;  735.420
1033.762;   27.248;  -11.910;  635.620
1034.311;   27.278;   -9.640;  677.220
1034.860;   27.301;  -13.310;  691.000
1035.408;   26.904;  -11.830;  722.720
1035.957;   27.743;  -12.000;  719.540
1036.506;   25.195;  -11.690;  530.800
1037.055;   27.553;  -10.990;  844.320
1037.603;   26.377;  -15.120;  664.000
1038.152;   24.627;  -12.450;  534.760
1038.700;   24.931;  -10.560;  585.740
1039.249;   25.015;  -11.080;  681.220
1039.797;   25.540;  -12.540;  633.360
1040.345;   25.618;  -11.920;  705.420
1040.894;   25.012;  -11.410;  625.300
1041.442;   24.117;  -14.320;  632.200
1041.990;   23.624;  -16.240;  559.160
1042.538;   24.265;  -11.680;  536.180
1043.087;   23.888;  -10.760;  570.860
1043.635;   24.228;  -11.850;  670.500
1044.183;   23.587;  -15.480;  586.400
1044.731;   22.836;  -11.770;  576.000
1045.279;   22.598;  -13.090;  674.920
1045.827;   24.621;  -12.440;  892.400
1046.374;   22.402;  -13.840;  515.420
1046.922;   21.804;  -13.220;  590.580
1047.470;   23.460;  -10.230;  691.300
1048.018;   22.469;  -14.590;  647.960
1048.565;   23.538;  -12.050;  708.600
1049.113;   22.053;  -11.650;  557.000
1049.660;   22.540;  -10.510;  629.660
1050.208;   23.244;  -13.310;  675.640
1050.755;   21.508;  -15.900;  606.580
1051.303;   21.780;  -11.430;  686.820
1051.850;   21.439;   -8.480;  635.120
1052.397;   19.739;  -15.010;  473.960
1052.945;   19.867;  -13.960;  617.760
1053.492;   22.211;  -13.150;  741.840
1054.039;   21.954;   -9.630;  720.180
1054.586;   20.465;  -13.680;  557.240
1055.133;   20.847;  -14.570;  693.140
1055.680;   20.980;  -13.820;  646.620
1056.227;   20.266;  -11.730;  542.780
1056.774;   21.548;  -12.480;  794.980
1057.321;   19.458;  -13.930;  523.260
1057.868;   19.832;  -11.690;  651.320
1058.415;   19.670;   -9.520;  651.980
1058.961;   19.658;  -13.160;  678.940
1059.508;   19.797;  -12.920;  643.820
1060.055;   19.915;  -11.920;  581.780
1060.601;   20.016;  -11.500;  624.300
1061.148;   19.475;  -14.330;  616.820
1061.694;   18.345;  -16.870;  592.580
1062.241;   19.176;  -10.330;  596.320
1062.787;   19.133;  -10.620;  663.140
1063.334;   19.624;  -10.110;  808.560
1063.880;   18.927;  -13.400;  668.360
1064.426;   19.327;  -10.680;  706.820
1064.972;   17.895;   -9.920;  601.340
1065.518;   16.624;  -10.980;  566.640
1066.065;   18.031;  -14.890;  624.460
1066.611;   17.632;  -12.870;  598.800
1067.157;   17.768;  -12.950;  641.860
1067.703;   17.626;  -13.540;  668.480
1068.249;   17.637;  -13.540;  605.220
1068.794;   16.519;  -12.600;  626.880
1069.340;   16.158;  -10.620;  578.960
1069.886;   17.408;  -12.830;  590.700
1070.432;   16.040;  -14.870;  541.720
1070.977;   16.452;  -11.980;  601.080
1071.523;   16.945;   -8.200;  573.060
1072.068;   16.453;  -12.330;  582.000
1072.614;   16.148;  -16.370;  527.760
1073.160;   17.154;  -11.100;  687.040
1073.705;   15.814;  -10.480;  572.520
1074.250;   15.332;  -14.520;  559.900
1074.796;   15.942;  -11.460;  655.160
1075.341;   15.907;  -11.950;  664.100
1075.886;   15.875;  -11.460;  594.240
1076.431;   15.602;  -13.770;  649.880
1076.976;   14.879;  -12.680;  639.220
1077.521;   14.981;  -13.170;  583.080
1078.067;   14.884;  -10.860;  579.400
1078.612;   14.929;  -13.920;  661.620
1079.156;   15.644;  -13.880;  601.540
1079.701;   15.585;  -13.120;  693.260
1080.246;   15.301;   -9.940;  696.300
1080.791;   15.133;  -14.740;  625.020
1081.336;   14.428;  -13.750;  659.320
1081.880;   14.749;  -13.400;  649.680
1082.425;   13.669;  -12.220;  573.480
1082.970;   14.832;  -11.610;  717.040
1083.514;   13.675;  -13.580;  597.000
1084.059;   12.815;  -12.810;  586.720
1084.603;   13.162;  -12.320;  565.840
1085.147;   13.343;  -13.190;  645.220
1085.692;   14.579;  -12.480;  716.800
1086.236;   12.238;  -13.020;  503.140
1086.780;   14.448;   -9.190;  751.440
1087.325;   12.957;  -12.480;  654.620
1087.869;   13.349;  -12.450;  610.700
1088.413;   13.532;  -12.240;  705.040
1088.957;   11.408;   -9.020;  543.400
1089.501;   13.450;  -10.320;  766.640
1090.045;   12.184;  -12.720;  726.480
1090.589;   10.934;  -13.690;  569.920
1091.133;   12.363;  -10.020;  673.340
1091.676;   12.257;  -12.330;  591.940
1092.220;   11.950;  -14.970;  600.920
1092.764;   12.817;  -12.430;  706.960
1093.307;   12.037;   -9.800;  673.780
1093.851;   10.740;  -14.970;  556.540
1094.395;   11.652;  -15.310;  683.140
1094.938;   11.108;  -10.370;  632.520
1095.482;   11.576;  -11.050;  559.800
1096.025;   11.314;  -11.840;  710.880
1096.568;   12.208;  -12.840;  779.280
1097.112;    9.806;  -14.700;  508.180
1097.655;   11.068;   -8.720;  603.000
1098.198;    9.428;  -13.610;  600.180
1098.741;   10.021;  -13.350;  612.860
1099.285;   11.128;  -11.230;  657.300
1099.828;    8.943;  -11.840;  439.400
1100.371;   10.472;  -10.840;  608.160
1100.914;   10.149;  -14.190;  682.660
1101.457;   10.127;  -11.240;  679.900
1101.999;    8.998;  -11.270;  584.680
1102.542;   10.496;  -11.480;  641.440
1103.085;    9.573;  -11.750;  658.500
1103.628;   10.093;  -11.400;  762.060
1104.170;    8.982;  -10.490;  588.280
1104.713;    9.880;  -10.600;  646.700
1105.256;    8.576;  -14.360;  557.440
1105.798;    8.552;  -13.210;  499.980
1106.341;   10.445;  -10.270;  728.900
1106.883;    8.927;  -12.200;  521.340
1107.425;    9.286;  -13.110;  668.180
1107.968;    8.194;  -12.840;  612.380
1108.510;    8.058;   -6.480;  684.960
1109.052;    6.926;  -13.940;  612.620
1109.594;    7.940;  -13.690;  554.440
1110.136;    8.584;  -11.880;  643.220
1110.679;    7.315;   -9.500;  633.080
1111.221;    8.088;  -14.160;  604.460
1111.763;    7.737;  -13.980;  559.220
1112.304;    7.597;  -13.880;  547.140
1112.846;    8.127;  -12.210;  666.240
1113.388;    9.826;  -11.390;  942.180
1113.930;    7.586;  -14.540;  694.200
1114.472;    6.877;  -12.640;  606.540
1115.013;    6.138;  -11.620;  551.280
1115.555;    6.119;  -13.640;  587.100
1116.097;    5.672;  -15.380;  579.480
1116.638;    7.363;  -12.640;  684.600
1117.180;    7.411;   -9.850;  667.740
1117.721;    6.728;  -13.690;  568.580
1118.262;    7.219;  -12.680;  677.960
1118.804;    7.295;  -12.530;  637.340
1119.345;    5.944;  -11.690;  578.400
1119.886;    6.879;  -13.380;  704.040
1120.427;    5.203;  -14.070;  589.020
1120.969;    5.866;  -13.500;  597.920
1121.510;    5.182;  -11.480;  563.060
1122.051;    5.604;  -12.830;  723.580
1122.592;    5.325;  -14.290;  655.420
1123.133;    4.780;  -12.400;  547.940
1123.673;    6.203;  -10.130;  706.480
1124.214;    5.786;  -12.930;  612.460
1124.755;    6.135;  -14.380;  639.460
1125.296;    6.037;  -14.000;  627.320
1125.836;    5.643;  -10.070;  691.500
1126.377;    4.440;  -12.640;  599.660
1126.918;    5.340;  -12.960;  614.980
1127.458;    4.813;  -13.350;  622.220
1127.999;    5.483;  -10.750;  656.980
1128.539;    5.505;  -12.350;  694.240
1129.079;    4.456;  -14.860;  632.720
1129.620;    4.444;  -13.840;  558.100
1130.160;    3.838;  -12.330;  539.480
1130.700;    5.350;  -14.530;  640.840
1131.240;    5.264;  -12.530;  643.700
1131.781;    4.738;  -14.450;  619.680
1132.321;    4.208;   -9.790;  599.120
1132.861;    3.146;  -14.860;  564.200
1133.401;    2.659;  -14.290;  593.940
1133.941;    3.707;  -11.750;  626.280
1134.481;    3.545;   -9.920;  597.580
1135.020;    2.888;  -12.290;  609.160
1135.560;    4.389;  -11.650;  674.940
1136.100;    3.071;  -16.270;  501.160
1136.640;    2.657;  -10.890;  510.480
1137.179;    2.706;  -14.180;  537.960
1137.719;    3.727;  -16.250;  605.400
1138.258;    3.901;  -14.230;  587.360
1138.798;    4.025;   -9.090;  663.780
1139.337;    1.894;  -15.130;  482.840
1139.877;    3.287;  -13.680;  642.360
1140.416;    5.231;  -11.320;  878.060
1140.955;    2.109;  -10.860;  535.380
1141.494;    2.485;  -12.920;  669.280
1142.034;    1.965;  -13.930;  583.520
1142.573;    3.250;  -11.440;  646.280
1143.112;    2.308;  -12.000;  553.480
1143.651;    2.112;  -13.670;  536.480
1144.190;    3.000;  -12.730;  691.640
1144.729;    2.668;  -14.560;  607.420
1145.267;    2.841;  -11.830;  584.900
1145.806;    3.113;  -12.230;  637.040
1146.345;    1.087;  -14.130;  635.020
1146.884;    1.371;  -11.590;  622.500
1147.422;    1.848;  -12.550;  533.060
1147.961;    3.228;  -11.180;  708.460
1148.500;    2.237;  -11.510;  669.720
1149.038;    2.901;  -11.640;  632.500
1149.577;    2.256;  -10.130;  698.640
1150.115;    0.440;  -13.970;  452.280
1150.653;    1.823;  -14.520;  607.340
1151.192;    1.849;  -12.810;  552.920
1151.730;    1.924;   -9.100;  652.560
1152.268;    0.762;  -12.220;  589.520
1152.806;    0.443;  -14.140;  571.180
1153.344;   -0.300;  -12.350;  577.640
1153.882;    1.760;   -8.980;  600.060
1154.421;   -0.291;  -15.190;  470.620
1154.958;    0.417;  -15.210;  595.240
1155.496;    1.823;  -12.850;  645.280
1156.034;    1.100;   -9.940;  721.880
1156.572;    2.414;  -13.570;  667.060
1157.110;   -0.273;  -14.590;  473.940
1157.647;    1.555;  -13.030;  676.960
1158.185;    0.143;  -12.140;  564.320
1158.723;   -0.752;  -14.390;  509.200
1159.260;    0.485;  -14.090;  701.700
1159.798;    1.047;  -11.920;  658.160
1160.335;    0.136;  -11.110;  631.820

