
Integration time [ms]:   3.276
Averaging Nr. [scans]: 1000
Smoothing Nr. [pixels]: 0
Data measured with spectrometer [name]: 7414430SP
Wave   ;Sample   ;Dark     ;Reference
[nm]   ;[counts] ;[counts] ;[counts] 

288.544;  150.654;    7.793;  793.890
289.143;  155.088;    7.462;  681.602
289.742;  154.874;    8.602;  828.814
290.341;  139.831;    1.321;  789.841
290.940;  129.454;   -0.709;  730.702
291.538;  130.585;    0.881;  881.108
292.137;  130.190;    0.122;  792.581
292.736;  134.406;   -1.929;  975.101
293.335;  130.967;   -8.229;  735.086
293.934;  131.468;   -5.279;  781.677
294.532;  130.163;   -1.369; 1031.958
295.131;  115.837;   -7.641;  834.394
295.730;  116.121;   -8.420;  809.588
296.328;  116.273;   -5.611;  783.442
296.927;  116.002;   -5.781;  779.652
297.525;  116.828;   -6.361;  781.236
298.124;  106.805;  -11.382;  654.009
298.722;  111.279;   -7.641;  761.933
299.321;  108.087;   -6.811;  708.597
299.919;  107.352;   -6.991;  751.918
300.518;  104.016;  -10.362;  689.338
301.116;  105.998;   -9.581;  691.381
301.715;  105.386;   -4.891;  730.222
302.313;  104.382;   -8.801;  704.943
302.911;  100.282;   -8.522;  733.830
303.509;  104.900;   -6.171;  925.627
304.108;  102.456;   -7.311;  760.383
304.706;  101.739;   -8.321;  801.664
305.304;   96.055;  -10.222;  796.707
305.902;  101.856;   -6.021;  784.484
306.500;   97.703;   -4.971;  728.200
307.098;   96.169;   -7.061;  746.560
307.696;   94.130;   -8.801;  780.432
308.294;   94.555;   -6.411;  731.359
308.892;   95.543;   -2.901;  759.769
309.490;   92.532;   -5.041;  712.161
310.088;   90.722;   -5.002;  788.444
310.686;   95.367;   -2.041;  821.749
311.284;   90.628;   -2.351;  766.040
311.882;   88.124;   -4.422;  731.225
312.480;   84.749;   -4.192;  697.167
313.078;   87.619;   -1.172;  808.331
313.675;   86.911;   -2.601;  691.600
314.273;   82.767;   -1.312;  797.837
314.871;   82.503;   -3.942;  589.829
315.468;   80.669;   -2.802;  652.090
316.066;   82.310;   -0.701;  694.427
316.664;   74.471;   -4.362;  656.351
317.261;   79.309;   -2.872;  910.128
317.859;   75.330;   -2.022;  768.735
318.456;   75.387;   -0.531;  830.096
319.054;   71.553;   -3.912;  787.828
319.651;   69.865;   -4.752;  759.928
320.249;   70.386;   -2.602;  810.188
320.846;   67.205;   -0.821;  714.286
321.443;   64.453;   -4.642;  832.135
322.041;   60.529;   -5.002;  812.315
322.638;   59.335;   -3.982;  701.456
323.235;   60.052;   -3.411;  665.683
323.833;   57.330;   -7.361;  740.354
324.430;   52.944;   -8.611;  615.900
325.027;   54.575;   -4.061;  876.855
325.624;   53.518;   -4.031;  644.532
326.221;   50.435;   -7.481;  689.717
326.818;   50.069;   -5.281;  818.332
327.415;   53.924;   -7.460;  748.828
328.012;   53.560;   -5.510;  690.585
328.609;   51.834;   -7.880;  731.389
329.206;   50.655;   -8.331;  778.621
329.803;   49.905;   -5.121;  737.841
330.400;   52.040;   -4.510;  704.260
330.997;   53.752;   -6.441;  817.147
331.594;   52.934;   -8.831;  788.185
332.191;   58.667;   -7.621;  728.722
332.787;   60.611;   -4.591;  844.463
333.384;   58.848;   -7.412;  763.093
333.981;   58.170;   -8.293;  815.687
334.578;   61.496;   -7.052;  708.378
335.174;   63.134;   -3.102;  731.469
335.771;   62.779;   -5.943;  836.456
336.367;   59.605;   -7.393;  710.631
336.964;   64.326;   -4.063;  793.266
337.561;   61.258;   -3.813;  731.112
338.157;   57.247;   -4.654;  911.916
338.754;   54.500;   -7.934;  796.589
339.350;   53.414;   -4.414;  722.493
339.946;   54.697;   -4.664;  773.135
340.543;   46.801;   -6.375;  846.136
341.139;   42.356;   -9.815;  720.836
341.735;   40.044;   -4.526;  772.593
342.332;   38.070;   -4.895;  691.472
342.928;   38.127;   -4.295;  795.394
343.524;   32.564;   -5.476;  761.684
344.120;   29.259;   -5.856;  738.562
344.716;   32.426;   -2.155;  723.717
345.313;   29.760;   -6.275;  795.342
345.909;   25.285;   -8.815;  627.336
346.505;   27.380;   -5.305;  740.247
347.101;   27.261;   -2.674;  827.864
347.697;   27.514;   -4.344;  785.398
348.293;   22.090;   -9.975;  627.244
348.889;   23.007;   -5.774;  745.914
349.485;   21.653;   -5.004;  688.205
350.081;   22.177;   -4.704;  772.592
350.676;   17.876;   -6.635;  691.606
351.272;   21.787;   -4.504;  809.530
351.868;   21.416;   -3.914;  780.497
352.464;   18.460;   -9.044;  723.932
353.059;   14.657;   -8.314;  646.017
353.655;   18.455;   -7.024;  777.063
354.251;   19.780;   -5.343;  759.845
354.846;   14.323;   -8.604;  740.646
355.442;   12.136;   -6.945;  753.071
356.038;   14.354;   -7.564;  751.708
356.633;   13.929;   -5.814;  728.594
357.229;   11.619;   -7.364;  724.757
357.824;   10.512;   -8.024;  703.600
358.420;    9.876;   -9.384;  679.726
359.015;   10.084;   -5.104;  695.357
359.610;   10.922;   -6.854;  763.920
360.206;    5.113;  -10.185;  603.240
360.801;    7.456;   -7.054;  646.503
361.396;   10.075;   -5.034;  725.975
361.992;    5.529;   -8.284;  668.220
362.587;    2.724;   -8.625;  670.160
363.182;    4.680;   -7.674;  689.631
363.777;    5.774;   -5.164;  738.242
364.372;    4.441;   -8.604;  737.314
364.967;    1.440;   -9.055;  680.744
365.563;    5.569;   -6.114;  815.567
366.158;    2.566;   -5.814;  685.161
366.753;    2.667;   -7.854;  649.263
367.348;    1.658;   -7.804;  746.056
367.942;    1.651;   -7.954;  697.298
368.537;    0.805;   -4.984;  754.245
369.132;    1.451;   -8.564;  703.428
369.727;   -3.184;   -8.855;  638.079
370.322;   -1.171;   -6.245;  580.186
370.917;   -2.194;   -6.425;  710.646
371.511;    0.040;   -6.294;  861.834
372.106;   -3.067;   -7.685;  776.964
372.701;   -6.094;   -7.335;  585.988
373.296;   -0.444;   -4.564;  863.135
373.890;   -5.517;  -10.235;  647.840
374.485;   -7.306;   -7.885;  691.199
375.079;   -3.625;   -7.324;  738.685
375.674;   -2.498;   -3.494;  812.970
376.268;   -6.815;   -8.525;  691.759
376.863;  -12.343;  -10.086;  580.327
377.457;   -5.696;   -7.025;  662.490
378.052;   -7.598;   -3.585;  764.884
378.646;   -9.325;   -7.595;  741.167
379.240;   -9.266;   -8.335;  721.176
379.835;   -8.052;   -5.785;  636.978
380.429;  -10.535;   -4.335;  562.557
381.023;  -10.088;   -6.805;  779.205
381.617;  -12.897;   -9.195;  680.106
382.212;   -8.729;   -6.905;  685.303
382.806;   -7.898;   -3.745;  760.690
383.400;  -13.083;   -7.745;  672.281
383.994;  -13.158;   -9.765;  664.870
384.588;   -8.818;   -6.564;  697.701
385.182;   -8.348;   -5.344;  726.624
385.776;  -10.507;   -8.514;  706.875
386.370;  -13.366;   -9.555;  681.968
386.964;  -11.823;   -8.715;  684.155
387.558;  -10.675;   -6.174;  598.360
388.152;  -13.728;   -8.725;  681.959
388.745;  -12.082;   -7.965;  814.707
389.339;   -9.781;   -5.924;  747.642
389.933;   -9.320;   -5.524;  695.370
390.527;  -10.553;   -7.114;  859.029
391.120;  -17.067;  -10.725;  595.318
391.714;  -13.358;   -8.035;  711.633
392.308;  -10.434;   -3.574;  780.253
392.901;  -14.931;   -7.245;  642.460
393.495;  -16.493;   -9.285;  595.414
394.089;  -12.988;   -5.895;  760.452
394.682;  -14.570;   -4.295;  697.188
395.275;  -14.911;   -9.875;  719.927
395.869;  -16.057;   -8.485;  667.314
396.462;  -14.172;   -7.455;  616.609
397.056;  -10.756;   -5.424;  776.621
397.649;  -15.440;   -6.605;  731.575
398.242;  -13.240;   -8.224;  712.645
398.836;  -12.160;   -7.474;  766.408
399.429;  -12.968;   -7.094;  631.041
400.022;  -16.778;   -9.475;  665.902
400.615;  -14.536;   -7.145;  805.609
401.208;  -11.268;   -7.174;  691.451
401.802;  -14.911;   -5.515;  699.329
402.395;  -16.181;   -9.875;  683.502
402.988;  -17.041;   -8.845;  696.627
403.581;  -13.459;   -8.874;  646.878
404.174;  -10.819;   -5.324;  686.568
404.767;  -14.237;   -9.575;  638.583
405.360;  -16.484;  -10.965;  621.445
405.953;  -10.650;   -8.764;  759.034
406.545;  -10.707;   -7.514;  725.342
407.138;  -15.182;  -10.025;  618.350
407.731;  -13.414;  -10.034;  613.303
408.324;   -9.630;   -9.374;  660.554
408.917;  -10.883;   -6.534;  681.864
409.509;  -12.870;   -8.004;  740.396
410.102;  -13.741;   -9.875;  643.948
410.695;   -8.133;   -8.604;  665.758
411.287;   -9.708;   -6.794;  599.821
411.880;  -11.114;   -9.334;  585.421
412.472;  -13.679;  -10.254;  613.092
413.065;  -10.372;   -6.714;  629.408
413.657;   -8.523;   -7.234;  576.678
414.250;   -9.220;  -10.544;  646.681
414.842;   -9.992;   -9.744;  676.353
415.434;   -7.928;   -6.994;  570.463
416.027;   -4.400;   -5.893;  652.196
416.619;   -6.317;   -7.264;  713.400
417.211;   -7.235;  -10.374;  599.352
417.804;   -2.546;   -7.993;  628.499
418.396;   -7.504;   -7.234;  607.643
418.988;   -5.143;   -9.443;  659.238
419.580;   -8.433;  -10.724;  568.276
420.172;   -6.095;  -10.323;  536.196
420.764;   -2.012;   -8.793;  672.482
421.356;   -3.445;  -11.143;  636.898
421.948;   -4.759;   -8.293;  677.661
422.540;    1.169;   -7.893;  680.027
423.132;    0.202;   -7.082;  600.641
423.724;   -2.742;   -8.653;  561.267
424.316;   -1.405;  -10.213;  621.345
424.908;    3.006;   -9.762;  591.517
425.500;    3.038;   -5.572;  647.978
426.092;    3.426;   -8.422;  648.268
426.683;    2.830;   -9.283;  684.836
427.275;    5.863;   -7.852;  641.471
427.867;    7.511;   -5.272;  668.948
428.458;    7.113;   -7.682;  732.344
429.050;    6.119;  -10.612;  680.749
429.642;    9.023;   -9.882;  743.124
430.233;    8.507;   -6.962;  569.356
430.825;    9.803;   -6.842;  724.809
431.416;    7.329;   -9.672;  698.241
432.008;   11.609;   -6.552;  651.723
432.599;   11.230;   -6.891;  656.073
433.190;    8.453;  -10.912;  637.670
433.782;    7.517;  -11.172;  590.395
434.373;   15.584;   -6.061;  884.765
434.964;   13.355;   -8.251;  602.920
435.556;   11.302;   -9.722;  634.537
436.147;   14.860;   -9.082;  758.490
436.738;   14.452;   -8.041;  701.099
437.329;   19.604;   -7.341;  721.723
437.920;   12.530;   -8.162;  666.688
438.511;   12.800;  -11.802;  564.526
439.103;   19.725;  -10.191;  623.998
439.694;   20.740;   -7.601;  681.583
440.285;   21.583;   -8.541;  764.432
440.876;   19.886;   -9.751;  845.738
441.466;   19.140;   -9.401;  575.162
442.057;   24.173;   -7.760;  665.814
442.648;   23.598;   -9.971;  746.255
443.239;   21.539;  -11.001;  620.477
443.830;   26.278;   -7.990;  704.958
444.421;   28.381;   -7.910;  655.474
445.011;   25.169;   -8.131;  693.619
445.602;   24.579;   -7.111;  743.126
446.193;   26.337;  -10.920;  488.117
446.783;   30.602;   -6.500;  640.397
447.374;   25.836;   -8.671;  692.759
447.964;   26.892;  -10.781;  713.770
448.555;   35.616;   -9.650;  822.742
449.145;   31.709;   -8.660;  662.853
449.736;   31.949;   -8.990;  803.179
450.326;   32.237;   -9.500;  713.626
450.917;   38.220;   -8.680;  675.324
451.507;   36.468;   -7.520;  600.661
452.097;   37.601;   -8.590;  746.267
452.688;   37.913;  -11.340;  742.160
453.278;   37.757;  -10.100;  566.840
453.868;   42.791;   -6.019;  793.550
454.458;   39.799;   -9.440;  651.141
455.048;   40.661;  -10.560;  711.783
455.639;   42.200;  -11.799;  567.096
456.229;   45.475;   -6.899;  710.694
456.819;   47.808;   -7.389;  751.158
457.409;   47.330;  -11.119;  773.993
457.999;   51.068;   -9.289;  737.505
458.589;   49.745;   -6.139;  686.606
459.179;   50.118;   -8.729;  717.658
459.769;   48.169;   -9.789;  627.099
460.358;   53.495;  -10.259;  797.262
460.948;   53.177;   -7.299;  689.503
461.538;   54.456;  -10.289;  660.677
462.128;   52.597;  -11.269;  664.934
462.717;   58.835;   -9.368;  710.326
463.307;   62.423;   -7.908;  705.846
463.897;   57.750;   -9.599;  656.942
464.486;   57.542;   -9.769;  837.128
465.076;   61.988;   -8.048;  733.776
465.666;   65.171;   -9.358;  652.900
466.255;   62.452;   -7.919;  785.651
466.845;   62.702;  -11.689;  666.749
467.434;   65.530;   -7.818;  725.873
468.023;   66.175;   -7.678;  658.357
468.613;   63.632;  -10.939;  713.946
469.202;   68.549;  -10.118;  646.507
469.791;   72.138;   -9.108;  737.811
470.381;   73.297;   -6.058;  742.813
470.970;   73.565;  -10.428;  711.099
471.559;   72.850;  -10.268;  733.291
472.148;   76.556;   -8.448;  675.737
472.738;   79.382;   -6.917;  765.466
473.327;   79.030;  -11.978;  637.529
473.916;   78.796;  -11.888;  737.446
474.505;   83.232;   -9.437;  751.703
475.094;   85.967;   -6.747;  806.570
475.683;   84.647;   -9.367;  797.699
476.272;   85.665;  -12.637;  730.632
476.861;   89.054;  -10.027;  706.754
477.449;   95.414;   -8.716;  728.487
478.038;   89.552;   -9.577;  692.513
478.627;   90.514;   -9.718;  714.852
479.216;   98.204;   -8.947;  769.441
479.805;  100.631;   -6.256;  783.375
480.393;   99.603;   -7.937; 1008.945
480.982;   99.094;   -7.717;  874.501
481.571;  105.749;   -9.266;  858.333
482.159;  105.291;   -7.636;  705.386
482.748;  105.482;   -9.667;  821.385
483.336;  109.299;  -10.376;  858.209
483.925;  110.744;   -7.147;  774.373
484.513;  117.437;   -7.996;  758.962
485.102;  114.114;  -10.027;  810.965
485.690;  122.700;  -10.446; 1011.050
486.278;  124.990;   -8.446;  979.329
486.867;  124.704;   -6.356;  809.662
487.455;  126.975;   -9.136;  898.229
488.043;  128.183;  -10.646;  748.361
488.631;  136.623;   -7.456; 1005.079
489.220;  140.930;   -6.636;  908.626
489.808;  140.291;  -11.036;  741.415
490.396;  148.338;  -10.246;  914.645
490.984;  154.832;   -8.556;  830.161
491.572;  164.354;   -5.886;  940.315
492.160;  169.120;   -9.486;  919.081
492.748;  180.627;  -10.976;  884.341
493.336;  203.037;   -8.776; 1019.693
493.924;  228.354;   -5.465;  958.077
494.512;  254.448;   -9.986; 1066.638
495.100;  289.072;  -10.636; 1103.280
495.687;  344.898;  -10.885; 1206.373
496.275;  402.495;   -8.126; 1150.796
496.863;  471.907;  -10.586; 1281.171
497.451;  567.835;  -11.926; 1386.805
498.038;  698.827;  -10.885; 1556.729
498.626;  802.170;   -6.315; 1741.407
499.214;  947.720;   -7.326; 2016.609
499.801; 1144.697;  -11.906; 2220.633
500.389; 1374.010;  -10.466; 2312.494
500.976; 1663.478;   -5.236; 2744.849
501.564; 2078.468;   -8.936; 3148.565
502.151; 2431.766;  -13.176; 3515.999
502.738; 2840.892;  -10.646; 3971.274
503.326; 3221.030;   -9.525; 4403.796
503.913; 3622.670;  -10.856; 5161.749
504.500; 3999.899;  -11.586; 5986.420
505.088; 4361.034;  -10.336; 6381.201
505.675; 4881.304;   -6.355; 6925.547
506.262; 5550.646;   -9.046; 7619.060
506.849; 6265.388;  -10.416; 8733.969
507.436; 6806.647;  -10.305; 9790.121
508.023; 7395.042;   -5.496; 9985.472
508.610; 7606.201;   -7.856;10434.618
509.197; 8162.272;  -10.097;11198.435
509.784; 9494.522;  -10.886;12391.194
510.371;10644.584;   -9.315;13603.713
510.958;11351.512;   -9.936;14426.586
511.545;12010.139;   -9.326;15243.775
512.132;12872.534;  -10.075;15945.876
512.719;13441.479;   -7.796;16340.369
513.305;14539.973;  -10.606;18011.766
513.892;15297.055;  -11.486;19754.971
514.479;16419.572;   -9.126;20967.805
515.066;17761.539;   -6.026;22299.793
515.652;19337.438;   -8.466;22908.660
516.239;20655.379;  -10.886;23798.875
516.825;21526.455;  -11.496;25567.275
517.412;22544.004;   -5.796;28154.959
517.998;23385.211;  -10.506;28344.111
518.585;23312.943;  -10.076;27134.219
519.171;23742.543;   -8.315;27268.576
519.758;25663.744;   -8.596;28964.129
520.344;27658.719;   -8.466;30664.494
520.930;27261.158;  -11.006;32550.605
521.516;28386.293;  -10.495;35422.895
522.103;30244.684;   -5.526;38280.004
522.689;30909.291;   -8.746;37835.117
523.275;30342.863;  -11.376;37288.613
523.861;31697.539;  -11.156;37281.395
524.447;33499.020;   -8.135;37846.949
525.033;33442.633;   -7.896;38321.949
525.619;33687.449;  -12.476;38579.285
526.205;34957.391;   -9.516;40622.875
526.791;37790.078;   -6.926;42258.836
527.377;37645.219;   -8.346;42966.902
527.963;38570.617;   -8.717;42018.949
528.549;37937.121;  -11.016;42476.828
529.135;36732.242;   -8.536;41854.852
529.721;35756.324;   -9.666;41237.711
530.306;35260.324;  -10.066;41259.445
530.892;35042.398;  -11.356;41506.047
531.478;36050.711;   -6.596;43559.613
532.063;39420.504;   -8.836;47695.563
532.649;40497.707;  -10.047;50808.324
533.235;40974.465;   -9.746;51787.500
533.820;41283.754;   -6.566;52145.035
534.406;42564.461;  -10.817;51133.488
534.991;42537.738;   -9.416;49996.805
535.576;40899.777;   -9.036;48882.852
536.162;41557.633;   -6.156;46942.285
536.747;42922.941;  -11.607;45711.746
537.333;45662.578;  -11.787;48510.180
537.918;48335.703;  -12.437;50439.891
538.503;47743.379;   -7.196;50863.711
539.088;44639.621;  -10.556;50906.922
539.673;44874.047;   -8.767;52621.965
540.259;45579.875;  -10.026;52368.094
540.844;42964.004;   -7.416;50879.109
541.429;44533.090;   -9.467;52077.777
542.014;46645.707;   -9.527;52716.695
542.599;45731.176;   -9.946;52363.281
543.184;42627.598;   -7.927;53187.137
543.769;43760.750;   -9.297;54697.605
544.354;44031.785;  -10.127;53913.914
544.938;42642.520;   -9.267;49680.164
545.523;44157.469;   -6.506;47386.277
546.108;46712.813;   -9.787;49151.949
546.693;48698.465;  -11.587;51384.637
547.278;49162.695;  -10.986;51853.254
547.862;46255.406;   -8.206;51173.750
548.447;41815.215;  -10.067;51691.395
549.031;41123.695;   -9.637;52456.703
549.616;45594.516;   -9.926;52714.516
550.201;45216.238;   -6.347;52414.598
550.785;46452.773;   -7.917;52355.059
551.370;45800.137;  -10.867;54589.453
551.954;45520.574;   -9.047;58267.348
552.538;46270.156;   -7.827;59062.176
553.123;44742.281;  -10.287;58115.285
553.707;42782.117;  -12.178;56556.285
554.291;44361.332;   -8.717;56201.668
554.876;47381.156;   -7.457;55335.762
555.460;47553.105;  -10.387;54155.703
556.044;47516.789;   -9.618;53721.484
556.628;45192.082;  -11.567;53731.016
557.212;43936.785;   -8.097;54312.531
557.796;42952.082;  -11.077;53797.773
558.380;43111.598;  -11.108;56145.984
558.964;43275.945;   -9.057;57277.930
559.548;44033.129;   -6.977;56459.641
560.132;42212.656;  -11.457;54434.543
560.716;40793.945;  -11.378;54800.617
561.300;42097.410;   -9.577;57606.945
561.884;43163.316;   -7.127;58972.445
562.467;41069.742;   -7.118;57327.570
563.051;40155.855;  -13.358;54962.434
563.635;41604.320;  -10.178;52594.473
564.219;42558.191;   -7.837;50610.410
564.802;43315.855;  -11.398;49551.180
565.386;42767.254;  -12.788;48370.953
565.969;42105.004;   -9.077;48178.871
566.553;41041.070;   -6.207;49957.305
567.136;41937.215;   -8.568;50369.594
567.720;38783.555;  -11.868;49492.004
568.303;36885.828;   -8.268;50616.352
568.887;36921.734;   -8.698;50727.148
569.470;37480.359;   -6.808;51698.379
570.053;36670.164;  -13.188;52122.078
570.637;34120.133;  -12.037;52536.438
571.220;33651.320;   -8.577;51186.098
571.803;34624.180;   -8.498;51032.762
572.386;36916.043;  -10.498;49609.887
572.969;39332.270;   -9.388;48285.926
573.552;37713.504;   -8.338;47624.285
574.135;36171.504;   -8.518;45498.641
574.718;33764.227;  -13.628;41970.434
575.301;33047.559;  -10.893;41447.137
575.884;32330.895;   -8.158;40923.836
576.467;33550.641;  -10.328;45267.723
577.050;35142.051;  -13.058;48175.543
577.633;35962.453;   -9.458;47729.328
578.216;35045.801;   -8.928;47579.793
578.799;34189.504;   -9.358;47820.996
579.381;33048.574;  -11.388;48115.551
579.964;30951.377;  -11.718;47333.766
580.547;32720.631;   -8.588;46668.969
581.129;33559.109;   -8.859;44466.141
581.712;34556.191;  -10.729;44164.922
582.294;35077.887;  -11.118;46477.855
582.877;35211.664;   -5.218;48244.254
583.459;33497.152;   -8.679;47437.895
584.042;31246.594;  -10.709;46943.219
584.624;30928.271;  -11.669;46792.227
585.206;30392.949;   -8.218;46557.250
585.789;30102.387;  -10.569;45793.773
586.371;30695.143;  -11.859;43836.391
586.953;28834.297;  -10.719;42972.492
587.536;27799.504;   -7.198;42487.211
588.118;29646.537;   -8.720;42086.414
588.700;29817.939;  -10.439;43389.930
589.282;31162.086;   -9.198;43646.039
589.864;33199.164;   -9.199;43438.109
590.446;34691.410;  -11.319;43151.926
591.028;34450.098;  -11.159;42781.867
591.610;33178.586;  -11.779;42839.098
592.192;30480.070;   -7.668;42820.402
592.774;29154.768;  -11.949;40724.277
593.356;28224.953;  -12.129;39874.789
593.937;27340.379;  -10.669;39980.648
594.519;29686.074;   -6.509;42069.633
595.101;31656.197;  -10.849;42976.031
595.683;31559.461;  -11.679;44084.441
596.264;32353.516;   -9.049;43478.797
596.846;32149.570;   -8.849;43803.672
597.427;32013.471;   -9.570;42986.934
598.009;33252.355;  -12.620;42832.219
598.591;33416.457;  -10.039;42580.086
599.172;32917.250;  -10.369;43061.805
599.753;33005.949;   -9.140;41691.469
600.335;34265.918;  -11.430;40692.520
600.916;32619.131;   -9.939;39982.422
601.498;30700.785;   -8.479;40318.617
602.079;29212.662;  -10.920;40670.609
602.660;28948.289;  -11.480;41450.898
603.241;30646.260;  -11.699;41137.738
603.823;29359.412;   -9.579;38868.797
604.404;28668.971;  -10.620;38182.785
604.985;30369.180;  -10.450;38078.047
605.566;30377.594;   -9.129;38056.633
606.147;30360.424;   -7.510;37020.418
606.728;31775.350;  -10.660;37883.359
607.309;30363.387;  -11.740;38748.273
607.890;30216.510;   -9.759;38850.230
608.471;29899.334;   -8.250;37457.918
609.051;29232.838;   -9.240;36066.457
609.632;27878.926;  -12.120;35991.074
610.213;28066.498;   -9.110;37402.641
610.794;28871.395;   -8.030;38383.363
611.374;28969.627;   -8.110;40562.387
611.955;29880.355;  -13.560;38533.727
612.536;31096.506;  -11.400;36951.789
613.116;30658.148;   -8.070;37197.891
613.697;30817.197;  -10.830;38411.125
614.277;29064.889;  -11.641;38673.938
614.858;30004.525;  -13.310;37075.863
615.438;29761.645;   -7.460;35092.906
616.019;27552.873;   -7.601;33666.301
616.599;27658.619;  -12.020;34189.023
617.179;29196.717;  -11.780;36952.047
617.760;30282.367;   -8.570;39582.574
618.340;30906.857;  -11.471;38943.977
618.920;31697.588;  -11.170;37594.156
619.500;31912.598;  -11.071;37866.938
620.080;31157.564;   -7.750;37869.043
620.660;32172.650;  -12.711;36868.617
621.241;34039.234;  -10.211;36352.309
621.821;34571.352;  -10.961;35459.520
622.401;33320.617;   -7.720;35207.414
622.980;32106.383;   -8.981;35980.422
623.560;30608.010;   -9.331;37351.328
624.140;29382.578;   -9.850;34388.582
624.720;24687.879;   -7.451;32368.764
625.300;21345.438;   -9.070;32638.629
625.880;24691.908;  -12.601;34599.035
626.459;28855.789;  -11.751;36831.738
627.039;31728.408;   -9.281;38299.098
627.619;31525.320;   -8.801;38289.574
628.198;29957.760;  -12.071;37220.695
628.778;28896.289;   -9.461;37632.563
629.357;29445.398;   -8.491;38003.012
629.937;29818.059;   -9.721;38402.039
630.516;29492.502;   -9.951;37868.801
631.096;29171.570;  -11.731;35760.410
631.675;31403.496;   -8.572;35225.219
632.254;36543.602;  -11.282;35130.289
632.834;36180.922;  -13.322;35794.570
633.413;34539.547;  -10.301;35788.922
633.992;31835.691;   -8.582;34532.863
634.571;32231.336;   -8.352;33590.113
635.151;34661.652;  -11.912;34943.863
635.730;33377.488;  -10.511;35352.523
636.309;30377.723;   -7.731;35366.605
636.888;27910.545;   -9.952;36165.637
637.467;28421.295;  -11.672;37515.902
638.046;29719.924;   -8.901;39288.695
638.625;32515.240;   -7.912;38279.699
639.204;32480.008;  -10.022;37741.598
639.782;31547.150;  -12.252;38364.551
640.361;27741.957;  -10.041;36740.621
640.940;25131.137;  -11.161;34950.082
641.519;25861.945;   -9.701;34137.398
642.097;28745.082;  -11.271;35654.258
642.676;31292.443;   -8.651;35637.957
643.255;32436.281;   -8.711;36567.074
643.833;31806.910;   -9.581;37809.434
644.412;31989.064;  -13.711;37337.293
644.990;31067.238;  -11.811;37018.531
645.569;31004.504;   -9.411;36518.469
646.147;30512.762;  -10.291;36186.430
646.726;30463.643;  -12.401;36267.688
647.304;31255.645;  -10.411;36647.625
647.882;32608.729;   -9.651;39286.742
648.461;34283.836;   -9.631;39157.703
649.039;32702.887;  -11.881;35412.883
649.617;31562.490;   -9.661;34744.918
650.195;30634.871;   -9.301;35403.098
650.773;29241.760;  -10.511;35053.797
651.352;27189.977;  -11.521;33756.816
651.930;25131.521;  -12.211;31868.773
652.508;23536.709;   -9.171;33121.551
653.086;27370.773;   -9.371;33564.793
653.663;30392.904;  -13.161;34054.668
654.241;29060.572;  -13.031;35693.309
654.819;30248.023;   -9.371;36422.906
655.397;30032.170;  -10.511;38213.484
655.975;29644.598;  -10.371;39507.625
656.553;29317.293;  -10.051;39498.223
657.130;27918.719;  -10.061;40395.480
657.708;27304.895;   -9.561;39242.020
658.286;27496.627;  -11.511;38920.020
658.863;28639.758;  -10.261;40202.898
659.441;32006.426;   -7.531;39677.938
660.018;32023.268;   -9.501;40413.355
660.596;30543.727;  -13.301;39931.414
661.173;31955.779;  -11.211;39604.531
661.750;32467.398;   -9.951;39700.070
662.328;31692.973;   -9.390;39292.809
662.905;30812.520;  -11.330;38235.648
663.482;26375.750;   -9.050;36212.305
664.060;24505.078;   -8.240;35944.945
664.637;27402.203;  -10.050;35170.785
665.214;28778.813;  -11.760;34197.523
665.791;30306.752;  -10.530;34549.520
666.368;29369.293;   -9.690;35118.578
666.945;29861.467;   -9.320;36019.418
667.522;31392.461;  -11.860;36048.438
668.099;31209.826;  -10.770;36243.914
668.676;29858.039;   -6.260;35958.875
669.253;28472.459;   -7.000;37384.730
669.830;28664.314;  -10.190;36779.629
670.407;28717.955;   -9.550;35231.289
670.984;28942.418;   -9.260;35544.270
671.560;29840.184;   -9.280;35466.867
672.137;29024.014;  -11.810;34280.863
672.714;29945.141;  -11.490;34632.863
673.290;31058.563;   -7.740;35135.422
673.867;31082.250;  -10.660;36114.480
674.443;30746.510;  -12.230;36152.859
675.020;28690.609;  -10.450;35327.238
675.596;29699.703;   -9.260;35795.176
676.173;30487.289;  -10.780;35430.355
676.749;30191.744;  -13.690;33549.516
677.326;29911.984;  -11.980;32210.012
677.902;29793.426;   -8.630;32068.871
678.478;29249.303;  -10.730;32583.891
679.054;28367.080;  -10.520;32088.928
679.631;28720.682;  -11.920;30978.848
680.207;30083.816;   -7.490;33160.887
680.783;31443.521;   -9.860;35570.363
681.359;30529.107;  -13.380;36125.184
681.935;30410.063;  -12.480;35240.922
682.511;30448.834;   -7.900;34429.961
683.087;30900.160;   -7.710;34463.680
683.663;30105.846;  -11.480;34648.898
684.239;28599.684;  -14.090;34546.457
684.815;27907.742;   -7.560;35586.375
685.390;27974.018;   -9.910;35821.895
685.966;28438.098;  -11.159;35085.871
686.542;30975.471;  -11.169;34198.230
687.118;33445.406;   -5.959;32847.707
687.693;33848.789;  -10.329;32794.027
688.269;33399.430;  -12.059;33072.367
688.844;31583.344;  -10.909;33141.664
689.420;29681.885;   -8.019;33965.742
689.995;27893.387;   -8.399;34655.523
690.571;26443.178;  -10.949;33576.742
691.146;26404.541;   -9.619;32657.219
691.722;26263.373;   -8.999;32526.979
692.297;25958.213;  -11.589;33014.617
692.872;27286.930;  -11.739;34012.254
693.448;27144.949;  -11.059;34237.434
694.023;26200.209;  -10.139;34142.672
694.598;28187.793;   -9.029;34132.031
695.173;28892.766;  -13.319;34205.250
695.748;27869.396;  -10.169;32882.488
696.323;27525.863;   -8.339;32864.906
696.898;27673.133;   -8.169;33170.004
697.473;28016.639;  -12.309;32432.984
698.048;27434.193;  -10.989;31649.303
698.623;27182.854;   -9.329;30778.141
699.198;28593.414;   -9.849;31140.119
699.773;29922.588;  -12.329;31764.299
700.348;28791.967;  -10.389;31780.816
700.922;28756.930;   -9.269;32046.375
701.497;29752.332;   -9.329;32603.574
702.072;29966.744;  -10.789;34799.871
702.646;28552.082;  -10.839;35793.172
703.221;26518.494;   -9.099;35201.590
703.795;28207.680;  -10.939;34764.527
704.370;28533.787;  -12.859;34307.367
704.944;28829.180;  -11.559;33509.887
705.519;29571.387;   -7.939;31388.584
706.093;30811.625;  -10.499;31340.104
706.668;31141.307;  -11.289;32630.281
707.242;30081.199;  -11.509;32728.779
707.816;28884.717;   -9.639;32947.238
708.390;27366.744;  -11.429;33277.855
708.965;27950.379;  -11.869;33834.336
709.539;28327.148;  -11.689;33709.273
710.113;28339.066;  -10.478;33044.313
710.687;27625.412;  -10.228;31953.992
711.261;25917.762;  -13.698;30505.949
711.835;25689.365;  -13.378;30262.369
712.409;26121.262;   -9.698;31254.447
712.983;28111.453;  -11.898;32754.986
713.557;29394.521;  -15.138;34018.824
714.131;29363.137;  -14.098;34579.625
714.704;28434.793;   -9.958;33890.262
715.278;25830.221;  -10.028;33531.102
715.852;24741.801;  -11.148;33601.660
716.425;25976.281;   -9.068;33515.117
716.999;27162.887;  -10.038;33185.555
717.573;28047.000;   -9.798;33905.996
718.146;29033.021;  -12.378;35199.293
718.720;29042.832;  -11.918;35060.551
719.293;29003.617;   -8.088;34973.230
719.867;31986.588;  -10.888;36394.449
720.440;31574.953;  -11.938;36663.008
721.013;29650.918;  -12.818;35102.426
721.587;28128.158;  -10.298;33985.266
722.160;26984.121;  -10.048;33524.965
722.733;25983.467;  -12.108;32987.043
723.306;26295.201;  -10.818;33066.301
723.880;28329.955;   -8.908;33399.500
724.453;30422.297;   -9.878;33468.297
725.026;29707.350;  -11.188;33816.637
725.599;27012.855;  -11.678;32797.996
726.172;27060.035;   -9.618;33187.434
726.745;28191.141;   -8.258;35136.613
727.318;29501.189;  -12.978;35751.730
727.891;30097.064;  -12.148;35890.430
728.463;29519.459;   -8.968;34822.090
729.036;28208.896;  -10.188;32895.086
729.609;28721.041;  -11.788;31823.225
730.182;25954.418;  -11.788;31445.283
730.754;23619.629;  -10.268;32373.223
731.327;24022.225;   -9.998;33676.820
731.900;24482.973;  -12.228;33417.000
732.472;25140.828;  -13.848;31978.498
733.045;26495.895;   -8.698;30368.777
733.617;26537.635;  -10.607;30574.215
734.190;26872.502;  -11.507;31280.975
734.762;24557.869;  -13.647;31674.412
735.334;22734.016;   -9.767;31247.291
735.907;23197.971;   -9.897;29876.211
736.479;23401.723;  -11.637;29808.488
737.051;22995.295;   -9.567;30233.547
737.623;23516.252;   -8.187;31469.086
738.195;23971.982;  -11.187;31784.225
738.768;26174.178;  -12.337;32120.523
739.340;27011.855;  -12.227;32094.342
739.912;26110.041;  -11.057;31312.680
740.484;24689.670;  -10.207;31946.238
741.056;23032.898;  -10.047;32984.059
741.628;24063.295;  -13.627;33897.715
742.199;26230.525;   -7.177;33213.016
742.771;25157.795;  -10.797;31369.113
743.343;23132.309;  -11.997;31865.473
743.915;22122.291;  -12.867;32388.631
744.487;21998.252;   -7.617;31079.568
745.058;21959.123;   -9.557;30570.107
745.630;22631.045;   -9.877;29970.127
746.201;23976.752;  -14.177;29186.766
746.773;24686.176;   -9.237;28805.723
747.344;24461.564;   -9.847;29591.223
747.916;22637.240;  -11.657;31412.201
748.487;22686.066;  -10.587;32194.898
749.059;24073.064;   -8.707;32533.719
749.630;24878.230;  -10.537;32158.518
750.201;24011.195;  -11.687;30855.395
750.773;22297.564;  -11.647;28622.555
751.344;21926.662;   -7.147;28405.732
751.915;22654.908;   -9.757;28461.551
752.486;22665.000;  -12.427;27842.850
753.057;20832.361;  -12.227;27845.008
753.628;19703.689;  -10.417;27728.107
754.199;20598.236;  -11.767;27381.086
754.770;21656.674;  -11.187;25882.203
755.341;21919.525;  -10.507;25886.184
755.912;22051.865;   -9.387;26050.861
756.483;21556.164;  -10.647;26798.779
757.054;19670.357;  -11.837;27048.238
757.625;18156.555;  -12.716;26294.838
758.195;18020.893;   -9.666;26142.076
758.766;17806.449;   -8.656;26392.234
759.337;18390.123;  -12.856;26334.594
759.907;19832.188;  -13.366;27579.652
760.478;20734.057;   -8.576;28352.770
761.048;20157.428;  -10.526;27325.088
761.619;19141.676;  -11.116;26460.428
762.189;19252.525;  -12.136;26029.826
762.760;20423.020;   -9.456;26430.145
763.330;21563.713;   -7.136;26670.902
763.900;21118.014;  -11.786;26603.021
764.471;18681.285;  -11.546;25542.740
765.041;17187.664;   -8.096;24358.459
765.611;16925.018;   -8.876;23991.297
766.181;17215.709;  -12.196;24470.236
766.751;18435.178;  -11.636;24845.975
767.321;18305.254;  -10.156;24533.633
767.891;16146.375;  -11.766;24916.492
768.461;15486.179;  -14.936;24776.771
769.031;15998.738;  -12.356;24757.988
769.601;17695.861;   -7.526;24181.088
770.171;17823.158;  -10.766;23670.387
770.741;16967.750;  -13.176;22960.045
771.311;17058.887;  -10.616;22917.523
771.880;17666.443;   -9.576;23562.941
772.450;17671.902;  -10.336;24216.500
773.020;17646.391;  -13.516;24140.398
773.589;16752.285;  -13.466;24414.857
774.159;16021.209;   -8.686;23858.717
774.729;15675.782;   -9.476;22942.135
775.298;15340.080;  -13.666;22324.033
775.867;14906.120;  -11.716;21140.313
776.437;15062.835;   -9.906;20838.092
777.006;14797.736;  -12.166;20599.510
777.576;14376.141;  -12.356;20508.809
778.145;14357.523;  -11.646;20732.947
778.714;14501.385;   -8.226;21062.465
779.283;14039.643;   -9.556;20949.664
779.853;13482.342;  -14.116;20508.623
780.422;13853.002;  -11.506;20649.082
780.991;13445.327;   -9.556;21527.520
781.560;12147.212;   -9.095;22632.658
782.129;11898.902;  -12.135;23048.277
782.698;11893.750;  -10.865;23438.555
783.267;11529.718;   -9.335;23267.734
783.836;11471.503;  -11.045;22415.133
784.404;12490.794;  -13.865;20443.152
784.973;13184.509;  -13.095;19699.150
785.542;13279.368;  -11.575;19763.828
786.111;13125.796;   -9.705;20341.408
786.679;12624.288;  -12.105;20207.967
787.248;12326.695;  -12.455;19516.465
787.817;12119.416;  -11.535;18900.363
788.385;11752.833;   -9.765;17879.121
788.954;11172.331;  -14.005;17658.301
789.522;10522.647;  -11.955;17788.879
790.090;10894.905;  -10.135;18118.277
790.659;11521.364;  -10.975;18338.736
791.227;11174.914;  -13.375;18508.615
791.795;11558.433;  -12.375;17898.254
792.364;11831.119;  -10.725;17295.133
792.932;12121.362;   -9.715;16822.051
793.500;12450.219;  -12.675;17040.148
794.068;12752.678;  -13.495;17179.787
794.636;12925.171;  -10.885;16664.246
795.204;12246.243;  -11.045;16524.545
795.772;12169.629;  -13.175;17274.564
796.340;11652.966;  -12.445;17891.002
796.908;11400.036;   -9.735;17648.561
797.476;11292.300;   -9.815;17064.080
798.044;10921.552;  -13.985;16672.777
798.612;10204.328;  -13.115;17023.996
799.180; 9797.715;  -10.185;16561.615
799.747; 9631.532;   -9.055;15962.773
800.315; 9319.403;  -12.385;15296.992
800.883; 9109.890;  -15.035;14801.771
801.450; 9298.174;  -10.365;14534.430
802.018; 9395.833;   -9.855;14173.248
802.585; 9409.783;  -11.905;14029.547
803.153; 9434.946;  -11.585;13836.846
803.720; 9265.524;   -9.095;13567.324
804.287; 8728.374;   -9.135;13360.622
804.855; 8199.487;  -11.604;13681.981
805.422; 8081.509;  -11.794;13536.560
805.989; 8155.226;  -10.734;13355.958
806.556; 8378.422;  -10.444;13747.896
807.124; 8687.574;  -12.764;13987.376
807.691; 8657.521;  -12.964;14038.674
808.258; 8460.528;  -11.134;14120.152
808.825; 8082.578;   -9.854;13860.111
809.392; 8177.392;  -10.504;13268.790
809.959; 7752.751;  -13.054;12680.389
810.526; 7269.171;   -8.294;12427.308
811.093; 7251.041;   -8.394;12030.105
811.659; 7878.615;  -12.304;11653.664
812.226; 8463.646;  -13.944;11637.183
812.793; 8182.634;  -10.484;11611.521
813.360; 7499.359;  -10.144;11885.181
813.926; 7170.650;  -11.684;12770.539
814.493; 6995.047;  -13.644;12677.638
815.060; 6637.929;   -9.724;11974.336
815.626; 6579.264;   -9.854;11594.715
816.193; 6919.100;  -13.254;11579.474
816.759; 6959.449;  -13.204;11666.972
817.325; 7014.816;   -9.434;11325.530
817.892; 7379.923;  -10.134;11105.369
818.458; 7817.087;  -13.474;10843.928
819.024; 7460.374;  -11.854;10714.406
819.591; 7150.629;  -10.244;10469.165
820.157; 6962.440;  -10.704;10235.523
820.723; 6464.221;  -12.324;10847.563
821.289; 6164.974;   -9.444;11040.980
821.855; 6087.002;   -8.374;10357.100
822.421; 6020.284;  -10.234; 9978.918
822.987; 5930.197;  -13.294; 9754.177
823.553; 5526.110;  -10.884;10065.755
824.119; 5317.794;   -8.884;10036.294
824.685; 5480.483;   -6.784;10029.192
825.251; 5638.035;  -12.004;10199.230
825.816; 5609.758;  -11.474; 9820.189
826.382; 5327.436;   -9.174; 9297.248
826.948; 5479.530;   -9.214; 9381.347
827.513; 5893.873;  -10.774; 9450.726
828.079; 5772.312;  -11.924; 9472.444
828.645; 5167.212;  -10.543; 9292.643
829.210; 4971.052;  -10.533; 9065.341
829.776; 4926.136;  -10.753; 9132.620
830.341; 4796.982;  -10.173; 9092.878
830.906; 4947.379;  -10.743; 9078.557
831.472; 5291.060;  -11.113; 8534.535
832.037; 5102.575;  -10.603; 8677.874
832.602; 4579.621;  -13.323; 8628.692
833.167; 4308.185;  -10.823; 8879.031
833.733; 4241.536;  -10.113; 9189.790
834.298; 4354.950;  -13.583; 9052.608
834.863; 4470.720;  -12.703; 8895.087
835.428; 4493.258;  -10.523; 8824.266
835.993; 4370.910;   -6.963; 8845.385
836.558; 4216.202;  -10.763; 8888.563
837.123; 4310.659;   -9.903; 8966.582
837.688; 4581.599;   -9.913; 8617.860
838.253; 4840.457;  -10.283; 8590.699
838.817; 5016.000;  -12.963; 8443.797
839.382; 4922.987;  -14.243; 8799.356
839.947; 4613.641;  -10.733; 8810.595
840.511; 4309.576;   -9.383; 8796.394
841.076; 3930.932;  -12.563; 8347.231
841.641; 4001.339;  -12.953; 8224.330
842.205; 4117.222;   -7.043; 8223.349
842.770; 4145.861;   -8.163; 8622.107
843.334; 4276.068;  -12.503; 8410.386
843.898; 4249.026;  -11.693; 8337.465
844.463; 4248.772;  -10.203; 8506.283
845.027; 4038.117;   -9.533; 8280.962
845.591; 3852.825;  -13.443; 8231.141
846.156; 3845.276;  -13.143; 7969.179
846.720; 3765.500;   -9.433; 7768.278
847.284; 3665.828;  -11.033; 7630.957
847.848; 3521.231;  -10.403; 7472.395
848.412; 3411.779;  -11.553; 7437.394
848.976; 3439.312;   -8.393; 7674.592
849.540; 3353.624;   -8.713; 7836.011
850.104; 3402.854;  -12.463; 7913.669
850.668; 3757.893;  -12.973; 7694.508
851.232; 3922.948;  -10.793; 7756.887
851.796; 3786.736;  -10.662; 7926.545
852.359; 3464.424;  -13.082; 7827.844
852.923; 3285.000;  -12.192; 7641.163
853.487; 3157.087;  -11.912; 7342.501
854.050; 3138.252;  -10.892; 7042.820
854.614; 3258.715;  -13.992; 7151.338
855.177; 3350.300;  -11.732; 7105.077
855.741; 3381.883;   -8.962; 6989.675
856.304; 3290.701;   -9.442; 6596.634
856.868; 3276.561;  -14.192; 6356.272
857.431; 3419.932;  -12.702; 6468.571
857.995; 3567.754;   -9.942; 6373.210
858.558; 3605.354;   -9.112; 6324.448
859.121; 3341.548;  -12.932; 6408.327
859.684; 3155.928;  -13.442; 6347.886
860.247; 3245.043;  -10.632; 6321.264
860.810; 3275.310;  -11.272; 6301.903
861.374; 3028.039;   -9.832; 6607.881
861.937; 2760.345;  -11.762; 6408.200
862.500; 2757.320;   -9.722; 6572.639
863.062; 2900.174;  -10.512; 6387.297
863.625; 3034.550;  -11.232; 6190.836
864.188; 3201.950;  -14.112; 5807.254
864.751; 3300.217;  -11.302; 5682.413
865.314; 3225.238;  -10.112; 5547.492
865.876; 2997.890;  -12.182; 5500.150
866.439; 2959.800;  -10.722; 5415.909
867.002; 2918.663;   -9.252; 5501.567
867.564; 2729.838;   -9.572; 5413.946
868.127; 2512.095;  -13.142; 5160.325
868.689; 2381.078;  -12.902; 5133.183
869.252; 2266.280;   -9.732; 5252.382
869.814; 2151.070;   -9.432; 5297.141
870.377; 2151.759;  -11.552; 5390.919
870.939; 2220.220;   -9.052; 5599.898
871.501; 2299.128;  -10.982; 5248.336
872.063; 2316.901;  -12.292; 4854.235
872.626; 2256.118;  -14.912; 4817.074
873.188; 2241.736;  -13.112; 4987.732
873.750; 2216.882;  -13.442; 4868.651
874.312; 2146.181;   -9.402; 4779.330
874.874; 2064.658;  -11.062; 4866.348
875.436; 1981.776;  -13.931; 4718.887
875.998; 1974.870;   -9.561; 4660.005
876.560; 2001.896;  -11.321; 4462.964
877.122; 1942.529;  -12.221; 4145.042
877.683; 1836.020;  -12.191; 4056.481
878.245; 1755.240;  -12.101; 3950.740
878.807; 1792.226;   -8.971; 4058.958
879.369; 1819.373;  -12.071; 3954.677
879.930; 1733.834;  -14.621; 3941.495
880.492; 1667.066;  -10.311; 4067.014
881.053; 1630.231;  -10.901; 3859.633
881.615; 1525.478;  -14.411; 3776.071
882.176; 1426.146;  -13.761; 3734.750
882.738; 1373.683;   -9.181; 3678.489
883.299; 1351.035;  -11.791; 3405.407
883.860; 1341.203;  -13.121; 3351.106
884.422; 1327.975;  -11.211; 3394.044
884.983; 1285.759;  -10.091; 3166.443
885.544; 1211.889;   -8.461; 3189.802
886.105; 1136.343;  -12.361; 3160.360
886.666; 1070.834;  -14.141; 3093.059
887.227; 1008.073;  -11.361; 2941.957
887.788;  944.804;  -11.401; 2974.836
888.349;  877.624;  -13.791; 2721.214
888.910;  869.622;  -13.191; 2696.493
889.471;  875.849;   -9.881; 2560.172
890.032;  854.770;   -9.881; 2558.190
890.593;  826.126;  -10.371; 2567.669
891.153;  799.843;  -13.301; 2460.307
891.714;  754.152;  -11.431; 2372.046
892.275;  718.718;  -11.291; 2309.505
892.835;  682.006;  -11.471; 2382.543
893.396;  629.675;  -11.541; 2295.502
893.956;  568.560;  -11.181; 2162.420
894.517;  525.691;  -11.741; 2125.439
895.077;  519.205;  -11.671; 2086.978
895.638;  523.726;  -11.311; 2126.316
896.198;  497.162;   -9.831; 1838.275
896.758;  454.829;   -8.421; 1892.813
897.319;  421.906;  -12.351; 1792.232
897.879;  406.335;  -13.511; 1762.751
898.439;  380.723;  -12.001; 1661.149
898.999;  354.281;  -10.180; 1781.468
899.559;  343.307;  -12.030; 1703.347
900.119;  338.500;  -15.710; 1537.525
900.679;  334.606;   -8.900; 1638.384
901.239;  320.333;   -8.340; 1527.902
901.799;  310.265;  -13.910; 1456.441
902.359;  303.816;  -13.460; 1357.140
902.919;  296.777;  -11.490; 1331.118
903.479;  283.924;  -12.110; 1317.257
904.038;  263.908;  -11.720; 1262.595
904.598;  249.771;  -13.610; 1152.034
905.158;  244.353;  -11.040; 1240.893
905.717;  238.925;  -10.900; 1233.691
906.277;  227.423;  -15.080; 1217.330
906.836;  217.206;  -13.380; 1222.408
907.396;  208.909;  -10.780; 1193.047
907.955;  200.761;   -8.500; 1182.526
908.515;  195.213;  -12.760; 1099.364
909.074;  189.389;  -11.900; 1092.863
909.633;  184.051;   -8.950; 1069.121
910.192;  179.731;   -8.770; 1196.460
910.752;  172.798;  -12.390; 1029.960
911.311;  169.455;  -13.680; 1009.780
911.870;  167.044;  -12.370;  971.460
912.429;  167.609;  -10.900; 1094.080
912.988;  166.803;  -11.690; 1081.060
913.547;  161.874;  -13.240;  940.380
914.106;  157.674;  -11.990;  999.420
914.665;  154.108;   -9.990;  984.020
915.224;  152.564;  -12.880; 1035.760
915.782;  153.439;  -12.350;  922.560
916.341;  153.634;   -9.110; 1049.840
916.900;  148.802;   -9.270;  925.260
917.458;  146.459;  -13.240;  884.220
918.017;  146.143;  -13.550;  942.600
918.576;  146.018;  -12.320;  904.440
919.134;  144.261;  -11.490;  837.980
919.693;  141.939;  -13.670;  893.060
920.251;  140.910;  -15.470;  876.500
920.809;  140.413;  -11.290;  839.580
921.368;  140.054;  -10.210;  885.360
921.926;  138.944;  -12.140;  842.940
922.484;  137.058;  -13.080;  903.360
923.042;  137.608;  -11.720;  880.340
923.601;  139.463;   -7.480;  998.680
924.159;  137.877;  -11.570;  935.560
924.717;  134.785;  -13.840;  841.080
925.275;  135.062;  -10.640;  903.240
925.833;  133.990;  -11.540;  779.320
926.391;  135.155;  -12.960;  938.380
926.949;  133.381;  -14.130;  857.680
927.506;  134.274;  -11.750;  903.500
928.064;  133.611;  -10.250;  877.580
928.622;  132.684;  -13.030;  880.100
929.180;  132.664;  -13.400;  814.180
929.737;  133.850;  -10.700;  808.540
930.295;  137.877;  -10.070;  928.480
930.853;  138.746;  -11.960;  849.100
931.410;  140.254;  -13.120;  821.120
931.968;  139.094;  -10.770;  940.660
932.525;  139.122;  -10.680;  909.380
933.082;  139.576;  -13.130;  811.440
933.640;  140.531;  -13.210;  925.900
934.197;  138.728;  -11.060;  886.360
934.754;  139.931;   -9.580;  897.780
935.312;  143.352;  -14.000;  863.340
935.869;  147.213;  -10.710; 1012.980
936.426;  148.307;   -9.860;  872.800
936.983;  149.205;   -9.710;  889.020
937.540;  149.015;  -13.990;  838.280
938.097;  148.171;  -14.040;  940.120
938.654;  148.718;  -10.310;  898.860
939.211;  150.421;  -10.560;  952.480
939.768;  154.174;  -13.900;  915.420
940.324;  158.216;  -14.760;  904.200
940.881;  159.799;  -10.370;  878.500
941.438;  161.342;   -8.260; 1021.200
941.995;  156.353;  -12.540;  992.560
942.551;  153.799;  -14.670;  875.620
943.108;  152.312;  -10.450;  937.920
943.664;  155.768;  -10.750;  869.340
944.221;  159.621;  -11.550; 1088.140
944.777;  157.168;  -14.770;  869.680
945.334;  157.506;  -12.820;  884.840
945.890;  158.819;  -10.130;  946.480
946.446;  158.770;  -13.470;  947.020
947.003;  160.851;  -12.120;  964.940
947.559;  164.359;   -9.980; 1063.040
948.115;  164.583;   -9.080; 1026.540
948.671;  161.420;  -10.830;  967.300
949.227;  160.005;  -12.440;  859.560
949.783;  157.448;  -12.910;  858.900
950.339;  159.314;  -10.270;  991.000
950.895;  159.349;  -13.630; 1023.840
951.451;  158.324;  -15.100;  925.280
952.007;  158.017;  -11.330;  998.540
952.563;  156.706;  -10.580;  937.780
953.118;  155.310;  -13.440;  904.940
953.674;  154.748;  -12.710;  935.780
954.230;  154.441;  -10.350;  949.640
954.785;  152.966;   -9.190;  936.640
955.341;  151.076;  -11.200;  998.160
955.897;  149.739;  -16.560;  834.660
956.452;  151.780;  -12.570;  953.840
957.008;  151.328;   -7.970; 1083.640
957.563;  148.354;  -11.940; 1009.540
958.118;  144.248;  -13.450;  877.700
958.674;  144.656;  -12.030;  946.780
959.229;  145.509;   -9.410; 1013.980
959.784;  144.526;  -12.000;  832.400
960.339;  142.639;  -14.780; 1001.280
960.894;  139.885;   -9.860;  963.760
961.449;  135.548;   -9.970;  859.960
962.004;  134.837;  -10.900; 1212.840
962.559;  129.770;  -13.150;  860.140
963.114;  126.774;  -13.740;  742.480
963.669;  126.896;   -9.820;  915.500
964.224;  124.401;  -13.890;  874.340
964.779;  123.795;  -12.600;  828.420
965.334;  124.788;  -10.950; 1017.860
965.888;  124.017;  -11.170;  875.360
966.443;  127.643;  -12.540;  972.380
966.998;  127.986;  -15.780;  819.460
967.552;  127.450;   -9.760;  908.380
968.107;  123.614;   -9.060;  868.300
968.661;  124.782;  -11.950;  922.440
969.216;  125.282;  -12.800;  856.280
969.770;  125.653;  -11.210;  917.200
970.324;  124.620;  -11.610;  923.140
970.879;  121.014;  -11.370;  947.180
971.433;  117.919;  -12.540;  952.720
971.987;  112.490;  -11.320;  895.340
972.541;  108.685;  -10.720;  917.100
973.095;  108.882;   -9.680; 1009.460
973.649;  107.654;  -11.440;  809.480
974.203;  106.088;  -11.210;  829.040
974.757;  106.107;  -10.240;  855.220
975.311;  105.630;  -13.720;  872.600
975.865;  105.079;  -13.770;  881.820
976.419;  102.457;  -11.690;  857.400
976.973;  100.917;   -9.510;  849.620
977.526;   95.326;  -12.620;  949.920
978.080;   86.864;  -12.010;  796.780
978.634;   81.456;  -10.170;  921.320
979.187;   76.396;   -9.020;  905.400
979.741;   76.473;   -9.820; 1018.380
980.294;   75.147;  -14.870;  789.160
980.848;   75.606;  -12.380;  717.220
981.401;   78.336;  -10.350;  816.540
981.955;   81.385;  -13.720;  844.300
982.508;   82.246;  -11.490;  746.340
983.061;   83.458;  -10.000;  915.260
983.615;   80.082;  -11.480;  798.800
984.168;   79.156;  -13.220;  770.080
984.721;   78.771;  -13.960;  880.760
985.274;   78.541;  -10.870;  867.500
985.827;   78.008;   -9.790;  834.220
986.380;   75.671;  -13.120;  721.340
986.933;   76.877;  -12.450;  864.800
987.486;   75.092;  -10.210;  861.920
988.039;   74.383;   -8.430;  863.100
988.591;   72.274;  -10.520;  893.260
989.144;   70.339;  -14.860;  737.260
989.697;   69.323;  -13.080;  758.740
990.250;   69.613;  -10.150;  858.100
990.802;   68.899;  -13.430;  755.860
991.355;   70.780;  -12.750;  974.880
991.907;   68.811;  -12.040;  864.320
992.460;   66.841;  -11.330;  753.760
993.012;   65.338;  -13.610;  749.540
993.565;   64.273;  -13.460;  711.360
994.117;   65.970;   -9.360;  950.780
994.669;   61.674;  -11.300;  701.320
995.221;   59.110;  -13.540;  791.920
995.774;   57.967;  -13.430;  787.580
996.326;   57.060;  -12.520;  740.220
996.878;   57.437;  -10.950;  838.420
997.430;   54.975;  -14.300;  699.860
997.982;   55.052;  -13.760;  750.140
998.534;   54.594;  -11.530;  739.060
999.086;   53.246;  -10.310;  738.220
999.638;   52.054;  -12.530;  661.380
1000.190;   51.678;  -11.840;  699.320
1000.741;   51.423;  -10.260;  742.700
1001.293;   51.683;   -8.860;  686.020
1001.845;   48.866;  -13.700;  676.640
1002.396;   49.981;  -12.100;  743.400
1002.948;   49.096;  -12.760;  737.400
1003.500;   47.797;  -10.380;  723.780
1004.051;   48.370;  -11.900;  907.580
1004.603;   46.162;  -12.250;  791.820
1005.154;   43.160;  -13.210;  608.980
1005.705;   42.604;  -10.950;  723.960
1006.257;   41.721;  -13.880;  707.220
1006.808;   41.384;  -12.840;  685.460
1007.359;   40.829;  -10.570;  763.240
1007.910;   39.215;   -9.620;  646.640
1008.461;   39.538;  -13.630;  732.940
1009.013;   38.421;  -17.200;  588.340
1009.564;   39.916;  -10.200;  793.520
1010.115;   37.506;  -12.570;  597.040
1010.665;   37.051;  -15.150;  602.160
1011.216;   37.693;  -14.480;  667.920
1011.767;   36.844;  -11.340;  697.920
1012.318;   36.140;   -9.780;  736.980
1012.869;   35.045;  -12.380;  679.000
1013.419;   35.657;  -15.560;  603.120
1013.970;   35.970;  -11.010;  666.640
1014.521;   34.514;  -11.610;  620.620
1015.071;   34.699;  -13.450;  670.380
1015.622;   34.851;  -13.870;  635.460
1016.172;   34.255;  -11.610;  596.820
1016.723;   32.972;  -12.120;  614.380
1017.273;   33.287;  -13.620;  604.160
1017.823;   33.486;  -14.140;  650.340
1018.374;   33.103;  -12.800;  611.760
1018.924;   33.456;  -12.340;  716.880
1019.474;   32.859;  -11.410;  718.880
1020.024;   31.688;  -14.770;  657.580
1020.574;   32.926;   -9.780;  726.160
1021.124;   32.978;   -8.560;  673.580
1021.674;   30.643;  -15.190;  559.120
1022.224;   32.480;  -13.530;  708.940
1022.774;   32.294;  -13.280;  668.820
1023.324;   31.575;  -10.690;  753.520
1023.874;   32.768;  -10.240;  875.760
1024.423;   29.827;  -12.540;  613.700
1024.973;   30.370;  -10.010;  610.760
1025.523;   29.665;  -10.550;  620.960
1026.072;   29.806;  -13.560;  606.420
1026.622;   29.883;  -15.120;  675.740
1027.172;   30.396;  -11.260;  715.660
1027.721;   29.131;  -11.410;  601.220
1028.270;   29.901;  -13.530;  663.400
1028.820;   29.233;  -13.680;  638.080
1029.369;   29.062;  -13.520;  612.700
1029.918;   29.093;  -10.980;  649.840
1030.468;   28.559;  -13.530;  564.780
1031.017;   29.041;  -13.170;  634.800
1031.566;   28.473;  -12.200;  608.900
1032.115;   29.505;   -9.960;  694.500
1032.664;   26.588;  -13.210;  596.480
1033.213;   28.593;  -12.500;  735.420
1033.762;   27.471;  -11.910;  635.620
1034.311;   27.138;   -9.640;  677.220
1034.860;   27.720;  -13.310;  691.000
1035.408;   27.430;  -11.830;  722.720
1035.957;   27.772;  -12.000;  719.540
1036.506;   25.243;  -11.690;  530.800
1037.055;   27.803;  -10.990;  844.320
1037.603;   26.089;  -15.120;  664.000
1038.152;   24.355;  -12.450;  534.760
1038.700;   25.099;  -10.560;  585.740
1039.249;   25.513;  -11.080;  681.220
1039.797;   25.515;  -12.540;  633.360
1040.345;   25.798;  -11.920;  705.420
1040.894;   25.023;  -11.410;  625.300
1041.442;   24.637;  -14.320;  632.200
1041.990;   24.338;  -16.240;  559.160
1042.538;   24.160;  -11.680;  536.180
1043.087;   23.841;  -10.760;  570.860
1043.635;   24.634;  -11.850;  670.500
1044.183;   24.100;  -15.480;  586.400
1044.731;   23.989;  -11.770;  576.000
1045.279;   22.934;  -13.090;  674.920
1045.827;   24.708;  -12.440;  892.400
1046.374;   22.050;  -13.840;  515.420
1046.922;   22.569;  -13.220;  590.580
1047.470;   23.931;  -10.230;  691.300
1048.018;   22.602;  -14.590;  647.960
1048.565;   23.793;  -12.050;  708.600
1049.113;   22.435;  -11.650;  557.000
1049.660;   22.411;  -10.510;  629.660
1050.208;   21.824;  -13.310;  675.640
1050.755;   21.322;  -15.900;  606.580
1051.303;   22.404;  -11.430;  686.820
1051.850;   21.580;   -8.480;  635.120
1052.397;   20.401;  -15.010;  473.960
1052.945;   20.994;  -13.960;  617.760
1053.492;   22.532;  -13.150;  741.840
1054.039;   22.450;   -9.630;  720.180
1054.586;   20.511;  -13.680;  557.240
1055.133;   21.808;  -14.570;  693.140
1055.680;   21.292;  -13.820;  646.620
1056.227;   20.074;  -11.730;  542.780
1056.774;   21.544;  -12.480;  794.980
1057.321;   19.262;  -13.930;  523.260
1057.868;   19.850;  -11.690;  651.320
1058.415;   19.867;   -9.520;  651.980
1058.961;   20.363;  -13.160;  678.940
1059.508;   19.847;  -12.920;  643.820
1060.055;   20.148;  -11.920;  581.780
1060.601;   19.566;  -11.500;  624.300
1061.148;   19.238;  -14.330;  616.820
1061.694;   18.485;  -16.870;  592.580
1062.241;   19.053;  -10.330;  596.320
1062.787;   18.901;  -10.620;  663.140
1063.334;   20.623;  -10.110;  808.560
1063.880;   18.984;  -13.400;  668.360
1064.426;   19.097;  -10.680;  706.820
1064.972;   17.360;   -9.920;  601.340
1065.518;   16.560;  -10.980;  566.640
1066.065;   18.407;  -14.890;  624.460
1066.611;   17.483;  -12.870;  598.800
1067.157;   18.190;  -12.950;  641.860
1067.703;   17.988;  -13.540;  668.480
1068.249;   17.877;  -13.540;  605.220
1068.794;   17.722;  -12.600;  626.880
1069.340;   16.814;  -10.620;  578.960
1069.886;   17.368;  -12.830;  590.700
1070.432;   15.837;  -14.870;  541.720
1070.977;   16.205;  -11.980;  601.080
1071.523;   16.589;   -8.200;  573.060
1072.068;   16.129;  -12.330;  582.000
1072.614;   16.107;  -16.370;  527.760
1073.160;   17.217;  -11.100;  687.040
1073.705;   16.171;  -10.480;  572.520
1074.250;   16.063;  -14.520;  559.900
1074.796;   16.501;  -11.460;  655.160
1075.341;   16.560;  -11.950;  664.100
1075.886;   15.513;  -11.460;  594.240
1076.431;   14.940;  -13.770;  649.880
1076.976;   15.321;  -12.680;  639.220
1077.521;   15.104;  -13.170;  583.080
1078.067;   14.046;  -10.860;  579.400
1078.612;   14.957;  -13.920;  661.620
1079.156;   15.272;  -13.880;  601.540
1079.701;   15.769;  -13.120;  693.260
1080.246;   14.842;   -9.940;  696.300
1080.791;   14.584;  -14.740;  625.020
1081.336;   14.756;  -13.750;  659.320
1081.880;   15.165;  -13.400;  649.680
1082.425;   13.467;  -12.220;  573.480
1082.970;   15.205;  -11.610;  717.040
1083.514;   13.709;  -13.580;  597.000
1084.059;   13.904;  -12.810;  586.720
1084.603;   13.292;  -12.320;  565.840
1085.147;   12.848;  -13.190;  645.220
1085.692;   14.586;  -12.480;  716.800
1086.236;   12.614;  -13.020;  503.140
1086.780;   14.662;   -9.190;  751.440
1087.325;   13.537;  -12.480;  654.620
1087.869;   13.136;  -12.450;  610.700
1088.413;   14.013;  -12.240;  705.040
1088.957;   12.279;   -9.020;  543.400
1089.501;   13.469;  -10.320;  766.640
1090.045;   13.210;  -12.720;  726.480
1090.589;   11.466;  -13.690;  569.920
1091.133;   12.646;  -10.020;  673.340
1091.676;   12.731;  -12.330;  591.940
1092.220;   12.003;  -14.970;  600.920
1092.764;   13.254;  -12.430;  706.960
1093.307;   12.577;   -9.800;  673.780
1093.851;   11.263;  -14.970;  556.540
1094.395;   11.749;  -15.310;  683.140
1094.938;   11.617;  -10.370;  632.520
1095.482;   11.736;  -11.050;  559.800
1096.025;   11.751;  -11.840;  710.880
1096.568;   12.499;  -12.840;  779.280
1097.112;    9.569;  -14.700;  508.180
1097.655;   11.052;   -8.720;  603.000
1098.198;   10.024;  -13.610;  600.180
1098.741;   10.450;  -13.350;  612.860
1099.285;   11.379;  -11.230;  657.300
1099.828;    9.432;  -11.840;  439.400
1100.371;   10.343;  -10.840;  608.160
1100.914;   11.064;  -14.190;  682.660
1101.457;   11.067;  -11.240;  679.900
1101.999;    9.305;  -11.270;  584.680
1102.542;    9.299;  -11.480;  641.440
1103.085;    9.823;  -11.750;  658.500
1103.628;   10.869;  -11.400;  762.060
1104.170;    9.543;  -10.490;  588.280
1104.713;    9.740;  -10.600;  646.700
1105.256;    9.204;  -14.360;  557.440
1105.798;    8.490;  -13.210;  499.980
1106.341;   10.537;  -10.270;  728.900
1106.883;    9.070;  -12.200;  521.340
1107.425;    8.459;  -13.110;  668.180
1107.968;    8.996;  -12.840;  612.380
1108.510;    9.158;   -6.480;  684.960
1109.052;    7.535;  -13.940;  612.620
1109.594;    8.435;  -13.690;  554.440
1110.136;    9.197;  -11.880;  643.220
1110.679;    7.681;   -9.500;  633.080
1111.221;    8.341;  -14.160;  604.460
1111.763;    7.252;  -13.980;  559.220
1112.304;    7.679;  -13.880;  547.140
1112.846;    8.441;  -12.210;  666.240
1113.388;   10.683;  -11.390;  942.180
1113.930;    8.342;  -14.540;  694.200
1114.472;    7.781;  -12.640;  606.540
1115.013;    6.076;  -11.620;  551.280
1115.555;    6.270;  -13.640;  587.100
1116.097;    6.362;  -15.380;  579.480
1116.638;    7.365;  -12.640;  684.600
1117.180;    8.255;   -9.850;  667.740
1117.721;    6.245;  -13.690;  568.580
1118.262;    7.083;  -12.680;  677.960
1118.804;    7.720;  -12.530;  637.340
1119.345;    6.277;  -11.690;  578.400
1119.886;    7.617;  -13.380;  704.040
1120.427;    6.070;  -14.070;  589.020
1120.969;    5.890;  -13.500;  597.920
1121.510;    5.367;  -11.480;  563.060
1122.051;    6.223;  -12.830;  723.580
1122.592;    5.684;  -14.290;  655.420
1123.133;    5.082;  -12.400;  547.940
1123.673;    7.075;  -10.130;  706.480
1124.214;    5.698;  -12.930;  612.460
1124.755;    6.382;  -14.380;  639.460
1125.296;    6.261;  -14.000;  627.320
1125.836;    6.529;  -10.070;  691.500
1126.377;    4.872;  -12.640;  599.660
1126.918;    6.099;  -12.960;  614.980
1127.458;    5.394;  -13.350;  622.220
1127.999;    5.675;  -10.750;  656.980
1128.539;    5.591;  -12.350;  694.240
1129.079;    4.859;  -14.860;  632.720
1129.620;    4.705;  -13.840;  558.100
1130.160;    4.336;  -12.330;  539.480
1130.700;    4.937;  -14.530;  640.840
1131.240;    5.604;  -12.530;  643.700
1131.781;    4.150;  -14.450;  619.680
1132.321;    4.256;   -9.790;  599.120
1132.861;    3.561;  -14.860;  564.200
1133.401;    3.312;  -14.290;  593.940
1133.941;    4.317;  -11.750;  626.280
1134.481;    3.902;   -9.920;  597.580
1135.020;    3.843;  -12.290;  609.160
1135.560;    4.100;  -11.650;  674.940
1136.100;    3.792;  -16.270;  501.160
1136.640;    3.604;  -10.890;  510.480
1137.179;    3.244;  -14.180;  537.960
1137.719;    3.429;  -16.250;  605.400
1138.258;    4.066;  -14.230;  587.360
1138.798;    3.930;   -9.090;  663.780
1139.337;    1.889;  -15.130;  482.840
1139.877;    3.203;  -13.680;  642.360
1140.416;    5.482;  -11.320;  878.060
1140.955;    2.799;  -10.860;  535.380
1141.494;    2.876;  -12.920;  669.280
1142.034;    2.893;  -13.930;  583.520
1142.573;    3.792;  -11.440;  646.280
1143.112;    2.403;  -12.000;  553.480
1143.651;    2.032;  -13.670;  536.480
1144.190;    3.399;  -12.730;  691.640
1144.729;    2.805;  -14.560;  607.420
1145.267;    2.418;  -11.830;  584.900
1145.806;    2.695;  -12.230;  637.040
1146.345;    1.979;  -14.130;  635.020
1146.884;    2.269;  -11.590;  622.500
1147.422;    1.163;  -12.550;  533.060
1147.961;    2.982;  -11.180;  708.460
1148.500;    2.671;  -11.510;  669.720
1149.038;    2.968;  -11.640;  632.500
1149.577;    2.243;  -10.130;  698.640
1150.115;   -0.104;  -13.970;  452.280
1150.653;    1.720;  -14.520;  607.340
1151.192;    1.674;  -12.810;  552.920
1151.730;    1.297;   -9.100;  652.560
1152.268;    0.918;  -12.220;  589.520
1152.806;    1.256;  -14.140;  571.180
1153.344;    0.683;  -12.350;  577.640
1153.882;    1.577;   -8.980;  600.060
1154.421;   -0.521;  -15.190;  470.620
1154.958;    0.473;  -15.210;  595.240
1155.496;    1.811;  -12.850;  645.280
1156.034;    2.021;   -9.940;  721.880
1156.572;    1.978;  -13.570;  667.060
1157.110;   -0.192;  -14.590;  473.940
1157.647;    1.462;  -13.030;  676.960
1158.185;    0.246;  -12.140;  564.320
1158.723;   -1.427;  -14.390;  509.200
1159.260;    0.758;  -14.090;  701.700
1159.798;    0.991;  -11.920;  658.160
1160.335;    1.060;  -11.110;  631.820

