
Integration time [ms]:   3.276
Averaging Nr. [scans]: 1000
Smoothing Nr. [pixels]: 0
Data measured with spectrometer [name]: 7414430SP
Wave   ;Sample   ;Dark     ;Reference
[nm]   ;[counts] ;[counts] ;[counts] 

288.544;  151.242;    7.793;  793.890
289.143;  154.827;    7.462;  681.602
289.742;  154.053;    8.602;  828.814
290.341;  140.181;    1.321;  789.841
290.940;  129.459;   -0.709;  730.702
291.538;  129.685;    0.881;  881.108
292.137;  129.726;    0.122;  792.581
292.736;  135.699;   -1.929;  975.101
293.335;  132.390;   -8.229;  735.086
293.934;  131.209;   -5.279;  781.677
294.532;  129.502;   -1.369; 1031.958
295.131;  116.434;   -7.641;  834.394
295.730;  116.608;   -8.420;  809.588
296.328;  114.983;   -5.611;  783.442
296.927;  115.779;   -5.781;  779.652
297.525;  117.160;   -6.361;  781.236
298.124;  107.335;  -11.382;  654.009
298.722;  110.383;   -7.641;  761.933
299.321;  108.687;   -6.811;  708.597
299.919;  107.029;   -6.991;  751.918
300.518;  104.535;  -10.362;  689.338
301.116;  105.817;   -9.581;  691.381
301.715;  105.540;   -4.891;  730.222
302.313;  104.560;   -8.801;  704.943
302.911;  100.435;   -8.522;  733.830
303.509;  104.604;   -6.171;  925.627
304.108;  102.608;   -7.311;  760.383
304.706;  102.395;   -8.321;  801.664
305.304;   96.708;  -10.222;  796.707
305.902;  101.270;   -6.021;  784.484
306.500;   98.082;   -4.971;  728.200
307.098;   96.566;   -7.061;  746.560
307.696;   93.777;   -8.801;  780.432
308.294;   94.371;   -6.411;  731.359
308.892;   95.269;   -2.901;  759.769
309.490;   93.207;   -5.041;  712.161
310.088;   91.930;   -5.002;  788.444
310.686;   94.796;   -2.041;  821.749
311.284;   90.202;   -2.351;  766.040
311.882;   89.510;   -4.422;  731.225
312.480;   86.387;   -4.192;  697.167
313.078;   86.927;   -1.172;  808.331
313.675;   87.185;   -2.601;  691.600
314.273;   83.207;   -1.312;  797.837
314.871;   83.381;   -3.942;  589.829
315.468;   80.454;   -2.802;  652.090
316.066;   83.184;   -0.701;  694.427
316.664;   76.416;   -4.362;  656.351
317.261;   79.924;   -2.872;  910.128
317.859;   75.260;   -2.022;  768.735
318.456;   76.651;   -0.531;  830.096
319.054;   72.208;   -3.912;  787.828
319.651;   71.519;   -4.752;  759.928
320.249;   69.373;   -2.602;  810.188
320.846;   67.117;   -0.821;  714.286
321.443;   65.380;   -4.642;  832.135
322.041;   62.910;   -5.002;  812.315
322.638;   59.489;   -3.982;  701.456
323.235;   60.930;   -3.411;  665.683
323.833;   58.219;   -7.361;  740.354
324.430;   54.171;   -8.611;  615.900
325.027;   54.502;   -4.061;  876.855
325.624;   54.069;   -4.031;  644.532
326.221;   51.633;   -7.481;  689.717
326.818;   51.048;   -5.281;  818.332
327.415;   54.551;   -7.460;  748.828
328.012;   53.498;   -5.510;  690.585
328.609;   52.435;   -7.880;  731.389
329.206;   50.868;   -8.331;  778.621
329.803;   50.898;   -5.121;  737.841
330.400;   52.523;   -4.510;  704.260
330.997;   55.489;   -6.441;  817.147
331.594;   53.709;   -8.831;  788.185
332.191;   58.863;   -7.621;  728.722
332.787;   61.180;   -4.591;  844.463
333.384;   59.974;   -7.412;  763.093
333.981;   58.992;   -8.293;  815.687
334.578;   61.447;   -7.052;  708.378
335.174;   63.365;   -3.102;  731.469
335.771;   63.776;   -5.943;  836.456
336.367;   60.841;   -7.393;  710.631
336.964;   63.802;   -4.063;  793.266
337.561;   61.701;   -3.813;  731.112
338.157;   57.625;   -4.654;  911.916
338.754;   55.774;   -7.934;  796.589
339.350;   53.366;   -4.414;  722.493
339.946;   55.424;   -4.664;  773.135
340.543;   46.798;   -6.375;  846.136
341.139;   42.312;   -9.815;  720.836
341.735;   39.537;   -4.526;  772.593
342.332;   38.328;   -4.895;  691.472
342.928;   38.465;   -4.295;  795.394
343.524;   33.201;   -5.476;  761.684
344.120;   29.515;   -5.856;  738.562
344.716;   32.204;   -2.155;  723.717
345.313;   30.080;   -6.275;  795.342
345.909;   25.043;   -8.815;  627.336
346.505;   26.358;   -5.305;  740.247
347.101;   27.491;   -2.674;  827.864
347.697;   27.652;   -4.344;  785.398
348.293;   23.519;   -9.975;  627.244
348.889;   23.037;   -5.774;  745.914
349.485;   21.903;   -5.004;  688.205
350.081;   23.037;   -4.704;  772.592
350.676;   18.594;   -6.635;  691.606
351.272;   22.172;   -4.504;  809.530
351.868;   21.722;   -3.914;  780.497
352.464;   19.423;   -9.044;  723.932
353.059;   15.889;   -8.314;  646.017
353.655;   18.981;   -7.024;  777.063
354.251;   19.821;   -5.343;  759.845
354.846;   14.501;   -8.604;  740.646
355.442;   12.585;   -6.945;  753.071
356.038;   13.677;   -7.564;  751.708
356.633;   14.509;   -5.814;  728.594
357.229;   12.649;   -7.364;  724.757
357.824;   10.186;   -8.024;  703.600
358.420;    9.613;   -9.384;  679.726
359.015;   10.038;   -5.104;  695.357
359.610;   11.815;   -6.854;  763.920
360.206;    6.234;  -10.185;  603.240
360.801;    8.678;   -7.054;  646.503
361.396;    9.624;   -5.034;  725.975
361.992;    5.578;   -8.284;  668.220
362.587;    4.077;   -8.625;  670.160
363.182;    5.216;   -7.674;  689.631
363.777;    5.454;   -5.164;  738.242
364.372;    5.443;   -8.604;  737.314
364.967;    2.321;   -9.055;  680.744
365.563;    5.892;   -6.114;  815.567
366.158;    3.120;   -5.814;  685.161
366.753;    2.836;   -7.854;  649.263
367.348;    2.419;   -7.804;  746.056
367.942;    1.684;   -7.954;  697.298
368.537;    0.904;   -4.984;  754.245
369.132;    0.884;   -8.564;  703.428
369.727;   -2.450;   -8.855;  638.079
370.322;   -1.582;   -6.245;  580.186
370.917;   -2.176;   -6.425;  710.646
371.511;    0.822;   -6.294;  861.834
372.106;   -2.120;   -7.685;  776.964
372.701;   -5.654;   -7.335;  585.988
373.296;   -0.765;   -4.564;  863.135
373.890;   -4.876;  -10.235;  647.840
374.485;   -6.508;   -7.885;  691.199
375.079;   -2.762;   -7.324;  738.685
375.674;   -1.962;   -3.494;  812.970
376.268;   -6.192;   -8.525;  691.759
376.863;  -10.896;  -10.086;  580.327
377.457;   -5.474;   -7.025;  662.490
378.052;   -7.925;   -3.585;  764.884
378.646;   -8.346;   -7.595;  741.167
379.240;   -8.992;   -8.335;  721.176
379.835;   -7.682;   -5.785;  636.978
380.429;   -9.590;   -4.335;  562.557
381.023;  -10.312;   -6.805;  779.205
381.617;  -11.255;   -9.195;  680.106
382.212;   -9.558;   -6.905;  685.303
382.806;   -7.561;   -3.745;  760.690
383.400;  -11.541;   -7.745;  672.281
383.994;  -12.677;   -9.765;  664.870
384.588;   -9.001;   -6.564;  697.701
385.182;   -7.754;   -5.344;  726.624
385.776;   -9.600;   -8.514;  706.875
386.370;  -12.525;   -9.555;  681.968
386.964;  -11.178;   -8.715;  684.155
387.558;  -10.133;   -6.174;  598.360
388.152;  -13.658;   -8.725;  681.959
388.745;  -10.730;   -7.965;  814.707
389.339;   -9.949;   -5.924;  747.642
389.933;   -9.060;   -5.524;  695.370
390.527;   -9.833;   -7.114;  859.029
391.120;  -15.639;  -10.725;  595.318
391.714;  -13.125;   -8.035;  711.633
392.308;  -10.046;   -3.574;  780.253
392.901;  -13.554;   -7.245;  642.460
393.495;  -14.811;   -9.285;  595.414
394.089;  -13.432;   -5.895;  760.452
394.682;  -14.327;   -4.295;  697.188
395.275;  -14.799;   -9.875;  719.927
395.869;  -15.360;   -8.485;  667.314
396.462;  -14.143;   -7.455;  616.609
397.056;  -10.756;   -5.424;  776.621
397.649;  -14.903;   -6.605;  731.575
398.242;  -12.291;   -8.224;  712.645
398.836;  -11.913;   -7.474;  766.408
399.429;  -13.860;   -7.094;  631.041
400.022;  -16.851;   -9.475;  665.902
400.615;  -13.214;   -7.145;  805.609
401.208;  -12.941;   -7.174;  691.451
401.802;  -15.114;   -5.515;  699.329
402.395;  -15.326;   -9.875;  683.502
402.988;  -16.729;   -8.845;  696.627
403.581;  -12.867;   -8.874;  646.878
404.174;  -10.849;   -5.324;  686.568
404.767;  -13.140;   -9.575;  638.583
405.360;  -16.473;  -10.965;  621.445
405.953;  -11.298;   -8.764;  759.034
406.545;  -10.221;   -7.514;  725.342
407.138;  -14.374;  -10.025;  618.350
407.731;  -13.771;  -10.034;  613.303
408.324;   -9.126;   -9.374;  660.554
408.917;  -10.570;   -6.534;  681.864
409.509;  -11.812;   -8.004;  740.396
410.102;  -13.572;   -9.875;  643.948
410.695;   -8.119;   -8.604;  665.758
411.287;   -9.519;   -6.794;  599.821
411.880;  -10.463;   -9.334;  585.421
412.472;  -12.727;  -10.254;  613.092
413.065;  -11.190;   -6.714;  629.408
413.657;   -8.980;   -7.234;  576.678
414.250;   -8.407;  -10.544;  646.681
414.842;   -9.951;   -9.744;  676.353
415.434;   -7.790;   -6.994;  570.463
416.027;   -3.606;   -5.893;  652.196
416.619;   -4.996;   -7.264;  713.400
417.211;   -5.830;  -10.374;  599.352
417.804;   -3.090;   -7.993;  628.499
418.396;   -6.815;   -7.234;  607.643
418.988;   -4.358;   -9.443;  659.238
419.580;   -7.845;  -10.724;  568.276
420.172;   -6.146;  -10.323;  536.196
420.764;   -1.425;   -8.793;  672.482
421.356;   -2.561;  -11.143;  636.898
421.948;   -3.409;   -8.293;  677.661
422.540;    2.320;   -7.893;  680.027
423.132;    0.933;   -7.082;  600.641
423.724;   -3.282;   -8.653;  561.267
424.316;   -0.157;  -10.213;  621.345
424.908;    2.286;   -9.762;  591.517
425.500;    2.512;   -5.572;  647.978
426.092;    3.865;   -8.422;  648.268
426.683;    2.846;   -9.283;  684.836
427.275;    5.973;   -7.852;  641.471
427.867;    6.839;   -5.272;  668.948
428.458;    7.966;   -7.682;  732.344
429.050;    6.661;  -10.612;  680.749
429.642;    7.784;   -9.882;  743.124
430.233;    8.219;   -6.962;  569.356
430.825;   10.434;   -6.842;  724.809
431.416;    7.360;   -9.672;  698.241
432.008;   11.047;   -6.552;  651.723
432.599;   11.746;   -6.891;  656.073
433.190;    9.757;  -10.912;  637.670
433.782;    8.233;  -11.172;  590.395
434.373;   14.965;   -6.061;  884.765
434.964;   14.330;   -8.251;  602.920
435.556;   11.366;   -9.722;  634.537
436.147;   15.045;   -9.082;  758.490
436.738;   15.288;   -8.041;  701.099
437.329;   19.648;   -7.341;  721.723
437.920;   12.364;   -8.162;  666.688
438.511;   13.312;  -11.802;  564.526
439.103;   19.447;  -10.191;  623.998
439.694;   20.765;   -7.601;  681.583
440.285;   21.731;   -8.541;  764.432
440.876;   20.294;   -9.751;  845.738
441.466;   19.737;   -9.401;  575.162
442.057;   24.250;   -7.760;  665.814
442.648;   23.786;   -9.971;  746.255
443.239;   23.112;  -11.001;  620.477
443.830;   27.344;   -7.990;  704.958
444.421;   28.526;   -7.910;  655.474
445.011;   24.892;   -8.131;  693.619
445.602;   25.154;   -7.111;  743.126
446.193;   26.539;  -10.920;  488.117
446.783;   31.513;   -6.500;  640.397
447.374;   26.544;   -8.671;  692.759
447.964;   26.545;  -10.781;  713.770
448.555;   35.375;   -9.650;  822.742
449.145;   31.264;   -8.660;  662.853
449.736;   32.442;   -8.990;  803.179
450.326;   32.816;   -9.500;  713.626
450.917;   37.946;   -8.680;  675.324
451.507;   36.566;   -7.520;  600.661
452.097;   37.406;   -8.590;  746.267
452.688;   38.095;  -11.340;  742.160
453.278;   38.614;  -10.100;  566.840
453.868;   42.433;   -6.019;  793.550
454.458;   40.308;   -9.440;  651.141
455.048;   40.901;  -10.560;  711.783
455.639;   42.773;  -11.799;  567.096
456.229;   46.053;   -6.899;  710.694
456.819;   47.697;   -7.389;  751.158
457.409;   48.221;  -11.119;  773.993
457.999;   50.828;   -9.289;  737.505
458.589;   50.602;   -6.139;  686.606
459.179;   50.621;   -8.729;  717.658
459.769;   48.713;   -9.789;  627.099
460.358;   53.628;  -10.259;  797.262
460.948;   52.923;   -7.299;  689.503
461.538;   54.999;  -10.289;  660.677
462.128;   53.405;  -11.269;  664.934
462.717;   60.045;   -9.368;  710.326
463.307;   62.450;   -7.908;  705.846
463.897;   58.257;   -9.599;  656.942
464.486;   58.741;   -9.769;  837.128
465.076;   62.519;   -8.048;  733.776
465.666;   65.554;   -9.358;  652.900
466.255;   63.324;   -7.919;  785.651
466.845;   62.964;  -11.689;  666.749
467.434;   65.591;   -7.818;  725.873
468.023;   66.516;   -7.678;  658.357
468.613;   64.170;  -10.939;  713.946
469.202;   68.943;  -10.118;  646.507
469.791;   72.823;   -9.108;  737.811
470.381;   74.423;   -6.058;  742.813
470.970;   74.152;  -10.428;  711.099
471.559;   74.735;  -10.268;  733.291
472.148;   76.213;   -8.448;  675.737
472.738;   79.291;   -6.917;  765.466
473.327;   78.060;  -11.978;  637.529
473.916;   79.477;  -11.888;  737.446
474.505;   83.787;   -9.437;  751.703
475.094;   84.878;   -6.747;  806.570
475.683;   85.323;   -9.367;  797.699
476.272;   86.993;  -12.637;  730.632
476.861;   89.448;  -10.027;  706.754
477.449;   95.914;   -8.716;  728.487
478.038;   89.382;   -9.577;  692.513
478.627;   91.196;   -9.718;  714.852
479.216;   97.642;   -8.947;  769.441
479.805;  100.293;   -6.256;  783.375
480.393;  100.191;   -7.937; 1008.945
480.982;   99.516;   -7.717;  874.501
481.571;  105.154;   -9.266;  858.333
482.159;  106.176;   -7.636;  705.386
482.748;  106.490;   -9.667;  821.385
483.336;  110.855;  -10.376;  858.209
483.925;  110.872;   -7.147;  774.373
484.513;  117.197;   -7.996;  758.962
485.102;  114.723;  -10.027;  810.965
485.690;  123.319;  -10.446; 1011.050
486.278;  125.017;   -8.446;  979.329
486.867;  125.212;   -6.356;  809.662
487.455;  127.165;   -9.136;  898.229
488.043;  129.222;  -10.646;  748.361
488.631;  137.244;   -7.456; 1005.079
489.220;  140.681;   -6.636;  908.626
489.808;  141.307;  -11.036;  741.415
490.396;  149.178;  -10.246;  914.645
490.984;  154.649;   -8.556;  830.161
491.572;  163.877;   -5.886;  940.315
492.160;  171.041;   -9.486;  919.081
492.748;  182.307;  -10.976;  884.341
493.336;  204.266;   -8.776; 1019.693
493.924;  229.702;   -5.465;  958.077
494.512;  257.218;   -9.986; 1066.638
495.100;  292.153;  -10.636; 1103.280
495.687;  347.076;  -10.885; 1206.373
496.275;  408.938;   -8.126; 1150.796
496.863;  478.816;  -10.586; 1281.171
497.451;  578.690;  -11.926; 1386.805
498.038;  704.988;  -10.885; 1556.729
498.626;  808.939;   -6.315; 1741.407
499.214;  961.279;   -7.326; 2016.609
499.801; 1153.654;  -11.906; 2220.633
500.389; 1384.833;  -10.466; 2312.494
500.976; 1678.568;   -5.236; 2744.849
501.564; 2096.482;   -8.936; 3148.565
502.151; 2444.845;  -13.176; 3515.999
502.738; 2857.220;  -10.646; 3971.274
503.326; 3243.857;   -9.525; 4403.796
503.913; 3649.126;  -10.856; 5161.749
504.500; 4030.655;  -11.586; 5986.420
505.088; 4416.171;  -10.336; 6381.201
505.675; 4921.899;   -6.355; 6925.547
506.262; 5600.833;   -9.046; 7619.060
506.849; 6315.138;  -10.416; 8733.969
507.436; 6843.726;  -10.305; 9790.121
508.023; 7436.501;   -5.496; 9985.472
508.610; 7646.473;   -7.856;10434.618
509.197; 8222.137;  -10.097;11198.435
509.784; 9510.873;  -10.886;12391.194
510.371;10653.790;   -9.315;13603.713
510.958;11480.286;   -9.936;14426.586
511.545;12200.878;   -9.326;15243.775
512.132;12972.021;  -10.075;15945.876
512.719;13501.719;   -7.796;16340.369
513.305;14577.417;  -10.606;18011.766
513.892;15346.569;  -11.486;19754.971
514.479;16556.375;   -9.126;20967.805
515.066;17945.291;   -6.026;22299.793
515.652;19424.061;   -8.466;22908.660
516.239;20702.311;  -10.886;23798.875
516.825;21609.625;  -11.496;25567.275
517.412;22588.084;   -5.796;28154.959
517.998;23248.625;  -10.506;28344.111
518.585;23270.689;  -10.076;27134.219
519.171;23785.623;   -8.315;27268.576
519.758;25614.270;   -8.596;28964.129
520.344;27597.449;   -8.466;30664.494
520.930;27247.539;  -11.006;32550.605
521.516;28241.346;  -10.495;35422.895
522.103;30198.725;   -5.526;38280.004
522.689;30747.086;   -8.746;37835.117
523.275;30277.828;  -11.376;37288.613
523.861;31825.686;  -11.156;37281.395
524.447;33501.398;   -8.135;37846.949
525.033;33381.965;   -7.896;38321.949
525.619;33605.621;  -12.476;38579.285
526.205;34680.133;   -9.516;40622.875
526.791;37020.270;   -6.926;42258.836
527.377;36904.344;   -8.346;42966.902
527.963;37871.035;   -8.717;42018.949
528.549;36942.383;  -11.016;42476.828
529.135;35301.410;   -8.536;41854.852
529.721;33648.633;   -9.666;41237.711
530.306;31931.146;  -10.066;41259.445
530.892;30303.150;  -11.356;41506.047
531.478;30942.328;   -6.596;43559.613
532.063;35487.723;   -8.836;47695.563
532.649;38310.891;  -10.047;50808.324
533.235;39296.230;   -9.746;51787.500
533.820;39166.246;   -6.566;52145.035
534.406;39360.199;  -10.817;51133.488
534.991;37280.316;   -9.416;49996.805
535.576;33459.102;   -9.036;48882.852
536.162;32303.502;   -6.156;46942.285
536.747;34333.934;  -11.607;45711.746
537.333;40417.965;  -11.787;48510.180
537.918;46972.191;  -12.437;50439.891
538.503;48818.926;   -7.196;50863.711
539.088;46510.824;  -10.556;50906.922
539.673;46678.402;   -8.767;52621.965
540.259;47260.664;  -10.026;52368.094
540.844;44588.633;   -7.416;50879.109
541.429;46213.480;   -9.467;52077.777
542.014;48438.059;   -9.527;52716.695
542.599;47415.191;   -9.946;52363.281
543.184;44341.340;   -7.927;53187.137
543.769;45426.598;   -9.297;54697.605
544.354;45510.672;  -10.127;53913.914
544.938;44157.785;   -9.267;49680.164
545.523;45867.379;   -6.506;47386.277
546.108;48742.508;   -9.787;49151.949
546.693;50649.824;  -11.587;51384.637
547.278;50774.207;  -10.986;51853.254
547.862;47686.520;   -8.206;51173.750
548.447;43087.801;  -10.067;51691.395
549.031;42470.938;   -9.637;52456.703
549.616;47232.766;   -9.926;52714.516
550.201;46920.098;   -6.347;52414.598
550.785;48182.270;   -7.917;52355.059
551.370;47354.113;  -10.867;54589.453
551.954;46771.500;   -9.047;58267.348
552.538;47502.391;   -7.827;59062.176
553.123;45758.969;  -10.287;58115.285
553.707;43560.922;  -12.178;56556.285
554.291;45206.289;   -8.717;56201.668
554.876;48220.715;   -7.457;55335.762
555.460;48168.430;  -10.387;54155.703
556.044;48309.770;   -9.618;53721.484
556.628;46519.453;  -11.567;53731.016
557.212;45435.043;   -8.097;54312.531
557.796;43881.664;  -11.077;53797.773
558.380;43923.238;  -11.108;56145.984
558.964;44369.137;   -9.057;57277.930
559.548;45464.344;   -6.977;56459.641
560.132;43616.426;  -11.457;54434.543
560.716;41952.020;  -11.378;54800.617
561.300;43143.625;   -9.577;57606.945
561.884;44392.980;   -7.127;58972.445
562.467;42297.957;   -7.118;57327.570
563.051;41252.188;  -13.358;54962.434
563.635;42691.125;  -10.178;52594.473
564.219;43482.410;   -7.837;50610.410
564.802;44070.238;  -11.398;49551.180
565.386;43628.617;  -12.788;48370.953
565.969;43021.887;   -9.077;48178.871
566.553;41925.137;   -6.207;49957.305
567.136;42823.895;   -8.568;50369.594
567.720;39572.012;  -11.868;49492.004
568.303;37542.766;   -8.268;50616.352
568.887;37531.875;   -8.698;50727.148
569.470;38115.391;   -6.808;51698.379
570.053;37202.508;  -13.188;52122.078
570.637;34936.113;  -12.037;52536.438
571.220;34622.125;   -8.577;51186.098
571.803;35598.418;   -8.498;51032.762
572.386;37669.555;  -10.498;49609.887
572.969;39996.430;   -9.388;48285.926
573.552;38555.223;   -8.338;47624.285
574.135;37239.305;   -8.518;45498.641
574.718;34787.141;  -13.628;41970.434
575.301;33940.250;  -10.893;41447.137
575.884;33093.359;   -8.158;40923.836
576.467;34158.227;  -10.328;45267.723
577.050;35534.414;  -13.058;48175.543
577.633;36750.289;   -9.458;47729.328
578.216;36173.852;   -8.928;47579.793
578.799;35356.535;   -9.358;47820.996
579.381;34270.992;  -11.388;48115.551
579.964;32122.934;  -11.718;47333.766
580.547;34006.277;   -8.588;46668.969
581.129;35061.379;   -8.859;44466.141
581.712;36113.344;  -10.729;44164.922
582.294;36671.504;  -11.118;46477.855
582.877;36555.652;   -5.218;48244.254
583.459;34711.074;   -8.679;47437.895
584.042;32505.070;  -10.709;46943.219
584.624;32449.166;  -11.669;46792.227
585.206;32350.932;   -8.218;46557.250
585.789;32744.113;  -10.569;45793.773
586.371;35067.387;  -11.859;43836.391
586.953;35710.355;  -10.719;42972.492
587.536;36693.172;   -7.198;42487.211
588.118;37200.297;   -8.720;42086.414
588.700;33334.023;  -10.439;43389.930
589.282;32291.508;   -9.198;43646.039
589.864;33429.375;   -9.199;43438.109
590.446;34748.695;  -11.319;43151.926
591.028;34527.406;  -11.159;42781.867
591.610;33155.934;  -11.779;42839.098
592.192;30432.750;   -7.668;42820.402
592.774;29026.867;  -11.949;40724.277
593.356;28148.229;  -12.129;39874.789
593.937;27340.734;  -10.669;39980.648
594.519;29596.326;   -6.509;42069.633
595.101;31428.801;  -10.849;42976.031
595.683;31441.900;  -11.679;44084.441
596.264;32379.549;   -9.049;43478.797
596.846;32092.877;   -8.849;43803.672
597.427;32028.586;   -9.570;42986.934
598.009;33247.309;  -12.620;42832.219
598.591;33681.797;  -10.039;42580.086
599.172;33303.320;  -10.369;43061.805
599.753;33538.887;   -9.140;41691.469
600.335;34880.988;  -11.430;40692.520
600.916;33008.809;   -9.939;39982.422
601.498;30769.385;   -8.479;40318.617
602.079;29297.734;  -10.920;40670.609
602.660;29061.617;  -11.480;41450.898
603.241;30748.678;  -11.699;41137.738
603.823;29407.861;   -9.579;38868.797
604.404;28587.471;  -10.620;38182.785
604.985;30440.053;  -10.450;38078.047
605.566;30559.646;   -9.129;38056.633
606.147;30633.053;   -7.510;37020.418
606.728;32021.502;  -10.660;37883.359
607.309;30442.686;  -11.740;38748.273
607.890;30109.539;   -9.759;38850.230
608.471;29809.891;   -8.250;37457.918
609.051;29233.104;   -9.240;36066.457
609.632;28056.547;  -12.120;35991.074
610.213;28272.742;   -9.110;37402.641
610.794;29142.602;   -8.030;38383.363
611.374;29177.508;   -8.110;40562.387
611.955;29980.875;  -13.560;38533.727
612.536;31335.373;  -11.400;36951.789
613.116;30985.559;   -8.070;37197.891
613.697;31217.564;  -10.830;38411.125
614.277;29297.691;  -11.641;38673.938
614.858;30010.938;  -13.310;37075.863
615.438;29676.844;   -7.460;35092.906
616.019;27396.906;   -7.601;33666.301
616.599;27568.211;  -12.020;34189.023
617.179;29196.994;  -11.780;36952.047
617.760;30305.133;   -8.570;39582.574
618.340;31080.957;  -11.471;38943.977
618.920;31952.061;  -11.170;37594.156
619.500;32121.170;  -11.071;37866.938
620.080;31244.230;   -7.750;37869.043
620.660;32330.803;  -12.711;36868.617
621.241;34025.336;  -10.211;36352.309
621.821;34412.309;  -10.961;35459.520
622.401;33282.469;   -7.720;35207.414
622.980;32257.539;   -8.981;35980.422
623.560;30795.539;   -9.331;37351.328
624.140;29581.209;   -9.850;34388.582
624.720;24772.293;   -7.451;32368.764
625.300;21415.018;   -9.070;32638.629
625.880;24771.564;  -12.601;34599.035
626.459;28793.262;  -11.751;36831.738
627.039;31626.150;   -9.281;38299.098
627.619;31487.850;   -8.801;38289.574
628.198;30002.244;  -12.071;37220.695
628.778;29016.729;   -9.461;37632.563
629.357;29643.266;   -8.491;38003.012
629.937;29839.633;   -9.721;38402.039
630.516;29533.711;   -9.951;37868.801
631.096;29290.547;  -11.731;35760.410
631.675;31372.129;   -8.572;35225.219
632.254;36348.836;  -11.282;35130.289
632.834;35890.926;  -13.322;35794.570
633.413;34204.906;  -10.301;35788.922
633.992;31718.615;   -8.582;34532.863
634.571;32430.170;   -8.352;33590.113
635.151;35126.375;  -11.912;34943.863
635.730;33675.477;  -10.511;35352.523
636.309;30262.133;   -7.731;35366.605
636.888;27709.838;   -9.952;36165.637
637.467;28252.713;  -11.672;37515.902
638.046;29800.299;   -8.901;39288.695
638.625;32743.402;   -7.912;38279.699
639.204;32635.105;  -10.022;37741.598
639.782;31451.250;  -12.252;38364.551
640.361;27668.773;  -10.041;36740.621
640.940;24977.480;  -11.161;34950.082
641.519;25861.314;   -9.701;34137.398
642.097;28678.014;  -11.271;35654.258
642.676;31229.025;   -8.651;35637.957
643.255;32237.336;   -8.711;36567.074
643.833;31520.178;   -9.581;37809.434
644.412;31547.088;  -13.711;37337.293
644.990;30562.738;  -11.811;37018.531
645.569;30528.838;   -9.411;36518.469
646.147;30096.012;  -10.291;36186.430
646.726;30096.600;  -12.401;36267.688
647.304;31109.053;  -10.411;36647.625
647.882;32547.619;   -9.651;39286.742
648.461;34069.055;   -9.631;39157.703
649.039;32396.281;  -11.881;35412.883
649.617;31258.219;   -9.661;34744.918
650.195;30552.490;   -9.301;35403.098
650.773;29296.100;  -10.511;35053.797
651.352;26977.432;  -11.521;33756.816
651.930;24827.639;  -12.211;31868.773
652.508;23393.113;   -9.171;33121.551
653.086;27268.549;   -9.371;33564.793
653.663;30217.018;  -13.161;34054.668
654.241;29010.223;  -13.031;35693.309
654.819;30473.301;   -9.371;36422.906
655.397;30324.018;  -10.511;38213.484
655.975;29825.373;  -10.371;39507.625
656.553;29515.301;  -10.051;39498.223
657.130;28021.174;  -10.061;40395.480
657.708;27384.393;   -9.561;39242.020
658.286;27505.951;  -11.511;38920.020
658.863;28844.359;  -10.261;40202.898
659.441;32260.861;   -7.531;39677.938
660.018;32185.900;   -9.501;40413.355
660.596;30728.014;  -13.301;39931.414
661.173;32152.566;  -11.211;39604.531
661.750;32399.783;   -9.951;39700.070
662.328;31485.496;   -9.390;39292.809
662.905;30727.211;  -11.330;38235.648
663.482;26410.057;   -9.050;36212.305
664.060;24447.236;   -8.240;35944.945
664.637;27352.223;  -10.050;35170.785
665.214;28951.008;  -11.760;34197.523
665.791;30684.076;  -10.530;34549.520
666.368;29722.932;   -9.690;35118.578
666.945;29968.887;   -9.320;36019.418
667.522;31477.924;  -11.860;36048.438
668.099;31332.830;  -10.770;36243.914
668.676;29987.846;   -6.260;35958.875
669.253;28595.992;   -7.000;37384.730
669.830;29066.904;  -10.190;36779.629
670.407;29040.764;   -9.550;35231.289
670.984;28762.064;   -9.260;35544.270
671.560;29462.297;   -9.280;35466.867
672.137;28837.273;  -11.810;34280.863
672.714;29883.508;  -11.490;34632.863
673.290;30903.611;   -7.740;35135.422
673.867;30931.146;  -10.660;36114.480
674.443;30788.023;  -12.230;36152.859
675.020;28677.195;  -10.450;35327.238
675.596;29706.695;   -9.260;35795.176
676.173;30484.355;  -10.780;35430.355
676.749;30113.471;  -13.690;33549.516
677.326;29944.928;  -11.980;32210.012
677.902;29933.996;   -8.630;32068.871
678.478;29274.178;  -10.730;32583.891
679.054;28335.865;  -10.520;32088.928
679.631;28689.941;  -11.920;30978.848
680.207;30234.766;   -7.490;33160.887
680.783;31641.133;   -9.860;35570.363
681.359;30760.088;  -13.380;36125.184
681.935;30573.166;  -12.480;35240.922
682.511;30477.762;   -7.900;34429.961
683.087;30866.938;   -7.710;34463.680
683.663;30142.592;  -11.480;34648.898
684.239;28588.439;  -14.090;34546.457
684.815;27774.498;   -7.560;35586.375
685.390;27918.313;   -9.910;35821.895
685.966;28442.947;  -11.159;35085.871
686.542;30919.021;  -11.169;34198.230
687.118;33426.414;   -5.959;32847.707
687.693;33907.352;  -10.329;32794.027
688.269;33492.301;  -12.059;33072.367
688.844;31594.658;  -10.909;33141.664
689.420;29537.520;   -8.019;33965.742
689.995;27662.189;   -8.399;34655.523
690.571;26312.320;  -10.949;33576.742
691.146;26331.803;   -9.619;32657.219
691.722;26158.762;   -8.999;32526.979
692.297;25967.867;  -11.589;33014.617
692.872;27391.762;  -11.739;34012.254
693.448;27190.229;  -11.059;34237.434
694.023;26292.096;  -10.139;34142.672
694.598;28190.045;   -9.029;34132.031
695.173;28836.170;  -13.319;34205.250
695.748;27877.221;  -10.169;32882.488
696.323;27714.986;   -8.339;32864.906
696.898;27933.084;   -8.169;33170.004
697.473;28245.658;  -12.309;32432.984
698.048;27700.006;  -10.989;31649.303
698.623;27360.830;   -9.329;30778.141
699.198;28925.035;   -9.849;31140.119
699.773;30282.254;  -12.329;31764.299
700.348;28945.789;  -10.389;31780.816
700.922;28785.098;   -9.269;32046.375
701.497;29751.764;   -9.329;32603.574
702.072;30024.287;  -10.789;34799.871
702.646;28598.824;  -10.839;35793.172
703.221;26353.500;   -9.099;35201.590
703.795;28273.861;  -10.939;34764.527
704.370;28849.408;  -12.859;34307.367
704.944;29145.156;  -11.559;33509.887
705.519;29861.916;   -7.939;31388.584
706.093;31078.252;  -10.499;31340.104
706.668;31384.398;  -11.289;32630.281
707.242;30341.104;  -11.509;32728.779
707.816;29036.822;   -9.639;32947.238
708.390;27491.609;  -11.429;33277.855
708.965;27881.531;  -11.869;33834.336
709.539;27858.195;  -11.689;33709.273
710.113;28029.086;  -10.478;33044.313
710.687;27649.051;  -10.228;31953.992
711.261;26112.363;  -13.698;30505.949
711.835;25941.008;  -13.378;30262.369
712.409;26447.320;   -9.698;31254.447
712.983;28562.678;  -11.898;32754.986
713.557;29814.619;  -15.138;34018.824
714.131;29579.141;  -14.098;34579.625
714.704;28654.518;   -9.958;33890.262
715.278;26215.563;  -10.028;33531.102
715.852;24960.256;  -11.148;33601.660
716.425;25833.449;   -9.068;33515.117
716.999;26955.768;  -10.038;33185.555
717.573;27982.820;   -9.798;33905.996
718.146;28984.182;  -12.378;35199.293
718.720;29023.385;  -11.918;35060.551
719.293;28776.547;   -8.088;34973.230
719.867;31719.559;  -10.888;36394.449
720.440;31443.789;  -11.938;36663.008
721.013;29672.922;  -12.818;35102.426
721.587;28220.051;  -10.298;33985.266
722.160;26975.643;  -10.048;33524.965
722.733;25920.156;  -12.108;32987.043
723.306;26154.047;  -10.818;33066.301
723.880;28345.676;   -8.908;33399.500
724.453;30656.537;   -9.878;33468.297
725.026;29984.762;  -11.188;33816.637
725.599;27170.434;  -11.678;32797.996
726.172;26945.666;   -9.618;33187.434
726.745;27825.100;   -8.258;35136.613
727.318;29185.754;  -12.978;35751.730
727.891;29962.861;  -12.148;35890.430
728.463;29452.465;   -8.968;34822.090
729.036;28163.814;  -10.188;32895.086
729.609;28770.193;  -11.788;31823.225
730.182;26023.145;  -11.788;31445.283
730.754;23682.471;  -10.268;32373.223
731.327;23871.004;   -9.998;33676.820
731.900;24070.156;  -12.228;33417.000
732.472;24888.553;  -13.848;31978.498
733.045;26560.883;   -8.698;30368.777
733.617;26648.246;  -10.607;30574.215
734.190;26866.111;  -11.507;31280.975
734.762;24472.828;  -13.647;31674.412
735.334;22592.402;   -9.767;31247.291
735.907;23104.328;   -9.897;29876.211
736.479;23406.016;  -11.637;29808.488
737.051;23096.795;   -9.567;30233.547
737.623;23726.494;   -8.187;31469.086
738.195;24082.092;  -11.187;31784.225
738.768;25992.494;  -12.337;32120.523
739.340;26779.084;  -12.227;32094.342
739.912;25942.281;  -11.057;31312.680
740.484;24534.359;  -10.207;31946.238
741.056;22971.586;  -10.047;32984.059
741.628;24287.781;  -13.627;33897.715
742.199;26493.383;   -7.177;33213.016
742.771;24989.025;  -10.797;31369.113
743.343;22723.477;  -11.997;31865.473
743.915;21779.371;  -12.867;32388.631
744.487;21808.336;   -7.617;31079.568
745.058;21898.203;   -9.557;30570.107
745.630;22425.264;   -9.877;29970.127
746.201;23643.641;  -14.177;29186.766
746.773;24516.762;   -9.237;28805.723
747.344;24410.893;   -9.847;29591.223
747.916;22713.432;  -11.657;31412.201
748.487;22655.428;  -10.587;32194.898
749.059;23894.232;   -8.707;32533.719
749.630;24654.451;  -10.537;32158.518
750.201;23767.727;  -11.687;30855.395
750.773;22014.240;  -11.647;28622.555
751.344;21702.078;   -7.147;28405.732
751.915;22697.912;   -9.757;28461.551
752.486;22891.635;  -12.427;27842.850
753.057;20914.201;  -12.227;27845.008
753.628;19676.889;  -10.417;27728.107
754.199;20608.227;  -11.767;27381.086
754.770;21597.850;  -11.187;25882.203
755.341;21671.979;  -10.507;25886.184
755.912;21906.822;   -9.387;26050.861
756.483;21579.225;  -10.647;26798.779
757.054;19782.844;  -11.837;27048.238
757.625;18302.643;  -12.716;26294.838
758.195;18010.990;   -9.666;26142.076
758.766;17755.777;   -8.656;26392.234
759.337;18352.406;  -12.856;26334.594
759.907;19769.273;  -13.366;27579.652
760.478;20686.502;   -8.576;28352.770
761.048;20171.229;  -10.526;27325.088
761.619;19255.625;  -11.116;26460.428
762.189;19322.090;  -12.136;26029.826
762.760;20318.832;   -9.456;26430.145
763.330;21566.859;   -7.136;26670.902
763.900;21256.580;  -11.786;26603.021
764.471;18786.268;  -11.546;25542.740
765.041;17268.949;   -8.096;24358.459
765.611;17063.531;   -8.876;23991.297
766.181;17445.791;  -12.196;24470.236
766.751;18645.156;  -11.636;24845.975
767.321;18431.773;  -10.156;24533.633
767.891;16371.398;  -11.766;24916.492
768.461;15767.750;  -14.936;24776.771
769.031;16226.898;  -12.356;24757.988
769.601;17878.334;   -7.526;24181.088
770.171;18031.939;  -10.766;23670.387
770.741;17222.723;  -13.176;22960.045
771.311;17323.941;  -10.616;22917.523
771.880;17894.184;   -9.576;23562.941
772.450;17758.008;  -10.336;24216.500
773.020;17624.826;  -13.516;24140.398
773.589;16694.371;  -13.466;24414.857
774.159;15917.313;   -8.686;23858.717
774.729;15576.871;   -9.476;22942.135
775.298;15299.352;  -13.666;22324.033
775.867;14887.337;  -11.716;21140.313
776.437;14984.524;   -9.906;20838.092
777.006;14762.888;  -12.166;20599.510
777.576;14477.391;  -12.356;20508.809
778.145;14449.161;  -11.646;20732.947
778.714;14482.460;   -8.226;21062.465
779.283;13977.029;   -9.556;20949.664
779.853;13453.771;  -14.116;20508.623
780.422;13894.424;  -11.506;20649.082
780.991;13458.156;   -9.556;21527.520
781.560;12152.040;   -9.095;22632.658
782.129;11913.275;  -12.135;23048.277
782.698;11920.201;  -10.865;23438.555
783.267;11533.831;   -9.335;23267.734
783.836;11457.897;  -11.045;22415.133
784.404;12447.933;  -13.865;20443.152
784.973;13115.056;  -13.095;19699.150
785.542;13181.610;  -11.575;19763.828
786.111;13062.489;   -9.705;20341.408
786.679;12567.184;  -12.105;20207.967
787.248;12240.269;  -12.455;19516.465
787.817;12024.463;  -11.535;18900.363
788.385;11649.441;   -9.765;17879.121
788.954;11100.760;  -14.005;17658.301
789.522;10516.252;  -11.955;17788.879
790.090;10963.544;  -10.135;18118.277
790.659;11530.243;  -10.975;18338.736
791.227;11100.017;  -13.375;18508.615
791.795;11489.777;  -12.375;17898.254
792.364;11830.892;  -10.725;17295.133
792.932;12186.809;   -9.715;16822.051
793.500;12456.969;  -12.675;17040.148
794.068;12720.398;  -13.495;17179.787
794.636;12887.108;  -10.885;16664.246
795.204;12167.833;  -11.045;16524.545
795.772;12136.816;  -13.175;17274.564
796.340;11662.591;  -12.445;17891.002
796.908;11424.964;   -9.735;17648.561
797.476;11310.406;   -9.815;17064.080
798.044;10895.310;  -13.985;16672.777
798.612;10152.900;  -13.115;17023.996
799.180; 9762.725;  -10.185;16561.615
799.747; 9613.313;   -9.055;15962.773
800.315; 9302.846;  -12.385;15296.992
800.883; 9073.965;  -15.035;14801.771
801.450; 9259.525;  -10.365;14534.430
802.018; 9389.330;   -9.855;14173.248
802.585; 9411.762;  -11.905;14029.547
803.153; 9367.885;  -11.585;13836.846
803.720; 9170.762;   -9.095;13567.324
804.287; 8703.445;   -9.135;13360.622
804.855; 8217.896;  -11.604;13681.981
805.422; 8117.887;  -11.794;13536.560
805.989; 8209.488;  -10.734;13355.958
806.556; 8414.141;  -10.444;13747.896
807.124; 8673.215;  -12.764;13987.376
807.691; 8626.678;  -12.964;14038.674
808.258; 8436.506;  -11.134;14120.152
808.825; 8082.460;   -9.854;13860.111
809.392; 8181.407;  -10.504;13268.790
809.959; 7740.277;  -13.054;12680.389
810.526; 7245.206;   -8.294;12427.308
811.093; 7227.775;   -8.394;12030.105
811.659; 7837.528;  -12.304;11653.664
812.226; 8389.771;  -13.944;11637.183
812.793; 8108.473;  -10.484;11611.521
813.360; 7468.821;  -10.144;11885.181
813.926; 7149.804;  -11.684;12770.539
814.493; 6961.710;  -13.644;12677.638
815.060; 6578.382;   -9.724;11974.336
815.626; 6539.222;   -9.854;11594.715
816.193; 6924.503;  -13.254;11579.474
816.759; 6933.059;  -13.204;11666.972
817.325; 6956.958;   -9.434;11325.530
817.892; 7308.496;  -10.134;11105.369
818.458; 7749.726;  -13.474;10843.928
819.024; 7399.674;  -11.854;10714.406
819.591; 7122.209;  -10.244;10469.165
820.157; 6927.366;  -10.704;10235.523
820.723; 6381.654;  -12.324;10847.563
821.289; 6062.051;   -9.444;11040.980
821.855; 6003.089;   -8.374;10357.100
822.421; 5975.471;  -10.234; 9978.918
822.987; 5941.052;  -13.294; 9754.177
823.553; 5565.980;  -10.884;10065.755
824.119; 5359.030;   -8.884;10036.294
824.685; 5505.394;   -6.784;10029.192
825.251; 5637.770;  -12.004;10199.230
825.816; 5603.526;  -11.474; 9820.189
826.382; 5332.333;   -9.174; 9297.248
826.948; 5478.096;   -9.214; 9381.347
827.513; 5873.486;  -10.774; 9450.726
828.079; 5727.158;  -11.924; 9472.444
828.645; 5114.698;  -10.543; 9292.643
829.210; 4923.670;  -10.533; 9065.341
829.776; 4883.456;  -10.753; 9132.620
830.341; 4771.354;  -10.173; 9092.878
830.906; 4943.771;  -10.743; 9078.557
831.472; 5300.144;  -11.113; 8534.535
832.037; 5113.468;  -10.603; 8677.874
832.602; 4596.399;  -13.323; 8628.692
833.167; 4335.093;  -10.823; 8879.031
833.733; 4286.291;  -10.113; 9189.790
834.298; 4429.433;  -13.583; 9052.608
834.863; 4552.008;  -12.703; 8895.087
835.428; 4566.252;  -10.523; 8824.266
835.993; 4402.539;   -6.963; 8845.385
836.558; 4201.450;  -10.763; 8888.563
837.123; 4270.022;   -9.903; 8966.582
837.688; 4531.450;   -9.913; 8617.860
838.253; 4803.615;  -10.283; 8590.699
838.817; 5012.711;  -12.963; 8443.797
839.382; 4946.228;  -14.243; 8799.356
839.947; 4633.149;  -10.733; 8810.595
840.511; 4328.474;   -9.383; 8796.394
841.076; 3943.837;  -12.563; 8347.231
841.641; 3990.303;  -12.953; 8224.330
842.205; 4087.156;   -7.043; 8223.349
842.770; 4122.290;   -8.163; 8622.107
843.334; 4260.077;  -12.503; 8410.386
843.898; 4210.276;  -11.693; 8337.465
844.463; 4209.049;  -10.203; 8506.283
845.027; 3997.947;   -9.533; 8280.962
845.591; 3807.479;  -13.443; 8231.141
846.156; 3807.176;  -13.143; 7969.179
846.720; 3726.838;   -9.433; 7768.278
847.284; 3619.050;  -11.033; 7630.957
847.848; 3480.800;  -10.403; 7472.395
848.412; 3394.496;  -11.553; 7437.394
848.976; 3442.941;   -8.393; 7674.592
849.540; 3367.390;   -8.713; 7836.011
850.104; 3420.395;  -12.463; 7913.669
850.668; 3776.504;  -12.973; 7694.508
851.232; 3943.378;  -10.793; 7756.887
851.796; 3810.818;  -10.662; 7926.545
852.359; 3506.625;  -13.082; 7827.844
852.923; 3323.849;  -12.192; 7641.163
853.487; 3174.101;  -11.912; 7342.501
854.050; 3158.985;  -10.892; 7042.820
854.614; 3315.404;  -13.992; 7151.338
855.177; 3428.733;  -11.732; 7105.077
855.741; 3459.161;   -8.962; 6989.675
856.304; 3347.288;   -9.442; 6596.634
856.868; 3318.335;  -14.192; 6356.272
857.431; 3428.801;  -12.702; 6468.571
857.995; 3542.931;   -9.942; 6373.210
858.558; 3562.658;   -9.112; 6324.448
859.121; 3293.603;  -12.932; 6408.327
859.684; 3125.035;  -13.442; 6347.886
860.247; 3237.453;  -10.632; 6321.264
860.810; 3277.212;  -11.272; 6301.903
861.374; 3034.934;   -9.832; 6607.881
861.937; 2770.347;  -11.762; 6408.200
862.500; 2769.199;   -9.722; 6572.639
863.062; 2929.207;  -10.512; 6387.297
863.625; 3091.239;  -11.232; 6190.836
864.188; 3263.301;  -14.112; 5807.254
864.751; 3342.950;  -11.302; 5682.413
865.314; 3248.571;  -10.112; 5547.492
865.876; 3014.215;  -12.182; 5500.150
866.439; 2970.227;  -10.722; 5415.909
867.002; 2927.530;   -9.252; 5501.567
867.564; 2736.486;   -9.572; 5413.946
868.127; 2526.049;  -13.142; 5160.325
868.689; 2407.386;  -12.902; 5133.183
869.252; 2294.651;   -9.732; 5252.382
869.814; 2185.917;   -9.432; 5297.141
870.377; 2183.665;  -11.552; 5390.919
870.939; 2250.806;   -9.052; 5599.898
871.501; 2330.883;  -10.982; 5248.336
872.063; 2347.748;  -12.292; 4854.235
872.626; 2283.892;  -14.912; 4817.074
873.188; 2278.824;  -13.112; 4987.732
873.750; 2251.229;  -13.442; 4868.651
874.312; 2160.749;   -9.402; 4779.330
874.874; 2077.355;  -11.062; 4866.348
875.436; 1999.639;  -13.931; 4718.887
875.998; 1999.327;   -9.561; 4660.005
876.560; 2027.580;  -11.321; 4462.964
877.122; 1969.319;  -12.221; 4145.042
877.683; 1865.043;  -12.191; 4056.481
878.245; 1782.768;  -12.101; 3950.740
878.807; 1823.208;   -8.971; 4058.958
879.369; 1853.960;  -12.071; 3954.677
879.930; 1767.783;  -14.621; 3941.495
880.492; 1698.379;  -10.311; 4067.014
881.053; 1663.585;  -10.901; 3859.633
881.615; 1561.235;  -14.411; 3776.071
882.176; 1468.015;  -13.761; 3734.750
882.738; 1415.549;   -9.181; 3678.489
883.299; 1383.656;  -11.791; 3405.407
883.860; 1367.421;  -13.121; 3351.106
884.422; 1360.909;  -11.211; 3394.044
884.983; 1351.311;  -10.091; 3166.443
885.544; 1332.063;   -8.461; 3189.802
886.105; 1273.273;  -12.361; 3160.360
886.666; 1114.068;  -14.141; 3093.059
887.227;  874.586;  -11.361; 2941.957
887.788;  662.628;  -11.401; 2974.836
888.349;  552.195;  -13.791; 2721.214
888.910;  543.589;  -13.191; 2696.493
889.471;  572.275;   -9.881; 2560.172
890.032;  596.221;   -9.881; 2558.190
890.593;  610.624;  -10.371; 2567.669
891.153;  618.875;  -13.301; 2460.307
891.714;  607.312;  -11.431; 2372.046
892.275;  597.273;  -11.291; 2309.505
892.835;  585.502;  -11.471; 2382.543
893.396;  552.885;  -11.541; 2295.502
893.956;  508.334;  -11.181; 2162.420
894.517;  476.323;  -11.741; 2125.439
895.077;  472.676;  -11.671; 2086.978
895.638;  477.129;  -11.311; 2126.316
896.198;  454.967;   -9.831; 1838.275
896.758;  418.132;   -8.421; 1892.813
897.319;  392.956;  -12.351; 1792.232
897.879;  380.287;  -13.511; 1762.751
898.439;  356.802;  -12.001; 1661.149
898.999;  335.072;  -10.180; 1781.468
899.559;  328.002;  -12.030; 1703.347
900.119;  323.185;  -15.710; 1537.525
900.679;  321.134;   -8.900; 1638.384
901.239;  307.575;   -8.340; 1527.902
901.799;  298.235;  -13.910; 1456.441
902.359;  293.433;  -13.460; 1357.140
902.919;  286.625;  -11.490; 1331.118
903.479;  274.796;  -12.110; 1317.257
904.038;  257.122;  -11.720; 1262.595
904.598;  242.145;  -13.610; 1152.034
905.158;  238.129;  -11.040; 1240.893
905.717;  231.874;  -10.900; 1233.691
906.277;  220.935;  -15.080; 1217.330
906.836;  210.274;  -13.380; 1222.408
907.396;  200.645;  -10.780; 1193.047
907.955;  193.561;   -8.500; 1182.526
908.515;  189.699;  -12.760; 1099.364
909.074;  184.290;  -11.900; 1092.863
909.633;  178.413;   -8.950; 1069.121
910.192;  174.523;   -8.770; 1196.460
910.752;  170.133;  -12.390; 1029.960
911.311;  166.022;  -13.680; 1009.780
911.870;  163.786;  -12.370;  971.460
912.429;  164.564;  -10.900; 1094.080
912.988;  163.615;  -11.690; 1081.060
913.547;  160.440;  -13.240;  940.380
914.106;  155.451;  -11.990;  999.420
914.665;  152.192;   -9.990;  984.020
915.224;  151.282;  -12.880; 1035.760
915.782;  151.290;  -12.350;  922.560
916.341;  150.694;   -9.110; 1049.840
916.900;  146.627;   -9.270;  925.260
917.458;  145.181;  -13.240;  884.220
918.017;  145.291;  -13.550;  942.600
918.576;  145.301;  -12.320;  904.440
919.134;  142.196;  -11.490;  837.980
919.693;  140.684;  -13.670;  893.060
920.251;  139.491;  -15.470;  876.500
920.809;  138.216;  -11.290;  839.580
921.368;  137.629;  -10.210;  885.360
921.926;  137.097;  -12.140;  842.940
922.484;  136.343;  -13.080;  903.360
923.042;  135.593;  -11.720;  880.340
923.601;  138.371;   -7.480;  998.680
924.159;  136.966;  -11.570;  935.560
924.717;  133.692;  -13.840;  841.080
925.275;  133.030;  -10.640;  903.240
925.833;  132.961;  -11.540;  779.320
926.391;  134.326;  -12.960;  938.380
926.949;  131.902;  -14.130;  857.680
927.506;  131.703;  -11.750;  903.500
928.064;  132.646;  -10.250;  877.580
928.622;  132.261;  -13.030;  880.100
929.180;  132.732;  -13.400;  814.180
929.737;  132.420;  -10.700;  808.540
930.295;  136.000;  -10.070;  928.480
930.853;  137.571;  -11.960;  849.100
931.410;  137.678;  -13.120;  821.120
931.968;  137.568;  -10.770;  940.660
932.525;  136.811;  -10.680;  909.380
933.082;  138.461;  -13.130;  811.440
933.640;  139.046;  -13.210;  925.900
934.197;  137.737;  -11.060;  886.360
934.754;  137.706;   -9.580;  897.780
935.312;  141.441;  -14.000;  863.340
935.869;  145.589;  -10.710; 1012.980
936.426;  145.722;   -9.860;  872.800
936.983;  146.572;   -9.710;  889.020
937.540;  146.406;  -13.990;  838.280
938.097;  145.760;  -14.040;  940.120
938.654;  145.021;  -10.310;  898.860
939.211;  147.627;  -10.560;  952.480
939.768;  151.261;  -13.900;  915.420
940.324;  154.225;  -14.760;  904.200
940.881;  155.800;  -10.370;  878.500
941.438;  156.324;   -8.260; 1021.200
941.995;  152.689;  -12.540;  992.560
942.551;  150.744;  -14.670;  875.620
943.108;  150.138;  -10.450;  937.920
943.664;  151.947;  -10.750;  869.340
944.221;  155.901;  -11.550; 1088.140
944.777;  153.537;  -14.770;  869.680
945.334;  153.344;  -12.820;  884.840
945.890;  154.781;  -10.130;  946.480
946.446;  155.919;  -13.470;  947.020
947.003;  157.942;  -12.120;  964.940
947.559;  160.284;   -9.980; 1063.040
948.115;  159.135;   -9.080; 1026.540
948.671;  157.623;  -10.830;  967.300
949.227;  155.108;  -12.440;  859.560
949.783;  152.446;  -12.910;  858.900
950.339;  154.655;  -10.270;  991.000
950.895;  154.874;  -13.630; 1023.840
951.451;  154.854;  -15.100;  925.280
952.007;  153.420;  -11.330;  998.540
952.563;  153.193;  -10.580;  937.780
953.118;  152.448;  -13.440;  904.940
953.674;  151.144;  -12.710;  935.780
954.230;  150.821;  -10.350;  949.640
954.785;  148.593;   -9.190;  936.640
955.341;  146.911;  -11.200;  998.160
955.897;  145.519;  -16.560;  834.660
956.452;  146.694;  -12.570;  953.840
957.008;  146.200;   -7.970; 1083.640
957.563;  143.726;  -11.940; 1009.540
958.118;  138.923;  -13.450;  877.700
958.674;  137.705;  -12.030;  946.780
959.229;  139.373;   -9.410; 1013.980
959.784;  138.264;  -12.000;  832.400
960.339;  138.143;  -14.780; 1001.280
960.894;  133.516;   -9.860;  963.760
961.449;  130.519;   -9.970;  859.960
962.004;  130.602;  -10.900; 1212.840
962.559;  124.659;  -13.150;  860.140
963.114;  122.417;  -13.740;  742.480
963.669;  121.861;   -9.820;  915.500
964.224;  120.336;  -13.890;  874.340
964.779;  119.362;  -12.600;  828.420
965.334;  120.259;  -10.950; 1017.860
965.888;  119.215;  -11.170;  875.360
966.443;  121.965;  -12.540;  972.380
966.998;  122.920;  -15.780;  819.460
967.552;  121.672;   -9.760;  908.380
968.107;  117.249;   -9.060;  868.300
968.661;  119.218;  -11.950;  922.440
969.216;  118.692;  -12.800;  856.280
969.770;  119.346;  -11.210;  917.200
970.324;  117.312;  -11.610;  923.140
970.879;  114.422;  -11.370;  947.180
971.433;  111.934;  -12.540;  952.720
971.987;  107.362;  -11.320;  895.340
972.541;  103.645;  -10.720;  917.100
973.095;  103.540;   -9.680; 1009.460
973.649;  101.884;  -11.440;  809.480
974.203;  100.592;  -11.210;  829.040
974.757;  100.956;  -10.240;  855.220
975.311;  101.261;  -13.720;  872.600
975.865;  100.472;  -13.770;  881.820
976.419;   98.428;  -11.690;  857.400
976.973;   98.348;   -9.510;  849.620
977.526;  100.915;  -12.620;  949.920
978.080;   99.532;  -12.010;  796.780
978.634;   99.724;  -10.170;  921.320
979.187;   97.878;   -9.020;  905.400
979.741;   96.626;   -9.820; 1018.380
980.294;   92.037;  -14.870;  789.160
980.848;   88.507;  -12.380;  717.220
981.401;   90.393;  -10.350;  816.540
981.955;   93.346;  -13.720;  844.300
982.508;   92.075;  -11.490;  746.340
983.061;   91.949;  -10.000;  915.260
983.615;   87.795;  -11.480;  798.800
984.168;   85.273;  -13.220;  770.080
984.721;   84.974;  -13.960;  880.760
985.274;   84.063;  -10.870;  867.500
985.827;   82.679;   -9.790;  834.220
986.380;   80.322;  -13.120;  721.340
986.933;   79.657;  -12.450;  864.800
987.486;   77.266;  -10.210;  861.920
988.039;   76.151;   -8.430;  863.100
988.591;   75.113;  -10.520;  893.260
989.144;   73.032;  -14.860;  737.260
989.697;   72.128;  -13.080;  758.740
990.250;   72.011;  -10.150;  858.100
990.802;   71.197;  -13.430;  755.860
991.355;   71.638;  -12.750;  974.880
991.907;   69.365;  -12.040;  864.320
992.460;   67.092;  -11.330;  753.760
993.012;   67.016;  -13.610;  749.540
993.565;   66.154;  -13.460;  711.360
994.117;   67.390;   -9.360;  950.780
994.669;   63.461;  -11.300;  701.320
995.221;   62.245;  -13.540;  791.920
995.774;   60.480;  -13.430;  787.580
996.326;   59.003;  -12.520;  740.220
996.878;   58.804;  -10.950;  838.420
997.430;   56.717;  -14.300;  699.860
997.982;   55.927;  -13.760;  750.140
998.534;   56.103;  -11.530;  739.060
999.086;   53.823;  -10.310;  738.220
999.638;   52.686;  -12.530;  661.380
1000.190;   51.916;  -11.840;  699.320
1000.741;   51.649;  -10.260;  742.700
1001.293;   51.139;   -8.860;  686.020
1001.845;   49.986;  -13.700;  676.640
1002.396;   51.077;  -12.100;  743.400
1002.948;   49.956;  -12.760;  737.400
1003.500;   48.491;  -10.380;  723.780
1004.051;   48.611;  -11.900;  907.580
1004.603;   47.412;  -12.250;  791.820
1005.154;   43.177;  -13.210;  608.980
1005.705;   42.302;  -10.950;  723.960
1006.257;   41.509;  -13.880;  707.220
1006.808;   41.980;  -12.840;  685.460
1007.359;   40.766;  -10.570;  763.240
1007.910;   40.189;   -9.620;  646.640
1008.461;   39.789;  -13.630;  732.940
1009.013;   38.518;  -17.200;  588.340
1009.564;   39.824;  -10.200;  793.520
1010.115;   36.975;  -12.570;  597.040
1010.665;   37.120;  -15.150;  602.160
1011.216;   38.059;  -14.480;  667.920
1011.767;   36.584;  -11.340;  697.920
1012.318;   36.542;   -9.780;  736.980
1012.869;   35.577;  -12.380;  679.000
1013.419;   35.790;  -15.560;  603.120
1013.970;   35.777;  -11.010;  666.640
1014.521;   34.741;  -11.610;  620.620
1015.071;   36.038;  -13.450;  670.380
1015.622;   35.682;  -13.870;  635.460
1016.172;   34.437;  -11.610;  596.820
1016.723;   33.899;  -12.120;  614.380
1017.273;   33.137;  -13.620;  604.160
1017.823;   34.140;  -14.140;  650.340
1018.374;   32.734;  -12.800;  611.760
1018.924;   32.834;  -12.340;  716.880
1019.474;   33.583;  -11.410;  718.880
1020.024;   31.965;  -14.770;  657.580
1020.574;   32.726;   -9.780;  726.160
1021.124;   32.717;   -8.560;  673.580
1021.674;   31.816;  -15.190;  559.120
1022.224;   33.259;  -13.530;  708.940
1022.774;   32.311;  -13.280;  668.820
1023.324;   32.022;  -10.690;  753.520
1023.874;   33.904;  -10.240;  875.760
1024.423;   31.083;  -12.540;  613.700
1024.973;   30.881;  -10.010;  610.760
1025.523;   29.309;  -10.550;  620.960
1026.072;   30.064;  -13.560;  606.420
1026.622;   30.561;  -15.120;  675.740
1027.172;   30.581;  -11.260;  715.660
1027.721;   29.772;  -11.410;  601.220
1028.270;   29.649;  -13.530;  663.400
1028.820;   29.922;  -13.680;  638.080
1029.369;   29.412;  -13.520;  612.700
1029.918;   29.618;  -10.980;  649.840
1030.468;   29.026;  -13.530;  564.780
1031.017;   29.292;  -13.170;  634.800
1031.566;   27.696;  -12.200;  608.900
1032.115;   28.042;   -9.960;  694.500
1032.664;   27.605;  -13.210;  596.480
1033.213;   28.061;  -12.500;  735.420
1033.762;   27.554;  -11.910;  635.620
1034.311;   26.960;   -9.640;  677.220
1034.860;   28.099;  -13.310;  691.000
1035.408;   27.915;  -11.830;  722.720
1035.957;   27.902;  -12.000;  719.540
1036.506;   25.713;  -11.690;  530.800
1037.055;   28.720;  -10.990;  844.320
1037.603;   26.304;  -15.120;  664.000
1038.152;   24.968;  -12.450;  534.760
1038.700;   24.903;  -10.560;  585.740
1039.249;   24.559;  -11.080;  681.220
1039.797;   25.931;  -12.540;  633.360
1040.345;   25.483;  -11.920;  705.420
1040.894;   24.756;  -11.410;  625.300
1041.442;   25.051;  -14.320;  632.200
1041.990;   24.748;  -16.240;  559.160
1042.538;   24.069;  -11.680;  536.180
1043.087;   24.187;  -10.760;  570.860
1043.635;   25.095;  -11.850;  670.500
1044.183;   24.213;  -15.480;  586.400
1044.731;   23.862;  -11.770;  576.000
1045.279;   23.264;  -13.090;  674.920
1045.827;   25.645;  -12.440;  892.400
1046.374;   23.094;  -13.840;  515.420
1046.922;   22.261;  -13.220;  590.580
1047.470;   23.786;  -10.230;  691.300
1048.018;   23.371;  -14.590;  647.960
1048.565;   24.909;  -12.050;  708.600
1049.113;   22.690;  -11.650;  557.000
1049.660;   21.869;  -10.510;  629.660
1050.208;   22.340;  -13.310;  675.640
1050.755;   22.388;  -15.900;  606.580
1051.303;   22.900;  -11.430;  686.820
1051.850;   21.386;   -8.480;  635.120
1052.397;   20.137;  -15.010;  473.960
1052.945;   21.690;  -13.960;  617.760
1053.492;   21.719;  -13.150;  741.840
1054.039;   21.458;   -9.630;  720.180
1054.586;   20.600;  -13.680;  557.240
1055.133;   21.871;  -14.570;  693.140
1055.680;   21.562;  -13.820;  646.620
1056.227;   20.045;  -11.730;  542.780
1056.774;   21.768;  -12.480;  794.980
1057.321;   19.804;  -13.930;  523.260
1057.868;   20.177;  -11.690;  651.320
1058.415;   19.931;   -9.520;  651.980
1058.961;   20.220;  -13.160;  678.940
1059.508;   20.440;  -12.920;  643.820
1060.055;   20.016;  -11.920;  581.780
1060.601;   19.915;  -11.500;  624.300
1061.148;   19.631;  -14.330;  616.820
1061.694;   18.453;  -16.870;  592.580
1062.241;   18.412;  -10.330;  596.320
1062.787;   18.489;  -10.620;  663.140
1063.334;   20.632;  -10.110;  808.560
1063.880;   18.913;  -13.400;  668.360
1064.426;   19.138;  -10.680;  706.820
1064.972;   17.785;   -9.920;  601.340
1065.518;   16.958;  -10.980;  566.640
1066.065;   18.978;  -14.890;  624.460
1066.611;   17.737;  -12.870;  598.800
1067.157;   18.209;  -12.950;  641.860
1067.703;   18.957;  -13.540;  668.480
1068.249;   17.996;  -13.540;  605.220
1068.794;   17.478;  -12.600;  626.880
1069.340;   16.007;  -10.620;  578.960
1069.886;   17.303;  -12.830;  590.700
1070.432;   16.830;  -14.870;  541.720
1070.977;   16.825;  -11.980;  601.080
1071.523;   16.904;   -8.200;  573.060
1072.068;   16.318;  -12.330;  582.000
1072.614;   16.332;  -16.370;  527.760
1073.160;   17.590;  -11.100;  687.040
1073.705;   15.610;  -10.480;  572.520
1074.250;   16.114;  -14.520;  559.900
1074.796;   17.427;  -11.460;  655.160
1075.341;   16.174;  -11.950;  664.100
1075.886;   15.332;  -11.460;  594.240
1076.431;   15.582;  -13.770;  649.880
1076.976;   16.088;  -12.680;  639.220
1077.521;   15.070;  -13.170;  583.080
1078.067;   13.799;  -10.860;  579.400
1078.612;   15.155;  -13.920;  661.620
1079.156;   15.662;  -13.880;  601.540
1079.701;   15.364;  -13.120;  693.260
1080.246;   15.084;   -9.940;  696.300
1080.791;   14.874;  -14.740;  625.020
1081.336;   15.607;  -13.750;  659.320
1081.880;   14.902;  -13.400;  649.680
1082.425;   13.299;  -12.220;  573.480
1082.970;   15.299;  -11.610;  717.040
1083.514;   13.954;  -13.580;  597.000
1084.059;   13.181;  -12.810;  586.720
1084.603;   12.752;  -12.320;  565.840
1085.147;   14.619;  -13.190;  645.220
1085.692;   15.213;  -12.480;  716.800
1086.236;   12.585;  -13.020;  503.140
1086.780;   14.814;   -9.190;  751.440
1087.325;   13.727;  -12.480;  654.620
1087.869;   13.761;  -12.450;  610.700
1088.413;   13.722;  -12.240;  705.040
1088.957;   11.591;   -9.020;  543.400
1089.501;   14.321;  -10.320;  766.640
1090.045;   13.154;  -12.720;  726.480
1090.589;   11.270;  -13.690;  569.920
1091.133;   12.057;  -10.020;  673.340
1091.676;   12.590;  -12.330;  591.940
1092.220;   12.690;  -14.970;  600.920
1092.764;   13.075;  -12.430;  706.960
1093.307;   12.238;   -9.800;  673.780
1093.851;   11.009;  -14.970;  556.540
1094.395;   12.732;  -15.310;  683.140
1094.938;   10.885;  -10.370;  632.520
1095.482;   11.377;  -11.050;  559.800
1096.025;   12.207;  -11.840;  710.880
1096.568;   13.728;  -12.840;  779.280
1097.112;   10.296;  -14.700;  508.180
1097.655;   11.193;   -8.720;  603.000
1098.198;    9.528;  -13.610;  600.180
1098.741;   10.304;  -13.350;  612.860
1099.285;   11.665;  -11.230;  657.300
1099.828;    8.485;  -11.840;  439.400
1100.371;   10.107;  -10.840;  608.160
1100.914;   10.883;  -14.190;  682.660
1101.457;   10.341;  -11.240;  679.900
1101.999;    9.585;  -11.270;  584.680
1102.542;   10.008;  -11.480;  641.440
1103.085;    9.439;  -11.750;  658.500
1103.628;   10.325;  -11.400;  762.060
1104.170;    9.491;  -10.490;  588.280
1104.713;   10.177;  -10.600;  646.700
1105.256;    9.903;  -14.360;  557.440
1105.798;    8.454;  -13.210;  499.980
1106.341;   10.600;  -10.270;  728.900
1106.883;    9.278;  -12.200;  521.340
1107.425;   10.089;  -13.110;  668.180
1107.968;    8.764;  -12.840;  612.380
1108.510;    9.236;   -6.480;  684.960
1109.052;    7.438;  -13.940;  612.620
1109.594;    8.263;  -13.690;  554.440
1110.136;    9.337;  -11.880;  643.220
1110.679;    7.089;   -9.500;  633.080
1111.221;    8.549;  -14.160;  604.460
1111.763;    8.012;  -13.980;  559.220
1112.304;    7.536;  -13.880;  547.140
1112.846;    7.945;  -12.210;  666.240
1113.388;   11.119;  -11.390;  942.180
1113.930;    8.559;  -14.540;  694.200
1114.472;    7.536;  -12.640;  606.540
1115.013;    6.687;  -11.620;  551.280
1115.555;    6.391;  -13.640;  587.100
1116.097;    6.788;  -15.380;  579.480
1116.638;    8.435;  -12.640;  684.600
1117.180;    7.083;   -9.850;  667.740
1117.721;    6.814;  -13.690;  568.580
1118.262;    7.982;  -12.680;  677.960
1118.804;    8.418;  -12.530;  637.340
1119.345;    5.972;  -11.690;  578.400
1119.886;    8.319;  -13.380;  704.040
1120.427;    6.729;  -14.070;  589.020
1120.969;    5.674;  -13.500;  597.920
1121.510;    5.640;  -11.480;  563.060
1122.051;    6.920;  -12.830;  723.580
1122.592;    6.386;  -14.290;  655.420
1123.133;    5.139;  -12.400;  547.940
1123.673;    6.938;  -10.130;  706.480
1124.214;    5.836;  -12.930;  612.460
1124.755;    6.765;  -14.380;  639.460
1125.296;    6.940;  -14.000;  627.320
1125.836;    6.348;  -10.070;  691.500
1126.377;    4.954;  -12.640;  599.660
1126.918;    6.567;  -12.960;  614.980
1127.458;    4.655;  -13.350;  622.220
1127.999;    5.673;  -10.750;  656.980
1128.539;    5.715;  -12.350;  694.240
1129.079;    5.353;  -14.860;  632.720
1129.620;    4.785;  -13.840;  558.100
1130.160;    4.298;  -12.330;  539.480
1130.700;    4.880;  -14.530;  640.840
1131.240;    6.137;  -12.530;  643.700
1131.781;    4.612;  -14.450;  619.680
1132.321;    4.528;   -9.790;  599.120
1132.861;    3.785;  -14.860;  564.200
1133.401;    3.216;  -14.290;  593.940
1133.941;    4.516;  -11.750;  626.280
1134.481;    3.443;   -9.920;  597.580
1135.020;    4.080;  -12.290;  609.160
1135.560;    4.183;  -11.650;  674.940
1136.100;    2.719;  -16.270;  501.160
1136.640;    2.485;  -10.890;  510.480
1137.179;    3.441;  -14.180;  537.960
1137.719;    4.273;  -16.250;  605.400
1138.258;    3.378;  -14.230;  587.360
1138.798;    3.550;   -9.090;  663.780
1139.337;    2.256;  -15.130;  482.840
1139.877;    3.464;  -13.680;  642.360
1140.416;    5.851;  -11.320;  878.060
1140.955;    2.135;  -10.860;  535.380
1141.494;    2.661;  -12.920;  669.280
1142.034;    2.708;  -13.930;  583.520
1142.573;    3.764;  -11.440;  646.280
1143.112;    2.287;  -12.000;  553.480
1143.651;    2.823;  -13.670;  536.480
1144.190;    4.003;  -12.730;  691.640
1144.729;    2.415;  -14.560;  607.420
1145.267;    2.803;  -11.830;  584.900
1145.806;    2.987;  -12.230;  637.040
1146.345;    2.561;  -14.130;  635.020
1146.884;    2.257;  -11.590;  622.500
1147.422;    1.136;  -12.550;  533.060
1147.961;    3.485;  -11.180;  708.460
1148.500;    2.982;  -11.510;  669.720
1149.038;    3.097;  -11.640;  632.500
1149.577;    2.221;  -10.130;  698.640
1150.115;    0.502;  -13.970;  452.280
1150.653;    1.960;  -14.520;  607.340
1151.192;    2.482;  -12.810;  552.920
1151.730;    1.921;   -9.100;  652.560
1152.268;    1.218;  -12.220;  589.520
1152.806;    2.186;  -14.140;  571.180
1153.344;    1.026;  -12.350;  577.640
1153.882;    0.944;   -8.980;  600.060
1154.421;   -0.070;  -15.190;  470.620
1154.958;    0.585;  -15.210;  595.240
1155.496;    2.274;  -12.850;  645.280
1156.034;    1.142;   -9.940;  721.880
1156.572;    2.691;  -13.570;  667.060
1157.110;    0.501;  -14.590;  473.940
1157.647;    1.341;  -13.030;  676.960
1158.185;    0.119;  -12.140;  564.320
1158.723;   -0.799;  -14.390;  509.200
1159.260;    1.300;  -14.090;  701.700
1159.798;    1.415;  -11.920;  658.160
1160.335;   -0.032;  -11.110;  631.820

