
Integration time [ms]:   3.276
Averaging Nr. [scans]: 1000
Smoothing Nr. [pixels]: 0
Data measured with spectrometer [name]: 7414430SP
Wave   ;Sample   ;Dark     ;Reference
[nm]   ;[counts] ;[counts] ;[counts] 

288.544;  149.979;    7.793;  793.890
289.143;  154.714;    7.462;  681.602
289.742;  154.337;    8.602;  828.814
290.341;  139.869;    1.321;  789.841
290.940;  128.720;   -0.709;  730.702
291.538;  129.950;    0.881;  881.108
292.137;  130.749;    0.122;  792.581
292.736;  135.392;   -1.929;  975.101
293.335;  131.229;   -8.229;  735.086
293.934;  131.513;   -5.279;  781.677
294.532;  130.778;   -1.369; 1031.958
295.131;  115.525;   -7.641;  834.394
295.730;  116.374;   -8.420;  809.588
296.328;  115.052;   -5.611;  783.442
296.927;  116.667;   -5.781;  779.652
297.525;  116.866;   -6.361;  781.236
298.124;  105.573;  -11.382;  654.009
298.722;  110.909;   -7.641;  761.933
299.321;  109.267;   -6.811;  708.597
299.919;  107.055;   -6.991;  751.918
300.518;  103.207;  -10.362;  689.338
301.116;  105.509;   -9.581;  691.381
301.715;  105.609;   -4.891;  730.222
302.313;  104.181;   -8.801;  704.943
302.911;   99.039;   -8.522;  733.830
303.509;  105.253;   -6.171;  925.627
304.108;  103.897;   -7.311;  760.383
304.706;  102.143;   -8.321;  801.664
305.304;   95.689;  -10.222;  796.707
305.902;  102.073;   -6.021;  784.484
306.500;   98.178;   -4.971;  728.200
307.098;   96.455;   -7.061;  746.560
307.696;   93.965;   -8.801;  780.432
308.294;   94.599;   -6.411;  731.359
308.892;   97.655;   -2.901;  759.769
309.490;   92.396;   -5.041;  712.161
310.088;   90.909;   -5.002;  788.444
310.686;   95.696;   -2.041;  821.749
311.284;   91.996;   -2.351;  766.040
311.882;   88.822;   -4.422;  731.225
312.480;   85.344;   -4.192;  697.167
313.078;   87.181;   -1.172;  808.331
313.675;   88.464;   -2.601;  691.600
314.273;   84.374;   -1.312;  797.837
314.871;   82.330;   -3.942;  589.829
315.468;   80.273;   -2.802;  652.090
316.066;   83.140;   -0.701;  694.427
316.664;   76.001;   -4.362;  656.351
317.261;   80.005;   -2.872;  910.128
317.859;   75.535;   -2.022;  768.735
318.456;   75.596;   -0.531;  830.096
319.054;   72.499;   -3.912;  787.828
319.651;   71.133;   -4.752;  759.928
320.249;   70.956;   -2.602;  810.188
320.846;   68.339;   -0.821;  714.286
321.443;   64.958;   -4.642;  832.135
322.041;   62.209;   -5.002;  812.315
322.638;   60.048;   -3.982;  701.456
323.235;   62.336;   -3.411;  665.683
323.833;   59.066;   -7.361;  740.354
324.430;   52.887;   -8.611;  615.900
325.027;   55.950;   -4.061;  876.855
325.624;   55.889;   -4.031;  644.532
326.221;   52.101;   -7.481;  689.717
326.818;   50.796;   -5.281;  818.332
327.415;   55.131;   -7.460;  748.828
328.012;   55.025;   -5.510;  690.585
328.609;   53.049;   -7.880;  731.389
329.206;   50.965;   -8.331;  778.621
329.803;   51.287;   -5.121;  737.841
330.400;   53.818;   -4.510;  704.260
330.997;   55.746;   -6.441;  817.147
331.594;   54.052;   -8.831;  788.185
332.191;   59.289;   -7.621;  728.722
332.787;   62.530;   -4.591;  844.463
333.384;   60.116;   -7.412;  763.093
333.981;   58.477;   -8.293;  815.687
334.578;   62.124;   -7.052;  708.378
335.174;   65.479;   -3.102;  731.469
335.771;   63.811;   -5.943;  836.456
336.367;   60.513;   -7.393;  710.631
336.964;   64.712;   -4.063;  793.266
337.561;   62.925;   -3.813;  731.112
338.157;   58.926;   -4.654;  911.916
338.754;   56.215;   -7.934;  796.589
339.350;   54.559;   -4.414;  722.493
339.946;   57.035;   -4.664;  773.135
340.543;   47.638;   -6.375;  846.136
341.139;   42.699;   -9.815;  720.836
341.735;   41.532;   -4.526;  772.593
342.332;   39.973;   -4.895;  691.472
342.928;   40.093;   -4.295;  795.394
343.524;   34.122;   -5.476;  761.684
344.120;   31.060;   -5.856;  738.562
344.716;   34.542;   -2.155;  723.717
345.313;   31.171;   -6.275;  795.342
345.909;   26.102;   -8.815;  627.336
346.505;   28.361;   -5.305;  740.247
347.101;   29.470;   -2.674;  827.864
347.697;   29.297;   -4.344;  785.398
348.293;   23.371;   -9.975;  627.244
348.889;   25.148;   -5.774;  745.914
349.485;   24.280;   -5.004;  688.205
350.081;   23.897;   -4.704;  772.592
350.676;   18.611;   -6.635;  691.606
351.272;   23.976;   -4.504;  809.530
351.868;   24.185;   -3.914;  780.497
352.464;   21.541;   -9.044;  723.932
353.059;   16.824;   -8.314;  646.017
353.655;   20.734;   -7.024;  777.063
354.251;   22.133;   -5.343;  759.845
354.846;   16.274;   -8.604;  740.646
355.442;   13.984;   -6.945;  753.071
356.038;   16.129;   -7.564;  751.708
356.633;   16.360;   -5.814;  728.594
357.229;   13.513;   -7.364;  724.757
357.824;   11.731;   -8.024;  703.600
358.420;   11.820;   -9.384;  679.726
359.015;   13.109;   -5.104;  695.357
359.610;   12.772;   -6.854;  763.920
360.206;    6.522;  -10.185;  603.240
360.801;   10.301;   -7.054;  646.503
361.396;   12.764;   -5.034;  725.975
361.992;    7.718;   -8.284;  668.220
362.587;    4.246;   -8.625;  670.160
363.182;    7.320;   -7.674;  689.631
363.777;    8.363;   -5.164;  738.242
364.372;    7.560;   -8.604;  737.314
364.967;    3.183;   -9.055;  680.744
365.563;    7.859;   -6.114;  815.567
366.158;    5.587;   -5.814;  685.161
366.753;    5.531;   -7.854;  649.263
367.348;    3.615;   -7.804;  746.056
367.942;    4.518;   -7.954;  697.298
368.537;    3.393;   -4.984;  754.245
369.132;    3.224;   -8.564;  703.428
369.727;   -1.949;   -8.855;  638.079
370.322;    1.126;   -6.245;  580.186
370.917;    0.655;   -6.425;  710.646
371.511;    3.627;   -6.294;  861.834
372.106;   -1.424;   -7.685;  776.964
372.701;   -3.437;   -7.335;  585.988
373.296;    2.031;   -4.564;  863.135
373.890;   -3.209;  -10.235;  647.840
374.485;   -5.470;   -7.885;  691.199
375.079;   -0.252;   -7.324;  738.685
375.674;    0.851;   -3.494;  812.970
376.268;   -4.500;   -8.525;  691.759
376.863;  -10.600;  -10.086;  580.327
377.457;   -3.282;   -7.025;  662.490
378.052;   -4.944;   -3.585;  764.884
378.646;   -6.101;   -7.595;  741.167
379.240;   -6.558;   -8.335;  721.176
379.835;   -5.661;   -5.785;  636.978
380.429;   -6.583;   -4.335;  562.557
381.023;   -7.520;   -6.805;  779.205
381.617;  -10.684;   -9.195;  680.106
382.212;   -6.305;   -6.905;  685.303
382.806;   -4.721;   -3.745;  760.690
383.400;  -10.418;   -7.745;  672.281
383.994;  -11.795;   -9.765;  664.870
384.588;   -6.929;   -6.564;  697.701
385.182;   -5.115;   -5.344;  726.624
385.776;   -6.284;   -8.514;  706.875
386.370;  -10.637;   -9.555;  681.968
386.964;   -8.615;   -8.715;  684.155
387.558;   -7.024;   -6.174;  598.360
388.152;  -11.239;   -8.725;  681.959
388.745;   -9.039;   -7.965;  814.707
389.339;   -7.265;   -5.924;  747.642
389.933;   -5.845;   -5.524;  695.370
390.527;   -7.357;   -7.114;  859.029
391.120;  -14.379;  -10.725;  595.318
391.714;  -10.003;   -8.035;  711.633
392.308;   -6.818;   -3.574;  780.253
392.901;  -11.586;   -7.245;  642.460
393.495;  -12.965;   -9.285;  595.414
394.089;  -10.579;   -5.895;  760.452
394.682;  -10.869;   -4.295;  697.188
395.275;  -12.428;   -9.875;  719.927
395.869;  -13.923;   -8.485;  667.314
396.462;  -11.242;   -7.455;  616.609
397.056;   -7.597;   -5.424;  776.621
397.649;  -12.623;   -6.605;  731.575
398.242;  -10.067;   -8.224;  712.645
398.836;   -8.439;   -7.474;  766.408
399.429;   -9.941;   -7.094;  631.041
400.022;  -13.115;   -9.475;  665.902
400.615;  -11.126;   -7.145;  805.609
401.208;   -8.910;   -7.174;  691.451
401.802;  -10.709;   -5.515;  699.329
402.395;  -12.169;   -9.875;  683.502
402.988;  -14.120;   -8.845;  696.627
403.581;  -10.222;   -8.874;  646.878
404.174;   -7.558;   -5.324;  686.568
404.767;  -10.757;   -9.575;  638.583
405.360;  -14.183;  -10.965;  621.445
405.953;   -6.794;   -8.764;  759.034
406.545;   -6.993;   -7.514;  725.342
407.138;  -11.398;  -10.025;  618.350
407.731;  -10.404;  -10.034;  613.303
408.324;   -6.239;   -9.374;  660.554
408.917;   -6.729;   -6.534;  681.864
409.509;   -9.301;   -8.004;  740.396
410.102;  -11.282;   -9.875;  643.948
410.695;   -4.480;   -8.604;  665.758
411.287;   -5.578;   -6.794;  599.821
411.880;   -7.442;   -9.334;  585.421
412.472;  -10.320;  -10.254;  613.092
413.065;   -7.173;   -6.714;  629.408
413.657;   -4.941;   -7.234;  576.678
414.250;   -4.194;  -10.544;  646.681
414.842;   -6.951;   -9.744;  676.353
415.434;   -4.026;   -6.994;  570.463
416.027;   -0.090;   -5.893;  652.196
416.619;   -3.097;   -7.264;  713.400
417.211;   -3.248;  -10.374;  599.352
417.804;    1.058;   -7.993;  628.499
418.396;   -2.342;   -7.234;  607.643
418.988;   -1.712;   -9.443;  659.238
419.580;   -4.981;  -10.724;  568.276
420.172;   -2.202;  -10.323;  536.196
420.764;    1.922;   -8.793;  672.482
421.356;    0.764;  -11.143;  636.898
421.948;   -0.260;   -8.293;  677.661
422.540;    5.541;   -7.893;  680.027
423.132;    4.878;   -7.082;  600.641
423.724;    1.079;   -8.653;  561.267
424.316;    2.483;  -10.213;  621.345
424.908;    5.947;   -9.762;  591.517
425.500;    8.390;   -5.572;  647.978
426.092;    6.731;   -8.422;  648.268
426.683;    6.828;   -9.283;  684.836
427.275;    9.555;   -7.852;  641.471
427.867;   11.587;   -5.272;  668.948
428.458;   11.673;   -7.682;  732.344
429.050;    9.369;  -10.612;  680.749
429.642;   12.471;   -9.882;  743.124
430.233;   12.449;   -6.962;  569.356
430.825;   14.359;   -6.842;  724.809
431.416;   11.692;   -9.672;  698.241
432.008;   15.166;   -6.552;  651.723
432.599;   15.905;   -6.891;  656.073
433.190;   12.977;  -10.912;  637.670
433.782;   11.820;  -11.172;  590.395
434.373;   19.954;   -6.061;  884.765
434.964;   20.025;   -8.251;  602.920
435.556;   16.011;   -9.722;  634.537
436.147;   18.315;   -9.082;  758.490
436.738;   19.742;   -8.041;  701.099
437.329;   24.231;   -7.341;  721.723
437.920;   17.227;   -8.162;  666.688
438.511;   16.849;  -11.802;  564.526
439.103;   23.193;  -10.191;  623.998
439.694;   26.012;   -7.601;  681.583
440.285;   26.349;   -8.541;  764.432
440.876;   24.472;   -9.751;  845.738
441.466;   23.961;   -9.401;  575.162
442.057;   29.998;   -7.760;  665.814
442.648;   28.304;   -9.971;  746.255
443.239;   26.128;  -11.001;  620.477
443.830;   31.262;   -7.990;  704.958
444.421;   34.138;   -7.910;  655.474
445.011;   29.854;   -8.131;  693.619
445.602;   28.583;   -7.111;  743.126
446.193;   31.225;  -10.920;  488.117
446.783;   36.334;   -6.500;  640.397
447.374;   31.658;   -8.671;  692.759
447.964;   31.424;  -10.781;  713.770
448.555;   40.915;   -9.650;  822.742
449.145;   38.701;   -8.660;  662.853
449.736;   37.651;   -8.990;  803.179
450.326;   37.585;   -9.500;  713.626
450.917;   42.937;   -8.680;  675.324
451.507;   42.860;   -7.520;  600.661
452.097;   43.162;   -8.590;  746.267
452.688;   43.180;  -11.340;  742.160
453.278;   43.119;  -10.100;  566.840
453.868;   48.699;   -6.019;  793.550
454.458;   46.101;   -9.440;  651.141
455.048;   46.097;  -10.560;  711.783
455.639;   48.358;  -11.799;  567.096
456.229;   51.830;   -6.899;  710.694
456.819;   53.196;   -7.389;  751.158
457.409;   53.251;  -11.119;  773.993
457.999;   56.916;   -9.289;  737.505
458.589;   56.887;   -6.139;  686.606
459.179;   56.949;   -8.729;  717.658
459.769;   54.230;   -9.789;  627.099
460.358;   59.877;  -10.259;  797.262
460.948;   59.900;   -7.299;  689.503
461.538;   61.153;  -10.289;  660.677
462.128;   58.556;  -11.269;  664.934
462.717;   65.764;   -9.368;  710.326
463.307;   68.986;   -7.908;  705.846
463.897;   64.822;   -9.599;  656.942
464.486;   63.668;   -9.769;  837.128
465.076;   68.542;   -8.048;  733.776
465.666;   72.224;   -9.358;  652.900
466.255;   69.456;   -7.919;  785.651
466.845;   68.363;  -11.689;  666.749
467.434;   72.583;   -7.818;  725.873
468.023;   74.139;   -7.678;  658.357
468.613;   71.433;  -10.939;  713.946
469.202;   75.003;  -10.118;  646.507
469.791;   79.033;   -9.108;  737.811
470.381;   81.693;   -6.058;  742.813
470.970;   81.512;  -10.428;  711.099
471.559;   80.746;  -10.268;  733.291
472.148;   83.870;   -8.448;  675.737
472.738;   87.573;   -6.917;  765.466
473.327;   85.765;  -11.978;  637.529
473.916;   85.468;  -11.888;  737.446
474.505;   89.895;   -9.437;  751.703
475.094;   93.956;   -6.747;  806.570
475.683;   93.396;   -9.367;  797.699
476.272;   93.919;  -12.637;  730.632
476.861;   97.533;  -10.027;  706.754
477.449;  103.976;   -8.716;  728.487
478.038;   97.179;   -9.577;  692.513
478.627;   98.278;   -9.718;  714.852
479.216;  105.603;   -8.947;  769.441
479.805;  109.076;   -6.256;  783.375
480.393;  108.598;   -7.937; 1008.945
480.982;  107.328;   -7.717;  874.501
481.571;  113.741;   -9.266;  858.333
482.159;  114.517;   -7.636;  705.386
482.748;  115.216;   -9.667;  821.385
483.336;  118.937;  -10.376;  858.209
483.925;  120.553;   -7.147;  774.373
484.513;  127.508;   -7.996;  758.962
485.102;  124.009;  -10.027;  810.965
485.690;  131.357;  -10.446; 1011.050
486.278;  135.019;   -8.446;  979.329
486.867;  135.943;   -6.356;  809.662
487.455;  136.709;   -9.136;  898.229
488.043;  137.661;  -10.646;  748.361
488.631;  147.262;   -7.456; 1005.079
489.220;  152.426;   -6.636;  908.626
489.808;  152.235;  -11.036;  741.415
490.396;  159.752;  -10.246;  914.645
490.984;  166.672;   -8.556;  830.161
491.572;  177.350;   -5.886;  940.315
492.160;  182.941;   -9.486;  919.081
492.748;  196.647;  -10.976;  884.341
493.336;  220.500;   -8.776; 1019.693
493.924;  248.689;   -5.465;  958.077
494.512;  277.227;   -9.986; 1066.638
495.100;  315.562;  -10.636; 1103.280
495.687;  373.970;  -10.885; 1206.373
496.275;  444.211;   -8.126; 1150.796
496.863;  518.663;  -10.586; 1281.171
497.451;  624.582;  -11.926; 1386.805
498.038;  764.391;  -10.885; 1556.729
498.626;  878.826;   -6.315; 1741.407
499.214; 1044.737;   -7.326; 2016.609
499.801; 1250.795;  -11.906; 2220.633
500.389; 1514.413;  -10.466; 2312.494
500.976; 1827.317;   -5.236; 2744.849
501.564; 2292.827;   -8.936; 3148.565
502.151; 2658.530;  -13.176; 3515.999
502.738; 3096.421;  -10.646; 3971.274
503.326; 3537.921;   -9.525; 4403.796
503.913; 3978.598;  -10.856; 5161.749
504.500; 4396.771;  -11.586; 5986.420
505.088; 4805.787;  -10.336; 6381.201
505.675; 5368.903;   -6.355; 6925.547
506.262; 6097.765;   -9.046; 7619.060
506.849; 6881.615;  -10.416; 8733.969
507.436; 7458.781;  -10.305; 9790.121
508.023; 8072.857;   -5.496; 9985.472
508.610; 8336.841;   -7.856;10434.618
509.197; 8989.497;  -10.097;11198.435
509.784;10403.866;  -10.886;12391.194
510.371;11710.624;   -9.315;13603.713
510.958;12640.148;   -9.936;14426.586
511.545;13463.440;   -9.326;15243.775
512.132;14235.553;  -10.075;15945.876
512.719;14700.802;   -7.796;16340.369
513.305;15834.449;  -10.606;18011.766
513.892;16568.396;  -11.486;19754.971
514.479;17924.273;   -9.126;20967.805
515.066;19634.814;   -6.026;22299.793
515.652;21379.525;   -8.466;22908.660
516.239;22699.559;  -10.886;23798.875
516.825;23510.375;  -11.496;25567.275
517.412;24491.115;   -5.796;28154.959
517.998;25240.723;  -10.506;28344.111
518.585;25381.021;  -10.076;27134.219
519.171;26086.699;   -8.315;27268.576
519.758;27847.023;   -8.596;28964.129
520.344;30096.252;   -8.466;30664.494
520.930;29907.354;  -11.006;32550.605
521.516;30729.727;  -10.495;35422.895
522.103;32719.801;   -5.526;38280.004
522.689;33138.785;   -8.746;37835.117
523.275;32941.500;  -11.376;37288.613
523.861;35097.039;  -11.156;37281.395
524.447;37121.184;   -8.135;37846.949
525.033;37028.477;   -7.896;38321.949
525.619;37216.004;  -12.476;38579.285
526.205;38531.613;   -9.516;40622.875
526.791;41318.820;   -6.926;42258.836
527.377;41564.977;   -8.346;42966.902
527.963;42583.527;   -8.717;42018.949
528.549;41773.543;  -11.016;42476.828
529.135;40298.758;   -8.536;41854.852
529.721;38802.316;   -9.666;41237.711
530.306;37933.113;  -10.066;41259.445
530.892;37809.484;  -11.356;41506.047
531.478;39142.223;   -6.596;43559.613
532.063;42622.336;   -8.836;47695.563
532.649;44224.230;  -10.047;50808.324
533.235;44675.906;   -9.746;51787.500
533.820;44357.797;   -6.566;52145.035
534.406;45814.109;  -10.817;51133.488
534.991;45639.031;   -9.416;49996.805
535.576;43853.332;   -9.036;48882.852
536.162;44962.922;   -6.156;46942.285
536.747;46189.887;  -11.607;45711.746
537.333;48853.035;  -11.787;48510.180
537.918;52323.563;  -12.437;50439.891
538.503;52146.730;   -7.196;50863.711
539.088;48399.855;  -10.556;50906.922
539.673;47802.383;   -8.767;52621.965
540.259;48309.832;  -10.026;52368.094
540.844;45812.336;   -7.416;50879.109
541.429;47833.516;   -9.467;52077.777
542.014;49935.066;   -9.527;52716.695
542.599;48680.375;   -9.946;52363.281
543.184;45667.344;   -7.927;53187.137
543.769;46748.406;   -9.297;54697.605
544.354;46895.762;  -10.127;53913.914
544.938;45527.031;   -9.267;49680.164
545.523;47491.211;   -6.506;47386.277
546.108;50899.941;   -9.787;49151.949
546.693;52736.715;  -11.587;51384.637
547.278;52661.227;  -10.986;51853.254
547.862;49786.707;   -8.206;51173.750
548.447;45198.980;  -10.067;51691.395
549.031;44107.086;   -9.637;52456.703
549.616;48817.438;   -9.926;52714.516
550.201;48984.105;   -6.347;52414.598
550.785;50359.910;   -7.917;52355.059
551.370;49314.988;  -10.867;54589.453
551.954;48221.629;   -9.047;58267.348
552.538;49164.992;   -7.827;59062.176
553.123;47612.797;  -10.287;58115.285
553.707;44870.379;  -12.178;56556.285
554.291;46366.520;   -8.717;56201.668
554.876;49752.551;   -7.457;55335.762
555.460;49655.891;  -10.387;54155.703
556.044;49623.469;   -9.618;53721.484
556.628;47901.375;  -11.567;53731.016
557.212;47046.074;   -8.097;54312.531
557.796;45679.633;  -11.077;53797.773
558.380;45860.176;  -11.108;56145.984
558.964;46117.883;   -9.057;57277.930
559.548;47415.563;   -6.977;56459.641
560.132;45514.684;  -11.457;54434.543
560.716;43386.848;  -11.378;54800.617
561.300;44264.594;   -9.577;57606.945
561.884;45624.516;   -7.127;58972.445
562.467;43518.047;   -7.118;57327.570
563.051;42678.930;  -13.358;54962.434
563.635;44449.773;  -10.178;52594.473
564.219;44996.992;   -7.837;50610.410
564.802;45555.422;  -11.398;49551.180
565.386;45148.211;  -12.788;48370.953
565.969;44427.145;   -9.077;48178.871
566.553;42931.395;   -6.207;49957.305
567.136;43893.309;   -8.568;50369.594
567.720;40877.500;  -11.868;49492.004
568.303;38536.250;   -8.268;50616.352
568.887;38394.738;   -8.698;50727.148
569.470;39179.832;   -6.808;51698.379
570.053;38373.363;  -13.188;52122.078
570.637;36113.926;  -12.037;52536.438
571.220;35995.535;   -8.577;51186.098
571.803;37212.941;   -8.498;51032.762
572.386;39010.965;  -10.498;49609.887
572.969;41332.063;   -9.388;48285.926
573.552;40031.961;   -8.338;47624.285
574.135;38563.453;   -8.518;45498.641
574.718;36057.246;  -13.628;41970.434
575.301;35362.793;  -10.893;41447.137
575.884;34668.336;   -8.158;40923.836
576.467;35734.082;  -10.328;45267.723
577.050;36762.445;  -13.058;48175.543
577.633;38061.379;   -9.458;47729.328
578.216;37645.504;   -8.928;47579.793
578.799;36908.785;   -9.358;47820.996
579.381;35970.930;  -11.388;48115.551
579.964;33514.535;  -11.718;47333.766
580.547;35477.301;   -8.588;46668.969
581.129;36424.199;   -8.859;44466.141
581.712;37369.438;  -10.729;44164.922
582.294;37936.094;  -11.118;46477.855
582.877;37809.770;   -5.218;48244.254
583.459;35971.410;   -8.679;47437.895
584.042;33795.527;  -10.709;46943.219
584.624;33569.301;  -11.669;46792.227
585.206;33432.855;   -8.218;46557.250
585.789;33576.477;  -10.569;45793.773
586.371;35889.578;  -11.859;43836.391
586.953;36542.660;  -10.719;42972.492
587.536;37556.766;   -7.198;42487.211
588.118;38540.875;   -8.720;42086.414
588.700;34520.184;  -10.439;43389.930
589.282;33337.168;   -9.198;43646.039
589.864;34312.914;   -9.199;43438.109
590.446;35701.387;  -11.319;43151.926
591.028;35727.742;  -11.159;42781.867
591.610;34248.770;  -11.779;42839.098
592.192;31292.307;   -7.668;42820.402
592.774;29870.092;  -11.949;40724.277
593.356;28841.045;  -12.129;39874.789
593.937;27765.418;  -10.669;39980.648
594.519;29890.230;   -6.509;42069.633
595.101;31951.637;  -10.849;42976.031
595.683;32005.326;  -11.679;44084.441
596.264;32883.246;   -9.049;43478.797
596.846;32874.195;   -8.849;43803.672
597.427;32961.152;   -9.570;42986.934
598.009;34182.000;  -12.620;42832.219
598.591;34716.109;  -10.039;42580.086
599.172;34630.621;  -10.369;43061.805
599.753;35020.313;   -9.140;41691.469
600.335;36268.355;  -11.430;40692.520
600.916;34116.512;   -9.939;39982.422
601.498;31672.801;   -8.479;40318.617
602.079;30102.604;  -10.920;40670.609
602.660;29654.957;  -11.480;41450.898
603.241;31521.803;  -11.699;41137.738
603.823;30231.785;   -9.579;38868.797
604.404;28881.703;  -10.620;38182.785
604.985;30770.895;  -10.450;38078.047
605.566;31301.852;   -9.129;38056.633
606.147;31391.340;   -7.510;37020.418
606.728;32759.500;  -10.660;37883.359
607.309;31209.404;  -11.740;38748.273
607.890;31052.850;   -9.759;38850.230
608.471;30604.680;   -8.250;37457.918
609.051;29797.615;   -9.240;36066.457
609.632;28506.861;  -12.120;35991.074
610.213;28628.443;   -9.110;37402.641
610.794;29597.803;   -8.030;38383.363
611.374;29560.740;   -8.110;40562.387
611.955;30466.025;  -13.560;38533.727
612.536;31949.863;  -11.400;36951.789
613.116;31476.279;   -8.070;37197.891
613.697;31849.430;  -10.830;38411.125
614.277;29845.783;  -11.641;38673.938
614.858;30323.643;  -13.310;37075.863
615.438;30002.775;   -7.460;35092.906
616.019;28027.582;   -7.601;33666.301
616.599;28294.594;  -12.020;34189.023
617.179;29955.031;  -11.780;36952.047
617.760;31218.814;   -8.570;39582.574
618.340;32033.865;  -11.471;38943.977
618.920;32885.078;  -11.170;37594.156
619.500;32826.242;  -11.071;37866.938
620.080;31737.029;   -7.750;37869.043
620.660;32720.982;  -12.711;36868.617
621.241;34241.477;  -10.211;36352.309
621.821;34817.773;  -10.961;35459.520
622.401;33847.664;   -7.720;35207.414
622.980;32811.277;   -8.981;35980.422
623.560;31455.986;   -9.331;37351.328
624.140;30035.807;   -9.850;34388.582
624.720;25243.678;   -7.451;32368.764
625.300;21888.859;   -9.070;32638.629
625.880;25264.984;  -12.601;34599.035
626.459;29252.225;  -11.751;36831.738
627.039;31937.920;   -9.281;38299.098
627.619;31864.326;   -8.801;38289.574
628.198;30532.959;  -12.071;37220.695
628.778;29578.721;   -9.461;37632.563
629.357;30178.943;   -8.491;38003.012
629.937;30261.145;   -9.721;38402.039
630.516;29826.430;   -9.951;37868.801
631.096;29734.846;  -11.731;35760.410
631.675;31524.770;   -8.572;35225.219
632.254;36442.141;  -11.282;35130.289
632.834;36095.723;  -13.322;35794.570
633.413;34578.789;  -10.301;35788.922
633.992;32539.877;   -8.582;34532.863
634.571;33067.684;   -8.352;33590.113
635.151;35865.992;  -11.912;34943.863
635.730;34462.438;  -10.511;35352.523
636.309;30837.803;   -7.731;35366.605
636.888;28078.947;   -9.952;36165.637
637.467;28278.105;  -11.672;37515.902
638.046;29783.977;   -8.901;39288.695
638.625;32724.082;   -7.912;38279.699
639.204;32631.252;  -10.022;37741.598
639.782;31432.225;  -12.252;38364.551
640.361;27860.393;  -10.041;36740.621
640.940;25246.318;  -11.161;34950.082
641.519;26179.502;   -9.701;34137.398
642.097;28830.906;  -11.271;35654.258
642.676;31452.408;   -8.651;35637.957
643.255;32788.523;   -8.711;36567.074
643.833;32170.037;   -9.581;37809.434
644.412;31981.924;  -13.711;37337.293
644.990;30830.338;  -11.811;37018.531
645.569;30462.992;   -9.411;36518.469
646.147;30129.867;  -10.291;36186.430
646.726;30582.793;  -12.401;36267.688
647.304;31802.557;  -10.411;36647.625
647.882;32931.715;   -9.651;39286.742
648.461;34299.664;   -9.631;39157.703
649.039;32806.137;  -11.881;35412.883
649.617;31859.275;   -9.661;34744.918
650.195;31082.023;   -9.301;35403.098
650.773;29874.357;  -10.511;35053.797
651.352;27338.029;  -11.521;33756.816
651.930;24907.541;  -12.211;31868.773
652.508;23576.768;   -9.171;33121.551
653.086;27427.762;   -9.371;33564.793
653.663;30573.414;  -13.161;34054.668
654.241;29232.674;  -13.031;35693.309
654.819;30597.895;   -9.371;36422.906
655.397;30486.721;  -10.511;38213.484
655.975;29864.461;  -10.371;39507.625
656.553;29623.438;  -10.051;39498.223
657.130;28290.688;  -10.061;40395.480
657.708;27490.811;   -9.561;39242.020
658.286;27544.559;  -11.511;38920.020
658.863;28958.236;  -10.261;40202.898
659.441;32293.314;   -7.531;39677.938
660.018;32306.146;   -9.501;40413.355
660.596;30911.564;  -13.301;39931.414
661.173;32328.766;  -11.211;39604.531
661.750;32540.830;   -9.951;39700.070
662.328;31167.545;   -9.390;39292.809
662.905;30291.730;  -11.330;38235.648
663.482;26555.287;   -9.050;36212.305
664.060;24570.463;   -8.240;35944.945
664.637;27249.980;  -10.050;35170.785
665.214;28746.555;  -11.760;34197.523
665.791;30614.824;  -10.530;34549.520
666.368;29984.840;   -9.690;35118.578
666.945;30085.957;   -9.320;36019.418
667.522;31507.717;  -11.860;36048.438
668.099;31245.344;  -10.770;36243.914
668.676;29914.168;   -6.260;35958.875
669.253;28731.555;   -7.000;37384.730
669.830;29154.434;  -10.190;36779.629
670.407;29005.172;   -9.550;35231.289
670.984;28453.514;   -9.260;35544.270
671.560;29287.070;   -9.280;35466.867
672.137;28957.346;  -11.810;34280.863
672.714;29978.824;  -11.490;34632.863
673.290;31202.469;   -7.740;35135.422
673.867;31117.279;  -10.660;36114.480
674.443;31088.510;  -12.230;36152.859
675.020;29121.563;  -10.450;35327.238
675.596;29903.277;   -9.260;35795.176
676.173;30573.801;  -10.780;35430.355
676.749;30190.896;  -13.690;33549.516
677.326;29963.002;  -11.980;32210.012
677.902;29833.598;   -8.630;32068.871
678.478;29112.447;  -10.730;32583.891
679.054;28065.938;  -10.520;32088.928
679.631;28446.084;  -11.920;30978.848
680.207;30021.332;   -7.490;33160.887
680.783;31481.688;   -9.860;35570.363
681.359;30670.723;  -13.380;36125.184
681.935;30469.607;  -12.480;35240.922
682.511;30458.055;   -7.900;34429.961
683.087;30743.018;   -7.710;34463.680
683.663;29903.014;  -11.480;34648.898
684.239;28427.779;  -14.090;34546.457
684.815;27719.203;   -7.560;35586.375
685.390;27800.654;   -9.910;35821.895
685.966;28365.223;  -11.159;35085.871
686.542;30718.416;  -11.169;34198.230
687.118;33284.996;   -5.959;32847.707
687.693;34001.543;  -10.329;32794.027
688.269;33650.836;  -12.059;33072.367
688.844;31868.162;  -10.909;33141.664
689.420;29891.033;   -8.019;33965.742
689.995;28124.523;   -8.399;34655.523
690.571;26712.379;  -10.949;33576.742
691.146;26599.086;   -9.619;32657.219
691.722;26523.123;   -8.999;32526.979
692.297;26022.645;  -11.589;33014.617
692.872;27156.359;  -11.739;34012.254
693.448;26989.707;  -11.059;34237.434
694.023;26077.195;  -10.139;34142.672
694.598;27814.238;   -9.029;34132.031
695.173;28514.629;  -13.319;34205.250
695.748;27578.371;  -10.169;32882.488
696.323;27764.357;   -8.339;32864.906
696.898;28073.029;   -8.169;33170.004
697.473;28222.467;  -12.309;32432.984
698.048;27601.322;  -10.989;31649.303
698.623;27160.977;   -9.329;30778.141
699.198;28564.635;   -9.849;31140.119
699.773;30031.520;  -12.329;31764.299
700.348;28705.104;  -10.389;31780.816
700.922;28564.551;   -9.269;32046.375
701.497;29707.486;   -9.329;32603.574
702.072;30121.432;  -10.789;34799.871
702.646;28585.701;  -10.839;35793.172
703.221;26143.004;   -9.099;35201.590
703.795;28115.322;  -10.939;34764.527
704.370;28857.063;  -12.859;34307.367
704.944;29063.184;  -11.559;33509.887
705.519;29543.494;   -7.939;31388.584
706.093;30675.096;  -10.499;31340.104
706.668;31265.113;  -11.289;32630.281
707.242;30132.080;  -11.509;32728.779
707.816;28754.139;   -9.639;32947.238
708.390;27340.152;  -11.429;33277.855
708.965;27533.973;  -11.869;33834.336
709.539;27083.162;  -11.689;33709.273
710.113;27307.791;  -10.478;33044.313
710.687;27209.768;  -10.228;31953.992
711.261;25997.898;  -13.698;30505.949
711.835;25783.656;  -13.378;30262.369
712.409;25991.035;   -9.698;31254.447
712.983;27974.189;  -11.898;32754.986
713.557;29342.623;  -15.138;34018.824
714.131;29137.516;  -14.098;34579.625
714.704;28069.861;   -9.958;33890.262
715.278;25669.271;  -10.028;33531.102
715.852;24304.791;  -11.148;33601.660
716.425;25127.299;   -9.068;33515.117
716.999;26268.484;  -10.038;33185.555
717.573;27176.822;   -9.798;33905.996
718.146;28117.521;  -12.378;35199.293
718.720;28261.537;  -11.918;35060.551
719.293;28146.590;   -8.088;34973.230
719.867;31122.951;  -10.888;36394.449
720.440;31136.590;  -11.938;36663.008
721.013;29573.125;  -12.818;35102.426
721.587;27928.195;  -10.298;33985.266
722.160;26555.822;  -10.048;33524.965
722.733;25499.971;  -12.108;32987.043
723.306;25618.316;  -10.818;33066.301
723.880;27906.234;   -8.908;33399.500
724.453;30590.320;   -9.878;33468.297
725.026;30087.625;  -11.188;33816.637
725.599;27049.664;  -11.678;32797.996
726.172;26488.424;   -9.618;33187.434
726.745;27165.293;   -8.258;35136.613
727.318;28314.145;  -12.978;35751.730
727.891;29345.473;  -12.148;35890.430
728.463;29061.848;   -8.968;34822.090
729.036;27633.189;  -10.188;32895.086
729.609;28093.059;  -11.788;31823.225
730.182;25512.121;  -11.788;31445.283
730.754;23278.936;  -10.268;32373.223
731.327;23608.318;   -9.998;33676.820
731.900;23810.537;  -12.228;33417.000
732.472;24533.242;  -13.848;31978.498
733.045;26223.152;   -8.698;30368.777
733.617;26315.418;  -10.607;30574.215
734.190;26618.418;  -11.507;31280.975
734.762;24522.066;  -13.647;31674.412
735.334;22494.162;   -9.767;31247.291
735.907;22730.154;   -9.897;29876.211
736.479;23128.982;  -11.637;29808.488
737.051;22927.021;   -9.567;30233.547
737.623;23478.182;   -8.187;31469.086
738.195;23574.996;  -11.187;31784.225
738.768;25275.027;  -12.337;32120.523
739.340;26353.023;  -12.227;32094.342
739.912;25707.453;  -11.057;31312.680
740.484;24277.918;  -10.207;31946.238
741.056;22557.125;  -10.047;32984.059
741.628;23730.771;  -13.627;33897.715
742.199;25852.184;   -7.177;33213.016
742.771;24479.594;  -10.797;31369.113
743.343;22478.602;  -11.997;31865.473
743.915;21590.266;  -12.867;32388.631
744.487;21563.410;   -7.617;31079.568
745.058;21672.252;   -9.557;30570.107
745.630;22169.707;   -9.877;29970.127
746.201;23454.098;  -14.177;29186.766
746.773;24538.322;   -9.237;28805.723
747.344;24402.734;   -9.847;29591.223
747.916;22462.652;  -11.657;31412.201
748.487;22180.943;  -10.587;32194.898
749.059;23276.920;   -8.707;32533.719
749.630;23912.586;  -10.537;32158.518
750.201;22883.912;  -11.687;30855.395
750.773;21245.143;  -11.647;28622.555
751.344;21004.932;   -7.147;28405.732
751.915;22062.648;   -9.757;28461.551
752.486;22494.445;  -12.427;27842.850
753.057;20543.738;  -12.227;27845.008
753.628;19216.494;  -10.417;27728.107
754.199;20021.402;  -11.767;27381.086
754.770;20977.629;  -11.187;25882.203
755.341;21109.020;  -10.507;25886.184
755.912;21466.104;   -9.387;26050.861
756.483;21210.682;  -10.647;26798.779
757.054;19535.395;  -11.837;27048.238
757.625;18159.758;  -12.716;26294.838
758.195;17736.156;   -9.666;26142.076
758.766;17335.727;   -8.656;26392.234
759.337;17899.225;  -12.856;26334.594
759.907;19227.688;  -13.366;27579.652
760.478;20161.264;   -8.576;28352.770
761.048;19884.592;  -10.526;27325.088
761.619;19036.691;  -11.116;26460.428
762.189;18961.008;  -12.136;26029.826
762.760;19624.459;   -9.456;26430.145
763.330;20843.545;   -7.136;26670.902
763.900;20648.850;  -11.786;26603.021
764.471;18386.889;  -11.546;25542.740
765.041;17088.711;   -8.096;24358.459
765.611;16896.234;   -8.876;23991.297
766.181;17122.309;  -12.196;24470.236
766.751;18227.680;  -11.636;24845.975
767.321;18134.000;  -10.156;24533.633
767.891;16313.339;  -11.766;24916.492
768.461;15703.276;  -14.936;24776.771
769.031;16076.027;  -12.356;24757.988
769.601;17746.410;   -7.526;24181.088
770.171;17911.795;  -10.766;23670.387
770.741;16869.326;  -13.176;22960.045
771.311;16716.926;  -10.616;22917.523
771.880;17343.953;   -9.576;23562.941
772.450;17333.205;  -10.336;24216.500
773.020;17172.023;  -13.516;24140.398
773.589;16253.104;  -13.466;24414.857
774.159;15478.397;   -8.686;23858.717
774.729;15132.797;   -9.476;22942.135
775.298;14881.503;  -13.666;22324.033
775.867;14521.573;  -11.716;21140.313
776.437;14709.271;   -9.906;20838.092
777.006;14537.531;  -12.166;20599.510
777.576;14190.473;  -12.356;20508.809
778.145;14031.045;  -11.646;20732.947
778.714;14044.412;   -8.226;21062.465
779.283;13572.053;   -9.556;20949.664
779.853;13056.925;  -14.116;20508.623
780.422;13488.101;  -11.506;20649.082
780.991;13068.349;   -9.556;21527.520
781.560;11802.436;   -9.095;22632.658
782.129;11588.716;  -12.135;23048.277
782.698;11635.815;  -10.865;23438.555
783.267;11266.259;   -9.335;23267.734
783.836;11112.653;  -11.045;22415.133
784.404;12023.121;  -13.865;20443.152
784.973;12720.912;  -13.095;19699.150
785.542;12753.467;  -11.575;19763.828
786.111;12555.767;   -9.705;20341.408
786.679;12093.435;  -12.105;20207.967
787.248;11798.408;  -12.455;19516.465
787.817;11638.137;  -11.535;18900.363
788.385;11350.910;   -9.765;17879.121
788.954;10873.383;  -14.005;17658.301
789.522;10283.979;  -11.955;17788.879
790.090;10698.444;  -10.135;18118.277
790.659;11272.974;  -10.975;18338.736
791.227;10884.192;  -13.375;18508.615
791.795;11220.420;  -12.375;17898.254
792.364;11595.386;  -10.725;17295.133
792.932;12062.949;   -9.715;16822.051
793.500;12298.231;  -12.675;17040.148
794.068;12439.762;  -13.495;17179.787
794.636;12608.327;  -10.885;16664.246
795.204;11882.556;  -11.045;16524.545
795.772;11869.589;  -13.175;17274.564
796.340;11444.739;  -12.445;17891.002
796.908;11183.944;   -9.735;17648.561
797.476;11031.401;   -9.815;17064.080
798.044;10606.901;  -13.985;16672.777
798.612; 9861.885;  -13.115;17023.996
799.180; 9501.776;  -10.185;16561.615
799.747; 9364.386;   -9.055;15962.773
800.315; 9072.688;  -12.385;15296.992
800.883; 8882.015;  -15.035;14801.771
801.450; 9109.534;  -10.365;14534.430
802.018; 9274.000;   -9.855;14173.248
802.585; 9303.927;  -11.905;14029.547
803.153; 9211.056;  -11.585;13836.846
803.720; 8974.447;   -9.095;13567.324
804.287; 8509.276;   -9.135;13360.622
804.855; 8033.232;  -11.604;13681.981
805.422; 7925.044;  -11.794;13536.560
805.989; 8036.628;  -10.734;13355.958
806.556; 8176.737;  -10.444;13747.896
807.124; 8360.975;  -12.764;13987.376
807.691; 8314.012;  -12.964;14038.674
808.258; 8171.742;  -11.134;14120.152
808.825; 7899.490;   -9.854;13860.111
809.392; 7991.960;  -10.504;13268.790
809.959; 7495.453;  -13.054;12680.389
810.526; 6977.286;   -8.294;12427.308
811.093; 6933.415;   -8.394;12030.105
811.659; 7573.849;  -12.304;11653.664
812.226; 8168.150;  -13.944;11637.183
812.793; 7955.436;  -10.484;11611.521
813.360; 7363.442;  -10.144;11885.181
813.926; 7048.973;  -11.684;12770.539
814.493; 6845.735;  -13.644;12677.638
815.060; 6440.346;   -9.724;11974.336
815.626; 6358.220;   -9.854;11594.715
816.193; 6714.129;  -13.254;11579.474
816.759; 6742.080;  -13.204;11666.972
817.325; 6739.683;   -9.434;11325.530
817.892; 7058.212;  -10.134;11105.369
818.458; 7483.153;  -13.474;10843.928
819.024; 7158.652;  -11.854;10714.406
819.591; 6894.862;  -10.244;10469.165
820.157; 6706.490;  -10.704;10235.523
820.723; 6171.088;  -12.324;10847.563
821.289; 5848.676;   -9.444;11040.980
821.855; 5819.899;   -8.374;10357.100
822.421; 5862.111;  -10.234; 9978.918
822.987; 5864.547;  -13.294; 9754.177
823.553; 5470.616;  -10.884;10065.755
824.119; 5222.164;   -8.884;10036.294
824.685; 5352.467;   -6.784;10029.192
825.251; 5490.041;  -12.004;10199.230
825.816; 5438.960;  -11.474; 9820.189
826.382; 5158.380;   -9.174; 9297.248
826.948; 5243.326;   -9.214; 9381.347
827.513; 5630.975;  -10.774; 9450.726
828.079; 5536.775;  -11.924; 9472.444
828.645; 4936.716;  -10.543; 9292.643
829.210; 4703.871;  -10.533; 9065.341
829.776; 4661.357;  -10.753; 9132.620
830.341; 4569.686;  -10.173; 9092.878
830.906; 4734.933;  -10.743; 9078.557
831.472; 5083.380;  -11.113; 8534.535
832.037; 4936.067;  -10.603; 8677.874
832.602; 4472.124;  -13.323; 8628.692
833.167; 4224.770;  -10.823; 8879.031
833.733; 4170.537;  -10.113; 9189.790
834.298; 4313.958;  -13.583; 9052.608
834.863; 4459.723;  -12.703; 8895.087
835.428; 4469.473;  -10.523; 8824.266
835.993; 4278.865;   -6.963; 8845.385
836.558; 4050.806;  -10.763; 8888.563
837.123; 4083.329;   -9.903; 8966.582
837.688; 4333.262;   -9.913; 8617.860
838.253; 4627.022;  -10.283; 8590.699
838.817; 4829.941;  -12.963; 8443.797
839.382; 4761.419;  -14.243; 8799.356
839.947; 4460.124;  -10.733; 8810.595
840.511; 4175.116;   -9.383; 8796.394
841.076; 3814.052;  -12.563; 8347.231
841.641; 3854.038;  -12.953; 8224.330
842.205; 3946.241;   -7.043; 8223.349
842.770; 3963.662;   -8.163; 8622.107
843.334; 4050.675;  -12.503; 8410.386
843.898; 3971.708;  -11.693; 8337.465
844.463; 3968.498;  -10.203; 8506.283
845.027; 3790.045;   -9.533; 8280.962
845.591; 3619.744;  -13.443; 8231.141
846.156; 3638.246;  -13.143; 7969.179
846.720; 3557.342;   -9.433; 7768.278
847.284; 3453.458;  -11.033; 7630.957
847.848; 3327.359;  -10.403; 7472.395
848.412; 3257.835;  -11.553; 7437.394
848.976; 3318.484;   -8.393; 7674.592
849.540; 3233.483;   -8.713; 7836.011
850.104; 3276.021;  -12.463; 7913.669
850.668; 3623.405;  -12.973; 7694.508
851.232; 3799.206;  -10.793; 7756.887
851.796; 3680.082;  -10.662; 7926.545
852.359; 3385.185;  -13.082; 7827.844
852.923; 3194.529;  -12.192; 7641.163
853.487; 3033.979;  -11.912; 7342.501
854.050; 3026.716;  -10.892; 7042.820
854.614; 3195.172;  -13.992; 7151.338
855.177; 3321.464;  -11.732; 7105.077
855.741; 3352.897;   -8.962; 6989.675
856.304; 3230.527;   -9.442; 6596.634
856.868; 3190.971;  -14.192; 6356.272
857.431; 3282.049;  -12.702; 6468.571
857.995; 3383.793;   -9.942; 6373.210
858.558; 3404.860;   -9.112; 6324.448
859.121; 3145.343;  -12.932; 6408.327
859.684; 2977.314;  -13.442; 6347.886
860.247; 3088.490;  -10.632; 6321.264
860.810; 3141.630;  -11.272; 6301.903
861.374; 2914.377;   -9.832; 6607.881
861.937; 2657.752;  -11.762; 6408.200
862.500; 2652.940;   -9.722; 6572.639
863.062; 2798.765;  -10.512; 6387.297
863.625; 2946.032;  -11.232; 6190.836
864.188; 3099.984;  -14.112; 5807.254
864.751; 3165.964;  -11.302; 5682.413
865.314; 3078.893;  -10.112; 5547.492
865.876; 2852.589;  -12.182; 5500.150
866.439; 2803.892;  -10.722; 5415.909
867.002; 2770.018;   -9.252; 5501.567
867.564; 2602.745;   -9.572; 5413.946
868.127; 2409.460;  -13.142; 5160.325
868.689; 2299.791;  -12.902; 5133.183
869.252; 2206.090;   -9.732; 5252.382
869.814; 2105.839;   -9.432; 5297.141
870.377; 2097.003;  -11.552; 5390.919
870.939; 2147.474;   -9.052; 5599.898
871.501; 2224.800;  -10.982; 5248.336
872.063; 2244.393;  -12.292; 4854.235
872.626; 2184.645;  -14.912; 4817.074
873.188; 2173.490;  -13.112; 4987.732
873.750; 2139.280;  -13.442; 4868.651
874.312; 2039.790;   -9.402; 4779.330
874.874; 1956.050;  -11.062; 4866.348
875.436; 1885.768;  -13.931; 4718.887
875.998; 1888.468;   -9.561; 4660.005
876.560; 1910.531;  -11.321; 4462.964
877.122; 1848.812;  -12.221; 4145.042
877.683; 1742.347;  -12.191; 4056.481
878.245; 1666.256;  -12.101; 3950.740
878.807; 1708.678;   -8.971; 4058.958
879.369; 1734.974;  -12.071; 3954.677
879.930; 1643.729;  -14.621; 3941.495
880.492; 1575.309;  -10.311; 4067.014
881.053; 1551.424;  -10.901; 3859.633
881.615; 1465.661;  -14.411; 3776.071
882.176; 1367.599;  -13.761; 3734.750
882.738; 1310.125;   -9.181; 3678.489
883.299; 1282.906;  -11.791; 3405.407
883.860; 1270.436;  -13.121; 3351.106
884.422; 1256.760;  -11.211; 3394.044
884.983; 1223.841;  -10.091; 3166.443
885.544; 1158.483;   -8.461; 3189.802
886.105; 1083.119;  -12.361; 3160.360
886.666; 1014.588;  -14.141; 3093.059
887.227;  953.150;  -11.361; 2941.957
887.788;  892.812;  -11.401; 2974.836
888.349;  830.236;  -13.791; 2721.214
888.910;  819.153;  -13.191; 2696.493
889.471;  821.841;   -9.881; 2560.172
890.032;  806.152;   -9.881; 2558.190
890.593;  781.562;  -10.371; 2567.669
891.153;  753.535;  -13.301; 2460.307
891.714;  710.195;  -11.431; 2372.046
892.275;  677.379;  -11.291; 2309.505
892.835;  647.588;  -11.471; 2382.543
893.396;  602.983;  -11.541; 2295.502
893.956;  550.767;  -11.181; 2162.420
894.517;  509.928;  -11.741; 2125.439
895.077;  497.821;  -11.671; 2086.978
895.638;  498.721;  -11.311; 2126.316
896.198;  473.401;   -9.831; 1838.275
896.758;  433.518;   -8.421; 1892.813
897.319;  402.694;  -12.351; 1792.232
897.879;  387.223;  -13.511; 1762.751
898.439;  364.613;  -12.001; 1661.149
898.999;  341.179;  -10.180; 1781.468
899.559;  330.916;  -12.030; 1703.347
900.119;  326.898;  -15.710; 1537.525
900.679;  323.032;   -8.900; 1638.384
901.239;  308.993;   -8.340; 1527.902
901.799;  299.125;  -13.910; 1456.441
902.359;  291.183;  -13.460; 1357.140
902.919;  286.866;  -11.490; 1331.118
903.479;  273.703;  -12.110; 1317.257
904.038;  254.070;  -11.720; 1262.595
904.598;  239.649;  -13.610; 1152.034
905.158;  236.049;  -11.040; 1240.893
905.717;  230.607;  -10.900; 1233.691
906.277;  220.293;  -15.080; 1217.330
906.836;  210.811;  -13.380; 1222.408
907.396;  202.030;  -10.780; 1193.047
907.955;  195.256;   -8.500; 1182.526
908.515;  188.819;  -12.760; 1099.364
909.074;  183.599;  -11.900; 1092.863
909.633;  178.240;   -8.950; 1069.121
910.192;  173.945;   -8.770; 1196.460
910.752;  168.534;  -12.390; 1029.960
911.311;  163.711;  -13.680; 1009.780
911.870;  162.375;  -12.370;  971.460
912.429;  162.625;  -10.900; 1094.080
912.988;  161.600;  -11.690; 1081.060
913.547;  156.552;  -13.240;  940.380
914.106;  153.167;  -11.990;  999.420
914.665;  149.141;   -9.990;  984.020
915.224;  148.507;  -12.880; 1035.760
915.782;  147.943;  -12.350;  922.560
916.341;  148.677;   -9.110; 1049.840
916.900;  144.139;   -9.270;  925.260
917.458;  141.330;  -13.240;  884.220
918.017;  141.154;  -13.550;  942.600
918.576;  141.961;  -12.320;  904.440
919.134;  140.356;  -11.490;  837.980
919.693;  137.243;  -13.670;  893.060
920.251;  134.995;  -15.470;  876.500
920.809;  135.717;  -11.290;  839.580
921.368;  135.427;  -10.210;  885.360
921.926;  134.822;  -12.140;  842.940
922.484;  132.670;  -13.080;  903.360
923.042;  132.541;  -11.720;  880.340
923.601;  135.386;   -7.480;  998.680
924.159;  133.868;  -11.570;  935.560
924.717;  129.837;  -13.840;  841.080
925.275;  130.461;  -10.640;  903.240
925.833;  129.515;  -11.540;  779.320
926.391;  129.994;  -12.960;  938.380
926.949;  128.533;  -14.130;  857.680
927.506;  130.233;  -11.750;  903.500
928.064;  130.566;  -10.250;  877.580
928.622;  128.626;  -13.030;  880.100
929.180;  128.138;  -13.400;  814.180
929.737;  129.777;  -10.700;  808.540
930.295;  133.533;  -10.070;  928.480
930.853;  133.618;  -11.960;  849.100
931.410;  133.622;  -13.120;  821.120
931.968;  134.249;  -10.770;  940.660
932.525;  134.942;  -10.680;  909.380
933.082;  134.399;  -13.130;  811.440
933.640;  134.694;  -13.210;  925.900
934.197;  134.195;  -11.060;  886.360
934.754;  135.319;   -9.580;  897.780
935.312;  137.316;  -14.000;  863.340
935.869;  141.152;  -10.710; 1012.980
936.426;  142.158;   -9.860;  872.800
936.983;  143.418;   -9.710;  889.020
937.540;  142.737;  -13.990;  838.280
938.097;  142.343;  -14.040;  940.120
938.654;  143.117;  -10.310;  898.860
939.211;  144.364;  -10.560;  952.480
939.768;  146.676;  -13.900;  915.420
940.324;  149.990;  -14.760;  904.200
940.881;  152.615;  -10.370;  878.500
941.438;  153.655;   -8.260; 1021.200
941.995;  148.663;  -12.540;  992.560
942.551;  146.807;  -14.670;  875.620
943.108;  147.268;  -10.450;  937.920
943.664;  149.279;  -10.750;  869.340
944.221;  152.500;  -11.550; 1088.140
944.777;  148.596;  -14.770;  869.680
945.334;  149.667;  -12.820;  884.840
945.890;  152.619;  -10.130;  946.480
946.446;  151.425;  -13.470;  947.020
947.003;  153.080;  -12.120;  964.940
947.559;  156.244;   -9.980; 1063.040
948.115;  157.061;   -9.080; 1026.540
948.671;  153.417;  -10.830;  967.300
949.227;  150.282;  -12.440;  859.560
949.783;  148.401;  -12.910;  858.900
950.339;  150.771;  -10.270;  991.000
950.895;  150.337;  -13.630; 1023.840
951.451;  149.135;  -15.100;  925.280
952.007;  148.755;  -11.330;  998.540
952.563;  149.333;  -10.580;  937.780
953.118;  147.409;  -13.440;  904.940
953.674;  147.137;  -12.710;  935.780
954.230;  146.657;  -10.350;  949.640
954.785;  146.032;   -9.190;  936.640
955.341;  143.063;  -11.200;  998.160
955.897;  141.570;  -16.560;  834.660
956.452;  143.125;  -12.570;  953.840
957.008;  142.838;   -7.970; 1083.640
957.563;  139.486;  -11.940; 1009.540
958.118;  133.017;  -13.450;  877.700
958.674;  134.705;  -12.030;  946.780
959.229;  136.151;   -9.410; 1013.980
959.784;  134.285;  -12.000;  832.400
960.339;  133.162;  -14.780; 1001.280
960.894;  130.563;   -9.860;  963.760
961.449;  127.208;   -9.970;  859.960
962.004;  126.628;  -10.900; 1212.840
962.559;  120.924;  -13.150;  860.140
963.114;  118.579;  -13.740;  742.480
963.669;  118.954;   -9.820;  915.500
964.224;  116.506;  -13.890;  874.340
964.779;  115.168;  -12.600;  828.420
965.334;  116.784;  -10.950; 1017.860
965.888;  116.498;  -11.170;  875.360
966.443;  118.986;  -12.540;  972.380
966.998;  118.737;  -15.780;  819.460
967.552;  118.448;   -9.760;  908.380
968.107;  114.417;   -9.060;  868.300
968.661;  114.939;  -11.950;  922.440
969.216;  114.727;  -12.800;  856.280
969.770;  115.492;  -11.210;  917.200
970.324;  114.074;  -11.610;  923.140
970.879;  110.611;  -11.370;  947.180
971.433;  108.031;  -12.540;  952.720
971.987;  104.284;  -11.320;  895.340
972.541;  101.599;  -10.720;  917.100
973.095;  100.626;   -9.680; 1009.460
973.649;   98.327;  -11.440;  809.480
974.203;   97.848;  -11.210;  829.040
974.757;   98.337;  -10.240;  855.220
975.311;   98.285;  -13.720;  872.600
975.865;   97.292;  -13.770;  881.820
976.419;   95.604;  -11.690;  857.400
976.973;   94.707;   -9.510;  849.620
977.526;   96.470;  -12.620;  949.920
978.080;   95.424;  -12.010;  796.780
978.634;   97.770;  -10.170;  921.320
979.187;   96.861;   -9.020;  905.400
979.741;   93.680;   -9.820; 1018.380
980.294;   88.165;  -14.870;  789.160
980.848;   86.722;  -12.380;  717.220
981.401;   88.937;  -10.350;  816.540
981.955;   91.429;  -13.720;  844.300
982.508;   89.483;  -11.490;  746.340
983.061;   90.254;  -10.000;  915.260
983.615;   86.911;  -11.480;  798.800
984.168;   83.230;  -13.220;  770.080
984.721;   82.354;  -13.960;  880.760
985.274;   81.429;  -10.870;  867.500
985.827;   80.521;   -9.790;  834.220
986.380;   77.701;  -13.120;  721.340
986.933;   77.331;  -12.450;  864.800
987.486;   76.036;  -10.210;  861.920
988.039;   75.180;   -8.430;  863.100
988.591;   73.551;  -10.520;  893.260
989.144;   70.744;  -14.860;  737.260
989.697;   69.898;  -13.080;  758.740
990.250;   70.918;  -10.150;  858.100
990.802;   68.457;  -13.430;  755.860
991.355;   69.939;  -12.750;  974.880
991.907;   68.064;  -12.040;  864.320
992.460;   66.189;  -11.330;  753.760
993.012;   64.315;  -13.610;  749.540
993.565;   63.499;  -13.460;  711.360
994.117;   66.098;   -9.360;  950.780
994.669;   62.791;  -11.300;  701.320
995.221;   60.651;  -13.540;  791.920
995.774;   57.948;  -13.430;  787.580
996.326;   57.555;  -12.520;  740.220
996.878;   57.818;  -10.950;  838.420
997.430;   55.224;  -14.300;  699.860
997.982;   53.411;  -13.760;  750.140
998.534;   54.043;  -11.530;  739.060
999.086;   52.536;  -10.310;  738.220
999.638;   51.091;  -12.530;  661.380
1000.190;   49.811;  -11.840;  699.320
1000.741;   50.196;  -10.260;  742.700
1001.293;   50.454;   -8.860;  686.020
1001.845;   47.944;  -13.700;  676.640
1002.396;   48.463;  -12.100;  743.400
1002.948;   47.665;  -12.760;  737.400
1003.500;   47.235;  -10.380;  723.780
1004.051;   48.094;  -11.900;  907.580
1004.603;   45.044;  -12.250;  791.820
1005.154;   42.128;  -13.210;  608.980
1005.705;   42.049;  -10.950;  723.960
1006.257;   40.741;  -13.880;  707.220
1006.808;   39.534;  -12.840;  685.460
1007.359;   40.056;  -10.570;  763.240
1007.910;   39.828;   -9.620;  646.640
1008.461;   38.316;  -13.630;  732.940
1009.013;   36.747;  -17.200;  588.340
1009.564;   39.112;  -10.200;  793.520
1010.115;   36.772;  -12.570;  597.040
1010.665;   36.163;  -15.150;  602.160
1011.216;   35.936;  -14.480;  667.920
1011.767;   35.558;  -11.340;  697.920
1012.318;   36.114;   -9.780;  736.980
1012.869;   34.192;  -12.380;  679.000
1013.419;   33.725;  -15.560;  603.120
1013.970;   34.705;  -11.010;  666.640
1014.521;   33.651;  -11.610;  620.620
1015.071;   34.579;  -13.450;  670.380
1015.622;   33.465;  -13.870;  635.460
1016.172;   33.881;  -11.610;  596.820
1016.723;   33.181;  -12.120;  614.380
1017.273;   32.255;  -13.620;  604.160
1017.823;   32.579;  -14.140;  650.340
1018.374;   32.403;  -12.800;  611.760
1018.924;   32.482;  -12.340;  716.880
1019.474;   32.351;  -11.410;  718.880
1020.024;   30.121;  -14.770;  657.580
1020.574;   32.326;   -9.780;  726.160
1021.124;   31.913;   -8.560;  673.580
1021.674;   30.304;  -15.190;  559.120
1022.224;   31.404;  -13.530;  708.940
1022.774;   32.010;  -13.280;  668.820
1023.324;   31.618;  -10.690;  753.520
1023.874;   31.468;  -10.240;  875.760
1024.423;   29.725;  -12.540;  613.700
1024.973;   30.104;  -10.010;  610.760
1025.523;   29.129;  -10.550;  620.960
1026.072;   28.473;  -13.560;  606.420
1026.622;   28.251;  -15.120;  675.740
1027.172;   30.368;  -11.260;  715.660
1027.721;   28.086;  -11.410;  601.220
1028.270;   28.522;  -13.530;  663.400
1028.820;   28.018;  -13.680;  638.080
1029.369;   28.412;  -13.520;  612.700
1029.918;   27.936;  -10.980;  649.840
1030.468;   27.000;  -13.530;  564.780
1031.017;   27.343;  -13.170;  634.800
1031.566;   27.336;  -12.200;  608.900
1032.115;   27.232;   -9.960;  694.500
1032.664;   25.758;  -13.210;  596.480
1033.213;   26.512;  -12.500;  735.420
1033.762;   26.323;  -11.910;  635.620
1034.311;   26.290;   -9.640;  677.220
1034.860;   27.117;  -13.310;  691.000
1035.408;   25.778;  -11.830;  722.720
1035.957;   27.730;  -12.000;  719.540
1036.506;   24.789;  -11.690;  530.800
1037.055;   26.606;  -10.990;  844.320
1037.603;   24.717;  -15.120;  664.000
1038.152;   24.204;  -12.450;  534.760
1038.700;   24.927;  -10.560;  585.740
1039.249;   24.391;  -11.080;  681.220
1039.797;   24.247;  -12.540;  633.360
1040.345;   24.619;  -11.920;  705.420
1040.894;   24.440;  -11.410;  625.300
1041.442;   23.624;  -14.320;  632.200
1041.990;   22.786;  -16.240;  559.160
1042.538;   23.496;  -11.680;  536.180
1043.087;   23.385;  -10.760;  570.860
1043.635;   23.692;  -11.850;  670.500
1044.183;   22.854;  -15.480;  586.400
1044.731;   22.593;  -11.770;  576.000
1045.279;   22.440;  -13.090;  674.920
1045.827;   24.407;  -12.440;  892.400
1046.374;   21.794;  -13.840;  515.420
1046.922;   21.179;  -13.220;  590.580
1047.470;   23.513;  -10.230;  691.300
1048.018;   22.100;  -14.590;  647.960
1048.565;   22.666;  -12.050;  708.600
1049.113;   20.746;  -11.650;  557.000
1049.660;   21.843;  -10.510;  629.660
1050.208;   21.315;  -13.310;  675.640
1050.755;   20.965;  -15.900;  606.580
1051.303;   21.968;  -11.430;  686.820
1051.850;   20.655;   -8.480;  635.120
1052.397;   19.026;  -15.010;  473.960
1052.945;   19.829;  -13.960;  617.760
1053.492;   21.697;  -13.150;  741.840
1054.039;   21.701;   -9.630;  720.180
1054.586;   20.056;  -13.680;  557.240
1055.133;   20.451;  -14.570;  693.140
1055.680;   20.500;  -13.820;  646.620
1056.227;   19.924;  -11.730;  542.780
1056.774;   20.682;  -12.480;  794.980
1057.321;   18.050;  -13.930;  523.260
1057.868;   19.455;  -11.690;  651.320
1058.415;   18.985;   -9.520;  651.980
1058.961;   19.217;  -13.160;  678.940
1059.508;   19.846;  -12.920;  643.820
1060.055;   18.994;  -11.920;  581.780
1060.601;   19.659;  -11.500;  624.300
1061.148;   18.671;  -14.330;  616.820
1061.694;   17.323;  -16.870;  592.580
1062.241;   18.105;  -10.330;  596.320
1062.787;   18.827;  -10.620;  663.140
1063.334;   20.029;  -10.110;  808.560
1063.880;   17.430;  -13.400;  668.360
1064.426;   18.177;  -10.680;  706.820
1064.972;   17.741;   -9.920;  601.340
1065.518;   16.166;  -10.980;  566.640
1066.065;   16.477;  -14.890;  624.460
1066.611;   17.095;  -12.870;  598.800
1067.157;   18.062;  -12.950;  641.860
1067.703;   17.299;  -13.540;  668.480
1068.249;   16.674;  -13.540;  605.220
1068.794;   17.397;  -12.600;  626.880
1069.340;   16.004;  -10.620;  578.960
1069.886;   16.141;  -12.830;  590.700
1070.432;   15.125;  -14.870;  541.720
1070.977;   16.013;  -11.980;  601.080
1071.523;   16.665;   -8.200;  573.060
1072.068;   15.317;  -12.330;  582.000
1072.614;   15.134;  -16.370;  527.760
1073.160;   16.349;  -11.100;  687.040
1073.705;   15.253;  -10.480;  572.520
1074.250;   15.340;  -14.520;  559.900
1074.796;   15.734;  -11.460;  655.160
1075.341;   15.780;  -11.950;  664.100
1075.886;   15.877;  -11.460;  594.240
1076.431;   14.920;  -13.770;  649.880
1076.976;   14.122;  -12.680;  639.220
1077.521;   13.896;  -13.170;  583.080
1078.067;   14.108;  -10.860;  579.400
1078.612;   15.046;  -13.920;  661.620
1079.156;   13.694;  -13.880;  601.540
1079.701;   14.368;  -13.120;  693.260
1080.246;   15.747;   -9.940;  696.300
1080.791;   14.137;  -14.740;  625.020
1081.336;   13.603;  -13.750;  659.320
1081.880;   13.977;  -13.400;  649.680
1082.425;   13.342;  -12.220;  573.480
1082.970;   15.105;  -11.610;  717.040
1083.514;   12.992;  -13.580;  597.000
1084.059;   12.720;  -12.810;  586.720
1084.603;   12.983;  -12.320;  565.840
1085.147;   13.382;  -13.190;  645.220
1085.692;   13.272;  -12.480;  716.800
1086.236;   11.682;  -13.020;  503.140
1086.780;   14.847;   -9.190;  751.440
1087.325;   12.859;  -12.480;  654.620
1087.869;   12.041;  -12.450;  610.700
1088.413;   13.244;  -12.240;  705.040
1088.957;   12.272;   -9.020;  543.400
1089.501;   12.673;  -10.320;  766.640
1090.045;   12.212;  -12.720;  726.480
1090.589;   10.494;  -13.690;  569.920
1091.133;   12.874;  -10.020;  673.340
1091.676;   11.416;  -12.330;  591.940
1092.220;   11.315;  -14.970;  600.920
1092.764;   11.967;  -12.430;  706.960
1093.307;   11.829;   -9.800;  673.780
1093.851;    9.924;  -14.970;  556.540
1094.395;   10.683;  -15.310;  683.140
1094.938;   10.902;  -10.370;  632.520
1095.482;   11.549;  -11.050;  559.800
1096.025;   11.490;  -11.840;  710.880
1096.568;   11.458;  -12.840;  779.280
1097.112;    8.852;  -14.700;  508.180
1097.655;   11.784;   -8.720;  603.000
1098.198;    9.295;  -13.610;  600.180
1098.741;    9.381;  -13.350;  612.860
1099.285;   11.353;  -11.230;  657.300
1099.828;    9.137;  -11.840;  439.400
1100.371;   10.053;  -10.840;  608.160
1100.914;    9.331;  -14.190;  682.660
1101.457;   10.170;  -11.240;  679.900
1101.999;    8.968;  -11.270;  584.680
1102.542;    9.896;  -11.480;  641.440
1103.085;    8.579;  -11.750;  658.500
1103.628;   10.136;  -11.400;  762.060
1104.170;    9.409;  -10.490;  588.280
1104.713;    8.635;  -10.600;  646.700
1105.256;    8.327;  -14.360;  557.440
1105.798;    7.483;  -13.210;  499.980
1106.341;   10.174;  -10.270;  728.900
1106.883;    8.057;  -12.200;  521.340
1107.425;    8.637;  -13.110;  668.180
1107.968;    8.249;  -12.840;  612.380
1108.510;    9.288;   -6.480;  684.960
1109.052;    7.479;  -13.940;  612.620
1109.594;    6.884;  -13.690;  554.440
1110.136;    8.565;  -11.880;  643.220
1110.679;    8.385;   -9.500;  633.080
1111.221;    8.275;  -14.160;  604.460
1111.763;    6.574;  -13.980;  559.220
1112.304;    6.978;  -13.880;  547.140
1112.846;    8.774;  -12.210;  666.240
1113.388;    9.631;  -11.390;  942.180
1113.930;    7.325;  -14.540;  694.200
1114.472;    6.683;  -12.640;  606.540
1115.013;    6.189;  -11.620;  551.280
1115.555;    6.390;  -13.640;  587.100
1116.097;    5.383;  -15.380;  579.480
1116.638;    6.746;  -12.640;  684.600
1117.180;    7.685;   -9.850;  667.740
1117.721;    6.662;  -13.690;  568.580
1118.262;    6.221;  -12.680;  677.960
1118.804;    7.138;  -12.530;  637.340
1119.345;    6.460;  -11.690;  578.400
1119.886;    7.129;  -13.380;  704.040
1120.427;    5.213;  -14.070;  589.020
1120.969;    5.230;  -13.500;  597.920
1121.510;    5.153;  -11.480;  563.060
1122.051;    6.439;  -12.830;  723.580
1122.592;    4.636;  -14.290;  655.420
1123.133;    4.617;  -12.400;  547.940
1123.673;    6.465;  -10.130;  706.480
1124.214;    5.603;  -12.930;  612.460
1124.755;    5.655;  -14.380;  639.460
1125.296;    6.047;  -14.000;  627.320
1125.836;    5.955;  -10.070;  691.500
1126.377;    4.439;  -12.640;  599.660
1126.918;    5.436;  -12.960;  614.980
1127.458;    4.723;  -13.350;  622.220
1127.999;    5.498;  -10.750;  656.980
1128.539;    5.629;  -12.350;  694.240
1129.079;    3.311;  -14.860;  632.720
1129.620;    3.825;  -13.840;  558.100
1130.160;    4.173;  -12.330;  539.480
1130.700;    4.923;  -14.530;  640.840
1131.240;    4.698;  -12.530;  643.700
1131.781;    3.946;  -14.450;  619.680
1132.321;    4.243;   -9.790;  599.120
1132.861;    3.008;  -14.860;  564.200
1133.401;    3.020;  -14.290;  593.940
1133.941;    4.228;  -11.750;  626.280
1134.481;    4.156;   -9.920;  597.580
1135.020;    2.888;  -12.290;  609.160
1135.560;    3.076;  -11.650;  674.940
1136.100;    3.551;  -16.270;  501.160
1136.640;    3.496;  -10.890;  510.480
1137.179;    2.380;  -14.180;  537.960
1137.719;    3.014;  -16.250;  605.400
1138.258;    3.348;  -14.230;  587.360
1138.798;    4.525;   -9.090;  663.780
1139.337;    2.162;  -15.130;  482.840
1139.877;    2.123;  -13.680;  642.360
1140.416;    4.503;  -11.320;  878.060
1140.955;    2.110;  -10.860;  535.380
1141.494;    2.215;  -12.920;  669.280
1142.034;    1.882;  -13.930;  583.520
1142.573;    3.986;  -11.440;  646.280
1143.112;    2.467;  -12.000;  553.480
1143.651;    2.089;  -13.670;  536.480
1144.190;    3.396;  -12.730;  691.640
1144.729;    1.708;  -14.560;  607.420
1145.267;    1.896;  -11.830;  584.900
1145.806;    3.015;  -12.230;  637.040
1146.345;    0.896;  -14.130;  635.020
1146.884;    1.814;  -11.590;  622.500
1147.422;    1.916;  -12.550;  533.060
1147.961;    3.003;  -11.180;  708.460
1148.500;    1.984;  -11.510;  669.720
1149.038;    2.742;  -11.640;  632.500
1149.577;    2.305;  -10.130;  698.640
1150.115;   -0.708;  -13.970;  452.280
1150.653;    1.171;  -14.520;  607.340
1151.192;    1.538;  -12.810;  552.920
1151.730;    1.373;   -9.100;  652.560
1152.268;    0.466;  -12.220;  589.520
1152.806;    0.298;  -14.140;  571.180
1153.344;   -0.270;  -12.350;  577.640
1153.882;    1.211;   -8.980;  600.060
1154.421;   -0.352;  -15.190;  470.620
1154.958;   -0.488;  -15.210;  595.240
1155.496;    1.043;  -12.850;  645.280
1156.034;    1.334;   -9.940;  721.880
1156.572;    1.977;  -13.570;  667.060
1157.110;    0.073;  -14.590;  473.940
1157.647;    0.981;  -13.030;  676.960
1158.185;   -0.052;  -12.140;  564.320
1158.723;   -0.602;  -14.390;  509.200
1159.260;    0.513;  -14.090;  701.700
1159.798;    1.061;  -11.920;  658.160
1160.335;    0.060;  -11.110;  631.820

