
Integration time [ms]:   3.276
Averaging Nr. [scans]: 1000
Smoothing Nr. [pixels]: 0
Data measured with spectrometer [name]: 7414430SP
Wave   ;Sample   ;Dark     ;Reference
[nm]   ;[counts] ;[counts] ;[counts] 

288.544;  156.936;    7.793;  793.890
289.143;  159.647;    7.462;  681.602
289.742;  161.237;    8.602;  828.814
290.341;  148.890;    1.321;  789.841
290.940;  138.257;   -0.709;  730.702
291.538;  140.118;    0.881;  881.108
292.137;  140.664;    0.122;  792.581
292.736;  142.199;   -1.929;  975.101
293.335;  138.041;   -8.229;  735.086
293.934;  140.400;   -5.279;  781.677
294.532;  141.602;   -1.369; 1031.958
295.131;  126.007;   -7.641;  834.394
295.730;  126.175;   -8.420;  809.588
296.328;  124.140;   -5.611;  783.442
296.927;  123.101;   -5.781;  779.652
297.525;  125.182;   -6.361;  781.236
298.124;  116.166;  -11.382;  654.009
298.722;  120.238;   -7.641;  761.933
299.321;  117.114;   -6.811;  708.597
299.919;  113.584;   -6.991;  751.918
300.518;  110.017;  -10.362;  689.338
301.116;  112.292;   -9.581;  691.381
301.715;  114.309;   -4.891;  730.222
302.313;  112.238;   -8.801;  704.943
302.911;  105.724;   -8.522;  733.830
303.509;  112.088;   -6.171;  925.627
304.108;  109.653;   -7.311;  760.383
304.706;  109.856;   -8.321;  801.664
305.304;  102.809;  -10.222;  796.707
305.902;  108.411;   -6.021;  784.484
306.500;  104.502;   -4.971;  728.200
307.098;  103.108;   -7.061;  746.560
307.696;  100.857;   -8.801;  780.432
308.294;  101.787;   -6.411;  731.359
308.892;  102.689;   -2.901;  759.769
309.490;   99.615;   -5.041;  712.161
310.088;   96.662;   -5.002;  788.444
310.686;  102.375;   -2.041;  821.749
311.284;   97.445;   -2.351;  766.040
311.882;   94.767;   -4.422;  731.225
312.480;   91.757;   -4.192;  697.167
313.078;   93.385;   -1.172;  808.331
313.675;   94.139;   -2.601;  691.600
314.273;   89.107;   -1.312;  797.837
314.871;   88.678;   -3.942;  589.829
315.468;   85.445;   -2.802;  652.090
316.066;   89.516;   -0.701;  694.427
316.664;   81.608;   -4.362;  656.351
317.261;   85.411;   -2.872;  910.128
317.859;   81.073;   -2.022;  768.735
318.456;   82.103;   -0.531;  830.096
319.054;   78.224;   -3.912;  787.828
319.651;   75.769;   -4.752;  759.928
320.249;   75.264;   -2.602;  810.188
320.846;   73.151;   -0.821;  714.286
321.443;   70.092;   -4.642;  832.135
322.041;   68.089;   -5.002;  812.315
322.638;   65.297;   -3.982;  701.456
323.235;   66.758;   -3.411;  665.683
323.833;   63.005;   -7.361;  740.354
324.430;   57.531;   -8.611;  615.900
325.027;   59.634;   -4.061;  876.855
325.624;   59.529;   -4.031;  644.532
326.221;   55.641;   -7.481;  689.717
326.818;   55.221;   -5.281;  818.332
327.415;   57.961;   -7.460;  748.828
328.012;   57.856;   -5.510;  690.585
328.609;   56.628;   -7.880;  731.389
329.206;   54.446;   -8.331;  778.621
329.803;   54.912;   -5.121;  737.841
330.400;   56.918;   -4.510;  704.260
330.997;   57.758;   -6.441;  817.147
331.594;   55.727;   -8.831;  788.185
332.191;   61.136;   -7.621;  728.722
332.787;   65.586;   -4.591;  844.463
333.384;   65.481;   -7.412;  763.093
333.981;   63.770;   -8.293;  815.687
334.578;   66.956;   -7.052;  708.378
335.174;   69.568;   -3.102;  731.469
335.771;   68.430;   -5.943;  836.456
336.367;   65.336;   -7.393;  710.631
336.964;   70.973;   -4.063;  793.266
337.561;   67.409;   -3.813;  731.112
338.157;   64.118;   -4.654;  911.916
338.754;   62.572;   -7.934;  796.589
339.350;   59.510;   -4.414;  722.493
339.946;   62.046;   -4.664;  773.135
340.543;   53.714;   -6.375;  846.136
341.139;   46.801;   -9.815;  720.836
341.735;   44.912;   -4.526;  772.593
342.332;   44.622;   -4.895;  691.472
342.928;   44.172;   -4.295;  795.394
343.524;   37.546;   -5.476;  761.684
344.120;   33.980;   -5.856;  738.562
344.716;   37.706;   -2.155;  723.717
345.313;   34.292;   -6.275;  795.342
345.909;   28.921;   -8.815;  627.336
346.505;   30.127;   -5.305;  740.247
347.101;   31.179;   -2.674;  827.864
347.697;   30.784;   -4.344;  785.398
348.293;   26.294;   -9.975;  627.244
348.889;   26.960;   -5.774;  745.914
349.485;   26.526;   -5.004;  688.205
350.081;   27.021;   -4.704;  772.592
350.676;   21.382;   -6.635;  691.606
351.272;   26.530;   -4.504;  809.530
351.868;   26.887;   -3.914;  780.497
352.464;   24.024;   -9.044;  723.932
353.059;   18.495;   -8.314;  646.017
353.655;   22.429;   -7.024;  777.063
354.251;   24.104;   -5.343;  759.845
354.846;   17.886;   -8.604;  740.646
355.442;   14.942;   -6.945;  753.071
356.038;   17.755;   -7.564;  751.708
356.633;   18.124;   -5.814;  728.594
357.229;   15.384;   -7.364;  724.757
357.824;   13.731;   -8.024;  703.600
358.420;   12.656;   -9.384;  679.726
359.015;   13.296;   -5.104;  695.357
359.610;   13.922;   -6.854;  763.920
360.206;    7.630;  -10.185;  603.240
360.801;   11.043;   -7.054;  646.503
361.396;   13.633;   -5.034;  725.975
361.992;    8.030;   -8.284;  668.220
362.587;    5.316;   -8.625;  670.160
363.182;    7.592;   -7.674;  689.631
363.777;    8.001;   -5.164;  738.242
364.372;    8.462;   -8.604;  737.314
364.967;    3.630;   -9.055;  680.744
365.563;    8.368;   -6.114;  815.567
366.158;    5.928;   -5.814;  685.161
366.753;    6.392;   -7.854;  649.263
367.348;    3.588;   -7.804;  746.056
367.942;    4.164;   -7.954;  697.298
368.537;    3.159;   -4.984;  754.245
369.132;    2.859;   -8.564;  703.428
369.727;   -1.331;   -8.855;  638.079
370.322;    1.488;   -6.245;  580.186
370.917;    0.270;   -6.425;  710.646
371.511;    3.041;   -6.294;  861.834
372.106;   -1.257;   -7.685;  776.964
372.701;   -3.352;   -7.335;  585.988
373.296;    2.648;   -4.564;  863.135
373.890;   -3.919;  -10.235;  647.840
374.485;   -5.502;   -7.885;  691.199
375.079;   -1.491;   -7.324;  738.685
375.674;    1.055;   -3.494;  812.970
376.268;   -4.658;   -8.525;  691.759
376.863;  -10.240;  -10.086;  580.327
377.457;   -3.606;   -7.025;  662.490
378.052;   -4.764;   -3.585;  764.884
378.646;   -6.535;   -7.595;  741.167
379.240;   -6.768;   -8.335;  721.176
379.835;   -5.846;   -5.785;  636.978
380.429;   -8.523;   -4.335;  562.557
381.023;   -8.245;   -6.805;  779.205
381.617;  -11.405;   -9.195;  680.106
382.212;   -7.671;   -6.905;  685.303
382.806;   -6.335;   -3.745;  760.690
383.400;   -9.924;   -7.745;  672.281
383.994;  -11.670;   -9.765;  664.870
384.588;   -7.163;   -6.564;  697.701
385.182;   -6.798;   -5.344;  726.624
385.776;   -7.831;   -8.514;  706.875
386.370;  -12.102;   -9.555;  681.968
386.964;  -10.605;   -8.715;  684.155
387.558;   -8.852;   -6.174;  598.360
388.152;  -12.865;   -8.725;  681.959
388.745;  -11.123;   -7.965;  814.707
389.339;   -8.806;   -5.924;  747.642
389.933;   -8.037;   -5.524;  695.370
390.527;   -9.346;   -7.114;  859.029
391.120;  -15.473;  -10.725;  595.318
391.714;  -12.810;   -8.035;  711.633
392.308;   -9.065;   -3.574;  780.253
392.901;  -13.259;   -7.245;  642.460
393.495;  -14.845;   -9.285;  595.414
394.089;  -12.982;   -5.895;  760.452
394.682;  -13.659;   -4.295;  697.188
395.275;  -13.882;   -9.875;  719.927
395.869;  -15.640;   -8.485;  667.314
396.462;  -14.083;   -7.455;  616.609
397.056;   -9.233;   -5.424;  776.621
397.649;  -14.769;   -6.605;  731.575
398.242;  -12.834;   -8.224;  712.645
398.836;  -11.139;   -7.474;  766.408
399.429;  -12.128;   -7.094;  631.041
400.022;  -15.983;   -9.475;  665.902
400.615;  -14.184;   -7.145;  805.609
401.208;  -10.816;   -7.174;  691.451
401.802;  -13.348;   -5.515;  699.329
402.395;  -14.731;   -9.875;  683.502
402.988;  -16.254;   -8.845;  696.627
403.581;  -12.672;   -8.874;  646.878
404.174;   -9.737;   -5.324;  686.568
404.767;  -12.828;   -9.575;  638.583
405.360;  -15.899;  -10.965;  621.445
405.953;   -9.667;   -8.764;  759.034
406.545;   -9.737;   -7.514;  725.342
407.138;  -14.381;  -10.025;  618.350
407.731;  -13.132;  -10.034;  613.303
408.324;   -8.985;   -9.374;  660.554
408.917;   -9.779;   -6.534;  681.864
409.509;  -11.640;   -8.004;  740.396
410.102;  -13.629;   -9.875;  643.948
410.695;   -7.534;   -8.604;  665.758
411.287;   -7.656;   -6.794;  599.821
411.880;  -10.420;   -9.334;  585.421
412.472;  -13.676;  -10.254;  613.092
413.065;  -10.039;   -6.714;  629.408
413.657;   -7.616;   -7.234;  576.678
414.250;   -8.258;  -10.544;  646.681
414.842;   -9.487;   -9.744;  676.353
415.434;   -7.658;   -6.994;  570.463
416.027;   -2.971;   -5.893;  652.196
416.619;   -5.899;   -7.264;  713.400
417.211;   -5.927;  -10.374;  599.352
417.804;   -1.746;   -7.993;  628.499
418.396;   -5.685;   -7.234;  607.643
418.988;   -3.887;   -9.443;  659.238
419.580;   -7.869;  -10.724;  568.276
420.172;   -5.685;  -10.323;  536.196
420.764;   -0.719;   -8.793;  672.482
421.356;   -1.930;  -11.143;  636.898
421.948;   -3.835;   -8.293;  677.661
422.540;    1.511;   -7.893;  680.027
423.132;    1.187;   -7.082;  600.641
423.724;   -2.110;   -8.653;  561.267
424.316;   -0.279;  -10.213;  621.345
424.908;    2.767;   -9.762;  591.517
425.500;    3.988;   -5.572;  647.978
426.092;    4.459;   -8.422;  648.268
426.683;    3.173;   -9.283;  684.836
427.275;    5.566;   -7.852;  641.471
427.867;    7.304;   -5.272;  668.948
428.458;    8.175;   -7.682;  732.344
429.050;    6.414;  -10.612;  680.749
429.642;    8.565;   -9.882;  743.124
430.233;   10.145;   -6.962;  569.356
430.825;   10.212;   -6.842;  724.809
431.416;    7.491;   -9.672;  698.241
432.008;   11.751;   -6.552;  651.723
432.599;   13.212;   -6.891;  656.073
433.190;    8.942;  -10.912;  637.670
433.782;    7.760;  -11.172;  590.395
434.373;   16.290;   -6.061;  884.765
434.964;   15.377;   -8.251;  602.920
435.556;   11.662;   -9.722;  634.537
436.147;   15.003;   -9.082;  758.490
436.738;   14.848;   -8.041;  701.099
437.329;   20.705;   -7.341;  721.723
437.920;   14.028;   -8.162;  666.688
438.511;   13.541;  -11.802;  564.526
439.103;   20.026;  -10.191;  623.998
439.694;   22.198;   -7.601;  681.583
440.285;   22.025;   -8.541;  764.432
440.876;   20.316;   -9.751;  845.738
441.466;   20.128;   -9.401;  575.162
442.057;   26.031;   -7.760;  665.814
442.648;   23.815;   -9.971;  746.255
443.239;   21.746;  -11.001;  620.477
443.830;   26.699;   -7.990;  704.958
444.421;   29.399;   -7.910;  655.474
445.011;   26.179;   -8.131;  693.619
445.602;   24.649;   -7.111;  743.126
446.193;   27.292;  -10.920;  488.117
446.783;   31.409;   -6.500;  640.397
447.374;   27.123;   -8.671;  692.759
447.964;   27.831;  -10.781;  713.770
448.555;   36.407;   -9.650;  822.742
449.145;   33.064;   -8.660;  662.853
449.736;   33.147;   -8.990;  803.179
450.326;   33.444;   -9.500;  713.626
450.917;   38.147;   -8.680;  675.324
451.507;   37.813;   -7.520;  600.661
452.097;   38.768;   -8.590;  746.267
452.688;   39.343;  -11.340;  742.160
453.278;   38.688;  -10.100;  566.840
453.868;   43.446;   -6.019;  793.550
454.458;   41.766;   -9.440;  651.141
455.048;   41.251;  -10.560;  711.783
455.639;   43.059;  -11.799;  567.096
456.229;   46.768;   -6.899;  710.694
456.819;   49.088;   -7.389;  751.158
457.409;   48.676;  -11.119;  773.993
457.999;   52.112;   -9.289;  737.505
458.589;   52.191;   -6.139;  686.606
459.179;   50.989;   -8.729;  717.658
459.769;   49.480;   -9.789;  627.099
460.358;   53.804;  -10.259;  797.262
460.948;   54.437;   -7.299;  689.503
461.538;   55.688;  -10.289;  660.677
462.128;   54.576;  -11.269;  664.934
462.717;   60.018;   -9.368;  710.326
463.307;   64.751;   -7.908;  705.846
463.897;   59.273;   -9.599;  656.942
464.486;   57.921;   -9.769;  837.128
465.076;   63.306;   -8.048;  733.776
465.666;   66.881;   -9.358;  652.900
466.255;   64.451;   -7.919;  785.651
466.845;   63.301;  -11.689;  666.749
467.434;   66.569;   -7.818;  725.873
468.023;   68.406;   -7.678;  658.357
468.613;   64.464;  -10.939;  713.946
469.202;   68.962;  -10.118;  646.507
469.791;   74.426;   -9.108;  737.811
470.381;   75.667;   -6.058;  742.813
470.970;   75.220;  -10.428;  711.099
471.559;   74.802;  -10.268;  733.291
472.148;   78.282;   -8.448;  675.737
472.738;   81.258;   -6.917;  765.466
473.327;   80.222;  -11.978;  637.529
473.916;   79.968;  -11.888;  737.446
474.505;   84.257;   -9.437;  751.703
475.094;   87.365;   -6.747;  806.570
475.683;   86.404;   -9.367;  797.699
476.272;   87.283;  -12.637;  730.632
476.861;   90.374;  -10.027;  706.754
477.449;   96.301;   -8.716;  728.487
478.038;   91.892;   -9.577;  692.513
478.627;   91.835;   -9.718;  714.852
479.216;   98.245;   -8.947;  769.441
479.805;  102.029;   -6.256;  783.375
480.393;  101.997;   -7.937; 1008.945
480.982;  100.079;   -7.717;  874.501
481.571;  107.379;   -9.266;  858.333
482.159;  107.981;   -7.636;  705.386
482.748;  108.468;   -9.667;  821.385
483.336;  111.504;  -10.376;  858.209
483.925;  113.322;   -7.147;  774.373
484.513;  120.176;   -7.996;  758.962
485.102;  117.122;  -10.027;  810.965
485.690;  125.176;  -10.446; 1011.050
486.278;  126.727;   -8.446;  979.329
486.867;  128.381;   -6.356;  809.662
487.455;  129.987;   -9.136;  898.229
488.043;  131.368;  -10.646;  748.361
488.631;  141.127;   -7.456; 1005.079
489.220;  144.287;   -6.636;  908.626
489.808;  144.449;  -11.036;  741.415
490.396;  152.896;  -10.246;  914.645
490.984;  159.720;   -8.556;  830.161
491.572;  171.303;   -5.886;  940.315
492.160;  178.664;   -9.486;  919.081
492.748;  191.237;  -10.976;  884.341
493.336;  214.604;   -8.776; 1019.693
493.924;  242.345;   -5.465;  958.077
494.512;  275.386;   -9.986; 1066.638
495.100;  322.526;  -10.636; 1103.280
495.687;  385.039;  -10.885; 1206.373
496.275;  442.029;   -8.126; 1150.796
496.863;  507.316;  -10.586; 1281.171
497.451;  623.192;  -11.926; 1386.805
498.038;  734.211;  -10.885; 1556.729
498.626;  831.105;   -6.315; 1741.407
499.214;  986.603;   -7.326; 2016.609
499.801; 1205.258;  -11.906; 2220.633
500.389; 1447.065;  -10.466; 2312.494
500.976; 1693.195;   -5.236; 2744.849
501.564; 2123.188;   -8.936; 3148.565
502.151; 2581.194;  -13.176; 3515.999
502.738; 3093.634;  -10.646; 3971.274
503.326; 3453.256;   -9.525; 4403.796
503.913; 3737.190;  -10.856; 5161.749
504.500; 4238.158;  -11.586; 5986.420
505.088; 4560.826;  -10.336; 6381.201
505.675; 5031.768;   -6.355; 6925.547
506.262; 5491.404;   -9.046; 7619.060
506.849; 5987.878;  -10.416; 8733.969
507.436; 6500.260;  -10.305; 9790.121
508.023; 6989.232;   -5.496; 9985.472
508.610; 7795.384;   -7.856;10434.618
509.197; 9105.963;  -10.097;11198.435
509.784;10584.297;  -10.886;12391.194
510.371;11962.776;   -9.315;13603.713
510.958;12772.039;   -9.936;14426.586
511.545;13306.041;   -9.326;15243.775
512.132;13939.654;  -10.075;15945.876
512.719;14089.076;   -7.796;16340.369
513.305;14884.086;  -10.606;18011.766
513.892;16187.798;  -11.486;19754.971
514.479;17937.451;   -9.126;20967.805
515.066;19592.178;   -6.026;22299.793
515.652;19867.506;   -8.466;22908.660
516.239;20897.000;  -10.886;23798.875
516.825;23053.652;  -11.496;25567.275
517.412;25104.697;   -5.796;28154.959
517.998;27193.373;  -10.506;28344.111
518.585;26854.771;  -10.076;27134.219
519.171;25424.713;   -8.315;27268.576
519.758;26345.027;   -8.596;28964.129
520.344;27601.314;   -8.466;30664.494
520.930;30042.158;  -11.006;32550.605
521.516;30314.813;  -10.495;35422.895
522.103;28872.793;   -5.526;38280.004
522.689;29550.605;   -8.746;37835.117
523.275;31139.975;  -11.376;37288.613
523.861;32876.711;  -11.156;37281.395
524.447;36244.094;   -8.135;37846.949
525.033;37392.281;   -7.896;38321.949
525.619;37100.363;  -12.476;38579.285
526.205;37237.523;   -9.516;40622.875
526.791;36926.531;   -6.926;42258.836
527.377;38076.754;   -8.346;42966.902
527.963;39707.707;   -8.717;42018.949
528.549;38513.270;  -11.016;42476.828
529.135;38704.156;   -8.536;41854.852
529.721;38327.285;   -9.666;41237.711
530.306;36806.523;  -10.066;41259.445
530.892;36586.617;  -11.356;41506.047
531.478;36109.938;   -6.596;43559.613
532.063;36835.582;   -8.836;47695.563
532.649;40338.227;  -10.047;50808.324
533.235;41808.355;   -9.746;51787.500
533.820;41124.031;   -6.566;52145.035
534.406;39819.977;  -10.817;51133.488
534.991;42637.582;   -9.416;49996.805
535.576;43672.586;   -9.036;48882.852
536.162;43866.016;   -6.156;46942.285
536.747;45167.691;  -11.607;45711.746
537.333;45633.320;  -11.787;48510.180
537.918;45523.492;  -12.437;50439.891
538.503;46890.984;   -7.196;50863.711
539.088;44964.676;  -10.556;50906.922
539.673;43699.141;   -8.767;52621.965
540.259;44777.277;  -10.026;52368.094
540.844;46293.117;   -7.416;50879.109
541.429;45343.324;   -9.467;52077.777
542.014;44949.145;   -9.527;52716.695
542.599;47104.695;   -9.946;52363.281
543.184;49728.324;   -7.927;53187.137
543.769;48188.574;   -9.297;54697.605
544.354;45025.695;  -10.127;53913.914
544.938;43156.203;   -9.267;49680.164
545.523;45136.137;   -6.506;47386.277
546.108;48834.004;   -9.787;49151.949
546.693;48406.656;  -11.587;51384.637
547.278;48323.344;  -10.986;51853.254
547.862;45564.008;   -8.206;51173.750
548.447;42870.566;  -10.067;51691.395
549.031;43525.340;   -9.637;52456.703
549.616;44150.738;   -9.926;52714.516
550.201;42971.563;   -6.347;52414.598
550.785;42827.137;   -7.917;52355.059
551.370;44012.926;  -10.867;54589.453
551.954;44742.395;   -9.047;58267.348
552.538;45710.949;   -7.827;59062.176
553.123;45465.113;  -10.287;58115.285
553.707;41580.820;  -12.178;56556.285
554.291;42405.469;   -8.717;56201.668
554.876;45542.523;   -7.457;55335.762
555.460;46911.512;  -10.387;54155.703
556.044;47991.902;   -9.618;53721.484
556.628;47266.301;  -11.567;53731.016
557.212;45240.383;   -8.097;54312.531
557.796;46632.395;  -11.077;53797.773
558.380;44691.043;  -11.108;56145.984
558.964;43163.188;   -9.057;57277.930
559.548;42544.090;   -6.977;56459.641
560.132;41271.676;  -11.457;54434.543
560.716;40491.457;  -11.378;54800.617
561.300;41573.516;   -9.577;57606.945
561.884;43376.211;   -7.127;58972.445
562.467;44042.125;   -7.118;57327.570
563.051;43429.547;  -13.358;54962.434
563.635;41428.789;  -10.178;52594.473
564.219;41033.680;   -7.837;50610.410
564.802;40706.574;  -11.398;49551.180
565.386;41880.242;  -12.788;48370.953
565.969;42620.656;   -9.077;48178.871
566.553;42792.758;   -6.207;49957.305
567.136;39880.063;   -8.568;50369.594
567.720;39008.184;  -11.868;49492.004
568.303;39068.125;   -8.268;50616.352
568.887;37635.836;   -8.698;50727.148
569.470;37820.875;   -6.808;51698.379
570.053;36648.027;  -13.188;52122.078
570.637;35328.184;  -12.037;52536.438
571.220;34522.613;   -8.577;51186.098
571.803;34864.410;   -8.498;51032.762
572.386;37175.738;  -10.498;49609.887
572.969;38244.594;   -9.388;48285.926
573.552;34013.352;   -8.338;47624.285
574.135;31082.518;   -8.518;45498.641
574.718;28036.129;  -13.628;41970.434
575.301;28779.156;  -10.893;41447.137
575.884;29522.182;   -8.158;40923.836
576.467;34679.355;  -10.328;45267.723
577.050;33447.496;  -13.058;48175.543
577.633;32688.557;   -9.458;47729.328
578.216;34234.918;   -8.928;47579.793
578.799;35478.645;   -9.358;47820.996
579.381;35052.758;  -11.388;48115.551
579.964;31915.232;  -11.718;47333.766
580.547;31556.521;   -8.588;46668.969
581.129;33195.922;   -8.859;44466.141
581.712;33464.125;  -10.729;44164.922
582.294;34515.141;  -11.118;46477.855
582.877;32597.695;   -5.218;48244.254
583.459;32549.051;   -8.679;47437.895
584.042;34246.703;  -10.709;46943.219
584.624;36350.141;  -11.669;46792.227
585.206;35580.832;   -8.218;46557.250
585.789;34405.395;  -10.569;45793.773
586.371;34594.648;  -11.859;43836.391
586.953;33055.832;  -10.719;42972.492
587.536;34341.676;   -7.198;42487.211
588.118;35863.473;   -8.720;42086.414
588.700;35254.000;  -10.439;43389.930
589.282;35350.684;   -9.198;43646.039
589.864;34106.832;   -9.199;43438.109
590.446;31726.221;  -11.319;43151.926
591.028;30914.516;  -11.159;42781.867
591.610;30344.797;  -11.779;42839.098
592.192;27153.877;   -7.668;42820.402
592.774;26785.004;  -11.949;40724.277
593.356;26270.885;  -12.129;39874.789
593.937;24030.492;  -10.669;39980.648
594.519;26586.717;   -6.509;42069.633
595.101;30489.016;  -10.849;42976.031
595.683;30587.402;  -11.679;44084.441
596.264;30948.525;   -9.049;43478.797
596.846;32934.539;   -8.849;43803.672
597.427;32848.070;   -9.570;42986.934
598.009;33884.293;  -12.620;42832.219
598.591;33237.188;  -10.039;42580.086
599.172;32261.105;  -10.369;43061.805
599.753;30510.582;   -9.140;41691.469
600.335;30316.932;  -11.430;40692.520
600.916;30765.650;   -9.939;39982.422
601.498;29676.406;   -8.479;40318.617
602.079;28406.811;  -10.920;40670.609
602.660;30113.105;  -11.480;41450.898
603.241;31442.555;  -11.699;41137.738
603.823;31973.607;   -9.579;38868.797
604.404;31888.975;  -10.620;38182.785
604.985;30593.553;  -10.450;38078.047
605.566;29992.891;   -9.129;38056.633
606.147;29956.711;   -7.510;37020.418
606.728;31120.861;  -10.660;37883.359
607.309;32314.975;  -11.740;38748.273
607.890;32045.742;   -9.759;38850.230
608.471;30389.256;   -8.250;37457.918
609.051;30637.684;   -9.240;36066.457
609.632;28846.670;  -12.120;35991.074
610.213;27631.365;   -9.110;37402.641
610.794;29779.078;   -8.030;38383.363
611.374;32170.816;   -8.110;40562.387
611.955;31784.273;  -13.560;38533.727
612.536;29211.779;  -11.400;36951.789
613.116;28208.346;   -8.070;37197.891
613.697;30167.586;  -10.830;38411.125
614.277;31318.666;  -11.641;38673.938
614.858;30792.447;  -13.310;37075.863
615.438;29203.979;   -7.460;35092.906
616.019;27601.195;   -7.601;33666.301
616.599;28535.295;  -12.020;34189.023
617.179;29977.090;  -11.780;36952.047
617.760;32450.785;   -8.570;39582.574
618.340;32447.221;  -11.471;38943.977
618.920;31071.545;  -11.170;37594.156
619.500;32920.711;  -11.071;37866.938
620.080;33395.066;   -7.750;37869.043
620.660;31709.994;  -12.711;36868.617
621.241;30245.330;  -10.211;36352.309
621.821;29417.594;  -10.961;35459.520
622.401;28598.645;   -7.720;35207.414
622.980;29668.584;   -8.981;35980.422
623.560;30033.018;   -9.331;37351.328
624.140;28734.883;   -9.850;34388.582
624.720;26182.225;   -7.451;32368.764
625.300;24489.258;   -9.070;32638.629
625.880;27893.443;  -12.601;34599.035
626.459;29780.291;  -11.751;36831.738
627.039;30353.322;   -9.281;38299.098
627.619;32290.707;   -8.801;38289.574
628.198;31915.561;  -12.071;37220.695
628.778;30985.793;   -9.461;37632.563
629.357;31945.398;   -8.491;38003.012
629.937;32134.141;   -9.721;38402.039
630.516;32216.436;   -9.951;37868.801
631.096;32393.203;  -11.731;35760.410
631.675;33452.039;   -8.572;35225.219
632.254;33015.914;  -11.282;35130.289
632.834;32661.031;  -13.322;35794.570
633.413;32590.744;  -10.301;35788.922
633.992;31784.623;   -8.582;34532.863
634.571;33410.176;   -8.352;33590.113
635.151;33497.129;  -11.912;34943.863
635.730;32257.396;  -10.511;35352.523
636.309;34480.465;   -7.731;35366.605
636.888;32771.172;   -9.952;36165.637
637.467;30579.086;  -11.672;37515.902
638.046;30476.465;   -8.901;39288.695
638.625;31442.016;   -7.912;38279.699
639.204;31753.020;  -10.022;37741.598
639.782;29997.512;  -12.252;38364.551
640.361;28407.377;  -10.041;36740.621
640.940;27460.209;  -11.161;34950.082
641.519;28500.309;   -9.701;34137.398
642.097;30276.314;  -11.271;35654.258
642.676;31751.711;   -8.651;35637.957
643.255;32687.869;   -8.711;36567.074
643.833;30295.740;   -9.581;37809.434
644.412;28050.844;  -13.711;37337.293
644.990;29863.943;  -11.811;37018.531
645.569;32550.799;   -9.411;36518.469
646.147;32146.398;  -10.291;36186.430
646.726;30919.760;  -12.401;36267.688
647.304;30845.428;  -10.411;36647.625
647.882;29964.313;   -9.651;39286.742
648.461;31166.613;   -9.631;39157.703
649.039;34810.371;  -11.881;35412.883
649.617;35396.691;   -9.661;34744.918
650.195;33142.730;   -9.301;35403.098
650.773;32245.197;  -10.511;35053.797
651.352;31556.914;  -11.521;33756.816
651.930;28798.541;  -12.211;31868.773
652.508;25363.119;   -9.171;33121.551
653.086;26332.191;   -9.371;33564.793
653.663;31855.295;  -13.161;34054.668
654.241;35646.898;  -13.031;35693.309
654.819;36695.129;   -9.371;36422.906
655.397;36748.438;  -10.511;38213.484
655.975;33300.770;  -10.371;39507.625
656.553;30149.377;  -10.051;39498.223
657.130;28607.092;  -10.061;40395.480
657.708;26823.770;   -9.561;39242.020
658.286;24450.969;  -11.511;38920.020
658.863;26601.270;  -10.261;40202.898
659.441;30395.365;   -7.531;39677.938
660.018;32228.496;   -9.501;40413.355
660.596;31235.291;  -13.301;39931.414
661.173;30742.139;  -11.211;39604.531
661.750;32691.477;   -9.951;39700.070
662.328;31767.604;   -9.390;39292.809
662.905;30510.844;  -11.330;38235.648
663.482;28102.684;   -9.050;36212.305
664.060;25108.422;   -8.240;35944.945
664.637;25674.920;  -10.050;35170.785
665.214;29013.420;  -11.760;34197.523
665.791;29811.129;  -10.530;34549.520
666.368;28943.822;   -9.690;35118.578
666.945;30199.150;   -9.320;36019.418
667.522;30680.773;  -11.860;36048.438
668.099;31937.969;  -10.770;36243.914
668.676;31809.896;   -6.260;35958.875
669.253;34580.746;   -7.000;37384.730
669.830;35977.496;  -10.190;36779.629
670.407;32684.760;   -9.550;35231.289
670.984;32761.992;   -9.260;35544.270
671.560;30339.881;   -9.280;35466.867
672.137;26396.012;  -11.810;34280.863
672.714;27671.129;  -11.490;34632.863
673.290;31161.553;   -7.740;35135.422
673.867;31063.438;  -10.660;36114.480
674.443;31410.398;  -12.230;36152.859
675.020;31259.127;  -10.450;35327.238
675.596;29726.494;   -9.260;35795.176
676.173;28559.604;  -10.780;35430.355
676.749;28031.557;  -13.690;33549.516
677.326;28136.742;  -11.980;32210.012
677.902;27428.898;   -8.630;32068.871
678.478;28993.695;  -10.730;32583.891
679.054;29892.789;  -10.520;32088.928
679.631;29404.588;  -11.920;30978.848
680.207;29578.152;   -7.490;33160.887
680.783;31375.797;   -9.860;35570.363
681.359;32733.242;  -13.380;36125.184
681.935;33272.047;  -12.480;35240.922
682.511;32699.746;   -7.900;34429.961
683.087;31672.039;   -7.710;34463.680
683.663;31198.227;  -11.480;34648.898
684.239;29901.600;  -14.090;34546.457
684.815;28865.654;   -7.560;35586.375
685.390;29082.941;   -9.910;35821.895
685.966;30194.195;  -11.159;35085.871
686.542;31626.674;  -11.169;34198.230
687.118;33155.434;   -5.959;32847.707
687.693;32301.492;  -10.329;32794.027
688.269;33196.250;  -12.059;33072.367
688.844;33258.414;  -10.909;33141.664
689.420;30547.426;   -8.019;33965.742
689.995;29245.605;   -8.399;34655.523
690.571;30683.832;  -10.949;33576.742
691.146;30194.109;   -9.619;32657.219
691.722;28625.889;   -8.999;32526.979
692.297;27948.613;  -11.589;33014.617
692.872;28202.686;  -11.739;34012.254
693.448;31042.549;  -11.059;34237.434
694.023;31749.451;  -10.139;34142.672
694.598;29644.773;   -9.029;34132.031
695.173;30561.148;  -13.319;34205.250
695.748;31142.004;  -10.169;32882.488
696.323;28841.150;   -8.339;32864.906
696.898;27189.412;   -8.169;33170.004
697.473;27679.201;  -12.309;32432.984
698.048;27988.947;  -10.989;31649.303
698.623;26715.580;   -9.329;30778.141
699.198;27527.402;   -9.849;31140.119
699.773;28503.563;  -12.329;31764.299
700.348;29956.662;  -10.389;31780.816
700.922;30426.641;   -9.269;32046.375
701.497;31411.902;   -9.329;32603.574
702.072;32266.586;  -10.789;34799.871
702.646;31139.135;  -10.839;35793.172
703.221;30204.432;   -9.099;35201.590
703.795;31940.738;  -10.939;34764.527
704.370;29589.512;  -12.859;34307.367
704.944;28065.502;  -11.559;33509.887
705.519;29269.730;   -7.939;31388.584
706.093;31712.908;  -10.499;31340.104
706.668;34136.535;  -11.289;32630.281
707.242;33633.930;  -11.509;32728.779
707.816;31600.730;   -9.639;32947.238
708.390;30179.018;  -11.429;33277.855
708.965;29290.545;  -11.869;33834.336
709.539;30608.793;  -11.689;33709.273
710.113;30824.934;  -10.478;33044.313
710.687;30222.014;  -10.228;31953.992
711.261;29540.180;  -13.698;30505.949
711.835;30021.016;  -13.378;30262.369
712.409;29196.246;   -9.698;31254.447
712.983;28549.943;  -11.898;32754.986
713.557;30826.885;  -15.138;34018.824
714.131;28908.855;  -14.098;34579.625
714.704;28473.613;   -9.958;33890.262
715.278;30572.551;  -10.028;33531.102
715.852;29128.809;  -11.148;33601.660
716.425;27918.691;   -9.068;33515.117
716.999;26581.785;  -10.038;33185.555
717.573;26410.830;   -9.798;33905.996
718.146;25854.402;  -12.378;35199.293
718.720;26353.848;  -11.918;35060.551
719.293;26963.613;   -8.088;34973.230
719.867;29343.275;  -10.888;36394.449
720.440;30891.191;  -11.938;36663.008
721.013;31419.227;  -12.818;35102.426
721.587;29149.346;  -10.298;33985.266
722.160;27321.082;  -10.048;33524.965
722.733;26737.166;  -12.108;32987.043
723.306;27013.432;  -10.818;33066.301
723.880;28631.066;   -8.908;33399.500
724.453;28218.045;   -9.878;33468.297
725.026;28463.889;  -11.188;33816.637
725.599;31559.012;  -11.678;32797.996
726.172;31338.111;   -9.618;33187.434
726.745;28713.902;   -8.258;35136.613
727.318;28236.213;  -12.978;35751.730
727.891;27366.438;  -12.148;35890.430
728.463;26162.008;   -8.968;34822.090
729.036;25936.041;  -10.188;32895.086
729.609;25962.789;  -11.788;31823.225
730.182;24089.205;  -11.788;31445.283
730.754;22789.564;  -10.268;32373.223
731.327;22862.684;   -9.998;33676.820
731.900;24049.258;  -12.228;33417.000
732.472;24003.887;  -13.848;31978.498
733.045;23154.574;   -8.698;30368.777
733.617;22873.176;  -10.607;30574.215
734.190;24859.012;  -11.507;31280.975
734.762;25869.506;  -13.647;31674.412
735.334;27243.850;   -9.767;31247.291
735.907;27613.521;   -9.897;29876.211
736.479;27362.504;  -11.637;29808.488
737.051;28388.992;   -9.567;30233.547
737.623;27712.900;   -8.187;31469.086
738.195;26231.174;  -11.187;31784.225
738.768;24997.137;  -12.337;32120.523
739.340;23454.992;  -12.227;32094.342
739.912;22544.844;  -11.057;31312.680
740.484;22456.322;  -10.207;31946.238
741.056;22132.432;  -10.047;32984.059
741.628;23132.816;  -13.627;33897.715
742.199;24100.141;   -7.177;33213.016
742.771;26402.170;  -10.797;31369.113
743.343;27323.961;  -11.997;31865.473
743.915;27189.469;  -12.867;32388.631
744.487;24555.721;   -7.617;31079.568
745.058;21526.045;   -9.557;30570.107
745.630;22592.570;   -9.877;29970.127
746.201;24298.615;  -14.177;29186.766
746.773;24779.006;   -9.237;28805.723
747.344;22774.260;   -9.847;29591.223
747.916;21083.980;  -11.657;31412.201
748.487;22152.691;  -10.587;32194.898
749.059;24011.391;   -8.707;32533.719
749.630;24238.346;  -10.537;32158.518
750.201;23597.947;  -11.687;30855.395
750.773;22347.215;  -11.647;28622.555
751.344;22090.563;   -7.147;28405.732
751.915;24245.873;   -9.757;28461.551
752.486;25472.916;  -12.427;27842.850
753.057;24291.422;  -12.227;27845.008
753.628;24303.936;  -10.417;27728.107
754.199;23986.982;  -11.767;27381.086
754.770;23496.461;  -11.187;25882.203
755.341;22268.047;  -10.507;25886.184
755.912;20702.199;   -9.387;26050.861
756.483;19311.078;  -10.647;26798.779
757.054;19867.867;  -11.837;27048.238
757.625;19913.783;  -12.716;26294.838
758.195;19699.785;   -9.666;26142.076
758.766;20001.430;   -8.656;26392.234
759.337;19573.301;  -12.856;26334.594
759.907;19347.799;  -13.366;27579.652
760.478;18966.402;   -8.576;28352.770
761.048;19984.686;  -10.526;27325.088
761.619;20095.111;  -11.116;26460.428
762.189;18705.088;  -12.136;26029.826
762.760;18223.545;   -9.456;26430.145
763.330;18465.965;   -7.136;26670.902
763.900;18538.686;  -11.786;26603.021
764.471;18173.625;  -11.546;25542.740
765.041;17402.557;   -8.096;24358.459
765.611;16736.080;   -8.876;23991.297
766.181;16631.195;  -12.196;24470.236
766.751;16352.999;  -11.636;24845.975
767.321;17384.480;  -10.156;24533.633
767.891;16914.932;  -11.766;24916.492
768.461;17135.145;  -14.936;24776.771
769.031;18189.979;  -12.356;24757.988
769.601;18986.986;   -7.526;24181.088
770.171;18859.867;  -10.766;23670.387
770.741;17918.051;  -13.176;22960.045
771.311;17260.342;  -10.616;22917.523
771.880;17528.342;   -9.576;23562.941
772.450;17215.293;  -10.336;24216.500
773.020;16845.867;  -13.516;24140.398
773.589;17485.061;  -13.466;24414.857
774.159;17332.031;   -8.686;23858.717
774.729;15919.799;   -9.476;22942.135
775.298;14181.954;  -13.666;22324.033
775.867;13902.156;  -11.716;21140.313
776.437;14041.368;   -9.906;20838.092
777.006;13337.721;  -12.166;20599.510
777.576;12768.791;  -12.356;20508.809
778.145;12669.656;  -11.646;20732.947
778.714;13104.485;   -8.226;21062.465
779.283;14091.567;   -9.556;20949.664
779.853;14807.854;  -14.116;20508.623
780.422;14285.296;  -11.506;20649.082
780.991;13830.481;   -9.556;21527.520
781.560;13539.384;   -9.095;22632.658
782.129;13425.093;  -12.135;23048.277
782.698;13338.909;  -10.865;23438.555
783.267;13005.522;   -9.335;23267.734
783.836;13049.199;  -11.045;22415.133
784.404;13688.639;  -13.865;20443.152
784.973;12918.577;  -13.095;19699.150
785.542;11534.459;  -11.575;19763.828
786.111;10899.642;   -9.705;20341.408
786.679;11633.487;  -12.105;20207.967
787.248;11957.564;  -12.455;19516.465
787.817;11640.517;  -11.535;18900.363
788.385;11720.694;   -9.765;17879.121
788.954;11680.079;  -14.005;17658.301
789.522;11178.087;  -11.955;17788.879
790.090;11461.379;  -10.135;18118.277
790.659;12444.224;  -10.975;18338.736
791.227;12419.648;  -13.375;18508.615
791.795;11882.373;  -12.375;17898.254
792.364;11287.061;  -10.725;17295.133
792.932;11375.120;   -9.715;16822.051
793.500;11471.782;  -12.675;17040.148
794.068;11182.288;  -13.495;17179.787
794.636;10054.700;  -10.885;16664.246
795.204; 9070.120;  -11.045;16524.545
795.772; 9788.057;  -13.175;17274.564
796.340;10969.332;  -12.445;17891.002
796.908;10731.107;   -9.735;17648.561
797.476;11069.330;   -9.815;17064.080
798.044;11970.232;  -13.985;16672.777
798.612;11877.267;  -13.115;17023.996
799.180;10585.461;  -10.185;16561.615
799.747; 9501.551;   -9.055;15962.773
800.315; 8830.679;  -12.385;15296.992
800.883; 9111.669;  -15.035;14801.771
801.450; 9425.957;  -10.365;14534.430
802.018; 9556.406;   -9.855;14173.248
802.585; 9743.915;  -11.905;14029.547
803.153; 9296.515;  -11.585;13836.846
803.720; 8609.267;   -9.095;13567.324
804.287; 8617.939;   -9.135;13360.622
804.855; 8915.366;  -11.604;13681.981
805.422; 9001.939;  -11.794;13536.560
805.989; 8851.069;  -10.734;13355.958
806.556; 8397.659;  -10.444;13747.896
807.124; 8268.081;  -12.764;13987.376
807.691; 8889.608;  -12.964;14038.674
808.258; 9366.707;  -11.134;14120.152
808.825; 9566.131;   -9.854;13860.111
809.392; 9206.860;  -10.504;13268.790
809.959; 8735.929;  -13.054;12680.389
810.526; 8603.718;   -8.294;12427.308
811.093; 8346.545;   -8.394;12030.105
811.659; 7594.730;  -12.304;11653.664
812.226; 7311.271;  -13.944;11637.183
812.793; 7774.348;  -10.484;11611.521
813.360; 7904.531;  -10.144;11885.181
813.926; 7176.046;  -11.684;12770.539
814.493; 6568.000;  -13.644;12677.638
815.060; 6454.771;   -9.724;11974.336
815.626; 6774.236;   -9.854;11594.715
816.193; 6843.841;  -13.254;11579.474
816.759; 6849.638;  -13.204;11666.972
817.325; 6613.466;   -9.434;11325.530
817.892; 6279.738;  -10.134;11105.369
818.458; 6247.974;  -13.474;10843.928
819.024; 6270.895;  -11.854;10714.406
819.591; 6538.583;  -10.244;10469.165
820.157; 6590.931;  -10.704;10235.523
820.723; 6815.741;  -12.324;10847.563
821.289; 7262.319;   -9.444;11040.980
821.855; 7357.524;   -8.374;10357.100
822.421; 6955.583;  -10.234; 9978.918
822.987; 6680.164;  -13.294; 9754.177
823.553; 6519.693;  -10.884;10065.755
824.119; 6066.872;   -8.884;10036.294
824.685; 5876.420;   -6.784;10029.192
825.251; 5832.254;  -12.004;10199.230
825.816; 5948.496;  -11.474; 9820.189
826.382; 5733.749;   -9.174; 9297.248
826.948; 5466.627;   -9.214; 9381.347
827.513; 5225.633;  -10.774; 9450.726
828.079; 5163.540;  -11.924; 9472.444
828.645; 5263.271;  -10.543; 9292.643
829.210; 5489.414;  -10.533; 9065.341
829.776; 5518.216;  -10.753; 9132.620
830.341; 5411.910;  -10.173; 9092.878
830.906; 5484.783;  -10.743; 9078.557
831.472; 5352.117;  -11.113; 8534.535
832.037; 4844.130;  -10.603; 8677.874
832.602; 4775.649;  -13.323; 8628.692
833.167; 5173.284;  -10.823; 8879.031
833.733; 5173.757;  -10.113; 9189.790
834.298; 4920.105;  -13.583; 9052.608
834.863; 4798.447;  -12.703; 8895.087
835.428; 4668.952;  -10.523; 8824.266
835.993; 4604.115;   -6.963; 8845.385
836.558; 4695.048;  -10.763; 8888.563
837.123; 4823.911;   -9.903; 8966.582
837.688; 4665.390;   -9.913; 8617.860
838.253; 4493.719;  -10.283; 8590.699
838.817; 4619.547;  -12.963; 8443.797
839.382; 4816.528;  -14.243; 8799.356
839.947; 4713.140;  -10.733; 8810.595
840.511; 4777.845;   -9.383; 8796.394
841.076; 4793.279;  -12.563; 8347.231
841.641; 4581.111;  -12.953; 8224.330
842.205; 4297.700;   -7.043; 8223.349
842.770; 4260.166;   -8.163; 8622.107
843.334; 4306.654;  -12.503; 8410.386
843.898; 4260.347;  -11.693; 8337.465
844.463; 4137.889;  -10.203; 8506.283
845.027; 4055.486;   -9.533; 8280.962
845.591; 4126.907;  -13.443; 8231.141
846.156; 4051.358;  -13.143; 7969.179
846.720; 3843.046;   -9.433; 7768.278
847.284; 3528.836;  -11.033; 7630.957
847.848; 3364.763;  -10.403; 7472.395
848.412; 3385.786;  -11.553; 7437.394
848.976; 3569.000;   -8.393; 7674.592
849.540; 3614.786;   -8.713; 7836.011
850.104; 3586.253;  -12.463; 7913.669
850.668; 3721.200;  -12.973; 7694.508
851.232; 3748.118;  -10.793; 7756.887
851.796; 3646.254;  -10.662; 7926.545
852.359; 3664.556;  -13.082; 7827.844
852.923; 3417.916;  -12.192; 7641.163
853.487; 3344.668;  -11.912; 7342.501
854.050; 3523.574;  -10.892; 7042.820
854.614; 3526.177;  -13.992; 7151.338
855.177; 3416.990;  -11.732; 7105.077
855.741; 3340.071;   -8.962; 6989.675
856.304; 3229.463;   -9.442; 6596.634
856.868; 2972.248;  -14.192; 6356.272
857.431; 2741.012;  -12.702; 6468.571
857.995; 2781.289;   -9.942; 6373.210
858.558; 2816.716;   -9.112; 6324.448
859.121; 2634.276;  -12.932; 6408.327
859.684; 2584.220;  -13.442; 6347.886
860.247; 3022.697;  -10.632; 6321.264
860.810; 3362.682;  -11.272; 6301.903
861.374; 3372.385;   -9.832; 6607.881
861.937; 3339.805;  -11.762; 6408.200
862.500; 3203.717;   -9.722; 6572.639
863.062; 2893.135;  -10.512; 6387.297
863.625; 2770.080;  -11.232; 6190.836
864.188; 2766.860;  -14.112; 5807.254
864.751; 2762.777;  -11.302; 5682.413
865.314; 2874.192;  -10.112; 5547.492
865.876; 2909.931;  -12.182; 5500.150
866.439; 2818.826;  -10.722; 5415.909
867.002; 2652.829;   -9.252; 5501.567
867.564; 2542.093;   -9.572; 5413.946
868.127; 2405.721;  -13.142; 5160.325
868.689; 2124.532;  -12.902; 5133.183
869.252; 1992.673;   -9.732; 5252.382
869.814; 1998.499;   -9.432; 5297.141
870.377; 2091.637;  -11.552; 5390.919
870.939; 2078.949;   -9.052; 5599.898
871.501; 2015.118;  -10.982; 5248.336
872.063; 2052.769;  -12.292; 4854.235
872.626; 2063.944;  -14.912; 4817.074
873.188; 2068.404;  -13.112; 4987.732
873.750; 2015.454;  -13.442; 4868.651
874.312; 2076.927;   -9.402; 4779.330
874.874; 2220.495;  -11.062; 4866.348
875.436; 2106.437;  -13.931; 4718.887
875.998; 1808.049;   -9.561; 4660.005
876.560; 1631.682;  -11.321; 4462.964
877.122; 1618.105;  -12.221; 4145.042
877.683; 1610.048;  -12.191; 4056.481
878.245; 1705.771;  -12.101; 3950.740
878.807; 1858.622;   -8.971; 4058.958
879.369; 1900.227;  -12.071; 3954.677
879.930; 1828.653;  -14.621; 3941.495
880.492; 1653.466;  -10.311; 4067.014
881.053; 1487.411;  -10.901; 3859.633
881.615; 1463.239;  -14.411; 3776.071
882.176; 1491.008;  -13.761; 3734.750
882.738; 1510.124;   -9.181; 3678.489
883.299; 1474.899;  -11.791; 3405.407
883.860; 1396.343;  -13.121; 3351.106
884.422; 1284.761;  -11.211; 3394.044
884.983; 1208.016;  -10.091; 3166.443
885.544; 1185.562;   -8.461; 3189.802
886.105; 1131.160;  -12.361; 3160.360
886.666; 1054.271;  -14.141; 3093.059
887.227; 1020.991;  -11.361; 2941.957
887.788; 1035.192;  -11.401; 2974.836
888.349;  988.256;  -13.791; 2721.214
888.910;  889.536;  -13.191; 2696.493
889.471;  786.447;   -9.881; 2560.172
890.032;  713.227;   -9.881; 2558.190
890.593;  709.796;  -10.371; 2567.669
891.153;  710.976;  -13.301; 2460.307
891.714;  647.645;  -11.431; 2372.046
892.275;  597.309;  -11.291; 2309.505
892.835;  581.430;  -11.471; 2382.543
893.396;  570.242;  -11.541; 2295.502
893.956;  568.223;  -11.181; 2162.420
894.517;  555.494;  -11.741; 2125.439
895.077;  508.623;  -11.671; 2086.978
895.638;  457.613;  -11.311; 2126.316
896.198;  436.957;   -9.831; 1838.275
896.758;  435.949;   -8.421; 1892.813
897.319;  428.646;  -12.351; 1792.232
897.879;  408.327;  -13.511; 1762.751
898.439;  383.120;  -12.001; 1661.149
898.999;  363.184;  -10.180; 1781.468
899.559;  349.717;  -12.030; 1703.347
900.119;  341.347;  -15.710; 1537.525
900.679;  319.960;   -8.900; 1638.384
901.239;  292.569;   -8.340; 1527.902
901.799;  277.670;  -13.910; 1456.441
902.359;  268.027;  -13.460; 1357.140
902.919;  262.754;  -11.490; 1331.118
903.479;  259.022;  -12.110; 1317.257
904.038;  251.214;  -11.720; 1262.595
904.598;  234.840;  -13.610; 1152.034
905.158;  223.681;  -11.040; 1240.893
905.717;  218.461;  -10.900; 1233.691
906.277;  213.111;  -15.080; 1217.330
906.836;  209.221;  -13.380; 1222.408
907.396;  207.855;  -10.780; 1193.047
907.955;  199.967;   -8.500; 1182.526
908.515;  192.755;  -12.760; 1099.364
909.074;  187.964;  -11.900; 1092.863
909.633;  184.898;   -8.950; 1069.121
910.192;  183.712;   -8.770; 1196.460
910.752;  177.389;  -12.390; 1029.960
911.311;  174.782;  -13.680; 1009.780
911.870;  169.906;  -12.370;  971.460
912.429;  166.377;  -10.900; 1094.080
912.988;  163.933;  -11.690; 1081.060
913.547;  159.542;  -13.240;  940.380
914.106;  158.809;  -11.990;  999.420
914.665;  160.109;   -9.990;  984.020
915.224;  157.350;  -12.880; 1035.760
915.782;  155.836;  -12.350;  922.560
916.341;  156.235;   -9.110; 1049.840
916.900;  154.896;   -9.270;  925.260
917.458;  151.557;  -13.240;  884.220
918.017;  149.053;  -13.550;  942.600
918.576;  149.707;  -12.320;  904.440
919.134;  149.177;  -11.490;  837.980
919.693;  147.558;  -13.670;  893.060
920.251;  145.418;  -15.470;  876.500
920.809;  145.468;  -11.290;  839.580
921.368;  145.202;  -10.210;  885.360
921.926;  144.587;  -12.140;  842.940
922.484;  143.431;  -13.080;  903.360
923.042;  143.824;  -11.720;  880.340
923.601;  145.599;   -7.480;  998.680
924.159;  143.542;  -11.570;  935.560
924.717;  142.384;  -13.840;  841.080
925.275;  144.887;  -10.640;  903.240
925.833;  144.042;  -11.540;  779.320
926.391;  142.796;  -12.960;  938.380
926.949;  143.254;  -14.130;  857.680
927.506;  144.912;  -11.750;  903.500
928.064;  142.699;  -10.250;  877.580
928.622;  141.148;  -13.030;  880.100
929.180;  143.108;  -13.400;  814.180
929.737;  144.223;  -10.700;  808.540
930.295;  146.462;  -10.070;  928.480
930.853;  146.315;  -11.960;  849.100
931.410;  144.240;  -13.120;  821.120
931.968;  146.387;  -10.770;  940.660
932.525;  148.071;  -10.680;  909.380
933.082;  150.109;  -13.130;  811.440
933.640;  155.864;  -13.210;  925.900
934.197;  156.651;  -11.060;  886.360
934.754;  157.499;   -9.580;  897.780
935.312;  157.772;  -14.000;  863.340
935.869;  161.818;  -10.710; 1012.980
936.426;  160.181;   -9.860;  872.800
936.983;  158.624;   -9.710;  889.020
937.540;  156.620;  -13.990;  838.280
938.097;  156.806;  -14.040;  940.120
938.654;  159.366;  -10.310;  898.860
939.211;  160.727;  -10.560;  952.480
939.768;  159.328;  -13.900;  915.420
940.324;  159.649;  -14.760;  904.200
940.881;  165.652;  -10.370;  878.500
941.438;  171.938;   -8.260; 1021.200
941.995;  173.412;  -12.540;  992.560
942.551;  171.086;  -14.670;  875.620
943.108;  171.073;  -10.450;  937.920
943.664;  172.411;  -10.750;  869.340
944.221;  176.811;  -11.550; 1088.140
944.777;  179.474;  -14.770;  869.680
945.334;  179.131;  -12.820;  884.840
945.890;  177.695;  -10.130;  946.480
946.446;  174.658;  -13.470;  947.020
947.003;  174.294;  -12.120;  964.940
947.559;  175.210;   -9.980; 1063.040
948.115;  172.267;   -9.080; 1026.540
948.671;  168.380;  -10.830;  967.300
949.227;  166.490;  -12.440;  859.560
949.783;  166.810;  -12.910;  858.900
950.339;  169.335;  -10.270;  991.000
950.895;  170.488;  -13.630; 1023.840
951.451;  168.853;  -15.100;  925.280
952.007;  169.912;  -11.330;  998.540
952.563;  166.573;  -10.580;  937.780
953.118;  162.921;  -13.440;  904.940
953.674;  159.306;  -12.710;  935.780
954.230;  162.261;  -10.350;  949.640
954.785;  166.630;   -9.190;  936.640
955.341;  167.833;  -11.200;  998.160
955.897;  164.715;  -16.560;  834.660
956.452;  162.577;  -12.570;  953.840
957.008;  161.195;   -7.970; 1083.640
957.563;  159.324;  -11.940; 1009.540
958.118;  156.384;  -13.450;  877.700
958.674;  157.526;  -12.030;  946.780
959.229;  157.625;   -9.410; 1013.980
959.784;  154.743;  -12.000;  832.400
960.339;  152.039;  -14.780; 1001.280
960.894;  147.810;   -9.860;  963.760
961.449;  141.738;   -9.970;  859.960
962.004;  141.407;  -10.900; 1212.840
962.559;  136.243;  -13.150;  860.140
963.114;  135.666;  -13.740;  742.480
963.669;  136.027;   -9.820;  915.500
964.224;  131.561;  -13.890;  874.340
964.779;  123.461;  -12.600;  828.420
965.334;  116.428;  -10.950; 1017.860
965.888;  106.150;  -11.170;  875.360
966.443;   99.724;  -12.540;  972.380
966.998;   95.337;  -15.780;  819.460
967.552;   97.933;   -9.760;  908.380
968.107;   99.014;   -9.060;  868.300
968.661;  101.083;  -11.950;  922.440
969.216;  103.114;  -12.800;  856.280
969.770;  105.953;  -11.210;  917.200
970.324;  105.723;  -11.610;  923.140
970.879;  104.095;  -11.370;  947.180
971.433;  104.151;  -12.540;  952.720
971.987;  103.429;  -11.320;  895.340
972.541;  102.831;  -10.720;  917.100
973.095;  104.109;   -9.680; 1009.460
973.649;  103.799;  -11.440;  809.480
974.203;  104.638;  -11.210;  829.040
974.757;  105.001;  -10.240;  855.220
975.311;  105.644;  -13.720;  872.600
975.865;  106.172;  -13.770;  881.820
976.419;  105.878;  -11.690;  857.400
976.973;  105.419;   -9.510;  849.620
977.526;  104.985;  -12.620;  949.920
978.080;  101.663;  -12.010;  796.780
978.634;  102.147;  -10.170;  921.320
979.187;   98.381;   -9.020;  905.400
979.741;   97.143;   -9.820; 1018.380
980.294;   92.826;  -14.870;  789.160
980.848;   89.674;  -12.380;  717.220
981.401;   89.161;  -10.350;  816.540
981.955;   89.969;  -13.720;  844.300
982.508;   86.026;  -11.490;  746.340
983.061;   86.191;  -10.000;  915.260
983.615;   85.836;  -11.480;  798.800
984.168;   85.250;  -13.220;  770.080
984.721;   84.322;  -13.960;  880.760
985.274;   83.442;  -10.870;  867.500
985.827;   81.928;   -9.790;  834.220
986.380;   80.667;  -13.120;  721.340
986.933;   80.842;  -12.450;  864.800
987.486;   81.013;  -10.210;  861.920
988.039;   80.392;   -8.430;  863.100
988.591;   77.113;  -10.520;  893.260
989.144;   73.795;  -14.860;  737.260
989.697;   72.447;  -13.080;  758.740
990.250;   71.475;  -10.150;  858.100
990.802;   69.618;  -13.430;  755.860
991.355;   68.366;  -12.750;  974.880
991.907;   66.090;  -12.040;  864.320
992.460;   63.813;  -11.330;  753.760
993.012;   63.285;  -13.610;  749.540
993.565;   61.354;  -13.460;  711.360
994.117;   63.461;   -9.360;  950.780
994.669;   61.906;  -11.300;  701.320
995.221;   60.794;  -13.540;  791.920
995.774;   59.535;  -13.430;  787.580
996.326;   58.844;  -12.520;  740.220
996.878;   59.331;  -10.950;  838.420
997.430;   56.682;  -14.300;  699.860
997.982;   54.968;  -13.760;  750.140
998.534;   55.231;  -11.530;  739.060
999.086;   54.704;  -10.310;  738.220
999.638;   53.395;  -12.530;  661.380
1000.190;   51.267;  -11.840;  699.320
1000.741;   51.643;  -10.260;  742.700
1001.293;   50.696;   -8.860;  686.020
1001.845;   49.999;  -13.700;  676.640
1002.396;   50.238;  -12.100;  743.400
1002.948;   50.167;  -12.760;  737.400
1003.500;   48.779;  -10.380;  723.780
1004.051;   49.093;  -11.900;  907.580
1004.603;   47.739;  -12.250;  791.820
1005.154;   44.709;  -13.210;  608.980
1005.705;   43.794;  -10.950;  723.960
1006.257;   43.018;  -13.880;  707.220
1006.808;   42.137;  -12.840;  685.460
1007.359;   41.928;  -10.570;  763.240
1007.910;   40.690;   -9.620;  646.640
1008.461;   40.308;  -13.630;  732.940
1009.013;   38.037;  -17.200;  588.340
1009.564;   41.211;  -10.200;  793.520
1010.115;   38.968;  -12.570;  597.040
1010.665;   38.388;  -15.150;  602.160
1011.216;   38.156;  -14.480;  667.920
1011.767;   38.351;  -11.340;  697.920
1012.318;   38.760;   -9.780;  736.980
1012.869;   36.979;  -12.380;  679.000
1013.419;   35.979;  -15.560;  603.120
1013.970;   36.924;  -11.010;  666.640
1014.521;   35.697;  -11.610;  620.620
1015.071;   35.549;  -13.450;  670.380
1015.622;   34.878;  -13.870;  635.460
1016.172;   34.949;  -11.610;  596.820
1016.723;   35.194;  -12.120;  614.380
1017.273;   34.926;  -13.620;  604.160
1017.823;   34.283;  -14.140;  650.340
1018.374;   34.135;  -12.800;  611.760
1018.924;   34.210;  -12.340;  716.880
1019.474;   34.630;  -11.410;  718.880
1020.024;   31.440;  -14.770;  657.580
1020.574;   33.907;   -9.780;  726.160
1021.124;   33.561;   -8.560;  673.580
1021.674;   31.893;  -15.190;  559.120
1022.224;   33.202;  -13.530;  708.940
1022.774;   32.741;  -13.280;  668.820
1023.324;   33.449;  -10.690;  753.520
1023.874;   34.461;  -10.240;  875.760
1024.423;   31.130;  -12.540;  613.700
1024.973;   31.385;  -10.010;  610.760
1025.523;   31.152;  -10.550;  620.960
1026.072;   30.610;  -13.560;  606.420
1026.622;   29.848;  -15.120;  675.740
1027.172;   31.686;  -11.260;  715.660
1027.721;   30.170;  -11.410;  601.220
1028.270;   30.760;  -13.530;  663.400
1028.820;   29.885;  -13.680;  638.080
1029.369;   29.898;  -13.520;  612.700
1029.918;   30.080;  -10.980;  649.840
1030.468;   28.941;  -13.530;  564.780
1031.017;   28.910;  -13.170;  634.800
1031.566;   28.321;  -12.200;  608.900
1032.115;   29.701;   -9.960;  694.500
1032.664;   27.813;  -13.210;  596.480
1033.213;   28.607;  -12.500;  735.420
1033.762;   28.389;  -11.910;  635.620
1034.311;   28.601;   -9.640;  677.220
1034.860;   27.884;  -13.310;  691.000
1035.408;   27.464;  -11.830;  722.720
1035.957;   28.421;  -12.000;  719.540
1036.506;   25.747;  -11.690;  530.800
1037.055;   29.040;  -10.990;  844.320
1037.603;   26.367;  -15.120;  664.000
1038.152;   25.340;  -12.450;  534.760
1038.700;   26.875;  -10.560;  585.740
1039.249;   26.016;  -11.080;  681.220
1039.797;   26.362;  -12.540;  633.360
1040.345;   25.988;  -11.920;  705.420
1040.894;   26.061;  -11.410;  625.300
1041.442;   25.664;  -14.320;  632.200
1041.990;   23.882;  -16.240;  559.160
1042.538;   24.348;  -11.680;  536.180
1043.087;   24.866;  -10.760;  570.860
1043.635;   25.651;  -11.850;  670.500
1044.183;   24.044;  -15.480;  586.400
1044.731;   23.707;  -11.770;  576.000
1045.279;   24.032;  -13.090;  674.920
1045.827;   26.246;  -12.440;  892.400
1046.374;   22.386;  -13.840;  515.420
1046.922;   22.767;  -13.220;  590.580
1047.470;   24.695;  -10.230;  691.300
1048.018;   23.858;  -14.590;  647.960
1048.565;   24.601;  -12.050;  708.600
1049.113;   22.948;  -11.650;  557.000
1049.660;   23.122;  -10.510;  629.660
1050.208;   23.385;  -13.310;  675.640
1050.755;   22.071;  -15.900;  606.580
1051.303;   23.541;  -11.430;  686.820
1051.850;   22.396;   -8.480;  635.120
1052.397;   20.497;  -15.010;  473.960
1052.945;   21.385;  -13.960;  617.760
1053.492;   23.122;  -13.150;  741.840
1054.039;   23.046;   -9.630;  720.180
1054.586;   21.979;  -13.680;  557.240
1055.133;   21.740;  -14.570;  693.140
1055.680;   21.891;  -13.820;  646.620
1056.227;   20.596;  -11.730;  542.780
1056.774;   22.527;  -12.480;  794.980
1057.321;   19.653;  -13.930;  523.260
1057.868;   20.710;  -11.690;  651.320
1058.415;   21.181;   -9.520;  651.980
1058.961;   20.877;  -13.160;  678.940
1059.508;   19.517;  -12.920;  643.820
1060.055;   20.204;  -11.920;  581.780
1060.601;   21.538;  -11.500;  624.300
1061.148;   19.921;  -14.330;  616.820
1061.694;   18.936;  -16.870;  592.580
1062.241;   19.878;  -10.330;  596.320
1062.787;   20.793;  -10.620;  663.140
1063.334;   21.407;  -10.110;  808.560
1063.880;   19.121;  -13.400;  668.360
1064.426;   19.834;  -10.680;  706.820
1064.972;   18.754;   -9.920;  601.340
1065.518;   17.440;  -10.980;  566.640
1066.065;   18.137;  -14.890;  624.460
1066.611;   18.026;  -12.870;  598.800
1067.157;   19.246;  -12.950;  641.860
1067.703;   18.793;  -13.540;  668.480
1068.249;   17.847;  -13.540;  605.220
1068.794;   18.649;  -12.600;  626.880
1069.340;   17.788;  -10.620;  578.960
1069.886;   17.882;  -12.830;  590.700
1070.432;   16.288;  -14.870;  541.720
1070.977;   16.970;  -11.980;  601.080
1071.523;   17.533;   -8.200;  573.060
1072.068;   17.451;  -12.330;  582.000
1072.614;   16.973;  -16.370;  527.760
1073.160;   17.598;  -11.100;  687.040
1073.705;   16.788;  -10.480;  572.520
1074.250;   17.144;  -14.520;  559.900
1074.796;   17.022;  -11.460;  655.160
1075.341;   17.651;  -11.950;  664.100
1075.886;   17.347;  -11.460;  594.240
1076.431;   16.457;  -13.770;  649.880
1076.976;   16.577;  -12.680;  639.220
1077.521;   15.629;  -13.170;  583.080
1078.067;   15.745;  -10.860;  579.400
1078.612;   15.466;  -13.920;  661.620
1079.156;   15.392;  -13.880;  601.540
1079.701;   15.940;  -13.120;  693.260
1080.246;   16.191;   -9.940;  696.300
1080.791;   15.703;  -14.740;  625.020
1081.336;   15.035;  -13.750;  659.320
1081.880;   16.061;  -13.400;  649.680
1082.425;   14.749;  -12.220;  573.480
1082.970;   16.264;  -11.610;  717.040
1083.514;   14.219;  -13.580;  597.000
1084.059;   13.627;  -12.810;  586.720
1084.603;   14.675;  -12.320;  565.840
1085.147;   14.165;  -13.190;  645.220
1085.692;   14.955;  -12.480;  716.800
1086.236;   13.447;  -13.020;  503.140
1086.780;   15.804;   -9.190;  751.440
1087.325;   14.343;  -12.480;  654.620
1087.869;   13.383;  -12.450;  610.700
1088.413;   14.491;  -12.240;  705.040
1088.957;   12.774;   -9.020;  543.400
1089.501;   15.368;  -10.320;  766.640
1090.045;   13.336;  -12.720;  726.480
1090.589;   12.057;  -13.690;  569.920
1091.133;   13.225;  -10.020;  673.340
1091.676;   12.897;  -12.330;  591.940
1092.220;   12.137;  -14.970;  600.920
1092.764;   13.765;  -12.430;  706.960
1093.307;   13.555;   -9.800;  673.780
1093.851;   11.938;  -14.970;  556.540
1094.395;   12.792;  -15.310;  683.140
1094.938;   12.603;  -10.370;  632.520
1095.482;   12.576;  -11.050;  559.800
1096.025;   12.958;  -11.840;  710.880
1096.568;   11.785;  -12.840;  779.280
1097.112;   10.414;  -14.700;  508.180
1097.655;   12.516;   -8.720;  603.000
1098.198;   10.632;  -13.610;  600.180
1098.741;   10.413;  -13.350;  612.860
1099.285;   12.184;  -11.230;  657.300
1099.828;   10.202;  -11.840;  439.400
1100.371;   11.061;  -10.840;  608.160
1100.914;   10.769;  -14.190;  682.660
1101.457;   11.757;  -11.240;  679.900
1101.999;   10.439;  -11.270;  584.680
1102.542;   11.449;  -11.480;  641.440
1103.085;   10.143;  -11.750;  658.500
1103.628;   10.961;  -11.400;  762.060
1104.170;   10.364;  -10.490;  588.280
1104.713;   10.316;  -10.600;  646.700
1105.256;    9.154;  -14.360;  557.440
1105.798;    9.337;  -13.210;  499.980
1106.341;   11.551;  -10.270;  728.900
1106.883;    9.278;  -12.200;  521.340
1107.425;    9.482;  -13.110;  668.180
1107.968;    9.222;  -12.840;  612.380
1108.510;   10.748;   -6.480;  684.960
1109.052;    8.734;  -13.940;  612.620
1109.594;    8.526;  -13.690;  554.440
1110.136;    9.277;  -11.880;  643.220
1110.679;    8.913;   -9.500;  633.080
1111.221;    9.368;  -14.160;  604.460
1111.763;    8.690;  -13.980;  559.220
1112.304;    8.350;  -13.880;  547.140
1112.846;    9.721;  -12.210;  666.240
1113.388;   11.563;  -11.390;  942.180
1113.930;    8.904;  -14.540;  694.200
1114.472;    7.940;  -12.640;  606.540
1115.013;    7.116;  -11.620;  551.280
1115.555;    7.298;  -13.640;  587.100
1116.097;    6.185;  -15.380;  579.480
1116.638;    7.649;  -12.640;  684.600
1117.180;    8.699;   -9.850;  667.740
1117.721;    7.573;  -13.690;  568.580
1118.262;    8.057;  -12.680;  677.960
1118.804;    8.212;  -12.530;  637.340
1119.345;    7.539;  -11.690;  578.400
1119.886;    7.501;  -13.380;  704.040
1120.427;    6.594;  -14.070;  589.020
1120.969;    6.010;  -13.500;  597.920
1121.510;    6.234;  -11.480;  563.060
1122.051;    7.123;  -12.830;  723.580
1122.592;    5.741;  -14.290;  655.420
1123.133;    5.210;  -12.400;  547.940
1123.673;    7.641;  -10.130;  706.480
1124.214;    6.533;  -12.930;  612.460
1124.755;    7.205;  -14.380;  639.460
1125.296;    6.531;  -14.000;  627.320
1125.836;    7.520;  -10.070;  691.500
1126.377;    5.831;  -12.640;  599.660
1126.918;    6.061;  -12.960;  614.980
1127.458;    5.326;  -13.350;  622.220
1127.999;    6.487;  -10.750;  656.980
1128.539;    6.221;  -12.350;  694.240
1129.079;    4.845;  -14.860;  632.720
1129.620;    4.014;  -13.840;  558.100
1130.160;    5.462;  -12.330;  539.480
1130.700;    5.489;  -14.530;  640.840
1131.240;    6.124;  -12.530;  643.700
1131.781;    5.252;  -14.450;  619.680
1132.321;    5.328;   -9.790;  599.120
1132.861;    4.515;  -14.860;  564.200
1133.401;    3.785;  -14.290;  593.940
1133.941;    5.243;  -11.750;  626.280
1134.481;    4.039;   -9.920;  597.580
1135.020;    4.376;  -12.290;  609.160
1135.560;    4.182;  -11.650;  674.940
1136.100;    3.750;  -16.270;  501.160
1136.640;    3.963;  -10.890;  510.480
1137.179;    4.432;  -14.180;  537.960
1137.719;    3.585;  -16.250;  605.400
1138.258;    4.280;  -14.230;  587.360
1138.798;    4.910;   -9.090;  663.780
1139.337;    3.780;  -15.130;  482.840
1139.877;    3.994;  -13.680;  642.360
1140.416;    5.262;  -11.320;  878.060
1140.955;    3.217;  -10.860;  535.380
1141.494;    4.047;  -12.920;  669.280
1142.034;    2.277;  -13.930;  583.520
1142.573;    4.330;  -11.440;  646.280
1143.112;    3.324;  -12.000;  553.480
1143.651;    2.484;  -13.670;  536.480
1144.190;    3.497;  -12.730;  691.640
1144.729;    3.189;  -14.560;  607.420
1145.267;    2.947;  -11.830;  584.900
1145.806;    3.387;  -12.230;  637.040
1146.345;    2.282;  -14.130;  635.020
1146.884;    1.925;  -11.590;  622.500
1147.422;    2.627;  -12.550;  533.060
1147.961;    3.931;  -11.180;  708.460
1148.500;    3.279;  -11.510;  669.720
1149.038;    2.954;  -11.640;  632.500
1149.577;    3.143;  -10.130;  698.640
1150.115;    1.317;  -13.970;  452.280
1150.653;    2.360;  -14.520;  607.340
1151.192;    2.257;  -12.810;  552.920
1151.730;    2.994;   -9.100;  652.560
1152.268;    2.274;  -12.220;  589.520
1152.806;    1.341;  -14.140;  571.180
1153.344;    0.429;  -12.350;  577.640
1153.882;    1.889;   -8.980;  600.060
1154.421;    0.183;  -15.190;  470.620
1154.958;    0.567;  -15.210;  595.240
1155.496;    2.021;  -12.850;  645.280
1156.034;    2.455;   -9.940;  721.880
1156.572;    2.485;  -13.570;  667.060
1157.110;   -0.047;  -14.590;  473.940
1157.647;    1.348;  -13.030;  676.960
1158.185;    1.493;  -12.140;  564.320
1158.723;   -0.648;  -14.390;  509.200
1159.260;    1.182;  -14.090;  701.700
1159.798;    1.243;  -11.920;  658.160
1160.335;    0.782;  -11.110;  631.820

