
Integration time [ms]:   3.276
Averaging Nr. [scans]: 1000
Smoothing Nr. [pixels]: 0
Data measured with spectrometer [name]: 7414430SP
Wave   ;Sample   ;Dark     ;Reference
[nm]   ;[counts] ;[counts] ;[counts] 

288.544;  158.139;    7.793;  793.890
289.143;  162.009;    7.462;  681.602
289.742;  163.136;    8.602;  828.814
290.341;  150.122;    1.321;  789.841
290.940;  138.902;   -0.709;  730.702
291.538;  140.926;    0.881;  881.108
292.137;  141.195;    0.122;  792.581
292.736;  142.956;   -1.929;  975.101
293.335;  137.673;   -8.229;  735.086
293.934;  140.692;   -5.279;  781.677
294.532;  142.084;   -1.369; 1031.958
295.131;  127.796;   -7.641;  834.394
295.730;  126.702;   -8.420;  809.588
296.328;  124.441;   -5.611;  783.442
296.927;  124.425;   -5.781;  779.652
297.525;  125.633;   -6.361;  781.236
298.124;  116.881;  -11.382;  654.009
298.722;  121.191;   -7.641;  761.933
299.321;  118.005;   -6.811;  708.597
299.919;  114.872;   -6.991;  751.918
300.518;  109.712;  -10.362;  689.338
301.116;  113.713;   -9.581;  691.381
301.715;  115.405;   -4.891;  730.222
302.313;  112.589;   -8.801;  704.943
302.911;  107.154;   -8.522;  733.830
303.509;  112.271;   -6.171;  925.627
304.108;  110.776;   -7.311;  760.383
304.706;  109.831;   -8.321;  801.664
305.304;  103.908;  -10.222;  796.707
305.902;  108.453;   -6.021;  784.484
306.500;  105.746;   -4.971;  728.200
307.098;  103.592;   -7.061;  746.560
307.696;  101.604;   -8.801;  780.432
308.294;  101.599;   -6.411;  731.359
308.892;  104.265;   -2.901;  759.769
309.490;  100.965;   -5.041;  712.161
310.088;   96.739;   -5.002;  788.444
310.686;  101.999;   -2.041;  821.749
311.284;   98.283;   -2.351;  766.040
311.882;   96.092;   -4.422;  731.225
312.480;   91.594;   -4.192;  697.167
313.078;   94.345;   -1.172;  808.331
313.675;   95.733;   -2.601;  691.600
314.273;   89.382;   -1.312;  797.837
314.871;   87.952;   -3.942;  589.829
315.468;   85.734;   -2.802;  652.090
316.066;   90.652;   -0.701;  694.427
316.664;   82.228;   -4.362;  656.351
317.261;   86.256;   -2.872;  910.128
317.859;   81.929;   -2.022;  768.735
318.456;   82.836;   -0.531;  830.096
319.054;   78.121;   -3.912;  787.828
319.651;   76.666;   -4.752;  759.928
320.249;   74.990;   -2.602;  810.188
320.846;   74.526;   -0.821;  714.286
321.443;   71.437;   -4.642;  832.135
322.041;   68.091;   -5.002;  812.315
322.638;   64.882;   -3.982;  701.456
323.235;   66.948;   -3.411;  665.683
323.833;   63.735;   -7.361;  740.354
324.430;   57.713;   -8.611;  615.900
325.027;   59.441;   -4.061;  876.855
325.624;   60.254;   -4.031;  644.532
326.221;   56.061;   -7.481;  689.717
326.818;   54.983;   -5.281;  818.332
327.415;   58.725;   -7.460;  748.828
328.012;   58.809;   -5.510;  690.585
328.609;   56.490;   -7.880;  731.389
329.206;   54.433;   -8.331;  778.621
329.803;   55.130;   -5.121;  737.841
330.400;   57.885;   -4.510;  704.260
330.997;   58.000;   -6.441;  817.147
331.594;   56.704;   -8.831;  788.185
332.191;   62.625;   -7.621;  728.722
332.787;   66.392;   -4.591;  844.463
333.384;   65.511;   -7.412;  763.093
333.981;   64.263;   -8.293;  815.687
334.578;   66.617;   -7.052;  708.378
335.174;   69.550;   -3.102;  731.469
335.771;   68.554;   -5.943;  836.456
336.367;   66.289;   -7.393;  710.631
336.964;   71.065;   -4.063;  793.266
337.561;   69.014;   -3.813;  731.112
338.157;   64.376;   -4.654;  911.916
338.754;   62.327;   -7.934;  796.589
339.350;   61.121;   -4.414;  722.493
339.946;   63.524;   -4.664;  773.135
340.543;   54.840;   -6.375;  846.136
341.139;   47.879;   -9.815;  720.836
341.735;   45.522;   -4.526;  772.593
342.332;   46.102;   -4.895;  691.472
342.928;   44.641;   -4.295;  795.394
343.524;   37.431;   -5.476;  761.684
344.120;   33.896;   -5.856;  738.562
344.716;   38.195;   -2.155;  723.717
345.313;   35.061;   -6.275;  795.342
345.909;   29.334;   -8.815;  627.336
346.505;   29.985;   -5.305;  740.247
347.101;   32.334;   -2.674;  827.864
347.697;   32.084;   -4.344;  785.398
348.293;   26.934;   -9.975;  627.244
348.889;   27.296;   -5.774;  745.914
349.485;   27.339;   -5.004;  688.205
350.081;   27.266;   -4.704;  772.592
350.676;   20.910;   -6.635;  691.606
351.272;   26.114;   -4.504;  809.530
351.868;   26.354;   -3.914;  780.497
352.464;   23.432;   -9.044;  723.932
353.059;   19.632;   -8.314;  646.017
353.655;   23.768;   -7.024;  777.063
354.251;   24.028;   -5.343;  759.845
354.846;   18.329;   -8.604;  740.646
355.442;   15.544;   -6.945;  753.071
356.038;   17.701;   -7.564;  751.708
356.633;   18.756;   -5.814;  728.594
357.229;   15.604;   -7.364;  724.757
357.824;   14.231;   -8.024;  703.600
358.420;   12.458;   -9.384;  679.726
359.015;   14.167;   -5.104;  695.357
359.610;   15.072;   -6.854;  763.920
360.206;    8.097;  -10.185;  603.240
360.801;   11.719;   -7.054;  646.503
361.396;   14.477;   -5.034;  725.975
361.992;    9.310;   -8.284;  668.220
362.587;    5.331;   -8.625;  670.160
363.182;    8.250;   -7.674;  689.631
363.777;    9.507;   -5.164;  738.242
364.372;    8.507;   -8.604;  737.314
364.967;    4.580;   -9.055;  680.744
365.563;    8.367;   -6.114;  815.567
366.158;    6.505;   -5.814;  685.161
366.753;    6.552;   -7.854;  649.263
367.348;    4.484;   -7.804;  746.056
367.942;    4.675;   -7.954;  697.298
368.537;    4.532;   -4.984;  754.245
369.132;    4.125;   -8.564;  703.428
369.727;   -1.041;   -8.855;  638.079
370.322;    1.417;   -6.245;  580.186
370.917;    1.138;   -6.425;  710.646
371.511;    4.303;   -6.294;  861.834
372.106;   -0.413;   -7.685;  776.964
372.701;   -3.182;   -7.335;  585.988
373.296;    1.912;   -4.564;  863.135
373.890;   -2.343;  -10.235;  647.840
374.485;   -5.554;   -7.885;  691.199
375.079;   -0.540;   -7.324;  738.685
375.674;    0.883;   -3.494;  812.970
376.268;   -2.924;   -8.525;  691.759
376.863;  -10.039;  -10.086;  580.327
377.457;   -3.195;   -7.025;  662.490
378.052;   -4.893;   -3.585;  764.884
378.646;   -5.898;   -7.595;  741.167
379.240;   -6.881;   -8.335;  721.176
379.835;   -5.760;   -5.785;  636.978
380.429;   -7.273;   -4.335;  562.557
381.023;   -7.617;   -6.805;  779.205
381.617;  -10.929;   -9.195;  680.106
382.212;   -6.949;   -6.905;  685.303
382.806;   -5.456;   -3.745;  760.690
383.400;  -10.256;   -7.745;  672.281
383.994;  -11.985;   -9.765;  664.870
384.588;   -7.542;   -6.564;  697.701
385.182;   -6.215;   -5.344;  726.624
385.776;   -7.938;   -8.514;  706.875
386.370;  -11.447;   -9.555;  681.968
386.964;  -10.044;   -8.715;  684.155
387.558;   -7.751;   -6.174;  598.360
388.152;  -11.769;   -8.725;  681.959
388.745;  -11.412;   -7.965;  814.707
389.339;   -8.603;   -5.924;  747.642
389.933;   -7.540;   -5.524;  695.370
390.527;   -8.847;   -7.114;  859.029
391.120;  -15.631;  -10.725;  595.318
391.714;  -11.328;   -8.035;  711.633
392.308;   -8.721;   -3.574;  780.253
392.901;  -12.609;   -7.245;  642.460
393.495;  -14.830;   -9.285;  595.414
394.089;  -12.561;   -5.895;  760.452
394.682;  -12.754;   -4.295;  697.188
395.275;  -13.793;   -9.875;  719.927
395.869;  -15.014;   -8.485;  667.314
396.462;  -12.951;   -7.455;  616.609
397.056;   -8.150;   -5.424;  776.621
397.649;  -13.442;   -6.605;  731.575
398.242;  -11.964;   -8.224;  712.645
398.836;  -10.830;   -7.474;  766.408
399.429;  -11.158;   -7.094;  631.041
400.022;  -16.091;   -9.475;  665.902
400.615;  -13.773;   -7.145;  805.609
401.208;  -10.980;   -7.174;  691.451
401.802;  -12.523;   -5.515;  699.329
402.395;  -14.214;   -9.875;  683.502
402.988;  -15.351;   -8.845;  696.627
403.581;  -11.671;   -8.874;  646.878
404.174;   -9.202;   -5.324;  686.568
404.767;  -12.554;   -9.575;  638.583
405.360;  -15.743;  -10.965;  621.445
405.953;   -9.666;   -8.764;  759.034
406.545;   -9.224;   -7.514;  725.342
407.138;  -12.774;  -10.025;  618.350
407.731;  -13.044;  -10.034;  613.303
408.324;   -8.571;   -9.374;  660.554
408.917;   -8.233;   -6.534;  681.864
409.509;  -11.017;   -8.004;  740.396
410.102;  -13.165;   -9.875;  643.948
410.695;   -6.829;   -8.604;  665.758
411.287;   -7.216;   -6.794;  599.821
411.880;   -9.250;   -9.334;  585.421
412.472;  -13.759;  -10.254;  613.092
413.065;   -9.818;   -6.714;  629.408
413.657;   -6.995;   -7.234;  576.678
414.250;   -7.349;  -10.544;  646.681
414.842;   -9.248;   -9.744;  676.353
415.434;   -7.934;   -6.994;  570.463
416.027;   -2.520;   -5.893;  652.196
416.619;   -4.542;   -7.264;  713.400
417.211;   -5.191;  -10.374;  599.352
417.804;   -2.232;   -7.993;  628.499
418.396;   -5.357;   -7.234;  607.643
418.988;   -3.556;   -9.443;  659.238
419.580;   -7.115;  -10.724;  568.276
420.172;   -5.273;  -10.323;  536.196
420.764;   -0.057;   -8.793;  672.482
421.356;   -0.931;  -11.143;  636.898
421.948;   -3.595;   -8.293;  677.661
422.540;    1.769;   -7.893;  680.027
423.132;    1.534;   -7.082;  600.641
423.724;   -1.211;   -8.653;  561.267
424.316;    0.346;  -10.213;  621.345
424.908;    2.970;   -9.762;  591.517
425.500;    5.406;   -5.572;  647.978
426.092;    5.139;   -8.422;  648.268
426.683;    3.119;   -9.283;  684.836
427.275;    6.452;   -7.852;  641.471
427.867;    8.771;   -5.272;  668.948
428.458;    8.637;   -7.682;  732.344
429.050;    6.762;  -10.612;  680.749
429.642;    8.738;   -9.882;  743.124
430.233;   10.673;   -6.962;  569.356
430.825;   11.272;   -6.842;  724.809
431.416;    8.013;   -9.672;  698.241
432.008;   12.189;   -6.552;  651.723
432.599;   13.344;   -6.891;  656.073
433.190;    9.878;  -10.912;  637.670
433.782;    8.179;  -11.172;  590.395
434.373;   16.471;   -6.061;  884.765
434.964;   14.985;   -8.251;  602.920
435.556;   12.432;   -9.722;  634.537
436.147;   14.562;   -9.082;  758.490
436.738;   14.761;   -8.041;  701.099
437.329;   21.381;   -7.341;  721.723
437.920;   14.151;   -8.162;  666.688
438.511;   13.561;  -11.802;  564.526
439.103;   20.056;  -10.191;  623.998
439.694;   22.425;   -7.601;  681.583
440.285;   23.140;   -8.541;  764.432
440.876;   20.483;   -9.751;  845.738
441.466;   19.861;   -9.401;  575.162
442.057;   26.405;   -7.760;  665.814
442.648;   24.351;   -9.971;  746.255
443.239;   22.601;  -11.001;  620.477
443.830;   28.423;   -7.990;  704.958
444.421;   30.141;   -7.910;  655.474
445.011;   26.320;   -8.131;  693.619
445.602;   25.282;   -7.111;  743.126
446.193;   27.185;  -10.920;  488.117
446.783;   32.244;   -6.500;  640.397
447.374;   27.118;   -8.671;  692.759
447.964;   26.853;  -10.781;  713.770
448.555;   35.805;   -9.650;  822.742
449.145;   33.476;   -8.660;  662.853
449.736;   34.055;   -8.990;  803.179
450.326;   32.998;   -9.500;  713.626
450.917;   38.608;   -8.680;  675.324
451.507;   38.941;   -7.520;  600.661
452.097;   38.159;   -8.590;  746.267
452.688;   39.159;  -11.340;  742.160
453.278;   39.353;  -10.100;  566.840
453.868;   44.005;   -6.019;  793.550
454.458;   42.426;   -9.440;  651.141
455.048;   41.880;  -10.560;  711.783
455.639;   42.388;  -11.799;  567.096
456.229;   47.200;   -6.899;  710.694
456.819;   49.598;   -7.389;  751.158
457.409;   48.438;  -11.119;  773.993
457.999;   52.050;   -9.289;  737.505
458.589;   52.509;   -6.139;  686.606
459.179;   51.417;   -8.729;  717.658
459.769;   49.196;   -9.789;  627.099
460.358;   54.943;  -10.259;  797.262
460.948;   55.320;   -7.299;  689.503
461.538;   56.466;  -10.289;  660.677
462.128;   54.079;  -11.269;  664.934
462.717;   60.266;   -9.368;  710.326
463.307;   64.139;   -7.908;  705.846
463.897;   60.187;   -9.599;  656.942
464.486;   58.789;   -9.769;  837.128
465.076;   63.380;   -8.048;  733.776
465.666;   67.059;   -9.358;  652.900
466.255;   65.125;   -7.919;  785.651
466.845;   62.922;  -11.689;  666.749
467.434;   66.300;   -7.818;  725.873
468.023;   68.565;   -7.678;  658.357
468.613;   65.621;  -10.939;  713.946
469.202;   69.101;  -10.118;  646.507
469.791;   73.566;   -9.108;  737.811
470.381;   76.500;   -6.058;  742.813
470.970;   75.381;  -10.428;  711.099
471.559;   75.743;  -10.268;  733.291
472.148;   78.503;   -8.448;  675.737
472.738;   81.245;   -6.917;  765.466
473.327;   80.918;  -11.978;  637.529
473.916;   78.653;  -11.888;  737.446
474.505;   83.447;   -9.437;  751.703
475.094;   87.210;   -6.747;  806.570
475.683;   86.934;   -9.367;  797.699
476.272;   86.748;  -12.637;  730.632
476.861;   90.484;  -10.027;  706.754
477.449;   97.069;   -8.716;  728.487
478.038;   91.258;   -9.577;  692.513
478.627;   91.255;   -9.718;  714.852
479.216;   97.980;   -8.947;  769.441
479.805;  101.986;   -6.256;  783.375
480.393;  102.060;   -7.937; 1008.945
480.982;  100.291;   -7.717;  874.501
481.571;  106.149;   -9.266;  858.333
482.159;  108.348;   -7.636;  705.386
482.748;  107.669;   -9.667;  821.385
483.336;  111.996;  -10.376;  858.209
483.925;  112.543;   -7.147;  774.373
484.513;  119.624;   -7.996;  758.962
485.102;  116.903;  -10.027;  810.965
485.690;  124.487;  -10.446; 1011.050
486.278;  126.914;   -8.446;  979.329
486.867;  127.750;   -6.356;  809.662
487.455;  129.553;   -9.136;  898.229
488.043;  130.611;  -10.646;  748.361
488.631;  140.611;   -7.456; 1005.079
489.220;  143.919;   -6.636;  908.626
489.808;  143.971;  -11.036;  741.415
490.396;  152.282;  -10.246;  914.645
490.984;  158.275;   -8.556;  830.161
491.572;  169.616;   -5.886;  940.315
492.160;  176.965;   -9.486;  919.081
492.748;  188.308;  -10.976;  884.341
493.336;  210.523;   -8.776; 1019.693
493.924;  237.641;   -5.465;  958.077
494.512;  269.563;   -9.986; 1066.638
495.100;  315.313;  -10.636; 1103.280
495.687;  377.292;  -10.885; 1206.373
496.275;  429.634;   -8.126; 1150.796
496.863;  495.074;  -10.586; 1281.171
497.451;  605.388;  -11.926; 1386.805
498.038;  713.878;  -10.885; 1556.729
498.626;  810.026;   -6.315; 1741.407
499.214;  964.320;   -7.326; 2016.609
499.801; 1161.795;  -11.906; 2220.633
500.389; 1390.301;  -10.466; 2312.494
500.976; 1653.390;   -5.236; 2744.849
501.564; 2058.062;   -8.936; 3148.565
502.151; 2534.037;  -13.176; 3515.999
502.738; 3025.584;  -10.646; 3971.274
503.326; 3386.970;   -9.525; 4403.796
503.913; 3684.705;  -10.856; 5161.749
504.500; 4176.826;  -11.586; 5986.420
505.088; 4581.781;  -10.336; 6381.201
505.675; 4999.719;   -6.355; 6925.547
506.262; 5417.778;   -9.046; 7619.060
506.849; 5793.449;  -10.416; 8733.969
507.436; 6263.890;  -10.305; 9790.121
508.023; 6732.149;   -5.496; 9985.472
508.610; 7601.875;   -7.856;10434.618
509.197; 9116.425;  -10.097;11198.435
509.784;10597.672;  -10.886;12391.194
510.371;11604.329;   -9.315;13603.713
510.958;12329.563;   -9.936;14426.586
511.545;12896.077;   -9.326;15243.775
512.132;13798.412;  -10.075;15945.876
512.719;14237.830;   -7.796;16340.369
513.305;15169.964;  -10.606;18011.766
513.892;16368.611;  -11.486;19754.971
514.479;18038.766;   -9.126;20967.805
515.066;19395.822;   -6.026;22299.793
515.652;19672.252;   -8.466;22908.660
516.239;20879.898;  -10.886;23798.875
516.825;23154.574;  -11.496;25567.275
517.412;24834.768;   -5.796;28154.959
517.998;26312.613;  -10.506;28344.111
518.585;26400.506;  -10.076;27134.219
519.171;25378.109;   -8.315;27268.576
519.758;25399.049;   -8.596;28964.129
520.344;26107.861;   -8.466;30664.494
520.930;28627.117;  -11.006;32550.605
521.516;29038.346;  -10.495;35422.895
522.103;28659.330;   -5.526;38280.004
522.689;29490.551;   -8.746;37835.117
523.275;31326.584;  -11.376;37288.613
523.861;33543.934;  -11.156;37281.395
524.447;36880.875;   -8.135;37846.949
525.033;37754.500;   -7.896;38321.949
525.619;36916.227;  -12.476;38579.285
526.205;36896.270;   -9.516;40622.875
526.791;36203.934;   -6.926;42258.836
527.377;38060.176;   -8.346;42966.902
527.963;39925.418;   -8.717;42018.949
528.549;38374.813;  -11.016;42476.828
529.135;38451.230;   -8.536;41854.852
529.721;37930.602;   -9.666;41237.711
530.306;36188.797;  -10.066;41259.445
530.892;36575.406;  -11.356;41506.047
531.478;36554.777;   -6.596;43559.613
532.063;37105.277;   -8.836;47695.563
532.649;40281.141;  -10.047;50808.324
533.235;42441.777;   -9.746;51787.500
533.820;41484.797;   -6.566;52145.035
534.406;40350.027;  -10.817;51133.488
534.991;43208.816;   -9.416;49996.805
535.576;44544.883;   -9.036;48882.852
536.162;45150.980;   -6.156;46942.285
536.747;45816.258;  -11.607;45711.746
537.333;45480.133;  -11.787;48510.180
537.918;44848.367;  -12.437;50439.891
538.503;45382.629;   -7.196;50863.711
539.088;44043.203;  -10.556;50906.922
539.673;43405.492;   -8.767;52621.965
540.259;44803.305;  -10.026;52368.094
540.844;46578.945;   -7.416;50879.109
541.429;44767.621;   -9.467;52077.777
542.014;44468.605;   -9.527;52716.695
542.599;47096.418;   -9.946;52363.281
543.184;49427.301;   -7.927;53187.137
543.769;47795.262;   -9.297;54697.605
544.354;44510.316;  -10.127;53913.914
544.938;42731.219;   -9.267;49680.164
545.523;44993.965;   -6.506;47386.277
546.108;49104.926;   -9.787;49151.949
546.693;49497.695;  -11.587;51384.637
547.278;49832.574;  -10.986;51853.254
547.862;46456.402;   -8.206;51173.750
548.447;43050.395;  -10.067;51691.395
549.031;44458.398;   -9.637;52456.703
549.616;46151.371;   -9.926;52714.516
550.201;44459.184;   -6.347;52414.598
550.785;42167.148;   -7.917;52355.059
551.370;41239.969;  -10.867;54589.453
551.954;42699.742;   -9.047;58267.348
552.538;45131.746;   -7.827;59062.176
553.123;45084.969;  -10.287;58115.285
553.707;41294.570;  -12.178;56556.285
554.291;42624.297;   -8.717;56201.668
554.876;45360.316;   -7.457;55335.762
555.460;46822.141;  -10.387;54155.703
556.044;47586.430;   -9.618;53721.484
556.628;47537.770;  -11.567;53731.016
557.212;45770.324;   -8.097;54312.531
557.796;45920.148;  -11.077;53797.773
558.380;44271.555;  -11.108;56145.984
558.964;42552.258;   -9.057;57277.930
559.548;42519.254;   -6.977;56459.641
560.132;42105.551;  -11.457;54434.543
560.716;40039.992;  -11.378;54800.617
561.300;40664.652;   -9.577;57606.945
561.884;43147.270;   -7.127;58972.445
562.467;44648.965;   -7.118;57327.570
563.051;45059.730;  -13.358;54962.434
563.635;42542.973;  -10.178;52594.473
564.219;41880.027;   -7.837;50610.410
564.802;41175.637;  -11.398;49551.180
565.386;42476.082;  -12.788;48370.953
565.969;42628.777;   -9.077;48178.871
566.553;42359.227;   -6.207;49957.305
567.136;40321.039;   -8.568;50369.594
567.720;39491.438;  -11.868;49492.004
568.303;40049.246;   -8.268;50616.352
568.887;38805.813;   -8.698;50727.148
569.470;37760.090;   -6.808;51698.379
570.053;36302.688;  -13.188;52122.078
570.637;34564.777;  -12.037;52536.438
571.220;33885.105;   -8.577;51186.098
571.803;34776.793;   -8.498;51032.762
572.386;36164.750;  -10.498;49609.887
572.969;36310.199;   -9.388;48285.926
573.552;32197.549;   -8.338;47624.285
574.135;31522.701;   -8.518;45498.641
574.718;30792.189;  -13.628;41970.434
575.301;30462.820;  -10.893;41447.137
575.884;30133.449;   -8.158;40923.836
576.467;34167.438;  -10.328;45267.723
577.050;33172.805;  -13.058;48175.543
577.633;31605.635;   -9.458;47729.328
578.216;32801.977;   -8.928;47579.793
578.799;34084.891;   -9.358;47820.996
579.381;33917.152;  -11.388;48115.551
579.964;31634.467;  -11.718;47333.766
580.547;32066.816;   -8.588;46668.969
581.129;33578.320;   -8.859;44466.141
581.712;33175.629;  -10.729;44164.922
582.294;34866.445;  -11.118;46477.855
582.877;33048.195;   -5.218;48244.254
583.459;32767.141;   -8.679;47437.895
584.042;34032.137;  -10.709;46943.219
584.624;36891.367;  -11.669;46792.227
585.206;36328.473;   -8.218;46557.250
585.789;34162.609;  -10.569;45793.773
586.371;33959.309;  -11.859;43836.391
586.953;33000.559;  -10.719;42972.492
587.536;34267.648;   -7.198;42487.211
588.118;35710.734;   -8.720;42086.414
588.700;34988.844;  -10.439;43389.930
589.282;34435.637;   -9.198;43646.039
589.864;33674.539;   -9.199;43438.109
590.446;31542.955;  -11.319;43151.926
591.028;30523.621;  -11.159;42781.867
591.610;29930.539;  -11.779;42839.098
592.192;26796.107;   -7.668;42820.402
592.774;27243.006;  -11.949;40724.277
593.356;27934.193;  -12.129;39874.789
593.937;25941.781;  -10.669;39980.648
594.519;25696.908;   -6.509;42069.633
595.101;27702.502;  -10.849;42976.031
595.683;28855.867;  -11.679;44084.441
596.264;29525.291;   -9.049;43478.797
596.846;31645.805;   -8.849;43803.672
597.427;32745.455;   -9.570;42986.934
598.009;33539.602;  -12.620;42832.219
598.591;32877.012;  -10.039;42580.086
599.172;32196.838;  -10.369;43061.805
599.753;31174.396;   -9.140;41691.469
600.335;31072.756;  -11.430;40692.520
600.916;31547.268;   -9.939;39982.422
601.498;30553.160;   -8.479;40318.617
602.079;29357.371;  -10.920;40670.609
602.660;30760.607;  -11.480;41450.898
603.241;31655.545;  -11.699;41137.738
603.823;31893.658;   -9.579;38868.797
604.404;32007.918;  -10.620;38182.785
604.985;30840.732;  -10.450;38078.047
605.566;29966.031;   -9.129;38056.633
606.147;29631.531;   -7.510;37020.418
606.728;31049.756;  -10.660;37883.359
607.309;32061.682;  -11.740;38748.273
607.890;31078.061;   -9.759;38850.230
608.471;29493.916;   -8.250;37457.918
609.051;30701.359;   -9.240;36066.457
609.632;29052.066;  -12.120;35991.074
610.213;27063.002;   -9.110;37402.641
610.794;28552.852;   -8.030;38383.363
611.374;31512.768;   -8.110;40562.387
611.955;31621.861;  -13.560;38533.727
612.536;29025.533;  -11.400;36951.789
613.116;28347.633;   -8.070;37197.891
613.697;30125.674;  -10.830;38411.125
614.277;30828.445;  -11.641;38673.938
614.858;30020.773;  -13.310;37075.863
615.438;28456.961;   -7.460;35092.906
616.019;27427.664;   -7.601;33666.301
616.599;28108.834;  -12.020;34189.023
617.179;29686.498;  -11.780;36952.047
617.760;32331.078;   -8.570;39582.574
618.340;32532.527;  -11.471;38943.977
618.920;30331.574;  -11.170;37594.156
619.500;31651.439;  -11.071;37866.938
620.080;32175.400;   -7.750;37869.043
620.660;31152.080;  -12.711;36868.617
621.241;30231.457;  -10.211;36352.309
621.821;29215.115;  -10.961;35459.520
622.401;27931.506;   -7.720;35207.414
622.980;28940.953;   -8.981;35980.422
623.560;29781.055;   -9.331;37351.328
624.140;28628.984;   -9.850;34388.582
624.720;25922.049;   -7.451;32368.764
625.300;24146.736;   -9.070;32638.629
625.880;27448.734;  -12.601;34599.035
626.459;30082.127;  -11.751;36831.738
627.039;31152.193;   -9.281;38299.098
627.619;32912.066;   -8.801;38289.574
628.198;32538.973;  -12.071;37220.695
628.778;30603.250;   -9.461;37632.563
629.357;31072.584;   -8.491;38003.012
629.937;31030.143;   -9.721;38402.039
630.516;31189.430;   -9.951;37868.801
631.096;31310.182;  -11.731;35760.410
631.675;33034.098;   -8.572;35225.219
632.254;32869.777;  -11.282;35130.289
632.834;32178.211;  -13.322;35794.570
633.413;32378.521;  -10.301;35788.922
633.992;31987.637;   -8.582;34532.863
634.571;32696.748;   -8.352;33590.113
635.151;32288.443;  -11.912;34943.863
635.730;31546.775;  -10.511;35352.523
636.309;33336.332;   -7.731;35366.605
636.888;32058.855;   -9.952;36165.637
637.467;31063.113;  -11.672;37515.902
638.046;30978.033;   -8.901;39288.695
638.625;31507.240;   -7.912;38279.699
639.204;31775.734;  -10.022;37741.598
639.782;30343.748;  -12.252;38364.551
640.361;28796.084;  -10.041;36740.621
640.940;27906.988;  -11.161;34950.082
641.519;29415.590;   -9.701;34137.398
642.097;31555.199;  -11.271;35654.258
642.676;32470.207;   -8.651;35637.957
643.255;33917.543;   -8.711;36567.074
643.833;31747.908;   -9.581;37809.434
644.412;28968.822;  -13.711;37337.293
644.990;29979.982;  -11.811;37018.531
645.569;32468.316;   -9.411;36518.469
646.147;31755.576;  -10.291;36186.430
646.726;30431.137;  -12.401;36267.688
647.304;30327.912;  -10.411;36647.625
647.882;30457.498;   -9.651;39286.742
648.461;31914.605;   -9.631;39157.703
649.039;34991.438;  -11.881;35412.883
649.617;35815.832;   -9.661;34744.918
650.195;33501.727;   -9.301;35403.098
650.773;31962.953;  -10.511;35053.797
651.352;30899.326;  -11.521;33756.816
651.930;28555.613;  -12.211;31868.773
652.508;25197.877;   -9.171;33121.551
653.086;25926.461;   -9.371;33564.793
653.663;30891.822;  -13.161;34054.668
654.241;33773.629;  -13.031;35693.309
654.819;35400.516;   -9.371;36422.906
655.397;35505.363;  -10.511;38213.484
655.975;33012.113;  -10.371;39507.625
656.553;31066.047;  -10.051;39498.223
657.130;30146.254;  -10.061;40395.480
657.708;28524.525;   -9.561;39242.020
658.286;25288.861;  -11.511;38920.020
658.863;26291.885;  -10.261;40202.898
659.441;30460.150;   -7.531;39677.938
660.018;32454.604;   -9.501;40413.355
660.596;31431.332;  -13.301;39931.414
661.173;29896.791;  -11.211;39604.531
661.750;31291.047;   -9.951;39700.070
662.328;31408.916;   -9.390;39292.809
662.905;30189.877;  -11.330;38235.648
663.482;27283.766;   -9.050;36212.305
664.060;24458.748;   -8.240;35944.945
664.637;25479.934;  -10.050;35170.785
665.214;28649.762;  -11.760;34197.523
665.791;29935.762;  -10.530;34549.520
666.368;29269.205;   -9.690;35118.578
666.945;30267.352;   -9.320;36019.418
667.522;30350.223;  -11.860;36048.438
668.099;31830.047;  -10.770;36243.914
668.676;32697.033;   -6.260;35958.875
669.253;34601.766;   -7.000;37384.730
669.830;35816.688;  -10.190;36779.629
670.407;32686.186;   -9.550;35231.289
670.984;32736.875;   -9.260;35544.270
671.560;29794.928;   -9.280;35466.867
672.137;24698.570;  -11.810;34280.863
672.714;26079.002;  -11.490;34632.863
673.290;31062.428;   -7.740;35135.422
673.867;31266.645;  -10.660;36114.480
674.443;31218.428;  -12.230;36152.859
675.020;30838.855;  -10.450;35327.238
675.596;30652.252;   -9.260;35795.176
676.173;30323.805;  -10.780;35430.355
676.749;29516.275;  -13.690;33549.516
677.326;28866.795;  -11.980;32210.012
677.902;27923.191;   -8.630;32068.871
678.478;29175.459;  -10.730;32583.891
679.054;29942.676;  -10.520;32088.928
679.631;29830.879;  -11.920;30978.848
680.207;29734.582;   -7.490;33160.887
680.783;31558.516;   -9.860;35570.363
681.359;32840.766;  -13.380;36125.184
681.935;33320.227;  -12.480;35240.922
682.511;32161.857;   -7.900;34429.961
683.087;31278.191;   -7.710;34463.680
683.663;30450.154;  -11.480;34648.898
684.239;29235.791;  -14.090;34546.457
684.815;28433.262;   -7.560;35586.375
685.390;28977.271;   -9.910;35821.895
685.966;30521.498;  -11.159;35085.871
686.542;31683.943;  -11.169;34198.230
687.118;32891.211;   -5.959;32847.707
687.693;32018.678;  -10.329;32794.027
688.269;32020.287;  -12.059;33072.367
688.844;32688.436;  -10.909;33141.664
689.420;30992.365;   -8.019;33965.742
689.995;29714.729;   -8.399;34655.523
690.571;30612.371;  -10.949;33576.742
691.146;29976.270;   -9.619;32657.219
691.722;28488.182;   -8.999;32526.979
692.297;27446.141;  -11.589;33014.617
692.872;27986.574;  -11.739;34012.254
693.448;31192.680;  -11.059;34237.434
694.023;31480.791;  -10.139;34142.672
694.598;28217.598;   -9.029;34132.031
695.173;29261.945;  -13.319;34205.250
695.748;30401.207;  -10.169;32882.488
696.323;28560.521;   -8.339;32864.906
696.898;27506.689;   -8.169;33170.004
697.473;27895.664;  -12.309;32432.984
698.048;27985.533;  -10.989;31649.303
698.623;27060.789;   -9.329;30778.141
699.198;27743.770;   -9.849;31140.119
699.773;28563.164;  -12.329;31764.299
700.348;30245.789;  -10.389;31780.816
700.922;30359.053;   -9.269;32046.375
701.497;31113.211;   -9.329;32603.574
702.072;32170.963;  -10.789;34799.871
702.646;31133.789;  -10.839;35793.172
703.221;31173.369;   -9.099;35201.590
703.795;33027.672;  -10.939;34764.527
704.370;30575.771;  -12.859;34307.367
704.944;28727.814;  -11.559;33509.887
705.519;29362.908;   -7.939;31388.584
706.093;31142.324;  -10.499;31340.104
706.668;33020.426;  -11.289;32630.281
707.242;32384.984;  -11.509;32728.779
707.816;29993.150;   -9.639;32947.238
708.390;29268.039;  -11.429;33277.855
708.965;29327.059;  -11.869;33834.336
709.539;31278.105;  -11.689;33709.273
710.113;31162.688;  -10.478;33044.313
710.687;30230.457;  -10.228;31953.992
711.261;29592.320;  -13.698;30505.949
711.835;29884.035;  -13.378;30262.369
712.409;29133.654;   -9.698;31254.447
712.983;28050.709;  -11.898;32754.986
713.557;30200.113;  -15.138;34018.824
714.131;28690.369;  -14.098;34579.625
714.704;28214.082;   -9.958;33890.262
715.278;29875.465;  -10.028;33531.102
715.852;28533.715;  -11.148;33601.660
716.425;27663.613;   -9.068;33515.117
716.999;26843.834;  -10.038;33185.555
717.573;26459.592;   -9.798;33905.996
718.146;25800.293;  -12.378;35199.293
718.720;25784.287;  -11.918;35060.551
719.293;26162.412;   -8.088;34973.230
719.867;28484.268;  -10.888;36394.449
720.440;31079.256;  -11.938;36663.008
721.013;31789.082;  -12.818;35102.426
721.587;29452.713;  -10.298;33985.266
722.160;27505.602;  -10.048;33524.965
722.733;26405.174;  -12.108;32987.043
723.306;26397.943;  -10.818;33066.301
723.880;28143.789;   -8.908;33399.500
724.453;27392.357;   -9.878;33468.297
725.026;28129.172;  -11.188;33816.637
725.599;31472.943;  -11.678;32797.996
726.172;30813.480;   -9.618;33187.434
726.745;27665.459;   -8.258;35136.613
727.318;26901.584;  -12.978;35751.730
727.891;26753.898;  -12.148;35890.430
728.463;26479.762;   -8.968;34822.090
729.036;25929.852;  -10.188;32895.086
729.609;25972.053;  -11.788;31823.225
730.182;24363.543;  -11.788;31445.283
730.754;22855.740;  -10.268;32373.223
731.327;22754.660;   -9.998;33676.820
731.900;24012.330;  -12.228;33417.000
732.472;24500.518;  -13.848;31978.498
733.045;23676.098;   -8.698;30368.777
733.617;22707.053;  -10.607;30574.215
734.190;24664.738;  -11.507;31280.975
734.762;26004.313;  -13.647;31674.412
735.334;26175.598;   -9.767;31247.291
735.907;26089.525;   -9.897;29876.211
736.479;26138.773;  -11.637;29808.488
737.051;27744.672;   -9.567;30233.547
737.623;27858.328;   -8.187;31469.086
738.195;26532.662;  -11.187;31784.225
738.768;24978.773;  -12.337;32120.523
739.340;23044.895;  -12.227;32094.342
739.912;21990.592;  -11.057;31312.680
740.484;21599.090;  -10.207;31946.238
741.056;21197.326;  -10.047;32984.059
741.628;22302.920;  -13.627;33897.715
742.199;23993.926;   -7.177;33213.016
742.771;26822.174;  -10.797;31369.113
743.343;28145.869;  -11.997;31865.473
743.915;27720.951;  -12.867;32388.631
744.487;24813.539;   -7.617;31079.568
745.058;21697.551;   -9.557;30570.107
745.630;22200.553;   -9.877;29970.127
746.201;23554.521;  -14.177;29186.766
746.773;23957.523;   -9.237;28805.723
747.344;22707.131;   -9.847;29591.223
747.916;21149.076;  -11.657;31412.201
748.487;21587.621;  -10.587;32194.898
749.059;23142.336;   -8.707;32533.719
749.630;23925.666;  -10.537;32158.518
750.201;23538.975;  -11.687;30855.395
750.773;22239.957;  -11.647;28622.555
751.344;21574.482;   -7.147;28405.732
751.915;23208.137;   -9.757;28461.551
752.486;24469.846;  -12.427;27842.850
753.057;23610.238;  -12.227;27845.008
753.628;23529.500;  -10.417;27728.107
754.199;22767.121;  -11.767;27381.086
754.770;22827.324;  -11.187;25882.203
755.341;22254.498;  -10.507;25886.184
755.912;20571.250;   -9.387;26050.861
756.483;18933.229;  -10.647;26798.779
757.054;19348.521;  -11.837;27048.238
757.625;19448.154;  -12.716;26294.838
758.195;19465.322;   -9.666;26142.076
758.766;19855.508;   -8.656;26392.234
759.337;19226.182;  -12.856;26334.594
759.907;19096.320;  -13.366;27579.652
760.478;18994.707;   -8.576;28352.770
761.048;19851.764;  -10.526;27325.088
761.619;20135.523;  -11.116;26460.428
762.189;18674.654;  -12.136;26029.826
762.760;18144.025;   -9.456;26430.145
763.330;18505.617;   -7.136;26670.902
763.900;18796.750;  -11.786;26603.021
764.471;18243.311;  -11.546;25542.740
765.041;17303.799;   -8.096;24358.459
765.611;16699.008;   -8.876;23991.297
766.181;16616.545;  -12.196;24470.236
766.751;16229.093;  -11.636;24845.975
767.321;16794.777;  -10.156;24533.633
767.891;16602.004;  -11.766;24916.492
768.461;17091.811;  -14.936;24776.771
769.031;18386.137;  -12.356;24757.988
769.601;18830.408;   -7.526;24181.088
770.171;18287.719;  -10.766;23670.387
770.741;17165.359;  -13.176;22960.045
771.311;16759.605;  -10.616;22917.523
771.880;17002.617;   -9.576;23562.941
772.450;16627.771;  -10.336;24216.500
773.020;16659.605;  -13.516;24140.398
773.589;17599.744;  -13.466;24414.857
774.159;17252.551;   -8.686;23858.717
774.729;16050.308;   -9.476;22942.135
775.298;14342.307;  -13.666;22324.033
775.867;13910.379;  -11.716;21140.313
776.437;14248.592;   -9.906;20838.092
777.006;13474.144;  -12.166;20599.510
777.576;12821.539;  -12.356;20508.809
778.145;12895.992;  -11.646;20732.947
778.714;13278.615;   -8.226;21062.465
779.283;14134.242;   -9.556;20949.664
779.853;14789.447;  -14.116;20508.623
780.422;14250.769;  -11.506;20649.082
780.991;13785.966;   -9.556;21527.520
781.560;13497.151;   -9.095;22632.658
782.129;13205.153;  -12.135;23048.277
782.698;13157.849;  -10.865;23438.555
783.267;12966.562;   -9.335;23267.734
783.836;13110.124;  -11.045;22415.133
784.404;13867.713;  -13.865;20443.152
784.973;13291.979;  -13.095;19699.150
785.542;11983.902;  -11.575;19763.828
786.111;11323.870;   -9.705;20341.408
786.679;11924.710;  -12.105;20207.967
787.248;12120.178;  -12.455;19516.465
787.817;11481.180;  -11.535;18900.363
788.385;11561.924;   -9.765;17879.121
788.954;11863.425;  -14.005;17658.301
789.522;11493.009;  -11.955;17788.879
790.090;11685.146;  -10.135;18118.277
790.659;12725.988;  -10.975;18338.736
791.227;12817.776;  -13.375;18508.615
791.795;12136.974;  -12.375;17898.254
792.364;11537.564;  -10.725;17295.133
792.932;11488.819;   -9.715;16822.051
793.500;11671.778;  -12.675;17040.148
794.068;11460.463;  -13.495;17179.787
794.636;10192.109;  -10.885;16664.246
795.204; 9010.726;  -11.045;16524.545
795.772; 9663.582;  -13.175;17274.564
796.340;10990.705;  -12.445;17891.002
796.908;10743.043;   -9.735;17648.561
797.476;10888.268;   -9.815;17064.080
798.044;11645.248;  -13.985;16672.777
798.612;11501.435;  -13.115;17023.996
799.180;10246.438;  -10.185;16561.615
799.747; 9110.174;   -9.055;15962.773
800.315; 8464.876;  -12.385;15296.992
800.883; 8818.471;  -15.035;14801.771
801.450; 9325.697;  -10.365;14534.430
802.018; 9484.266;   -9.855;14173.248
802.585; 9717.795;  -11.905;14029.547
803.153; 9287.954;  -11.585;13836.846
803.720; 8513.140;   -9.095;13567.324
804.287; 8628.828;   -9.135;13360.622
804.855; 9212.940;  -11.604;13681.981
805.422; 9345.480;  -11.794;13536.560
805.989; 9003.472;  -10.734;13355.958
806.556; 8494.472;  -10.444;13747.896
807.124; 8343.370;  -12.764;13987.376
807.691; 8948.415;  -12.964;14038.674
808.258; 9266.428;  -11.134;14120.152
808.825; 9350.161;   -9.854;13860.111
809.392; 8980.774;  -10.504;13268.790
809.959; 8410.597;  -13.054;12680.389
810.526; 8133.150;   -8.294;12427.308
811.093; 7983.751;   -8.394;12030.105
811.659; 7434.356;  -12.304;11653.664
812.226; 7176.916;  -13.944;11637.183
812.793; 7622.025;  -10.484;11611.521
813.360; 7781.123;  -10.144;11885.181
813.926; 7181.718;  -11.684;12770.539
814.493; 6553.738;  -13.644;12677.638
815.060; 6396.606;   -9.724;11974.336
815.626; 6668.161;   -9.854;11594.715
816.193; 6705.365;  -13.254;11579.474
816.759; 6677.646;  -13.204;11666.972
817.325; 6582.007;   -9.434;11325.530
817.892; 6319.575;  -10.134;11105.369
818.458; 6233.691;  -13.474;10843.928
819.024; 6064.802;  -11.854;10714.406
819.591; 6226.970;  -10.244;10469.165
820.157; 6414.381;  -10.704;10235.523
820.723; 6764.714;  -12.324;10847.563
821.289; 7252.837;   -9.444;11040.980
821.855; 7308.580;   -8.374;10357.100
822.421; 6891.746;  -10.234; 9978.918
822.987; 6580.125;  -13.294; 9754.177
823.553; 6515.958;  -10.884;10065.755
824.119; 6170.825;   -8.884;10036.294
824.685; 5995.588;   -6.784;10029.192
825.251; 5918.749;  -12.004;10199.230
825.816; 6125.618;  -11.474; 9820.189
826.382; 6008.052;   -9.174; 9297.248
826.948; 5671.122;   -9.214; 9381.347
827.513; 5384.702;  -10.774; 9450.726
828.079; 5299.184;  -11.924; 9472.444
828.645; 5289.063;  -10.543; 9292.643
829.210; 5303.850;  -10.533; 9065.341
829.776; 5315.604;  -10.753; 9132.620
830.341; 5350.143;  -10.173; 9092.878
830.906; 5549.126;  -10.743; 9078.557
831.472; 5552.833;  -11.113; 8534.535
832.037; 5061.773;  -10.603; 8677.874
832.602; 4933.059;  -13.323; 8628.692
833.167; 5311.991;  -10.823; 8879.031
833.733; 5319.400;  -10.113; 9189.790
834.298; 5104.494;  -13.583; 9052.608
834.863; 4952.248;  -12.703; 8895.087
835.428; 4755.244;  -10.523; 8824.266
835.993; 4576.111;   -6.963; 8845.385
836.558; 4588.750;  -10.763; 8888.563
837.123; 4748.751;   -9.903; 8966.582
837.688; 4697.693;   -9.913; 8617.860
838.253; 4605.661;  -10.283; 8590.699
838.817; 4762.143;  -12.963; 8443.797
839.382; 4959.901;  -14.243; 8799.356
839.947; 4776.454;  -10.733; 8810.595
840.511; 4734.282;   -9.383; 8796.394
841.076; 4778.153;  -12.563; 8347.231
841.641; 4589.085;  -12.953; 8224.330
842.205; 4270.372;   -7.043; 8223.349
842.770; 4212.365;   -8.163; 8622.107
843.334; 4287.464;  -12.503; 8410.386
843.898; 4312.662;  -11.693; 8337.465
844.463; 4230.295;  -10.203; 8506.283
845.027; 4131.660;   -9.533; 8280.962
845.591; 4234.473;  -13.443; 8231.141
846.156; 4163.383;  -13.143; 7969.179
846.720; 3884.666;   -9.433; 7768.278
847.284; 3506.564;  -11.033; 7630.957
847.848; 3342.597;  -10.403; 7472.395
848.412; 3419.931;  -11.553; 7437.394
848.976; 3629.650;   -8.393; 7674.592
849.540; 3709.522;   -8.713; 7836.011
850.104; 3681.825;  -12.463; 7913.669
850.668; 3773.042;  -12.973; 7694.508
851.232; 3800.804;  -10.793; 7756.887
851.796; 3732.083;  -10.662; 7926.545
852.359; 3764.212;  -13.082; 7827.844
852.923; 3520.228;  -12.192; 7641.163
853.487; 3384.285;  -11.912; 7342.501
854.050; 3519.475;  -10.892; 7042.820
854.614; 3465.969;  -13.992; 7151.338
855.177; 3303.451;  -11.732; 7105.077
855.741; 3232.810;   -8.962; 6989.675
856.304; 3172.636;   -9.442; 6596.634
856.868; 2973.564;  -14.192; 6356.272
857.431; 2781.706;  -12.702; 6468.571
857.995; 2862.216;   -9.942; 6373.210
858.558; 2913.129;   -9.112; 6324.448
859.121; 2675.194;  -12.932; 6408.327
859.684; 2520.027;  -13.442; 6347.886
860.247; 2871.420;  -10.632; 6321.264
860.810; 3269.368;  -11.272; 6301.903
861.374; 3327.137;   -9.832; 6607.881
861.937; 3309.933;  -11.762; 6408.200
862.500; 3211.658;   -9.722; 6572.639
863.062; 2870.760;  -10.512; 6387.297
863.625; 2664.765;  -11.232; 6190.836
864.188; 2620.316;  -14.112; 5807.254
864.751; 2600.830;  -11.302; 5682.413
865.314; 2741.650;  -10.112; 5547.492
865.876; 2882.043;  -12.182; 5500.150
866.439; 2884.110;  -10.722; 5415.909
867.002; 2761.658;   -9.252; 5501.567
867.564; 2635.948;   -9.572; 5413.946
868.127; 2487.145;  -13.142; 5160.325
868.689; 2181.575;  -12.902; 5133.183
869.252; 1994.742;   -9.732; 5252.382
869.814; 2004.013;   -9.432; 5297.141
870.377; 2152.624;  -11.552; 5390.919
870.939; 2171.501;   -9.052; 5599.898
871.501; 2086.787;  -10.982; 5248.336
872.063; 2108.040;  -12.292; 4854.235
872.626; 2094.098;  -14.912; 4817.074
873.188; 2081.458;  -13.112; 4987.732
873.750; 2024.082;  -13.442; 4868.651
874.312; 2051.384;   -9.402; 4779.330
874.874; 2188.935;  -11.062; 4866.348
875.436; 2111.734;  -13.931; 4718.887
875.998; 1833.104;   -9.561; 4660.005
876.560; 1649.176;  -11.321; 4462.964
877.122; 1633.571;  -12.221; 4145.042
877.683; 1617.164;  -12.191; 4056.481
878.245; 1695.930;  -12.101; 3950.740
878.807; 1842.374;   -8.971; 4058.958
879.369; 1880.776;  -12.071; 3954.677
879.930; 1810.912;  -14.621; 3941.495
880.492; 1652.586;  -10.311; 4067.014
881.053; 1495.586;  -10.901; 3859.633
881.615; 1455.580;  -14.411; 3776.071
882.176; 1470.888;  -13.761; 3734.750
882.738; 1492.322;   -9.181; 3678.489
883.299; 1461.960;  -11.791; 3405.407
883.860; 1380.732;  -13.121; 3351.106
884.422; 1272.170;  -11.211; 3394.044
884.983; 1201.331;  -10.091; 3166.443
885.544; 1181.962;   -8.461; 3189.802
886.105; 1130.259;  -12.361; 3160.360
886.666; 1056.070;  -14.141; 3093.059
887.227; 1029.045;  -11.361; 2941.957
887.788; 1047.482;  -11.401; 2974.836
888.349; 1008.087;  -13.791; 2721.214
888.910;  908.868;  -13.191; 2696.493
889.471;  804.869;   -9.881; 2560.172
890.032;  730.788;   -9.881; 2558.190
890.593;  723.448;  -10.371; 2567.669
891.153;  722.106;  -13.301; 2460.307
891.714;  661.875;  -11.431; 2372.046
892.275;  615.046;  -11.291; 2309.505
892.835;  615.110;  -11.471; 2382.543
893.396;  603.076;  -11.541; 2295.502
893.956;  583.579;  -11.181; 2162.420
894.517;  555.137;  -11.741; 2125.439
895.077;  503.776;  -11.671; 2086.978
895.638;  456.526;  -11.311; 2126.316
896.198;  437.879;   -9.831; 1838.275
896.758;  436.833;   -8.421; 1892.813
897.319;  426.020;  -12.351; 1792.232
897.879;  406.518;  -13.511; 1762.751
898.439;  382.113;  -12.001; 1661.149
898.999;  361.380;  -10.180; 1781.468
899.559;  345.718;  -12.030; 1703.347
900.119;  339.236;  -15.710; 1537.525
900.679;  325.751;   -8.900; 1638.384
901.239;  297.521;   -8.340; 1527.902
901.799;  279.426;  -13.910; 1456.441
902.359;  268.358;  -13.460; 1357.140
902.919;  264.429;  -11.490; 1331.118
903.479;  262.355;  -12.110; 1317.257
904.038;  253.389;  -11.720; 1262.595
904.598;  235.287;  -13.610; 1152.034
905.158;  223.263;  -11.040; 1240.893
905.717;  217.910;  -10.900; 1233.691
906.277;  213.293;  -15.080; 1217.330
906.836;  209.365;  -13.380; 1222.408
907.396;  207.203;  -10.780; 1193.047
907.955;  201.358;   -8.500; 1182.526
908.515;  192.900;  -12.760; 1099.364
909.074;  188.683;  -11.900; 1092.863
909.633;  186.724;   -8.950; 1069.121
910.192;  184.826;   -8.770; 1196.460
910.752;  177.235;  -12.390; 1029.960
911.311;  173.309;  -13.680; 1009.780
911.870;  169.671;  -12.370;  971.460
912.429;  166.629;  -10.900; 1094.080
912.988;  163.504;  -11.690; 1081.060
913.547;  159.864;  -13.240;  940.380
914.106;  158.385;  -11.990;  999.420
914.665;  159.478;   -9.990;  984.020
915.224;  157.538;  -12.880; 1035.760
915.782;  155.814;  -12.350;  922.560
916.341;  157.350;   -9.110; 1049.840
916.900;  154.857;   -9.270;  925.260
917.458;  152.435;  -13.240;  884.220
918.017;  148.851;  -13.550;  942.600
918.576;  148.855;  -12.320;  904.440
919.134;  149.204;  -11.490;  837.980
919.693;  146.646;  -13.670;  893.060
920.251;  145.842;  -15.470;  876.500
920.809;  145.298;  -11.290;  839.580
921.368;  145.441;  -10.210;  885.360
921.926;  143.442;  -12.140;  842.940
922.484;  141.957;  -13.080;  903.360
923.042;  142.465;  -11.720;  880.340
923.601;  145.013;   -7.480;  998.680
924.159;  143.155;  -11.570;  935.560
924.717;  142.192;  -13.840;  841.080
925.275;  144.691;  -10.640;  903.240
925.833;  143.393;  -11.540;  779.320
926.391;  144.048;  -12.960;  938.380
926.949;  142.216;  -14.130;  857.680
927.506;  144.064;  -11.750;  903.500
928.064;  143.399;  -10.250;  877.580
928.622;  141.868;  -13.030;  880.100
929.180;  142.709;  -13.400;  814.180
929.737;  144.173;  -10.700;  808.540
930.295;  146.315;  -10.070;  928.480
930.853;  145.064;  -11.960;  849.100
931.410;  143.489;  -13.120;  821.120
931.968;  145.467;  -10.770;  940.660
932.525;  146.681;  -10.680;  909.380
933.082;  148.780;  -13.130;  811.440
933.640;  154.979;  -13.210;  925.900
934.197;  157.072;  -11.060;  886.360
934.754;  158.415;   -9.580;  897.780
935.312;  159.200;  -14.000;  863.340
935.869;  161.293;  -10.710; 1012.980
936.426;  161.092;   -9.860;  872.800
936.983;  160.591;   -9.710;  889.020
937.540;  158.006;  -13.990;  838.280
938.097;  156.764;  -14.040;  940.120
938.654;  160.406;  -10.310;  898.860
939.211;  160.113;  -10.560;  952.480
939.768;  159.061;  -13.900;  915.420
940.324;  160.041;  -14.760;  904.200
940.881;  164.532;  -10.370;  878.500
941.438;  170.611;   -8.260; 1021.200
941.995;  171.646;  -12.540;  992.560
942.551;  169.763;  -14.670;  875.620
943.108;  170.983;  -10.450;  937.920
943.664;  172.124;  -10.750;  869.340
944.221;  177.074;  -11.550; 1088.140
944.777;  178.653;  -14.770;  869.680
945.334;  179.481;  -12.820;  884.840
945.890;  179.694;  -10.130;  946.480
946.446;  176.209;  -13.470;  947.020
947.003;  176.987;  -12.120;  964.940
947.559;  176.979;   -9.980; 1063.040
948.115;  176.275;   -9.080; 1026.540
948.671;  173.041;  -10.830;  967.300
949.227;  168.675;  -12.440;  859.560
949.783;  168.935;  -12.910;  858.900
950.339;  171.012;  -10.270;  991.000
950.895;  170.973;  -13.630; 1023.840
951.451;  169.515;  -15.100;  925.280
952.007;  169.561;  -11.330;  998.540
952.563;  169.291;  -10.580;  937.780
953.118;  165.397;  -13.440;  904.940
953.674;  160.640;  -12.710;  935.780
954.230;  162.923;  -10.350;  949.640
954.785;  165.875;   -9.190;  936.640
955.341;  167.680;  -11.200;  998.160
955.897;  164.256;  -16.560;  834.660
956.452;  161.591;  -12.570;  953.840
957.008;  159.802;   -7.970; 1083.640
957.563;  158.067;  -11.940; 1009.540
958.118;  156.952;  -13.450;  877.700
958.674;  158.206;  -12.030;  946.780
959.229;  160.874;   -9.410; 1013.980
959.784;  160.053;  -12.000;  832.400
960.339;  157.170;  -14.780; 1001.280
960.894;  153.082;   -9.860;  963.760
961.449;  147.004;   -9.970;  859.960
962.004;  141.306;  -10.900; 1212.840
962.559;  129.363;  -13.150;  860.140
963.114;  118.052;  -13.740;  742.480
963.669;  113.280;   -9.820;  915.500
964.224;  104.513;  -13.890;  874.340
964.779;   99.388;  -12.600;  828.420
965.334;   99.778;  -10.950; 1017.860
965.888;   99.661;  -11.170;  875.360
966.443;  103.736;  -12.540;  972.380
966.998;  105.922;  -15.780;  819.460
967.552;  109.812;   -9.760;  908.380
968.107;  108.125;   -9.060;  868.300
968.661;  108.302;  -11.950;  922.440
969.216;  106.190;  -12.800;  856.280
969.770;  108.607;  -11.210;  917.200
970.324;  107.089;  -11.610;  923.140
970.879;  105.182;  -11.370;  947.180
971.433;  105.127;  -12.540;  952.720
971.987;  104.685;  -11.320;  895.340
972.541;  104.122;  -10.720;  917.100
973.095;  105.882;   -9.680; 1009.460
973.649;  104.685;  -11.440;  809.480
974.203;  104.986;  -11.210;  829.040
974.757;  105.445;  -10.240;  855.220
975.311;  105.710;  -13.720;  872.600
975.865;  105.416;  -13.770;  881.820
976.419;  105.592;  -11.690;  857.400
976.973;  106.724;   -9.510;  849.620
977.526;  106.690;  -12.620;  949.920
978.080;  102.386;  -12.010;  796.780
978.634;  101.784;  -10.170;  921.320
979.187;   98.656;   -9.020;  905.400
979.741;   97.875;   -9.820; 1018.380
980.294;   93.295;  -14.870;  789.160
980.848;   90.000;  -12.380;  717.220
981.401;   90.686;  -10.350;  816.540
981.955;   89.772;  -13.720;  844.300
982.508;   87.301;  -11.490;  746.340
983.061;   87.122;  -10.000;  915.260
983.615;   86.164;  -11.480;  798.800
984.168;   84.958;  -13.220;  770.080
984.721;   85.184;  -13.960;  880.760
985.274;   83.199;  -10.870;  867.500
985.827;   82.420;   -9.790;  834.220
986.380;   80.948;  -13.120;  721.340
986.933;   80.597;  -12.450;  864.800
987.486;   81.789;  -10.210;  861.920
988.039;   81.346;   -8.430;  863.100
988.591;   77.979;  -10.520;  893.260
989.144;   74.150;  -14.860;  737.260
989.697;   73.390;  -13.080;  758.740
990.250;   72.232;  -10.150;  858.100
990.802;   70.214;  -13.430;  755.860
991.355;   68.488;  -12.750;  974.880
991.907;   66.224;  -12.040;  864.320
992.460;   63.959;  -11.330;  753.760
993.012;   63.684;  -13.610;  749.540
993.565;   61.265;  -13.460;  711.360
994.117;   62.993;   -9.360;  950.780
994.669;   61.383;  -11.300;  701.320
995.221;   60.662;  -13.540;  791.920
995.774;   59.474;  -13.430;  787.580
996.326;   58.995;  -12.520;  740.220
996.878;   59.034;  -10.950;  838.420
997.430;   57.407;  -14.300;  699.860
997.982;   55.300;  -13.760;  750.140
998.534;   54.804;  -11.530;  739.060
999.086;   54.000;  -10.310;  738.220
999.638;   52.983;  -12.530;  661.380
1000.190;   51.298;  -11.840;  699.320
1000.741;   51.020;  -10.260;  742.700
1001.293;   52.351;   -8.860;  686.020
1001.845;   50.028;  -13.700;  676.640
1002.396;   49.835;  -12.100;  743.400
1002.948;   50.486;  -12.760;  737.400
1003.500;   49.204;  -10.380;  723.780
1004.051;   49.043;  -11.900;  907.580
1004.603;   47.875;  -12.250;  791.820
1005.154;   44.332;  -13.210;  608.980
1005.705;   44.412;  -10.950;  723.960
1006.257;   44.170;  -13.880;  707.220
1006.808;   42.245;  -12.840;  685.460
1007.359;   42.151;  -10.570;  763.240
1007.910;   41.315;   -9.620;  646.640
1008.461;   40.634;  -13.630;  732.940
1009.013;   38.640;  -17.200;  588.340
1009.564;   40.503;  -10.200;  793.520
1010.115;   38.539;  -12.570;  597.040
1010.665;   38.662;  -15.150;  602.160
1011.216;   37.883;  -14.480;  667.920
1011.767;   37.483;  -11.340;  697.920
1012.318;   38.554;   -9.780;  736.980
1012.869;   36.886;  -12.380;  679.000
1013.419;   35.554;  -15.560;  603.120
1013.970;   36.110;  -11.010;  666.640
1014.521;   36.281;  -11.610;  620.620
1015.071;   36.167;  -13.450;  670.380
1015.622;   35.128;  -13.870;  635.460
1016.172;   34.092;  -11.610;  596.820
1016.723;   34.979;  -12.120;  614.380
1017.273;   34.802;  -13.620;  604.160
1017.823;   33.641;  -14.140;  650.340
1018.374;   33.923;  -12.800;  611.760
1018.924;   34.331;  -12.340;  716.880
1019.474;   34.281;  -11.410;  718.880
1020.024;   31.741;  -14.770;  657.580
1020.574;   33.523;   -9.780;  726.160
1021.124;   34.087;   -8.560;  673.580
1021.674;   32.256;  -15.190;  559.120
1022.224;   33.215;  -13.530;  708.940
1022.774;   33.004;  -13.280;  668.820
1023.324;   33.908;  -10.690;  753.520
1023.874;   35.108;  -10.240;  875.760
1024.423;   31.014;  -12.540;  613.700
1024.973;   30.709;  -10.010;  610.760
1025.523;   31.621;  -10.550;  620.960
1026.072;   30.700;  -13.560;  606.420
1026.622;   29.311;  -15.120;  675.740
1027.172;   30.911;  -11.260;  715.660
1027.721;   30.428;  -11.410;  601.220
1028.270;   30.905;  -13.530;  663.400
1028.820;   29.572;  -13.680;  638.080
1029.369;   29.954;  -13.520;  612.700
1029.918;   30.319;  -10.980;  649.840
1030.468;   29.626;  -13.530;  564.780
1031.017;   28.999;  -13.170;  634.800
1031.566;   28.214;  -12.200;  608.900
1032.115;   30.050;   -9.960;  694.500
1032.664;   28.214;  -13.210;  596.480
1033.213;   28.896;  -12.500;  735.420
1033.762;   27.987;  -11.910;  635.620
1034.311;   28.548;   -9.640;  677.220
1034.860;   28.677;  -13.310;  691.000
1035.408;   27.080;  -11.830;  722.720
1035.957;   28.385;  -12.000;  719.540
1036.506;   27.308;  -11.690;  530.800
1037.055;   29.379;  -10.990;  844.320
1037.603;   27.307;  -15.120;  664.000
1038.152;   25.588;  -12.450;  534.760
1038.700;   27.000;  -10.560;  585.740
1039.249;   26.084;  -11.080;  681.220
1039.797;   25.716;  -12.540;  633.360
1040.345;   25.382;  -11.920;  705.420
1040.894;   25.611;  -11.410;  625.300
1041.442;   25.368;  -14.320;  632.200
1041.990;   23.858;  -16.240;  559.160
1042.538;   24.086;  -11.680;  536.180
1043.087;   25.129;  -10.760;  570.860
1043.635;   25.877;  -11.850;  670.500
1044.183;   24.864;  -15.480;  586.400
1044.731;   24.641;  -11.770;  576.000
1045.279;   24.332;  -13.090;  674.920
1045.827;   25.687;  -12.440;  892.400
1046.374;   22.098;  -13.840;  515.420
1046.922;   22.139;  -13.220;  590.580
1047.470;   24.187;  -10.230;  691.300
1048.018;   23.833;  -14.590;  647.960
1048.565;   24.531;  -12.050;  708.600
1049.113;   22.847;  -11.650;  557.000
1049.660;   23.810;  -10.510;  629.660
1050.208;   23.126;  -13.310;  675.640
1050.755;   21.939;  -15.900;  606.580
1051.303;   22.841;  -11.430;  686.820
1051.850;   23.418;   -8.480;  635.120
1052.397;   20.740;  -15.010;  473.960
1052.945;   21.115;  -13.960;  617.760
1053.492;   22.608;  -13.150;  741.840
1054.039;   22.600;   -9.630;  720.180
1054.586;   21.735;  -13.680;  557.240
1055.133;   21.807;  -14.570;  693.140
1055.680;   22.829;  -13.820;  646.620
1056.227;   21.322;  -11.730;  542.780
1056.774;   23.146;  -12.480;  794.980
1057.321;   19.843;  -13.930;  523.260
1057.868;   21.131;  -11.690;  651.320
1058.415;   21.315;   -9.520;  651.980
1058.961;   21.069;  -13.160;  678.940
1059.508;   19.852;  -12.920;  643.820
1060.055;   19.625;  -11.920;  581.780
1060.601;   20.984;  -11.500;  624.300
1061.148;   19.980;  -14.330;  616.820
1061.694;   18.635;  -16.870;  592.580
1062.241;   20.561;  -10.330;  596.320
1062.787;   20.750;  -10.620;  663.140
1063.334;   21.845;  -10.110;  808.560
1063.880;   19.154;  -13.400;  668.360
1064.426;   19.453;  -10.680;  706.820
1064.972;   19.444;   -9.920;  601.340
1065.518;   18.028;  -10.980;  566.640
1066.065;   18.884;  -14.890;  624.460
1066.611;   18.006;  -12.870;  598.800
1067.157;   18.855;  -12.950;  641.860
1067.703;   18.837;  -13.540;  668.480
1068.249;   17.857;  -13.540;  605.220
1068.794;   18.261;  -12.600;  626.880
1069.340;   18.106;  -10.620;  578.960
1069.886;   18.411;  -12.830;  590.700
1070.432;   16.621;  -14.870;  541.720
1070.977;   16.596;  -11.980;  601.080
1071.523;   17.713;   -8.200;  573.060
1072.068;   17.096;  -12.330;  582.000
1072.614;   16.105;  -16.370;  527.760
1073.160;   17.318;  -11.100;  687.040
1073.705;   16.572;  -10.480;  572.520
1074.250;   16.631;  -14.520;  559.900
1074.796;   17.164;  -11.460;  655.160
1075.341;   17.438;  -11.950;  664.100
1075.886;   17.913;  -11.460;  594.240
1076.431;   16.619;  -13.770;  649.880
1076.976;   15.887;  -12.680;  639.220
1077.521;   16.092;  -13.170;  583.080
1078.067;   15.561;  -10.860;  579.400
1078.612;   16.600;  -13.920;  661.620
1079.156;   16.031;  -13.880;  601.540
1079.701;   16.327;  -13.120;  693.260
1080.246;   16.767;   -9.940;  696.300
1080.791;   16.056;  -14.740;  625.020
1081.336;   15.723;  -13.750;  659.320
1081.880;   15.776;  -13.400;  649.680
1082.425;   15.274;  -12.220;  573.480
1082.970;   16.932;  -11.610;  717.040
1083.514;   14.414;  -13.580;  597.000
1084.059;   14.337;  -12.810;  586.720
1084.603;   13.647;  -12.320;  565.840
1085.147;   14.661;  -13.190;  645.220
1085.692;   14.028;  -12.480;  716.800
1086.236;   13.310;  -13.020;  503.140
1086.780;   16.052;   -9.190;  751.440
1087.325;   14.608;  -12.480;  654.620
1087.869;   13.972;  -12.450;  610.700
1088.413;   14.633;  -12.240;  705.040
1088.957;   13.033;   -9.020;  543.400
1089.501;   14.013;  -10.320;  766.640
1090.045;   13.776;  -12.720;  726.480
1090.589;   11.711;  -13.690;  569.920
1091.133;   14.219;  -10.020;  673.340
1091.676;   13.370;  -12.330;  591.940
1092.220;   12.669;  -14.970;  600.920
1092.764;   13.245;  -12.430;  706.960
1093.307;   14.106;   -9.800;  673.780
1093.851;   11.977;  -14.970;  556.540
1094.395;   12.712;  -15.310;  683.140
1094.938;   12.251;  -10.370;  632.520
1095.482;   13.094;  -11.050;  559.800
1096.025;   13.741;  -11.840;  710.880
1096.568;   12.327;  -12.840;  779.280
1097.112;   10.137;  -14.700;  508.180
1097.655;   12.859;   -8.720;  603.000
1098.198;   10.935;  -13.610;  600.180
1098.741;   10.637;  -13.350;  612.860
1099.285;   11.666;  -11.230;  657.300
1099.828;   10.966;  -11.840;  439.400
1100.371;   11.771;  -10.840;  608.160
1100.914;   11.069;  -14.190;  682.660
1101.457;   11.743;  -11.240;  679.900
1101.999;   10.403;  -11.270;  584.680
1102.542;   11.142;  -11.480;  641.440
1103.085;   10.156;  -11.750;  658.500
1103.628;   11.078;  -11.400;  762.060
1104.170;   10.280;  -10.490;  588.280
1104.713;   11.082;  -10.600;  646.700
1105.256;    9.016;  -14.360;  557.440
1105.798;    8.366;  -13.210;  499.980
1106.341;   12.245;  -10.270;  728.900
1106.883;   10.447;  -12.200;  521.340
1107.425;   10.021;  -13.110;  668.180
1107.968;    9.029;  -12.840;  612.380
1108.510;   11.226;   -6.480;  684.960
1109.052;    9.153;  -13.940;  612.620
1109.594;    8.536;  -13.690;  554.440
1110.136;    9.344;  -11.880;  643.220
1110.679;    8.744;   -9.500;  633.080
1111.221;   10.015;  -14.160;  604.460
1111.763;    7.591;  -13.980;  559.220
1112.304;    7.698;  -13.880;  547.140
1112.846;    9.373;  -12.210;  666.240
1113.388;   11.825;  -11.390;  942.180
1113.930;    8.946;  -14.540;  694.200
1114.472;    7.479;  -12.640;  606.540
1115.013;    7.253;  -11.620;  551.280
1115.555;    7.713;  -13.640;  587.100
1116.097;    6.722;  -15.380;  579.480
1116.638;    7.974;  -12.640;  684.600
1117.180;    8.468;   -9.850;  667.740
1117.721;    7.320;  -13.690;  568.580
1118.262;    8.091;  -12.680;  677.960
1118.804;    8.001;  -12.530;  637.340
1119.345;    8.097;  -11.690;  578.400
1119.886;    8.420;  -13.380;  704.040
1120.427;    5.917;  -14.070;  589.020
1120.969;    6.428;  -13.500;  597.920
1121.510;    6.383;  -11.480;  563.060
1122.051;    7.358;  -12.830;  723.580
1122.592;    5.379;  -14.290;  655.420
1123.133;    5.229;  -12.400;  547.940
1123.673;    7.173;  -10.130;  706.480
1124.214;    6.264;  -12.930;  612.460
1124.755;    6.724;  -14.380;  639.460
1125.296;    6.122;  -14.000;  627.320
1125.836;    8.116;  -10.070;  691.500
1126.377;    6.418;  -12.640;  599.660
1126.918;    5.866;  -12.960;  614.980
1127.458;    5.471;  -13.350;  622.220
1127.999;    6.571;  -10.750;  656.980
1128.539;    6.625;  -12.350;  694.240
1129.079;    4.777;  -14.860;  632.720
1129.620;    3.850;  -13.840;  558.100
1130.160;    5.047;  -12.330;  539.480
1130.700;    6.073;  -14.530;  640.840
1131.240;    5.155;  -12.530;  643.700
1131.781;    5.321;  -14.450;  619.680
1132.321;    5.898;   -9.790;  599.120
1132.861;    4.805;  -14.860;  564.200
1133.401;    4.135;  -14.290;  593.940
1133.941;    4.873;  -11.750;  626.280
1134.481;    4.537;   -9.920;  597.580
1135.020;    4.178;  -12.290;  609.160
1135.560;    4.297;  -11.650;  674.940
1136.100;    2.913;  -16.270;  501.160
1136.640;    3.701;  -10.890;  510.480
1137.179;    4.771;  -14.180;  537.960
1137.719;    3.550;  -16.250;  605.400
1138.258;    4.228;  -14.230;  587.360
1138.798;    5.530;   -9.090;  663.780
1139.337;    3.617;  -15.130;  482.840
1139.877;    3.963;  -13.680;  642.360
1140.416;    6.263;  -11.320;  878.060
1140.955;    3.818;  -10.860;  535.380
1141.494;    3.559;  -12.920;  669.280
1142.034;    2.320;  -13.930;  583.520
1142.573;    3.122;  -11.440;  646.280
1143.112;    2.935;  -12.000;  553.480
1143.651;    3.266;  -13.670;  536.480
1144.190;    3.169;  -12.730;  691.640
1144.729;    2.934;  -14.560;  607.420
1145.267;    3.518;  -11.830;  584.900
1145.806;    4.283;  -12.230;  637.040
1146.345;    2.306;  -14.130;  635.020
1146.884;    2.537;  -11.590;  622.500
1147.422;    2.936;  -12.550;  533.060
1147.961;    4.132;  -11.180;  708.460
1148.500;    2.593;  -11.510;  669.720
1149.038;    3.306;  -11.640;  632.500
1149.577;    3.511;  -10.130;  698.640
1150.115;    1.341;  -13.970;  452.280
1150.653;    2.433;  -14.520;  607.340
1151.192;    2.185;  -12.810;  552.920
1151.730;    2.863;   -9.100;  652.560
1152.268;    2.261;  -12.220;  589.520
1152.806;    0.819;  -14.140;  571.180
1153.344;    0.472;  -12.350;  577.640
1153.882;    2.475;   -8.980;  600.060
1154.421;    0.396;  -15.190;  470.620
1154.958;    1.018;  -15.210;  595.240
1155.496;    2.512;  -12.850;  645.280
1156.034;    3.091;   -9.940;  721.880
1156.572;    3.131;  -13.570;  667.060
1157.110;    0.306;  -14.590;  473.940
1157.647;    2.394;  -13.030;  676.960
1158.185;    1.664;  -12.140;  564.320
1158.723;    0.107;  -14.390;  509.200
1159.260;    0.949;  -14.090;  701.700
1159.798;    1.838;  -11.920;  658.160
1160.335;    1.774;  -11.110;  631.820

