
Integration time [ms]:   3.276
Averaging Nr. [scans]: 1000
Smoothing Nr. [pixels]: 0
Data measured with spectrometer [name]: 7414430SP
Wave   ;Sample   ;Dark     ;Reference
[nm]   ;[counts] ;[counts] ;[counts] 

288.544;  158.913;    7.793;  793.890
289.143;  162.968;    7.462;  681.602
289.742;  162.831;    8.602;  828.814
290.341;  149.883;    1.321;  789.841
290.940;  139.599;   -0.709;  730.702
291.538;  141.517;    0.881;  881.108
292.137;  140.915;    0.122;  792.581
292.736;  143.342;   -1.929;  975.101
293.335;  139.188;   -8.229;  735.086
293.934;  140.616;   -5.279;  781.677
294.532;  141.857;   -1.369; 1031.958
295.131;  127.545;   -7.641;  834.394
295.730;  127.449;   -8.420;  809.588
296.328;  124.674;   -5.611;  783.442
296.927;  124.265;   -5.781;  779.652
297.525;  125.414;   -6.361;  781.236
298.124;  117.145;  -11.382;  654.009
298.722;  122.037;   -7.641;  761.933
299.321;  118.826;   -6.811;  708.597
299.919;  114.924;   -6.991;  751.918
300.518;  110.607;  -10.362;  689.338
301.116;  114.037;   -9.581;  691.381
301.715;  114.696;   -4.891;  730.222
302.313;  113.549;   -8.801;  704.943
302.911;  107.276;   -8.522;  733.830
303.509;  112.687;   -6.171;  925.627
304.108;  111.190;   -7.311;  760.383
304.706;  109.734;   -8.321;  801.664
305.304;  104.396;  -10.222;  796.707
305.902;  109.388;   -6.021;  784.484
306.500;  105.027;   -4.971;  728.200
307.098;  103.759;   -7.061;  746.560
307.696;  102.014;   -8.801;  780.432
308.294;  102.608;   -6.411;  731.359
308.892;  103.943;   -2.901;  759.769
309.490;  100.515;   -5.041;  712.161
310.088;   98.285;   -5.002;  788.444
310.686;  102.609;   -2.041;  821.749
311.284;   98.494;   -2.351;  766.040
311.882;   95.702;   -4.422;  731.225
312.480;   92.293;   -4.192;  697.167
313.078;   94.412;   -1.172;  808.331
313.675;   95.445;   -2.601;  691.600
314.273;   89.672;   -1.312;  797.837
314.871;   88.895;   -3.942;  589.829
315.468;   86.348;   -2.802;  652.090
316.066;   90.469;   -0.701;  694.427
316.664;   82.028;   -4.362;  656.351
317.261;   87.093;   -2.872;  910.128
317.859;   81.354;   -2.022;  768.735
318.456;   82.435;   -0.531;  830.096
319.054;   78.598;   -3.912;  787.828
319.651;   77.320;   -4.752;  759.928
320.249;   76.151;   -2.602;  810.188
320.846;   73.552;   -0.821;  714.286
321.443;   71.119;   -4.642;  832.135
322.041;   68.296;   -5.002;  812.315
322.638;   65.447;   -3.982;  701.456
323.235;   67.487;   -3.411;  665.683
323.833;   63.001;   -7.361;  740.354
324.430;   58.626;   -8.611;  615.900
325.027;   60.619;   -4.061;  876.855
325.624;   59.418;   -4.031;  644.532
326.221;   56.710;   -7.481;  689.717
326.818;   56.272;   -5.281;  818.332
327.415;   58.269;   -7.460;  748.828
328.012;   57.516;   -5.510;  690.585
328.609;   55.948;   -7.880;  731.389
329.206;   54.777;   -8.331;  778.621
329.803;   54.985;   -5.121;  737.841
330.400;   57.632;   -4.510;  704.260
330.997;   58.367;   -6.441;  817.147
331.594;   55.868;   -8.831;  788.185
332.191;   62.842;   -7.621;  728.722
332.787;   65.497;   -4.591;  844.463
333.384;   65.247;   -7.412;  763.093
333.981;   64.151;   -8.293;  815.687
334.578;   67.500;   -7.052;  708.378
335.174;   69.556;   -3.102;  731.469
335.771;   69.006;   -5.943;  836.456
336.367;   65.783;   -7.393;  710.631
336.964;   71.731;   -4.063;  793.266
337.561;   68.390;   -3.813;  731.112
338.157;   64.621;   -4.654;  911.916
338.754;   62.792;   -7.934;  796.589
339.350;   61.568;   -4.414;  722.493
339.946;   62.970;   -4.664;  773.135
340.543;   54.469;   -6.375;  846.136
341.139;   48.003;   -9.815;  720.836
341.735;   46.197;   -4.526;  772.593
342.332;   45.558;   -4.895;  691.472
342.928;   45.142;   -4.295;  795.394
343.524;   37.678;   -5.476;  761.684
344.120;   35.104;   -5.856;  738.562
344.716;   38.513;   -2.155;  723.717
345.313;   34.472;   -6.275;  795.342
345.909;   29.817;   -8.815;  627.336
346.505;   30.866;   -5.305;  740.247
347.101;   31.886;   -2.674;  827.864
347.697;   32.059;   -4.344;  785.398
348.293;   25.864;   -9.975;  627.244
348.889;   27.244;   -5.774;  745.914
349.485;   27.055;   -5.004;  688.205
350.081;   27.524;   -4.704;  772.592
350.676;   22.159;   -6.635;  691.606
351.272;   26.379;   -4.504;  809.530
351.868;   26.779;   -3.914;  780.497
352.464;   23.622;   -9.044;  723.932
353.059;   19.771;   -8.314;  646.017
353.655;   23.210;   -7.024;  777.063
354.251;   23.885;   -5.343;  759.845
354.846;   18.444;   -8.604;  740.646
355.442;   16.478;   -6.945;  753.071
356.038;   18.041;   -7.564;  751.708
356.633;   18.444;   -5.814;  728.594
357.229;   16.342;   -7.364;  724.757
357.824;   14.471;   -8.024;  703.600
358.420;   13.511;   -9.384;  679.726
359.015;   13.873;   -5.104;  695.357
359.610;   14.347;   -6.854;  763.920
360.206;    8.779;  -10.185;  603.240
360.801;   11.605;   -7.054;  646.503
361.396;   14.048;   -5.034;  725.975
361.992;    9.354;   -8.284;  668.220
362.587;    6.278;   -8.625;  670.160
363.182;    8.509;   -7.674;  689.631
363.777;    9.925;   -5.164;  738.242
364.372;    9.366;   -8.604;  737.314
364.967;    5.409;   -9.055;  680.744
365.563;    9.504;   -6.114;  815.567
366.158;    6.039;   -5.814;  685.161
366.753;    6.522;   -7.854;  649.263
367.348;    4.923;   -7.804;  746.056
367.942;    5.195;   -7.954;  697.298
368.537;    4.266;   -4.984;  754.245
369.132;    4.143;   -8.564;  703.428
369.727;   -0.540;   -8.855;  638.079
370.322;    1.573;   -6.245;  580.186
370.917;    0.360;   -6.425;  710.646
371.511;    4.339;   -6.294;  861.834
372.106;   -0.321;   -7.685;  776.964
372.701;   -2.796;   -7.335;  585.988
373.296;    2.820;   -4.564;  863.135
373.890;   -2.358;  -10.235;  647.840
374.485;   -5.113;   -7.885;  691.199
375.079;   -0.688;   -7.324;  738.685
375.674;    0.803;   -3.494;  812.970
376.268;   -3.388;   -8.525;  691.759
376.863;   -9.695;  -10.086;  580.327
377.457;   -2.989;   -7.025;  662.490
378.052;   -4.451;   -3.585;  764.884
378.646;   -6.184;   -7.595;  741.167
379.240;   -6.837;   -8.335;  721.176
379.835;   -5.720;   -5.785;  636.978
380.429;   -7.951;   -4.335;  562.557
381.023;   -7.825;   -6.805;  779.205
381.617;  -10.083;   -9.195;  680.106
382.212;   -6.633;   -6.905;  685.303
382.806;   -5.139;   -3.745;  760.690
383.400;  -10.154;   -7.745;  672.281
383.994;  -11.058;   -9.765;  664.870
384.588;   -7.206;   -6.564;  697.701
385.182;   -5.209;   -5.344;  726.624
385.776;   -7.927;   -8.514;  706.875
386.370;  -11.197;   -9.555;  681.968
386.964;  -10.087;   -8.715;  684.155
387.558;   -7.626;   -6.174;  598.360
388.152;  -11.436;   -8.725;  681.959
388.745;   -9.868;   -7.965;  814.707
389.339;   -7.662;   -5.924;  747.642
389.933;   -7.580;   -5.524;  695.370
390.527;   -7.741;   -7.114;  859.029
391.120;  -14.799;  -10.725;  595.318
391.714;  -11.463;   -8.035;  711.633
392.308;   -8.174;   -3.574;  780.253
392.901;  -12.320;   -7.245;  642.460
393.495;  -14.193;   -9.285;  595.414
394.089;  -11.877;   -5.895;  760.452
394.682;  -12.731;   -4.295;  697.188
395.275;  -12.855;   -9.875;  719.927
395.869;  -14.385;   -8.485;  667.314
396.462;  -12.719;   -7.455;  616.609
397.056;   -8.227;   -5.424;  776.621
397.649;  -13.463;   -6.605;  731.575
398.242;  -11.132;   -8.224;  712.645
398.836;  -10.353;   -7.474;  766.408
399.429;  -11.441;   -7.094;  631.041
400.022;  -15.023;   -9.475;  665.902
400.615;  -12.344;   -7.145;  805.609
401.208;  -10.745;   -7.174;  691.451
401.802;  -13.002;   -5.515;  699.329
402.395;  -14.008;   -9.875;  683.502
402.988;  -15.373;   -8.845;  696.627
403.581;  -11.423;   -8.874;  646.878
404.174;   -9.485;   -5.324;  686.568
404.767;  -12.139;   -9.575;  638.583
405.360;  -15.256;  -10.965;  621.445
405.953;   -9.770;   -8.764;  759.034
406.545;   -8.636;   -7.514;  725.342
407.138;  -13.776;  -10.025;  618.350
407.731;  -11.869;  -10.034;  613.303
408.324;   -8.093;   -9.374;  660.554
408.917;   -8.250;   -6.534;  681.864
409.509;  -11.169;   -8.004;  740.396
410.102;  -12.956;   -9.875;  643.948
410.695;   -7.090;   -8.604;  665.758
411.287;   -8.205;   -6.794;  599.821
411.880;   -9.082;   -9.334;  585.421
412.472;  -12.544;  -10.254;  613.092
413.065;   -8.533;   -6.714;  629.408
413.657;   -6.919;   -7.234;  576.678
414.250;   -7.472;  -10.544;  646.681
414.842;   -9.021;   -9.744;  676.353
415.434;   -6.546;   -6.994;  570.463
416.027;   -2.988;   -5.893;  652.196
416.619;   -4.373;   -7.264;  713.400
417.211;   -5.348;  -10.374;  599.352
417.804;   -1.388;   -7.993;  628.499
418.396;   -5.360;   -7.234;  607.643
418.988;   -3.203;   -9.443;  659.238
419.580;   -6.924;  -10.724;  568.276
420.172;   -4.968;  -10.323;  536.196
420.764;   -0.219;   -8.793;  672.482
421.356;   -1.230;  -11.143;  636.898
421.948;   -3.502;   -8.293;  677.661
422.540;    2.190;   -7.893;  680.027
423.132;    2.744;   -7.082;  600.641
423.724;   -1.306;   -8.653;  561.267
424.316;    0.455;  -10.213;  621.345
424.908;    4.287;   -9.762;  591.517
425.500;    4.718;   -5.572;  647.978
426.092;    5.711;   -8.422;  648.268
426.683;    3.970;   -9.283;  684.836
427.275;    6.602;   -7.852;  641.471
427.867;    8.067;   -5.272;  668.948
428.458;    8.502;   -7.682;  732.344
429.050;    7.424;  -10.612;  680.749
429.642;    9.917;   -9.882;  743.124
430.233;   10.521;   -6.962;  569.356
430.825;   10.987;   -6.842;  724.809
431.416;    8.639;   -9.672;  698.241
432.008;   12.147;   -6.552;  651.723
432.599;   12.701;   -6.891;  656.073
433.190;   10.201;  -10.912;  637.670
433.782;    9.299;  -11.172;  590.395
434.373;   17.121;   -6.061;  884.765
434.964;   15.737;   -8.251;  602.920
435.556;   12.940;   -9.722;  634.537
436.147;   15.638;   -9.082;  758.490
436.738;   15.575;   -8.041;  701.099
437.329;   21.512;   -7.341;  721.723
437.920;   14.511;   -8.162;  666.688
438.511;   14.778;  -11.802;  564.526
439.103;   20.720;  -10.191;  623.998
439.694;   23.000;   -7.601;  681.583
440.285;   23.321;   -8.541;  764.432
440.876;   20.931;   -9.751;  845.738
441.466;   20.574;   -9.401;  575.162
442.057;   26.649;   -7.760;  665.814
442.648;   24.469;   -9.971;  746.255
443.239;   22.647;  -11.001;  620.477
443.830;   27.862;   -7.990;  704.958
444.421;   30.626;   -7.910;  655.474
445.011;   26.071;   -8.131;  693.619
445.602;   26.105;   -7.111;  743.126
446.193;   27.985;  -10.920;  488.117
446.783;   32.024;   -6.500;  640.397
447.374;   26.978;   -8.671;  692.759
447.964;   28.763;  -10.781;  713.770
448.555;   36.639;   -9.650;  822.742
449.145;   33.009;   -8.660;  662.853
449.736;   33.998;   -8.990;  803.179
450.326;   33.964;   -9.500;  713.626
450.917;   39.533;   -8.680;  675.324
451.507;   38.467;   -7.520;  600.661
452.097;   39.174;   -8.590;  746.267
452.688;   40.261;  -11.340;  742.160
453.278;   39.642;  -10.100;  566.840
453.868;   44.212;   -6.019;  793.550
454.458;   42.486;   -9.440;  651.141
455.048;   42.238;  -10.560;  711.783
455.639;   43.859;  -11.799;  567.096
456.229;   47.344;   -6.899;  710.694
456.819;   49.738;   -7.389;  751.158
457.409;   49.783;  -11.119;  773.993
457.999;   52.826;   -9.289;  737.505
458.589;   52.719;   -6.139;  686.606
459.179;   52.070;   -8.729;  717.658
459.769;   49.601;   -9.789;  627.099
460.358;   55.719;  -10.259;  797.262
460.948;   55.228;   -7.299;  689.503
461.538;   56.378;  -10.289;  660.677
462.128;   54.167;  -11.269;  664.934
462.717;   60.910;   -9.368;  710.326
463.307;   64.149;   -7.908;  705.846
463.897;   60.143;   -9.599;  656.942
464.486;   59.340;   -9.769;  837.128
465.076;   64.594;   -8.048;  733.776
465.666;   67.896;   -9.358;  652.900
466.255;   65.284;   -7.919;  785.651
466.845;   63.449;  -11.689;  666.749
467.434;   67.176;   -7.818;  725.873
468.023;   69.054;   -7.678;  658.357
468.613;   65.612;  -10.939;  713.946
469.202;   70.384;  -10.118;  646.507
469.791;   75.225;   -9.108;  737.811
470.381;   76.979;   -6.058;  742.813
470.970;   75.898;  -10.428;  711.099
471.559;   75.261;  -10.268;  733.291
472.148;   78.899;   -8.448;  675.737
472.738;   81.885;   -6.917;  765.466
473.327;   80.949;  -11.978;  637.529
473.916;   80.070;  -11.888;  737.446
474.505;   84.276;   -9.437;  751.703
475.094;   87.813;   -6.747;  806.570
475.683;   87.008;   -9.367;  797.699
476.272;   87.460;  -12.637;  730.632
476.861;   90.169;  -10.027;  706.754
477.449;   96.952;   -8.716;  728.487
478.038;   91.730;   -9.577;  692.513
478.627;   92.938;   -9.718;  714.852
479.216;   98.511;   -8.947;  769.441
479.805;  102.082;   -6.256;  783.375
480.393;  101.802;   -7.937; 1008.945
480.982;  101.075;   -7.717;  874.501
481.571;  107.732;   -9.266;  858.333
482.159;  108.269;   -7.636;  705.386
482.748;  107.647;   -9.667;  821.385
483.336;  112.473;  -10.376;  858.209
483.925;  113.558;   -7.147;  774.373
484.513;  120.846;   -7.996;  758.962
485.102;  117.285;  -10.027;  810.965
485.690;  125.977;  -10.446; 1011.050
486.278;  127.552;   -8.446;  979.329
486.867;  128.275;   -6.356;  809.662
487.455;  129.761;   -9.136;  898.229
488.043;  132.159;  -10.646;  748.361
488.631;  141.117;   -7.456; 1005.079
489.220;  144.062;   -6.636;  908.626
489.808;  143.886;  -11.036;  741.415
490.396;  151.716;  -10.246;  914.645
490.984;  158.983;   -8.556;  830.161
491.572;  170.043;   -5.886;  940.315
492.160;  176.085;   -9.486;  919.081
492.748;  189.759;  -10.976;  884.341
493.336;  212.466;   -8.776; 1019.693
493.924;  238.535;   -5.465;  958.077
494.512;  270.581;   -9.986; 1066.638
495.100;  315.393;  -10.636; 1103.280
495.687;  377.421;  -10.885; 1206.373
496.275;  432.416;   -8.126; 1150.796
496.863;  496.352;  -10.586; 1281.171
497.451;  609.078;  -11.926; 1386.805
498.038;  717.998;  -10.885; 1556.729
498.626;  817.444;   -6.315; 1741.407
499.214;  976.417;   -7.326; 2016.609
499.801; 1181.034;  -11.906; 2220.633
500.389; 1412.203;  -10.466; 2312.494
500.976; 1675.661;   -5.236; 2744.849
501.564; 2089.772;   -8.936; 3148.565
502.151; 2571.467;  -13.176; 3515.999
502.738; 3062.848;  -10.646; 3971.274
503.326; 3428.842;   -9.525; 4403.796
503.913; 3728.287;  -10.856; 5161.749
504.500; 4209.678;  -11.586; 5986.420
505.088; 4636.743;  -10.336; 6381.201
505.675; 5069.786;   -6.355; 6925.547
506.262; 5494.955;   -9.046; 7619.060
506.849; 5878.716;  -10.416; 8733.969
507.436; 6290.921;  -10.305; 9790.121
508.023; 6740.192;   -5.496; 9985.472
508.610; 7626.614;   -7.856;10434.618
509.197; 9174.708;  -10.097;11198.435
509.784;10637.221;  -10.886;12391.194
510.371;11613.147;   -9.315;13603.713
510.958;12313.036;   -9.936;14426.586
511.545;12906.989;   -9.326;15243.775
512.132;13864.988;  -10.075;15945.876
512.719;14289.016;   -7.796;16340.369
513.305;15071.852;  -10.606;18011.766
513.892;16297.536;  -11.486;19754.971
514.479;18029.645;   -9.126;20967.805
515.066;19422.137;   -6.026;22299.793
515.652;19908.494;   -8.466;22908.660
516.239;21047.646;  -10.886;23798.875
516.825;23034.703;  -11.496;25567.275
517.412;24585.027;   -5.796;28154.959
517.998;25990.184;  -10.506;28344.111
518.585;26025.195;  -10.076;27134.219
519.171;25054.893;   -8.315;27268.576
519.758;24951.988;   -8.596;28964.129
520.344;25627.623;   -8.466;30664.494
520.930;27966.828;  -11.006;32550.605
521.516;28220.541;  -10.495;35422.895
522.103;27704.750;   -5.526;38280.004
522.689;28165.873;   -8.746;37835.117
523.275;29580.393;  -11.376;37288.613
523.861;30604.756;  -11.156;37281.395
524.447;31471.877;   -8.135;37846.949
525.033;30657.645;   -7.896;38321.949
525.619;31628.672;  -12.476;38579.285
526.205;35081.945;   -9.516;40622.875
526.791;36669.793;   -6.926;42258.836
527.377;39178.230;   -8.346;42966.902
527.963;41049.184;   -8.717;42018.949
528.549;39460.320;  -11.016;42476.828
529.135;39567.387;   -8.536;41854.852
529.721;38838.363;   -9.666;41237.711
530.306;36888.949;  -10.066;41259.445
530.892;37236.262;  -11.356;41506.047
531.478;37031.047;   -6.596;43559.613
532.063;37505.211;   -8.836;47695.563
532.649;40725.398;  -10.047;50808.324
533.235;43059.488;   -9.746;51787.500
533.820;42192.879;   -6.566;52145.035
534.406;40889.680;  -10.817;51133.488
534.991;43600.586;   -9.416;49996.805
535.576;44718.000;   -9.036;48882.852
536.162;45299.063;   -6.156;46942.285
536.747;45702.727;  -11.607;45711.746
537.333;45272.109;  -11.787;48510.180
537.918;44370.730;  -12.437;50439.891
538.503;44673.574;   -7.196;50863.711
539.088;43317.566;  -10.556;50906.922
539.673;42471.969;   -8.767;52621.965
540.259;43047.852;  -10.026;52368.094
540.844;43572.574;   -7.416;50879.109
541.429;39847.195;   -9.467;52077.777
542.014;37444.816;   -9.527;52716.695
542.599;38566.949;   -9.946;52363.281
543.184;41686.141;   -7.927;53187.137
543.769;43370.707;   -9.297;54697.605
544.354;43245.430;  -10.127;53913.914
544.938;43123.020;   -9.267;49680.164
545.523;46238.418;   -6.506;47386.277
546.108;50969.660;   -9.787;49151.949
546.693;51402.875;  -11.587;51384.637
547.278;51647.438;  -10.986;51853.254
547.862;48148.711;   -8.206;51173.750
548.447;44644.543;  -10.067;51691.395
549.031;46335.965;   -9.637;52456.703
549.616;48152.973;   -9.926;52714.516
550.201;46043.605;   -6.347;52414.598
550.785;43587.188;   -7.917;52355.059
551.370;42552.703;  -10.867;54589.453
551.954;44200.109;   -9.047;58267.348
552.538;46738.363;   -7.827;59062.176
553.123;46382.836;  -10.287;58115.285
553.707;42311.414;  -12.178;56556.285
554.291;43830.102;   -8.717;56201.668
554.876;46842.320;   -7.457;55335.762
555.460;48514.969;  -10.387;54155.703
556.044;48929.648;   -9.618;53721.484
556.628;48813.000;  -11.567;53731.016
557.212;47215.688;   -8.097;54312.531
557.796;47331.234;  -11.077;53797.773
558.380;45507.461;  -11.108;56145.984
558.964;43711.273;   -9.057;57277.930
559.548;43674.789;   -6.977;56459.641
560.132;43353.156;  -11.457;54434.543
560.716;41024.750;  -11.378;54800.617
561.300;41758.594;   -9.577;57606.945
561.884;44437.152;   -7.127;58972.445
562.467;45806.316;   -7.118;57327.570
563.051;46183.883;  -13.358;54962.434
563.635;43859.625;  -10.178;52594.473
564.219;43258.934;   -7.837;50610.410
564.802;42432.230;  -11.398;49551.180
565.386;43776.352;  -12.788;48370.953
565.969;44066.520;   -9.077;48178.871
566.553;43605.121;   -6.207;49957.305
567.136;41677.156;   -8.568;50369.594
567.720;40878.863;  -11.868;49492.004
568.303;41412.266;   -8.268;50616.352
568.887;40159.617;   -8.698;50727.148
569.470;39310.598;   -6.808;51698.379
570.053;37708.625;  -13.188;52122.078
570.637;35897.789;  -12.037;52536.438
571.220;35400.500;   -8.577;51186.098
571.803;36768.680;   -8.498;51032.762
572.386;38823.988;  -10.498;49609.887
572.969;40134.969;   -9.388;48285.926
573.552;36546.473;   -8.338;47624.285
574.135;35329.285;   -8.518;45498.641
574.718;33195.145;  -13.628;41970.434
575.301;31994.260;  -10.893;41447.137
575.884;30793.375;   -8.158;40923.836
576.467;35007.621;  -10.328;45267.723
577.050;34065.207;  -13.058;48175.543
577.633;32488.982;   -9.458;47729.328
578.216;33237.453;   -8.928;47579.793
578.799;34458.938;   -9.358;47820.996
579.381;34605.984;  -11.388;48115.551
579.964;32325.369;  -11.718;47333.766
580.547;32764.658;   -8.588;46668.969
581.129;34427.078;   -8.859;44466.141
581.712;33760.664;  -10.729;44164.922
582.294;35246.992;  -11.118;46477.855
582.877;33457.012;   -5.218;48244.254
583.459;33237.688;   -8.679;47437.895
584.042;34636.207;  -10.709;46943.219
584.624;37603.645;  -11.669;46792.227
585.206;37199.340;   -8.218;46557.250
585.789;34879.387;  -10.569;45793.773
586.371;34495.406;  -11.859;43836.391
586.953;33490.156;  -10.719;42972.492
587.536;34894.504;   -7.198;42487.211
588.118;36674.844;   -8.720;42086.414
588.700;35951.426;  -10.439;43389.930
589.282;35270.547;   -9.198;43646.039
589.864;34467.559;   -9.199;43438.109
590.446;32479.648;  -11.319;43151.926
591.028;31524.680;  -11.159;42781.867
591.610;31029.652;  -11.779;42839.098
592.192;28204.615;   -7.668;42820.402
592.774;29198.123;  -11.949;40724.277
593.356;30666.652;  -12.129;39874.789
593.937;29986.223;  -10.669;39980.648
594.519;31005.221;   -6.509;42069.633
595.101;32956.813;  -10.849;42976.031
595.683;32000.115;  -11.679;44084.441
596.264;30593.959;   -9.049;43478.797
596.846;31880.777;   -8.849;43803.672
597.427;32655.797;   -9.570;42986.934
598.009;33074.320;  -12.620;42832.219
598.591;32639.496;  -10.039;42580.086
599.172;32019.230;  -10.369;43061.805
599.753;31066.104;   -9.140;41691.469
600.335;30887.500;  -11.430;40692.520
600.916;31409.422;   -9.939;39982.422
601.498;30673.242;   -8.479;40318.617
602.079;29486.176;  -10.920;40670.609
602.660;30932.514;  -11.480;41450.898
603.241;31654.910;  -11.699;41137.738
603.823;31761.512;   -9.579;38868.797
604.404;31944.930;  -10.620;38182.785
604.985;30826.459;  -10.450;38078.047
605.566;29966.773;   -9.129;38056.633
606.147;29699.381;   -7.510;37020.418
606.728;31144.922;  -10.660;37883.359
607.309;32166.857;  -11.740;38748.273
607.890;31252.699;   -9.759;38850.230
608.471;29728.248;   -8.250;37457.918
609.051;31135.482;   -9.240;36066.457
609.632;29569.104;  -12.120;35991.074
610.213;27467.434;   -9.110;37402.641
610.794;28788.111;   -8.030;38383.363
611.374;31783.328;   -8.110;40562.387
611.955;32124.867;  -13.560;38533.727
612.536;29575.777;  -11.400;36951.789
613.116;28762.492;   -8.070;37197.891
613.697;30369.709;  -10.830;38411.125
614.277;30859.045;  -11.641;38673.938
614.858;30112.982;  -13.310;37075.863
615.438;28767.316;   -7.460;35092.906
616.019;27826.426;   -7.601;33666.301
616.599;28343.430;  -12.020;34189.023
617.179;29859.189;  -11.780;36952.047
617.760;32272.502;   -8.570;39582.574
618.340;32515.113;  -11.471;38943.977
618.920;30368.721;  -11.170;37594.156
619.500;31602.490;  -11.071;37866.938
620.080;32306.904;   -7.750;37869.043
620.660;31399.115;  -12.711;36868.617
621.241;30388.113;  -10.211;36352.309
621.821;29300.588;  -10.961;35459.520
622.401;28307.168;   -7.720;35207.414
622.980;29523.350;   -8.981;35980.422
623.560;30016.857;   -9.331;37351.328
624.140;28682.494;   -9.850;34388.582
624.720;26159.602;   -7.451;32368.764
625.300;24391.309;   -9.070;32638.629
625.880;27768.719;  -12.601;34599.035
626.459;30481.240;  -11.751;36831.738
627.039;31578.648;   -9.281;38299.098
627.619;33298.258;   -8.801;38289.574
628.198;32741.729;  -12.071;37220.695
628.778;30669.744;   -9.461;37632.563
629.357;31134.586;   -8.491;38003.012
629.937;31122.377;   -9.721;38402.039
630.516;31306.701;   -9.951;37868.801
631.096;31412.600;  -11.731;35760.410
631.675;33037.906;   -8.572;35225.219
632.254;32970.809;  -11.282;35130.289
632.834;32463.141;  -13.322;35794.570
633.413;32592.455;  -10.301;35788.922
633.992;32059.871;   -8.582;34532.863
634.571;32887.480;   -8.352;33590.113
635.151;32429.047;  -11.912;34943.863
635.730;31350.531;  -10.511;35352.523
636.309;32938.801;   -7.731;35366.605
636.888;31827.820;   -9.952;36165.637
637.467;31041.623;  -11.672;37515.902
638.046;31079.566;   -8.901;39288.695
638.625;31742.506;   -7.912;38279.699
639.204;32061.428;  -10.022;37741.598
639.782;30758.301;  -12.252;38364.551
640.361;29161.572;  -10.041;36740.621
640.940;28095.223;  -11.161;34950.082
641.519;29511.482;   -9.701;34137.398
642.097;31835.367;  -11.271;35654.258
642.676;32706.572;   -8.651;35637.957
643.255;34109.113;   -8.711;36567.074
643.833;31920.314;   -9.581;37809.434
644.412;28978.551;  -13.711;37337.293
644.990;29771.715;  -11.811;37018.531
645.569;32346.113;   -9.411;36518.469
646.147;31888.186;  -10.291;36186.430
646.726;30559.473;  -12.401;36267.688
647.304;30248.818;  -10.411;36647.625
647.882;30362.068;   -9.651;39286.742
648.461;31750.297;   -9.631;39157.703
649.039;34847.910;  -11.881;35412.883
649.617;35693.480;   -9.661;34744.918
650.195;33489.160;   -9.301;35403.098
650.773;32033.408;  -10.511;35053.797
651.352;31086.613;  -11.521;33756.816
651.930;28676.203;  -12.211;31868.773
652.508;25094.102;   -9.171;33121.551
653.086;25791.686;   -9.371;33564.793
653.663;30819.807;  -13.161;34054.668
654.241;33593.980;  -13.031;35693.309
654.819;35135.832;   -9.371;36422.906
655.397;35170.949;  -10.511;38213.484
655.975;32913.891;  -10.371;39507.625
656.553;31086.201;  -10.051;39498.223
657.130;30242.330;  -10.061;40395.480
657.708;28695.314;   -9.561;39242.020
658.286;25394.963;  -11.511;38920.020
658.863;26320.180;  -10.261;40202.898
659.441;30567.697;   -7.531;39677.938
660.018;32525.447;   -9.501;40413.355
660.596;31494.869;  -13.301;39931.414
661.173;29880.320;  -11.211;39604.531
661.750;31134.895;   -9.951;39700.070
662.328;31263.084;   -9.390;39292.809
662.905;30172.922;  -11.330;38235.648
663.482;27326.510;   -9.050;36212.305
664.060;24504.514;   -8.240;35944.945
664.637;25579.574;  -10.050;35170.785
665.214;28790.941;  -11.760;34197.523
665.791;30260.781;  -10.530;34549.520
666.368;29527.063;   -9.690;35118.578
666.945;30223.270;   -9.320;36019.418
667.522;30118.867;  -11.860;36048.438
668.099;31547.295;  -10.770;36243.914
668.676;32375.023;   -6.260;35958.875
669.253;34287.914;   -7.000;37384.730
669.830;35551.008;  -10.190;36779.629
670.407;32509.088;   -9.550;35231.289
670.984;32732.621;   -9.260;35544.270
671.560;29912.666;   -9.280;35466.867
672.137;24693.025;  -11.810;34280.863
672.714;25940.775;  -11.490;34632.863
673.290;30873.240;   -7.740;35135.422
673.867;31104.074;  -10.660;36114.480
674.443;31028.072;  -12.230;36152.859
675.020;30729.145;  -10.450;35327.238
675.596;30739.680;   -9.260;35795.176
676.173;30543.078;  -10.780;35430.355
676.749;29663.477;  -13.690;33549.516
677.326;29145.961;  -11.980;32210.012
677.902;28226.820;   -8.630;32068.871
678.478;29222.934;  -10.730;32583.891
679.054;29871.309;  -10.520;32088.928
679.631;29847.535;  -11.920;30978.848
680.207;29834.711;   -7.490;33160.887
680.783;31593.916;   -9.860;35570.363
681.359;32744.037;  -13.380;36125.184
681.935;33175.824;  -12.480;35240.922
682.511;32069.688;   -7.900;34429.961
683.087;31273.299;   -7.710;34463.680
683.663;30491.021;  -11.480;34648.898
684.239;29201.232;  -14.090;34546.457
684.815;28421.252;   -7.560;35586.375
685.390;28775.791;   -9.910;35821.895
685.966;30069.625;  -11.159;35085.871
686.542;31159.012;  -11.169;34198.230
687.118;32518.756;   -5.959;32847.707
687.693;31936.709;  -10.329;32794.027
688.269;31924.385;  -12.059;33072.367
688.844;32507.051;  -10.909;33141.664
689.420;30899.537;   -8.019;33965.742
689.995;29749.768;   -8.399;34655.523
690.571;30783.318;  -10.949;33576.742
691.146;30180.348;   -9.619;32657.219
691.722;28529.553;   -8.999;32526.979
692.297;27243.295;  -11.589;33014.617
692.872;27859.428;  -11.739;34012.254
693.448;31033.670;  -11.059;34237.434
694.023;31305.771;  -10.139;34142.672
694.598;28040.773;   -9.029;34132.031
695.173;29188.533;  -13.319;34205.250
695.748;30475.242;  -10.169;32882.488
696.323;28694.443;   -8.339;32864.906
696.898;27545.756;   -8.169;33170.004
697.473;27877.412;  -12.309;32432.984
698.048;28042.217;  -10.989;31649.303
698.623;27167.580;   -9.329;30778.141
699.198;27730.813;   -9.849;31140.119
699.773;28461.008;  -12.329;31764.299
700.348;30163.146;  -10.389;31780.816
700.922;30223.217;   -9.269;32046.375
701.497;30998.160;   -9.329;32603.574
702.072;32217.936;  -10.789;34799.871
702.646;31206.609;  -10.839;35793.172
703.221;31147.979;   -9.099;35201.590
703.795;32938.992;  -10.939;34764.527
704.370;30492.049;  -12.859;34307.367
704.944;28697.434;  -11.559;33509.887
705.519;29344.244;   -7.939;31388.584
706.093;31068.875;  -10.499;31340.104
706.668;32942.500;  -11.289;32630.281
707.242;32225.756;  -11.509;32728.779
707.816;29741.277;   -9.639;32947.238
708.390;29045.178;  -11.429;33277.855
708.965;29202.338;  -11.869;33834.336
709.539;31134.639;  -11.689;33709.273
710.113;31148.047;  -10.478;33044.313
710.687;30203.506;  -10.228;31953.992
711.261;29469.414;  -13.698;30505.949
711.835;29811.547;  -13.378;30262.369
712.409;29022.682;   -9.698;31254.447
712.983;27679.281;  -11.898;32754.986
713.557;29746.633;  -15.138;34018.824
714.131;28406.955;  -14.098;34579.625
714.704;27955.393;   -9.958;33890.262
715.278;29499.834;  -10.028;33531.102
715.852;28061.148;  -11.148;33601.660
716.425;27125.395;   -9.068;33515.117
716.999;26213.398;  -10.038;33185.555
717.573;25929.416;   -9.798;33905.996
718.146;25493.307;  -12.378;35199.293
718.720;25531.295;  -11.918;35060.551
719.293;26044.773;   -8.088;34973.230
719.867;28489.381;  -10.888;36394.449
720.440;31114.160;  -11.938;36663.008
721.013;31843.992;  -12.818;35102.426
721.587;29675.053;  -10.298;33985.266
722.160;27907.086;  -10.048;33524.965
722.733;26830.541;  -12.108;32987.043
723.306;26719.652;  -10.818;33066.301
723.880;28271.523;   -8.908;33399.500
724.453;27259.098;   -9.878;33468.297
725.026;27893.311;  -11.188;33816.637
725.599;31384.434;  -11.678;32797.996
726.172;31025.570;   -9.618;33187.434
726.745;28030.633;   -8.258;35136.613
727.318;27091.729;  -12.978;35751.730
727.891;26859.084;  -12.148;35890.430
728.463;26710.408;   -8.968;34822.090
729.036;26076.396;  -10.188;32895.086
729.609;25976.137;  -11.788;31823.225
730.182;24344.941;  -11.788;31445.283
730.754;22833.088;  -10.268;32373.223
731.327;22692.523;   -9.998;33676.820
731.900;23813.463;  -12.228;33417.000
732.472;24361.791;  -13.848;31978.498
733.045;23689.133;   -8.698;30368.777
733.617;22586.258;  -10.607;30574.215
734.190;24486.670;  -11.507;31280.975
734.762;25942.518;  -13.647;31674.412
735.334;26099.990;   -9.767;31247.291
735.907;25945.143;   -9.897;29876.211
736.479;25802.047;  -11.637;29808.488
737.051;27414.471;   -9.567;30233.547
737.623;27637.229;   -8.187;31469.086
738.195;26474.447;  -11.187;31784.225
738.768;25085.211;  -12.337;32120.523
739.340;23138.191;  -12.227;32094.342
739.912;22017.633;  -11.057;31312.680
740.484;21559.016;  -10.207;31946.238
741.056;21157.990;  -10.047;32984.059
741.628;22303.861;  -13.627;33897.715
742.199;24002.346;   -7.177;33213.016
742.771;26678.617;  -10.797;31369.113
743.343;27962.590;  -11.997;31865.473
743.915;27560.494;  -12.867;32388.631
744.487;24699.402;   -7.617;31079.568
745.058;21594.291;   -9.557;30570.107
745.630;22074.803;   -9.877;29970.127
746.201;23404.068;  -14.177;29186.766
746.773;23840.863;   -9.237;28805.723
747.344;22772.012;   -9.847;29591.223
747.916;21258.297;  -11.657;31412.201
748.487;21662.066;  -10.587;32194.898
749.059;23067.898;   -8.707;32533.719
749.630;23718.428;  -10.537;32158.518
750.201;23283.074;  -11.687;30855.395
750.773;22011.203;  -11.647;28622.555
751.344;21262.475;   -7.147;28405.732
751.915;22793.758;   -9.757;28461.551
752.486;24169.160;  -12.427;27842.850
753.057;23409.387;  -12.227;27845.008
753.628;23270.566;  -10.417;27728.107
754.199;22444.422;  -11.767;27381.086
754.770;22529.838;  -11.187;25882.203
755.341;22134.760;  -10.507;25886.184
755.912;20569.773;   -9.387;26050.861
756.483;18895.158;  -10.647;26798.779
757.054;19285.127;  -11.837;27048.238
757.625;19422.727;  -12.716;26294.838
758.195;19463.811;   -9.666;26142.076
758.766;19797.832;   -8.656;26392.234
759.337;19136.668;  -12.856;26334.594
759.907;19048.410;  -13.366;27579.652
760.478;18999.531;   -8.576;28352.770
761.048;19844.297;  -10.526;27325.088
761.619;20138.273;  -11.116;26460.428
762.189;18696.594;  -12.136;26029.826
762.760;18161.135;   -9.456;26430.145
763.330;18529.746;   -7.136;26670.902
763.900;18869.111;  -11.786;26603.021
764.471;18280.303;  -11.546;25542.740
765.041;17350.791;   -8.096;24358.459
765.611;16762.090;   -8.876;23991.297
766.181;16662.654;  -12.196;24470.236
766.751;16245.865;  -11.636;24845.975
767.321;16803.348;  -10.156;24533.633
767.891;16666.227;  -11.766;24916.492
768.461;17012.633;  -14.936;24776.771
769.031;18203.248;  -12.356;24757.988
769.601;18740.799;   -7.526;24181.088
770.171;18251.717;  -10.766;23670.387
770.741;17088.039;  -13.176;22960.045
771.311;16647.813;  -10.616;22917.523
771.880;16846.877;   -9.576;23562.941
772.450;16539.057;  -10.336;24216.500
773.020;16562.219;  -13.516;24140.398
773.589;17402.787;  -13.466;24414.857
774.159;17038.516;   -8.686;23858.717
774.729;15944.911;   -9.476;22942.135
775.298;14312.524;  -13.666;22324.033
775.867;13831.164;  -11.716;21140.313
776.437;14142.810;   -9.906;20838.092
777.006;13418.163;  -12.166;20599.510
777.576;12745.091;  -12.356;20508.809
778.145;12805.100;  -11.646;20732.947
778.714;13119.187;   -8.226;21062.465
779.283;13880.648;   -9.556;20949.664
779.853;14569.980;  -14.116;20508.623
780.422;14050.272;  -11.506;20649.082
780.991;13545.501;   -9.556;21527.520
781.560;13257.248;   -9.095;22632.658
782.129;13010.411;  -12.135;23048.277
782.698;13048.862;  -10.865;23438.555
783.267;12857.707;   -9.335;23267.734
783.836;12935.991;  -11.045;22415.133
784.404;13649.862;  -13.865;20443.152
784.973;13110.617;  -13.095;19699.150
785.542;11839.843;  -11.575;19763.828
786.111;11216.493;   -9.705;20341.408
786.679;11826.710;  -12.105;20207.967
787.248;12044.889;  -12.455;19516.465
787.817;11370.245;  -11.535;18900.363
788.385;11444.101;   -9.765;17879.121
788.954;11819.637;  -14.005;17658.301
789.522;11503.019;  -11.955;17788.879
790.090;11654.870;  -10.135;18118.277
790.659;12648.802;  -10.975;18338.736
791.227;12729.265;  -13.375;18508.615
791.795;12096.513;  -12.375;17898.254
792.364;11557.146;  -10.725;17295.133
792.932;11528.997;   -9.715;16822.051
793.500;11705.947;  -12.675;17040.148
794.068;11445.867;  -13.495;17179.787
794.636;10189.500;  -10.885;16664.246
795.204; 9031.947;  -11.045;16524.545
795.772; 9691.902;  -13.175;17274.564
796.340;11022.708;  -12.445;17891.002
796.908;10745.880;   -9.735;17648.561
797.476;10833.640;   -9.815;17064.080
798.044;11535.154;  -13.985;16672.777
798.612;11432.987;  -13.115;17023.996
799.180;10233.348;  -10.185;16561.615
799.747; 9075.204;   -9.055;15962.773
800.315; 8327.983;  -12.385;15296.992
800.883; 8649.760;  -15.035;14801.771
801.450; 9213.477;  -10.365;14534.430
802.018; 9484.437;   -9.855;14173.248
802.585; 9782.844;  -11.905;14029.547
803.153; 9370.660;  -11.585;13836.846
803.720; 8574.995;   -9.095;13567.324
804.287; 8640.887;   -9.135;13360.622
804.855; 9208.635;  -11.604;13681.981
805.422; 9324.000;  -11.794;13536.560
805.989; 8964.345;  -10.734;13355.958
806.556; 8439.553;  -10.444;13747.896
807.124; 8292.540;  -12.764;13987.376
807.691; 8885.160;  -12.964;14038.674
808.258; 9163.950;  -11.134;14120.152
808.825; 9206.840;   -9.854;13860.111
809.392; 8785.462;  -10.504;13268.790
809.959; 8263.941;  -13.054;12680.389
810.526; 8041.158;   -8.294;12427.308
811.093; 7902.195;   -8.394;12030.105
811.659; 7387.211;  -12.304;11653.664
812.226; 7146.213;  -13.944;11637.183
812.793; 7601.552;  -10.484;11611.521
813.360; 7766.489;  -10.144;11885.181
813.926; 7176.177;  -11.684;12770.539
814.493; 6546.094;  -13.644;12677.638
815.060; 6365.192;   -9.724;11974.336
815.626; 6622.235;   -9.854;11594.715
816.193; 6670.604;  -13.254;11579.474
816.759; 6644.438;  -13.204;11666.972
817.325; 6551.917;   -9.434;11325.530
817.892; 6310.517;  -10.134;11105.369
818.458; 6225.665;  -13.474;10843.928
819.024; 6035.445;  -11.854;10714.406
819.591; 6164.965;  -10.244;10469.165
820.157; 6341.328;  -10.704;10235.523
820.723; 6681.405;  -12.324;10847.563
821.289; 7171.901;   -9.444;11040.980
821.855; 7249.185;   -8.374;10357.100
822.421; 6833.739;  -10.234; 9978.918
822.987; 6529.839;  -13.294; 9754.177
823.553; 6484.430;  -10.884;10065.755
824.119; 6148.362;   -8.884;10036.294
824.685; 5967.170;   -6.784;10029.192
825.251; 5891.775;  -12.004;10199.230
825.816; 6094.118;  -11.474; 9820.189
826.382; 5978.403;   -9.174; 9297.248
826.948; 5622.357;   -9.214; 9381.347
827.513; 5321.265;  -10.774; 9450.726
828.079; 5238.253;  -11.924; 9472.444
828.645; 5235.573;  -10.543; 9292.643
829.210; 5252.988;  -10.533; 9065.341
829.776; 5260.821;  -10.753; 9132.620
830.341; 5284.661;  -10.173; 9092.878
830.906; 5477.867;  -10.743; 9078.557
831.472; 5476.429;  -11.113; 8534.535
832.037; 4993.056;  -10.603; 8677.874
832.602; 4878.980;  -13.323; 8628.692
833.167; 5265.702;  -10.823; 8879.031
833.733; 5262.679;  -10.113; 9189.790
834.298; 5049.508;  -13.583; 9052.608
834.863; 4920.322;  -12.703; 8895.087
835.428; 4739.819;  -10.523; 8824.266
835.993; 4571.273;   -6.963; 8845.385
836.558; 4579.205;  -10.763; 8888.563
837.123; 4728.812;   -9.903; 8966.582
837.688; 4669.681;   -9.913; 8617.860
838.253; 4565.678;  -10.283; 8590.699
838.817; 4717.028;  -12.963; 8443.797
839.382; 4910.782;  -14.243; 8799.356
839.947; 4738.005;  -10.733; 8810.595
840.511; 4715.545;   -9.383; 8796.394
841.076; 4793.333;  -12.563; 8347.231
841.641; 4608.691;  -12.953; 8224.330
842.205; 4267.559;   -7.043; 8223.349
842.770; 4195.337;   -8.163; 8622.107
843.334; 4281.893;  -12.503; 8410.386
843.898; 4318.625;  -11.693; 8337.465
844.463; 4228.690;  -10.203; 8506.283
845.027; 4134.671;   -9.533; 8280.962
845.591; 4238.491;  -13.443; 8231.141
846.156; 4175.609;  -13.143; 7969.179
846.720; 3884.264;   -9.433; 7768.278
847.284; 3493.992;  -11.033; 7630.957
847.848; 3336.801;  -10.403; 7472.395
848.412; 3422.711;  -11.553; 7437.394
848.976; 3633.188;   -8.393; 7674.592
849.540; 3705.240;   -8.713; 7836.011
850.104; 3668.308;  -12.463; 7913.669
850.668; 3743.393;  -12.973; 7694.508
851.232; 3753.457;  -10.793; 7756.887
851.796; 3681.359;  -10.662; 7926.545
852.359; 3722.961;  -13.082; 7827.844
852.923; 3497.096;  -12.192; 7641.163
853.487; 3368.766;  -11.912; 7342.501
854.050; 3530.939;  -10.892; 7042.820
854.614; 3504.293;  -13.992; 7151.338
855.177; 3352.607;  -11.732; 7105.077
855.741; 3276.776;   -8.962; 6989.675
856.304; 3206.063;   -9.442; 6596.634
856.868; 2992.560;  -14.192; 6356.272
857.431; 2801.568;  -12.702; 6468.571
857.995; 2887.531;   -9.942; 6373.210
858.558; 2945.241;   -9.112; 6324.448
859.121; 2689.299;  -12.932; 6408.327
859.684; 2520.200;  -13.442; 6347.886
860.247; 2866.872;  -10.632; 6321.264
860.810; 3263.473;  -11.272; 6301.903
861.374; 3313.485;   -9.832; 6607.881
861.937; 3284.271;  -11.762; 6408.200
862.500; 3197.331;   -9.722; 6572.639
863.062; 2869.412;  -10.512; 6387.297
863.625; 2666.548;  -11.232; 6190.836
864.188; 2622.481;  -14.112; 5807.254
864.751; 2612.265;  -11.302; 5682.413
865.314; 2767.988;  -10.112; 5547.492
865.876; 2919.073;  -12.182; 5500.150
866.439; 2931.541;  -10.722; 5415.909
867.002; 2809.988;   -9.252; 5501.567
867.564; 2681.823;   -9.572; 5413.946
868.127; 2528.152;  -13.142; 5160.325
868.689; 2220.131;  -12.902; 5133.183
869.252; 2030.716;   -9.732; 5252.382
869.814; 2046.734;   -9.432; 5297.141
870.377; 2209.379;  -11.552; 5390.919
870.939; 2235.346;   -9.052; 5599.898
871.501; 2140.819;  -10.982; 5248.336
872.063; 2149.806;  -12.292; 4854.235
872.626; 2114.280;  -14.912; 4817.074
873.188; 2101.330;  -13.112; 4987.732
873.750; 2088.620;  -13.442; 4868.651
874.312; 2204.737;   -9.402; 4779.330
874.874; 2501.878;  -11.062; 4866.348
875.436; 2531.314;  -13.931; 4718.887
875.998; 2120.057;   -9.561; 4660.005
876.560; 1654.586;  -11.321; 4462.964
877.122; 1303.146;  -12.221; 4145.042
877.683; 1031.171;  -12.191; 4056.481
878.245;  997.258;  -12.101; 3950.740
878.807; 1132.501;   -8.971; 4058.958
879.369; 1249.549;  -12.071; 3954.677
879.930; 1285.376;  -14.621; 3941.495
880.492; 1252.800;  -10.311; 4067.014
881.053; 1197.350;  -10.901; 3859.633
881.615; 1211.757;  -14.411; 3776.071
882.176; 1258.328;  -13.761; 3734.750
882.738; 1311.813;   -9.181; 3678.489
883.299; 1310.528;  -11.791; 3405.407
883.860; 1248.469;  -13.121; 3351.106
884.422; 1157.344;  -11.211; 3394.044
884.983; 1099.307;  -10.091; 3166.443
885.544; 1087.896;   -8.461; 3189.802
886.105; 1044.907;  -12.361; 3160.360
886.666;  982.522;  -14.141; 3093.059
887.227;  960.884;  -11.361; 2941.957
887.788;  982.187;  -11.401; 2974.836
888.349;  951.512;  -13.791; 2721.214
888.910;  864.510;  -13.191; 2696.493
889.471;  767.261;   -9.881; 2560.172
890.032;  698.861;   -9.881; 2558.190
890.593;  693.398;  -10.371; 2567.669
891.153;  696.446;  -13.301; 2460.307
891.714;  636.607;  -11.431; 2372.046
892.275;  590.736;  -11.291; 2309.505
892.835;  590.024;  -11.471; 2382.543
893.396;  584.117;  -11.541; 2295.502
893.956;  565.629;  -11.181; 2162.420
894.517;  536.529;  -11.741; 2125.439
895.077;  485.804;  -11.671; 2086.978
895.638;  440.007;  -11.311; 2126.316
896.198;  423.808;   -9.831; 1838.275
896.758;  423.398;   -8.421; 1892.813
897.319;  413.667;  -12.351; 1792.232
897.879;  395.930;  -13.511; 1762.751
898.439;  373.726;  -12.001; 1661.149
898.999;  353.129;  -10.180; 1781.468
899.559;  336.691;  -12.030; 1703.347
900.119;  330.943;  -15.710; 1537.525
900.679;  318.202;   -8.900; 1638.384
901.239;  291.341;   -8.340; 1527.902
901.799;  273.229;  -13.910; 1456.441
902.359;  263.167;  -13.460; 1357.140
902.919;  258.308;  -11.490; 1331.118
903.479;  257.328;  -12.110; 1317.257
904.038;  248.086;  -11.720; 1262.595
904.598;  232.242;  -13.610; 1152.034
905.158;  220.767;  -11.040; 1240.893
905.717;  214.588;  -10.900; 1233.691
906.277;  209.869;  -15.080; 1217.330
906.836;  206.170;  -13.380; 1222.408
907.396;  204.481;  -10.780; 1193.047
907.955;  197.938;   -8.500; 1182.526
908.515;  189.826;  -12.760; 1099.364
909.074;  184.756;  -11.900; 1092.863
909.633;  183.638;   -8.950; 1069.121
910.192;  181.025;   -8.770; 1196.460
910.752;  175.585;  -12.390; 1029.960
911.311;  171.316;  -13.680; 1009.780
911.870;  167.681;  -12.370;  971.460
912.429;  164.823;  -10.900; 1094.080
912.988;  161.946;  -11.690; 1081.060
913.547;  158.548;  -13.240;  940.380
914.106;  157.502;  -11.990;  999.420
914.665;  158.117;   -9.990;  984.020
915.224;  156.012;  -12.880; 1035.760
915.782;  154.690;  -12.350;  922.560
916.341;  153.131;   -9.110; 1049.840
916.900;  149.776;   -9.270;  925.260
917.458;  144.647;  -13.240;  884.220
918.017;  142.411;  -13.550;  942.600
918.576;  141.970;  -12.320;  904.440
919.134;  142.583;  -11.490;  837.980
919.693;  141.971;  -13.670;  893.060
920.251;  140.983;  -15.470;  876.500
920.809;  140.821;  -11.290;  839.580
921.368;  140.493;  -10.210;  885.360
921.926;  139.300;  -12.140;  842.940
922.484;  139.229;  -13.080;  903.360
923.042;  139.382;  -11.720;  880.340
923.601;  141.527;   -7.480;  998.680
924.159;  139.779;  -11.570;  935.560
924.717;  138.899;  -13.840;  841.080
925.275;  141.529;  -10.640;  903.240
925.833;  139.528;  -11.540;  779.320
926.391;  140.568;  -12.960;  938.380
926.949;  139.578;  -14.130;  857.680
927.506;  141.413;  -11.750;  903.500
928.064;  139.637;  -10.250;  877.580
928.622;  138.193;  -13.030;  880.100
929.180;  139.473;  -13.400;  814.180
929.737;  140.402;  -10.700;  808.540
930.295;  142.943;  -10.070;  928.480
930.853;  141.627;  -11.960;  849.100
931.410;  141.025;  -13.120;  821.120
931.968;  141.725;  -10.770;  940.660
932.525;  143.182;  -10.680;  909.380
933.082;  145.055;  -13.130;  811.440
933.640;  151.275;  -13.210;  925.900
934.197;  152.972;  -11.060;  886.360
934.754;  154.183;   -9.580;  897.780
935.312;  154.460;  -14.000;  863.340
935.869;  156.706;  -10.710; 1012.980
936.426;  155.667;   -9.860;  872.800
936.983;  155.592;   -9.710;  889.020
937.540;  153.129;  -13.990;  838.280
938.097;  152.686;  -14.040;  940.120
938.654;  155.544;  -10.310;  898.860
939.211;  155.658;  -10.560;  952.480
939.768;  153.676;  -13.900;  915.420
940.324;  154.330;  -14.760;  904.200
940.881;  160.344;  -10.370;  878.500
941.438;  165.267;   -8.260; 1021.200
941.995;  165.078;  -12.540;  992.560
942.551;  163.961;  -14.670;  875.620
943.108;  164.499;  -10.450;  937.920
943.664;  166.528;  -10.750;  869.340
944.221;  170.007;  -11.550; 1088.140
944.777;  172.628;  -14.770;  869.680
945.334;  172.201;  -12.820;  884.840
945.890;  171.881;  -10.130;  946.480
946.446;  168.969;  -13.470;  947.020
947.003;  169.579;  -12.120;  964.940
947.559;  171.260;   -9.980; 1063.040
948.115;  169.083;   -9.080; 1026.540
948.671;  166.545;  -10.830;  967.300
949.227;  162.955;  -12.440;  859.560
949.783;  161.180;  -12.910;  858.900
950.339;  163.480;  -10.270;  991.000
950.895;  163.459;  -13.630; 1023.840
951.451;  162.550;  -15.100;  925.280
952.007;  163.031;  -11.330;  998.540
952.563;  162.265;  -10.580;  937.780
953.118;  157.869;  -13.440;  904.940
953.674;  154.372;  -12.710;  935.780
954.230;  155.029;  -10.350;  949.640
954.785;  158.794;   -9.190;  936.640
955.341;  159.371;  -11.200;  998.160
955.897;  154.819;  -16.560;  834.660
956.452;  152.681;  -12.570;  953.840
957.008;  151.564;   -7.970; 1083.640
957.563;  150.672;  -11.940; 1009.540
958.118;  149.223;  -13.450;  877.700
958.674;  150.324;  -12.030;  946.780
959.229;  150.207;   -9.410; 1013.980
959.784;  147.372;  -12.000;  832.400
960.339;  143.185;  -14.780; 1001.280
960.894;  137.205;   -9.860;  963.760
961.449;  132.628;   -9.970;  859.960
962.004;  130.070;  -10.900; 1212.840
962.559;  123.962;  -13.150;  860.140
963.114;  122.619;  -13.740;  742.480
963.669;  124.747;   -9.820;  915.500
964.224;  124.294;  -13.890;  874.340
964.779;  124.709;  -12.600;  828.420
965.334;  125.420;  -10.950; 1017.860
965.888;  122.136;  -11.170;  875.360
966.443;  122.357;  -12.540;  972.380
966.998;  122.344;  -15.780;  819.460
967.552;  123.244;   -9.760;  908.380
968.107;  117.553;   -9.060;  868.300
968.661;  115.336;  -11.950;  922.440
969.216;  114.788;  -12.800;  856.280
969.770;  115.106;  -11.210;  917.200
970.324;  112.357;  -11.610;  923.140
970.879;  109.919;  -11.370;  947.180
971.433;  108.998;  -12.540;  952.720
971.987;  107.614;  -11.320;  895.340
972.541;  107.482;  -10.720;  917.100
973.095;  108.297;   -9.680; 1009.460
973.649;  106.949;  -11.440;  809.480
974.203;  107.850;  -11.210;  829.040
974.757;  107.370;  -10.240;  855.220
975.311;  107.484;  -13.720;  872.600
975.865;  107.698;  -13.770;  881.820
976.419;  107.261;  -11.690;  857.400
976.973;  107.475;   -9.510;  849.620
977.526;  107.604;  -12.620;  949.920
978.080;  103.237;  -12.010;  796.780
978.634;  102.461;  -10.170;  921.320
979.187;   99.511;   -9.020;  905.400
979.741;   97.841;   -9.820; 1018.380
980.294;   93.603;  -14.870;  789.160
980.848;   91.219;  -12.380;  717.220
981.401;   90.197;  -10.350;  816.540
981.955;   89.324;  -13.720;  844.300
982.508;   86.726;  -11.490;  746.340
983.061;   87.664;  -10.000;  915.260
983.615;   85.775;  -11.480;  798.800
984.168;   84.840;  -13.220;  770.080
984.721;   85.290;  -13.960;  880.760
985.274;   82.236;  -10.870;  867.500
985.827;   81.748;   -9.790;  834.220
986.380;   80.117;  -13.120;  721.340
986.933;   80.684;  -12.450;  864.800
987.486;   80.040;  -10.210;  861.920
988.039;   79.769;   -8.430;  863.100
988.591;   77.682;  -10.520;  893.260
989.144;   73.414;  -14.860;  737.260
989.697;   72.367;  -13.080;  758.740
990.250;   71.717;  -10.150;  858.100
990.802;   67.989;  -13.430;  755.860
991.355;   68.002;  -12.750;  974.880
991.907;   65.951;  -12.040;  864.320
992.460;   63.899;  -11.330;  753.760
993.012;   62.755;  -13.610;  749.540
993.565;   60.995;  -13.460;  711.360
994.117;   62.564;   -9.360;  950.780
994.669;   60.032;  -11.300;  701.320
995.221;   59.244;  -13.540;  791.920
995.774;   59.004;  -13.430;  787.580
996.326;   57.921;  -12.520;  740.220
996.878;   58.387;  -10.950;  838.420
997.430;   55.728;  -14.300;  699.860
997.982;   54.543;  -13.760;  750.140
998.534;   54.428;  -11.530;  739.060
999.086;   52.841;  -10.310;  738.220
999.638;   51.583;  -12.530;  661.380
1000.190;   50.869;  -11.840;  699.320
1000.741;   51.035;  -10.260;  742.700
1001.293;   50.925;   -8.860;  686.020
1001.845;   49.437;  -13.700;  676.640
1002.396;   49.866;  -12.100;  743.400
1002.948;   49.586;  -12.760;  737.400
1003.500;   48.762;  -10.380;  723.780
1004.051;   48.253;  -11.900;  907.580
1004.603;   46.559;  -12.250;  791.820
1005.154;   44.220;  -13.210;  608.980
1005.705;   43.659;  -10.950;  723.960
1006.257;   42.456;  -13.880;  707.220
1006.808;   41.586;  -12.840;  685.460
1007.359;   41.692;  -10.570;  763.240
1007.910;   40.261;   -9.620;  646.640
1008.461;   39.752;  -13.630;  732.940
1009.013;   38.798;  -17.200;  588.340
1009.564;   40.295;  -10.200;  793.520
1010.115;   37.725;  -12.570;  597.040
1010.665;   37.600;  -15.150;  602.160
1011.216;   37.912;  -14.480;  667.920
1011.767;   37.261;  -11.340;  697.920
1012.318;   38.236;   -9.780;  736.980
1012.869;   36.503;  -12.380;  679.000
1013.419;   35.817;  -15.560;  603.120
1013.970;   36.727;  -11.010;  666.640
1014.521;   35.902;  -11.610;  620.620
1015.071;   35.312;  -13.450;  670.380
1015.622;   34.778;  -13.870;  635.460
1016.172;   34.938;  -11.610;  596.820
1016.723;   34.132;  -12.120;  614.380
1017.273;   34.299;  -13.620;  604.160
1017.823;   33.971;  -14.140;  650.340
1018.374;   33.846;  -12.800;  611.760
1018.924;   34.105;  -12.340;  716.880
1019.474;   33.732;  -11.410;  718.880
1020.024;   32.370;  -14.770;  657.580
1020.574;   33.119;   -9.780;  726.160
1021.124;   33.389;   -8.560;  673.580
1021.674;   32.089;  -15.190;  559.120
1022.224;   32.884;  -13.530;  708.940
1022.774;   32.273;  -13.280;  668.820
1023.324;   33.960;  -10.690;  753.520
1023.874;   34.481;  -10.240;  875.760
1024.423;   31.387;  -12.540;  613.700
1024.973;   31.372;  -10.010;  610.760
1025.523;   31.187;  -10.550;  620.960
1026.072;   29.980;  -13.560;  606.420
1026.622;   29.776;  -15.120;  675.740
1027.172;   31.096;  -11.260;  715.660
1027.721;   30.050;  -11.410;  601.220
1028.270;   30.009;  -13.530;  663.400
1028.820;   29.857;  -13.680;  638.080
1029.369;   29.630;  -13.520;  612.700
1029.918;   29.936;  -10.980;  649.840
1030.468;   29.815;  -13.530;  564.780
1031.017;   29.449;  -13.170;  634.800
1031.566;   28.278;  -12.200;  608.900
1032.115;   29.679;   -9.960;  694.500
1032.664;   27.563;  -13.210;  596.480
1033.213;   28.670;  -12.500;  735.420
1033.762;   28.388;  -11.910;  635.620
1034.311;   27.680;   -9.640;  677.220
1034.860;   27.855;  -13.310;  691.000
1035.408;   27.550;  -11.830;  722.720
1035.957;   28.586;  -12.000;  719.540
1036.506;   27.135;  -11.690;  530.800
1037.055;   28.281;  -10.990;  844.320
1037.603;   26.881;  -15.120;  664.000
1038.152;   24.958;  -12.450;  534.760
1038.700;   26.353;  -10.560;  585.740
1039.249;   25.868;  -11.080;  681.220
1039.797;   26.265;  -12.540;  633.360
1040.345;   26.176;  -11.920;  705.420
1040.894;   25.734;  -11.410;  625.300
1041.442;   25.115;  -14.320;  632.200
1041.990;   24.276;  -16.240;  559.160
1042.538;   24.345;  -11.680;  536.180
1043.087;   24.504;  -10.760;  570.860
1043.635;   25.463;  -11.850;  670.500
1044.183;   24.565;  -15.480;  586.400
1044.731;   23.535;  -11.770;  576.000
1045.279;   24.245;  -13.090;  674.920
1045.827;   26.094;  -12.440;  892.400
1046.374;   22.708;  -13.840;  515.420
1046.922;   22.810;  -13.220;  590.580
1047.470;   24.165;  -10.230;  691.300
1048.018;   23.535;  -14.590;  647.960
1048.565;   24.209;  -12.050;  708.600
1049.113;   22.748;  -11.650;  557.000
1049.660;   23.418;  -10.510;  629.660
1050.208;   23.084;  -13.310;  675.640
1050.755;   22.895;  -15.900;  606.580
1051.303;   22.890;  -11.430;  686.820
1051.850;   22.476;   -8.480;  635.120
1052.397;   19.630;  -15.010;  473.960
1052.945;   21.025;  -13.960;  617.760
1053.492;   22.425;  -13.150;  741.840
1054.039;   22.855;   -9.630;  720.180
1054.586;   20.908;  -13.680;  557.240
1055.133;   21.890;  -14.570;  693.140
1055.680;   22.218;  -13.820;  646.620
1056.227;   20.437;  -11.730;  542.780
1056.774;   22.756;  -12.480;  794.980
1057.321;   19.881;  -13.930;  523.260
1057.868;   21.108;  -11.690;  651.320
1058.415;   20.460;   -9.520;  651.980
1058.961;   20.742;  -13.160;  678.940
1059.508;   20.166;  -12.920;  643.820
1060.055;   19.884;  -11.920;  581.780
1060.601;   20.238;  -11.500;  624.300
1061.148;   20.276;  -14.330;  616.820
1061.694;   18.988;  -16.870;  592.580
1062.241;   19.796;  -10.330;  596.320
1062.787;   21.154;  -10.620;  663.140
1063.334;   21.637;  -10.110;  808.560
1063.880;   19.179;  -13.400;  668.360
1064.426;   19.554;  -10.680;  706.820
1064.972;   18.530;   -9.920;  601.340
1065.518;   17.776;  -10.980;  566.640
1066.065;   18.154;  -14.890;  624.460
1066.611;   18.284;  -12.870;  598.800
1067.157;   18.652;  -12.950;  641.860
1067.703;   18.366;  -13.540;  668.480
1068.249;   18.062;  -13.540;  605.220
1068.794;   18.555;  -12.600;  626.880
1069.340;   17.352;  -10.620;  578.960
1069.886;   17.824;  -12.830;  590.700
1070.432;   16.535;  -14.870;  541.720
1070.977;   17.112;  -11.980;  601.080
1071.523;   17.571;   -8.200;  573.060
1072.068;   17.427;  -12.330;  582.000
1072.614;   16.107;  -16.370;  527.760
1073.160;   17.497;  -11.100;  687.040
1073.705;   16.683;  -10.480;  572.520
1074.250;   16.323;  -14.520;  559.900
1074.796;   17.757;  -11.460;  655.160
1075.341;   17.890;  -11.950;  664.100
1075.886;   16.516;  -11.460;  594.240
1076.431;   16.569;  -13.770;  649.880
1076.976;   15.508;  -12.680;  639.220
1077.521;   15.730;  -13.170;  583.080
1078.067;   15.425;  -10.860;  579.400
1078.612;   16.333;  -13.920;  661.620
1079.156;   16.247;  -13.880;  601.540
1079.701;   16.527;  -13.120;  693.260
1080.246;   17.283;   -9.940;  696.300
1080.791;   15.564;  -14.740;  625.020
1081.336;   15.941;  -13.750;  659.320
1081.880;   15.261;  -13.400;  649.680
1082.425;   15.093;  -12.220;  573.480
1082.970;   16.549;  -11.610;  717.040
1083.514;   14.716;  -13.580;  597.000
1084.059;   13.401;  -12.810;  586.720
1084.603;   13.854;  -12.320;  565.840
1085.147;   14.091;  -13.190;  645.220
1085.692;   15.141;  -12.480;  716.800
1086.236;   13.351;  -13.020;  503.140
1086.780;   15.531;   -9.190;  751.440
1087.325;   14.104;  -12.480;  654.620
1087.869;   14.242;  -12.450;  610.700
1088.413;   14.601;  -12.240;  705.040
1088.957;   12.925;   -9.020;  543.400
1089.501;   14.927;  -10.320;  766.640
1090.045;   13.087;  -12.720;  726.480
1090.589;   11.686;  -13.690;  569.920
1091.133;   13.402;  -10.020;  673.340
1091.676;   13.191;  -12.330;  591.940
1092.220;   12.351;  -14.970;  600.920
1092.764;   13.298;  -12.430;  706.960
1093.307;   13.393;   -9.800;  673.780
1093.851;   11.889;  -14.970;  556.540
1094.395;   12.976;  -15.310;  683.140
1094.938;   12.485;  -10.370;  632.520
1095.482;   12.542;  -11.050;  559.800
1096.025;   12.875;  -11.840;  710.880
1096.568;   12.816;  -12.840;  779.280
1097.112;    9.994;  -14.700;  508.180
1097.655;   12.141;   -8.720;  603.000
1098.198;   10.436;  -13.610;  600.180
1098.741;   10.533;  -13.350;  612.860
1099.285;   11.144;  -11.230;  657.300
1099.828;   10.692;  -11.840;  439.400
1100.371;   11.803;  -10.840;  608.160
1100.914;   11.058;  -14.190;  682.660
1101.457;   11.378;  -11.240;  679.900
1101.999;   10.225;  -11.270;  584.680
1102.542;   10.876;  -11.480;  641.440
1103.085;    9.842;  -11.750;  658.500
1103.628;   10.963;  -11.400;  762.060
1104.170;   10.146;  -10.490;  588.280
1104.713;   10.583;  -10.600;  646.700
1105.256;    9.165;  -14.360;  557.440
1105.798;    8.729;  -13.210;  499.980
1106.341;   12.157;  -10.270;  728.900
1106.883;    8.951;  -12.200;  521.340
1107.425;    9.598;  -13.110;  668.180
1107.968;    9.542;  -12.840;  612.380
1108.510;   10.232;   -6.480;  684.960
1109.052;    8.355;  -13.940;  612.620
1109.594;    8.213;  -13.690;  554.440
1110.136;    9.791;  -11.880;  643.220
1110.679;    8.614;   -9.500;  633.080
1111.221;    9.196;  -14.160;  604.460
1111.763;    8.569;  -13.980;  559.220
1112.304;    8.429;  -13.880;  547.140
1112.846;    9.589;  -12.210;  666.240
1113.388;   12.211;  -11.390;  942.180
1113.930;    8.147;  -14.540;  694.200
1114.472;    8.021;  -12.640;  606.540
1115.013;    6.927;  -11.620;  551.280
1115.555;    7.221;  -13.640;  587.100
1116.097;    6.427;  -15.380;  579.480
1116.638;    7.380;  -12.640;  684.600
1117.180;    8.627;   -9.850;  667.740
1117.721;    7.834;  -13.690;  568.580
1118.262;    7.897;  -12.680;  677.960
1118.804;    7.839;  -12.530;  637.340
1119.345;    7.334;  -11.690;  578.400
1119.886;    8.372;  -13.380;  704.040
1120.427;    5.934;  -14.070;  589.020
1120.969;    6.512;  -13.500;  597.920
1121.510;    5.914;  -11.480;  563.060
1122.051;    6.798;  -12.830;  723.580
1122.592;    5.888;  -14.290;  655.420
1123.133;    4.874;  -12.400;  547.940
1123.673;    7.203;  -10.130;  706.480
1124.214;    6.090;  -12.930;  612.460
1124.755;    6.932;  -14.380;  639.460
1125.296;    6.495;  -14.000;  627.320
1125.836;    7.501;  -10.070;  691.500
1126.377;    5.595;  -12.640;  599.660
1126.918;    6.467;  -12.960;  614.980
1127.458;    5.087;  -13.350;  622.220
1127.999;    6.521;  -10.750;  656.980
1128.539;    6.244;  -12.350;  694.240
1129.079;    5.147;  -14.860;  632.720
1129.620;    5.086;  -13.840;  558.100
1130.160;    4.440;  -12.330;  539.480
1130.700;    5.749;  -14.530;  640.840
1131.240;    5.497;  -12.530;  643.700
1131.781;    4.962;  -14.450;  619.680
1132.321;    5.352;   -9.790;  599.120
1132.861;    4.635;  -14.860;  564.200
1133.401;    3.983;  -14.290;  593.940
1133.941;    4.929;  -11.750;  626.280
1134.481;    4.807;   -9.920;  597.580
1135.020;    4.441;  -12.290;  609.160
1135.560;    4.816;  -11.650;  674.940
1136.100;    3.005;  -16.270;  501.160
1136.640;    3.825;  -10.890;  510.480
1137.179;    3.793;  -14.180;  537.960
1137.719;    3.580;  -16.250;  605.400
1138.258;    4.618;  -14.230;  587.360
1138.798;    4.943;   -9.090;  663.780
1139.337;    3.089;  -15.130;  482.840
1139.877;    3.481;  -13.680;  642.360
1140.416;    5.874;  -11.320;  878.060
1140.955;    2.707;  -10.860;  535.380
1141.494;    3.354;  -12.920;  669.280
1142.034;    2.585;  -13.930;  583.520
1142.573;    3.757;  -11.440;  646.280
1143.112;    3.010;  -12.000;  553.480
1143.651;    3.539;  -13.670;  536.480
1144.190;    3.984;  -12.730;  691.640
1144.729;    3.151;  -14.560;  607.420
1145.267;    3.464;  -11.830;  584.900
1145.806;    4.070;  -12.230;  637.040
1146.345;    2.463;  -14.130;  635.020
1146.884;    2.203;  -11.590;  622.500
1147.422;    2.082;  -12.550;  533.060
1147.961;    3.909;  -11.180;  708.460
1148.500;    3.491;  -11.510;  669.720
1149.038;    3.472;  -11.640;  632.500
1149.577;    3.410;  -10.130;  698.640
1150.115;    0.440;  -13.970;  452.280
1150.653;    2.395;  -14.520;  607.340
1151.192;    2.308;  -12.810;  552.920
1151.730;    2.924;   -9.100;  652.560
1152.268;    2.238;  -12.220;  589.520
1152.806;    1.333;  -14.140;  571.180
1153.344;    0.792;  -12.350;  577.640
1153.882;    1.920;   -8.980;  600.060
1154.421;    0.271;  -15.190;  470.620
1154.958;    0.315;  -15.210;  595.240
1155.496;    1.679;  -12.850;  645.280
1156.034;    2.226;   -9.940;  721.880
1156.572;    2.232;  -13.570;  667.060
1157.110;    0.118;  -14.590;  473.940
1157.647;    1.485;  -13.030;  676.960
1158.185;    0.785;  -12.140;  564.320
1158.723;    0.088;  -14.390;  509.200
1159.260;    0.707;  -14.090;  701.700
1159.798;    1.389;  -11.920;  658.160
1160.335;    0.869;  -11.110;  631.820

