
Integration time [ms]:   3.276
Averaging Nr. [scans]: 1000
Smoothing Nr. [pixels]: 0
Data measured with spectrometer [name]: 7414430SP
Wave   ;Sample   ;Dark     ;Reference
[nm]   ;[counts] ;[counts] ;[counts] 

288.544;  160.033;    7.793;  793.890
289.143;  162.164;    7.462;  681.602
289.742;  163.961;    8.602;  828.814
290.341;  150.357;    1.321;  789.841
290.940;  140.252;   -0.709;  730.702
291.538;  142.429;    0.881;  881.108
292.137;  141.656;    0.122;  792.581
292.736;  143.985;   -1.929;  975.101
293.335;  139.911;   -8.229;  735.086
293.934;  141.654;   -5.279;  781.677
294.532;  142.409;   -1.369; 1031.958
295.131;  129.277;   -7.641;  834.394
295.730;  128.475;   -8.420;  809.588
296.328;  125.363;   -5.611;  783.442
296.927;  125.266;   -5.781;  779.652
297.525;  126.569;   -6.361;  781.236
298.124;  117.791;  -11.382;  654.009
298.722;  122.323;   -7.641;  761.933
299.321;  118.541;   -6.811;  708.597
299.919;  116.779;   -6.991;  751.918
300.518;  112.638;  -10.362;  689.338
301.116;  114.562;   -9.581;  691.381
301.715;  115.112;   -4.891;  730.222
302.313;  114.778;   -8.801;  704.943
302.911;  108.796;   -8.522;  733.830
303.509;  112.576;   -6.171;  925.627
304.108;  111.092;   -7.311;  760.383
304.706;  111.229;   -8.321;  801.664
305.304;  105.251;  -10.222;  796.707
305.902;  109.865;   -6.021;  784.484
306.500;  105.914;   -4.971;  728.200
307.098;  105.173;   -7.061;  746.560
307.696;  103.115;   -8.801;  780.432
308.294;  103.713;   -6.411;  731.359
308.892;  104.748;   -2.901;  759.769
309.490;  100.999;   -5.041;  712.161
310.088;   99.368;   -5.002;  788.444
310.686;  103.595;   -2.041;  821.749
311.284;   98.952;   -2.351;  766.040
311.882;   97.074;   -4.422;  731.225
312.480;   94.005;   -4.192;  697.167
313.078;   94.516;   -1.172;  808.331
313.675;   95.740;   -2.601;  691.600
314.273;   90.388;   -1.312;  797.837
314.871;   90.240;   -3.942;  589.829
315.468;   87.297;   -2.802;  652.090
316.066;   91.048;   -0.701;  694.427
316.664;   84.010;   -4.362;  656.351
317.261;   87.696;   -2.872;  910.128
317.859;   82.160;   -2.022;  768.735
318.456;   83.842;   -0.531;  830.096
319.054;   80.060;   -3.912;  787.828
319.651;   78.415;   -4.752;  759.928
320.249;   76.904;   -2.602;  810.188
320.846;   74.796;   -0.821;  714.286
321.443;   72.507;   -4.642;  832.135
322.041;   69.112;   -5.002;  812.315
322.638;   66.307;   -3.982;  701.456
323.235;   67.848;   -3.411;  665.683
323.833;   64.434;   -7.361;  740.354
324.430;   60.710;   -8.611;  615.900
325.027;   61.563;   -4.061;  876.855
325.624;   61.451;   -4.031;  644.532
326.221;   58.020;   -7.481;  689.717
326.818;   57.639;   -5.281;  818.332
327.415;   59.404;   -7.460;  748.828
328.012;   59.620;   -5.510;  690.585
328.609;   58.963;   -7.880;  731.389
329.206;   57.112;   -8.331;  778.621
329.803;   55.965;   -5.121;  737.841
330.400;   58.855;   -4.510;  704.260
330.997;   60.429;   -6.441;  817.147
331.594;   58.766;   -8.831;  788.185
332.191;   63.325;   -7.621;  728.722
332.787;   67.895;   -4.591;  844.463
333.384;   66.948;   -7.412;  763.093
333.981;   66.083;   -8.293;  815.687
334.578;   68.645;   -7.052;  708.378
335.174;   70.404;   -3.102;  731.469
335.771;   69.932;   -5.943;  836.456
336.367;   67.916;   -7.393;  710.631
336.964;   72.100;   -4.063;  793.266
337.561;   69.898;   -3.813;  731.112
338.157;   65.682;   -4.654;  911.916
338.754;   64.401;   -7.934;  796.589
339.350;   63.237;   -4.414;  722.493
339.946;   63.840;   -4.664;  773.135
340.543;   56.685;   -6.375;  846.136
341.139;   49.829;   -9.815;  720.836
341.735;   47.021;   -4.526;  772.593
342.332;   47.616;   -4.895;  691.472
342.928;   47.049;   -4.295;  795.394
343.524;   39.549;   -5.476;  761.684
344.120;   36.477;   -5.856;  738.562
344.716;   39.639;   -2.155;  723.717
345.313;   37.173;   -6.275;  795.342
345.909;   31.283;   -8.815;  627.336
346.505;   32.413;   -5.305;  740.247
347.101;   33.054;   -2.674;  827.864
347.697;   33.671;   -4.344;  785.398
348.293;   28.034;   -9.975;  627.244
348.889;   29.209;   -5.774;  745.914
349.485;   27.954;   -5.004;  688.205
350.081;   29.413;   -4.704;  772.592
350.676;   24.318;   -6.635;  691.606
351.272;   28.391;   -4.504;  809.530
351.868;   28.344;   -3.914;  780.497
352.464;   25.268;   -9.044;  723.932
353.059;   21.804;   -8.314;  646.017
353.655;   24.714;   -7.024;  777.063
354.251;   25.913;   -5.343;  759.845
354.846;   21.284;   -8.604;  740.646
355.442;   19.278;   -6.945;  753.071
356.038;   19.588;   -7.564;  751.708
356.633;   20.206;   -5.814;  728.594
357.229;   18.470;   -7.364;  724.757
357.824;   16.582;   -8.024;  703.600
358.420;   15.691;   -9.384;  679.726
359.015;   15.915;   -5.104;  695.357
359.610;   17.027;   -6.854;  763.920
360.206;   11.078;  -10.185;  603.240
360.801;   13.178;   -7.054;  646.503
361.396;   15.989;   -5.034;  725.975
361.992;   11.091;   -8.284;  668.220
362.587;    8.974;   -8.625;  670.160
363.182;   10.724;   -7.674;  689.631
363.777;   11.017;   -5.164;  738.242
364.372;   11.186;   -8.604;  737.314
364.967;    7.628;   -9.055;  680.744
365.563;   11.494;   -6.114;  815.567
366.158;    8.093;   -5.814;  685.161
366.753;    9.035;   -7.854;  649.263
367.348;    7.353;   -7.804;  746.056
367.942;    6.819;   -7.954;  697.298
368.537;    6.023;   -4.984;  754.245
369.132;    6.464;   -8.564;  703.428
369.727;    2.602;   -8.855;  638.079
370.322;    3.276;   -6.245;  580.186
370.917;    3.691;   -6.425;  710.646
371.511;    6.993;   -6.294;  861.834
372.106;    2.319;   -7.685;  776.964
372.701;   -0.977;   -7.335;  585.988
373.296;    4.503;   -4.564;  863.135
373.890;    0.561;  -10.235;  647.840
374.485;   -2.315;   -7.885;  691.199
375.079;    1.002;   -7.324;  738.685
375.674;    3.140;   -3.494;  812.970
376.268;   -0.845;   -8.525;  691.759
376.863;   -7.510;  -10.086;  580.327
377.457;   -0.694;   -7.025;  662.490
378.052;   -2.331;   -3.585;  764.884
378.646;   -2.737;   -7.595;  741.167
379.240;   -3.651;   -8.335;  721.176
379.835;   -3.083;   -5.785;  636.978
380.429;   -5.162;   -4.335;  562.557
381.023;   -5.245;   -6.805;  779.205
381.617;   -7.575;   -9.195;  680.106
382.212;   -4.327;   -6.905;  685.303
382.806;   -3.186;   -3.745;  760.690
383.400;   -6.950;   -7.745;  672.281
383.994;   -7.843;   -9.765;  664.870
384.588;   -4.765;   -6.564;  697.701
385.182;   -3.747;   -5.344;  726.624
385.776;   -4.880;   -8.514;  706.875
386.370;   -8.212;   -9.555;  681.968
386.964;   -7.306;   -8.715;  684.155
387.558;   -6.013;   -6.174;  598.360
388.152;   -8.524;   -8.725;  681.959
388.745;   -7.220;   -7.965;  814.707
389.339;   -5.648;   -5.924;  747.642
389.933;   -4.133;   -5.524;  695.370
390.527;   -5.088;   -7.114;  859.029
391.120;  -11.665;  -10.725;  595.318
391.714;   -8.751;   -8.035;  711.633
392.308;   -5.602;   -3.574;  780.253
392.901;   -9.222;   -7.245;  642.460
393.495;  -10.770;   -9.285;  595.414
394.089;   -9.247;   -5.895;  760.452
394.682;   -9.498;   -4.295;  697.188
395.275;   -9.729;   -9.875;  719.927
395.869;  -11.517;   -8.485;  667.314
396.462;   -9.859;   -7.455;  616.609
397.056;   -5.808;   -5.424;  776.621
397.649;  -10.636;   -6.605;  731.575
398.242;   -8.450;   -8.224;  712.645
398.836;   -7.436;   -7.474;  766.408
399.429;   -8.597;   -7.094;  631.041
400.022;  -11.208;   -9.475;  665.902
400.615;   -8.951;   -7.145;  805.609
401.208;   -7.767;   -7.174;  691.451
401.802;   -9.372;   -5.515;  699.329
402.395;  -11.099;   -9.875;  683.502
402.988;  -11.127;   -8.845;  696.627
403.581;   -8.431;   -8.874;  646.878
404.174;   -6.141;   -5.324;  686.568
404.767;   -8.548;   -9.575;  638.583
405.360;  -11.479;  -10.965;  621.445
405.953;   -6.064;   -8.764;  759.034
406.545;   -5.445;   -7.514;  725.342
407.138;   -9.971;  -10.025;  618.350
407.731;   -9.194;  -10.034;  613.303
408.324;   -4.201;   -9.374;  660.554
408.917;   -5.973;   -6.534;  681.864
409.509;   -6.942;   -8.004;  740.396
410.102;   -9.296;   -9.875;  643.948
410.695;   -2.917;   -8.604;  665.758
411.287;   -4.668;   -6.794;  599.821
411.880;   -5.019;   -9.334;  585.421
412.472;   -8.516;  -10.254;  613.092
413.065;   -5.773;   -6.714;  629.408
413.657;   -3.132;   -7.234;  576.678
414.250;   -2.487;  -10.544;  646.681
414.842;   -5.041;   -9.744;  676.353
415.434;   -3.499;   -6.994;  570.463
416.027;    1.353;   -5.893;  652.196
416.619;   -0.468;   -7.264;  713.400
417.211;   -0.857;  -10.374;  599.352
417.804;    2.187;   -7.993;  628.499
418.396;   -1.784;   -7.234;  607.643
418.988;    1.319;   -9.443;  659.238
419.580;   -3.170;  -10.724;  568.276
420.172;   -1.123;  -10.323;  536.196
420.764;    3.104;   -8.793;  672.482
421.356;    2.611;  -11.143;  636.898
421.948;    1.389;   -8.293;  677.661
422.540;    5.998;   -7.893;  680.027
423.132;    5.850;   -7.082;  600.641
423.724;    2.979;   -8.653;  561.267
424.316;    4.493;  -10.213;  621.345
424.908;    7.617;   -9.762;  591.517
425.500;    9.211;   -5.572;  647.978
426.092;   10.175;   -8.422;  648.268
426.683;    8.177;   -9.283;  684.836
427.275;   11.121;   -7.852;  641.471
427.867;   12.016;   -5.272;  668.948
428.458;   13.916;   -7.682;  732.344
429.050;   11.805;  -10.612;  680.749
429.642;   13.987;   -9.882;  743.124
430.233;   15.328;   -6.962;  569.356
430.825;   15.701;   -6.842;  724.809
431.416;   13.184;   -9.672;  698.241
432.008;   16.354;   -6.552;  651.723
432.599;   17.323;   -6.891;  656.073
433.190;   15.075;  -10.912;  637.670
433.782;   13.928;  -11.172;  590.395
434.373;   21.382;   -6.061;  884.765
434.964;   19.455;   -8.251;  602.920
435.556;   17.598;   -9.722;  634.537
436.147;   20.930;   -9.082;  758.490
436.738;   20.941;   -8.041;  701.099
437.329;   25.995;   -7.341;  721.723
437.920;   19.354;   -8.162;  666.688
438.511;   19.315;  -11.802;  564.526
439.103;   25.229;  -10.191;  623.998
439.694;   27.055;   -7.601;  681.583
440.285;   28.189;   -8.541;  764.432
440.876;   26.486;   -9.751;  845.738
441.466;   25.184;   -9.401;  575.162
442.057;   30.272;   -7.760;  665.814
442.648;   30.351;   -9.971;  746.255
443.239;   28.209;  -11.001;  620.477
443.830;   32.902;   -7.990;  704.958
444.421;   35.007;   -7.910;  655.474
445.011;   31.773;   -8.131;  693.619
445.602;   31.446;   -7.111;  743.126
446.193;   33.236;  -10.920;  488.117
446.783;   36.875;   -6.500;  640.397
447.374;   33.328;   -8.671;  692.759
447.964;   33.887;  -10.781;  713.770
448.555;   42.178;   -9.650;  822.742
449.145;   38.914;   -8.660;  662.853
449.736;   39.649;   -8.990;  803.179
450.326;   40.315;   -9.500;  713.626
450.917;   43.468;   -8.680;  675.324
451.507;   43.756;   -7.520;  600.661
452.097;   44.939;   -8.590;  746.267
452.688;   46.234;  -11.340;  742.160
453.278;   45.472;  -10.100;  566.840
453.868;   49.668;   -6.019;  793.550
454.458;   48.175;   -9.440;  651.141
455.048;   48.410;  -10.560;  711.783
455.639;   49.823;  -11.799;  567.096
456.229;   53.374;   -6.899;  710.694
456.819;   55.679;   -7.389;  751.158
457.409;   56.179;  -11.119;  773.993
457.999;   58.830;   -9.289;  737.505
458.589;   58.059;   -6.139;  686.606
459.179;   58.396;   -8.729;  717.658
459.769;   56.513;   -9.789;  627.099
460.358;   61.280;  -10.259;  797.262
460.948;   61.040;   -7.299;  689.503
461.538;   63.294;  -10.289;  660.677
462.128;   61.477;  -11.269;  664.934
462.717;   67.142;   -9.368;  710.326
463.307;   70.714;   -7.908;  705.846
463.897;   67.414;   -9.599;  656.942
464.486;   67.159;   -9.769;  837.128
465.076;   70.763;   -8.048;  733.776
465.666;   73.977;   -9.358;  652.900
466.255;   72.136;   -7.919;  785.651
466.845;   71.264;  -11.689;  666.749
467.434;   74.562;   -7.818;  725.873
468.023;   75.455;   -7.678;  658.357
468.613;   73.573;  -10.939;  713.946
469.202;   77.494;  -10.118;  646.507
469.791;   81.517;   -9.108;  737.811
470.381;   84.071;   -6.058;  742.813
470.970;   83.967;  -10.428;  711.099
471.559;   82.828;  -10.268;  733.291
472.148;   86.714;   -8.448;  675.737
472.738;   89.063;   -6.917;  765.466
473.327;   89.142;  -11.978;  637.529
473.916;   88.310;  -11.888;  737.446
474.505;   93.141;   -9.437;  751.703
475.094;   95.474;   -6.747;  806.570
475.683;   95.962;   -9.367;  797.699
476.272;   96.526;  -12.637;  730.632
476.861;   99.472;  -10.027;  706.754
477.449;  105.889;   -8.716;  728.487
478.038;  100.184;   -9.577;  692.513
478.627;  101.302;   -9.718;  714.852
479.216;  107.932;   -8.947;  769.441
479.805;  111.167;   -6.256;  783.375
480.393;  111.137;   -7.937; 1008.945
480.982;  110.751;   -7.717;  874.501
481.571;  116.683;   -9.266;  858.333
482.159;  117.338;   -7.636;  705.386
482.748;  117.988;   -9.667;  821.385
483.336;  122.475;  -10.376;  858.209
483.925;  122.517;   -7.147;  774.373
484.513;  129.873;   -7.996;  758.962
485.102;  128.294;  -10.027;  810.965
485.690;  136.448;  -10.446; 1011.050
486.278;  138.222;   -8.446;  979.329
486.867;  139.138;   -6.356;  809.662
487.455;  140.957;   -9.136;  898.229
488.043;  142.518;  -10.646;  748.361
488.631;  152.378;   -7.456; 1005.079
489.220;  155.754;   -6.636;  908.626
489.808;  156.557;  -11.036;  741.415
490.396;  165.464;  -10.246;  914.645
490.984;  172.403;   -8.556;  830.161
491.572;  183.816;   -5.886;  940.315
492.160;  193.466;   -9.486;  919.081
492.748;  206.779;  -10.976;  884.341
493.336;  231.184;   -8.776; 1019.693
493.924;  259.279;   -5.465;  958.077
494.512;  296.361;   -9.986; 1066.638
495.100;  348.338;  -10.636; 1103.280
495.687;  414.889;  -10.885; 1206.373
496.275;  476.911;   -8.126; 1150.796
496.863;  546.887;  -10.586; 1281.171
497.451;  671.574;  -11.926; 1386.805
498.038;  791.509;  -10.885; 1556.729
498.626;  898.688;   -6.315; 1741.407
499.214; 1072.475;   -7.326; 2016.609
499.801; 1296.367;  -11.906; 2220.633
500.389; 1546.466;  -10.466; 2312.494
500.976; 1836.395;   -5.236; 2744.849
501.564; 2292.271;   -8.936; 3148.565
502.151; 2826.743;  -13.176; 3515.999
502.738; 3369.133;  -10.646; 3971.274
503.326; 3756.207;   -9.525; 4403.796
503.913; 4099.897;  -10.856; 5161.749
504.500; 4649.018;  -11.586; 5986.420
505.088; 5104.526;  -10.336; 6381.201
505.675; 5562.180;   -6.355; 6925.547
506.262; 6040.808;   -9.046; 7619.060
506.849; 6463.526;  -10.416; 8733.969
507.436; 6932.578;  -10.305; 9790.121
508.023; 7444.873;   -5.496; 9985.472
508.610; 8386.392;   -7.856;10434.618
509.197;10094.002;  -10.097;11198.435
509.784;11747.789;  -10.886;12391.194
510.371;12894.326;   -9.315;13603.713
510.958;13700.532;   -9.936;14426.586
511.545;14243.693;   -9.326;15243.775
512.132;15226.117;  -10.075;15945.876
512.719;15725.266;   -7.796;16340.369
513.305;16738.059;  -10.606;18011.766
513.892;18050.225;  -11.486;19754.971
514.479;19843.148;   -9.126;20967.805
515.066;21399.385;   -6.026;22299.793
515.652;21900.494;   -8.466;22908.660
516.239;23245.541;  -10.886;23798.875
516.825;25464.971;  -11.496;25567.275
517.412;27146.846;   -5.796;28154.959
517.998;28809.781;  -10.506;28344.111
518.585;28936.160;  -10.076;27134.219
519.171;27817.523;   -8.315;27268.576
519.758;27772.346;   -8.596;28964.129
520.344;28568.539;   -8.466;30664.494
520.930;31426.365;  -11.006;32550.605
521.516;31878.926;  -10.495;35422.895
522.103;31397.443;   -5.526;38280.004
522.689;32295.756;   -8.746;37835.117
523.275;34369.926;  -11.376;37288.613
523.861;36644.633;  -11.156;37281.395
524.447;40031.727;   -8.135;37846.949
525.033;41071.203;   -7.896;38321.949
525.619;40419.293;  -12.476;38579.285
526.205;40345.629;   -9.516;40622.875
526.791;39379.289;   -6.926;42258.836
527.377;41411.324;   -8.346;42966.902
527.963;43547.457;   -8.717;42018.949
528.549;41963.176;  -11.016;42476.828
529.135;42082.066;   -8.536;41854.852
529.721;41424.539;   -9.666;41237.711
530.306;39459.211;  -10.066;41259.445
530.892;39711.598;  -11.356;41506.047
531.478;39704.129;   -6.596;43559.613
532.063;40379.805;   -8.836;47695.563
532.649;43907.043;  -10.047;50808.324
533.235;46250.535;   -9.746;51787.500
533.820;45300.027;   -6.566;52145.035
534.406;43674.484;  -10.817;51133.488
534.991;46666.828;   -9.416;49996.805
535.576;48162.445;   -9.036;48882.852
536.162;48940.234;   -6.156;46942.285
536.747;49448.543;  -11.607;45711.746
537.333;49090.629;  -11.787;48510.180
537.918;48347.781;  -12.437;50439.891
538.503;48897.242;   -7.196;50863.711
539.088;47560.723;  -10.556;50906.922
539.673;47023.813;   -8.767;52621.965
540.259;48510.039;  -10.026;52368.094
540.844;50381.258;   -7.416;50879.109
541.429;48288.488;   -9.467;52077.777
542.014;47906.992;   -9.527;52716.695
542.599;50617.418;   -9.946;52363.281
543.184;53061.043;   -7.927;53187.137
543.769;51519.590;   -9.297;54697.605
544.354;48083.688;  -10.127;53913.914
544.938;45946.754;   -9.267;49680.164
545.523;48292.688;   -6.506;47386.277
546.108;53107.301;   -9.787;49151.949
546.693;53510.375;  -11.587;51384.637
547.278;53549.430;  -10.986;51853.254
547.862;49732.137;   -8.206;51173.750
548.447;46103.438;  -10.067;51691.395
549.031;47931.746;   -9.637;52456.703
549.616;49919.473;   -9.926;52714.516
550.201;47823.246;   -6.347;52414.598
550.785;45419.430;   -7.917;52355.059
551.370;44189.469;  -10.867;54589.453
551.954;45605.715;   -9.047;58267.348
552.538;48275.316;   -7.827;59062.176
553.123;48250.820;  -10.287;58115.285
553.707;44104.398;  -12.178;56556.285
554.291;45462.973;   -8.717;56201.668
554.876;48514.020;   -7.457;55335.762
555.460;50356.438;  -10.387;54155.703
556.044;50947.367;   -9.618;53721.484
556.628;50990.066;  -11.567;53731.016
557.212;49391.895;   -8.097;54312.531
557.796;49323.566;  -11.077;53797.773
558.380;47281.039;  -11.108;56145.984
558.964;45337.949;   -9.057;57277.930
559.548;45478.051;   -6.977;56459.641
560.132;45331.063;  -11.457;54434.543
560.716;43072.602;  -11.378;54800.617
561.300;43729.930;   -9.577;57606.945
561.884;46217.016;   -7.127;58972.445
562.467;47719.945;   -7.118;57327.570
563.051;48068.270;  -13.358;54962.434
563.635;45687.473;  -10.178;52594.473
564.219;45167.184;   -7.837;50610.410
564.802;44323.926;  -11.398;49551.180
565.386;45719.063;  -12.788;48370.953
565.969;45848.027;   -9.077;48178.871
566.553;45434.492;   -6.207;49957.305
567.136;43244.148;   -8.568;50369.594
567.720;42472.551;  -11.868;49492.004
568.303;43007.730;   -8.268;50616.352
568.887;41657.949;   -8.698;50727.148
569.470;40650.930;   -6.808;51698.379
570.053;39197.289;  -13.188;52122.078
570.637;37485.613;  -12.037;52536.438
571.220;36845.254;   -8.577;51186.098
571.803;38061.105;   -8.498;51032.762
572.386;40259.227;  -10.498;49609.887
572.969;41635.750;   -9.388;48285.926
573.552;37698.094;   -8.338;47624.285
574.135;36337.949;   -8.518;45498.641
574.718;34379.625;  -13.628;41970.434
575.301;33177.238;  -10.893;41447.137
575.884;31974.848;   -8.158;40923.836
576.467;36094.531;  -10.328;45267.723
577.050;35088.262;  -13.058;48175.543
577.633;33410.375;   -9.458;47729.328
578.216;34305.344;   -8.928;47579.793
578.799;35606.008;   -9.358;47820.996
579.381;35813.227;  -11.388;48115.551
579.964;33522.168;  -11.718;47333.766
580.547;33918.660;   -8.588;46668.969
581.129;35556.855;   -8.859;44466.141
581.712;35114.965;  -10.729;44164.922
582.294;36667.289;  -11.118;46477.855
582.877;34808.734;   -5.218;48244.254
583.459;34484.656;   -8.679;47437.895
584.042;35707.082;  -10.709;46943.219
584.624;38748.547;  -11.669;46792.227
585.206;38565.773;   -8.218;46557.250
585.789;36161.586;  -10.569;45793.773
586.371;35651.625;  -11.859;43836.391
586.953;34674.250;  -10.719;42972.492
587.536;35767.391;   -7.198;42487.211
588.118;37326.586;   -8.720;42086.414
588.700;36840.066;  -10.439;43389.930
589.282;36447.426;   -9.198;43646.039
589.864;35794.012;   -9.199;43438.109
590.446;33566.668;  -11.319;43151.926
591.028;32480.857;  -11.159;42781.867
591.610;31886.238;  -11.779;42839.098
592.192;28917.406;   -7.668;42820.402
592.774;30047.945;  -11.949;40724.277
593.356;31667.063;  -12.129;39874.789
593.937;31090.211;  -10.669;39980.648
594.519;32122.885;   -6.509;42069.633
595.101;34004.371;  -10.849;42976.031
595.683;32992.133;  -11.679;44084.441
596.264;31659.920;   -9.049;43478.797
596.846;32929.445;   -8.849;43803.672
597.427;33850.316;   -9.570;42986.934
598.009;34321.617;  -12.620;42832.219
598.591;33654.406;  -10.039;42580.086
599.172;33016.340;  -10.369;43061.805
599.753;32077.592;   -9.140;41691.469
600.335;31890.936;  -11.430;40692.520
600.916;32446.404;   -9.939;39982.422
601.498;31688.186;   -8.479;40318.617
602.079;30406.076;  -10.920;40670.609
602.660;31860.166;  -11.480;41450.898
603.241;32764.041;  -11.699;41137.738
603.823;32976.887;   -9.579;38868.797
604.404;33029.027;  -10.620;38182.785
604.985;31763.117;  -10.450;38078.047
605.566;30863.486;   -9.129;38056.633
606.147;30587.012;   -7.510;37020.418
606.728;31916.996;  -10.660;37883.359
607.309;32984.289;  -11.740;38748.273
607.890;32077.158;   -9.759;38850.230
608.471;30429.369;   -8.250;37457.918
609.051;31609.467;   -9.240;36066.457
609.632;30043.512;  -12.120;35991.074
610.213;28065.430;   -9.110;37402.641
610.794;29362.357;   -8.030;38383.363
611.374;32222.916;   -8.110;40562.387
611.955;32557.086;  -13.560;38533.727
612.536;30008.486;  -11.400;36951.789
613.116;29348.111;   -8.070;37197.891
613.697;31150.250;  -10.830;38411.125
614.277;31823.057;  -11.641;38673.938
614.858;31155.809;  -13.310;37075.863
615.438;29595.227;   -7.460;35092.906
616.019;28455.215;   -7.601;33666.301
616.599;29058.270;  -12.020;34189.023
617.179;30540.428;  -11.780;36952.047
617.760;33082.094;   -8.570;39582.574
618.340;33234.453;  -11.471;38943.977
618.920;31011.844;  -11.170;37594.156
619.500;32323.504;  -11.071;37866.938
620.080;32992.590;   -7.750;37869.043
620.660;32082.934;  -12.711;36868.617
621.241;31096.645;  -10.211;36352.309
621.821;29997.137;  -10.961;35459.520
622.401;28680.666;   -7.720;35207.414
622.980;29701.449;   -8.981;35980.422
623.560;30466.924;   -9.331;37351.328
624.140;29268.541;   -9.850;34388.582
624.720;26618.170;   -7.451;32368.764
625.300;24861.209;   -9.070;32638.629
625.880;28251.506;  -12.601;34599.035
626.459;30983.180;  -11.751;36831.738
627.039;31926.117;   -9.281;38299.098
627.619;33635.129;   -8.801;38289.574
628.198;33471.805;  -12.071;37220.695
628.778;31484.803;   -9.461;37632.563
629.357;31873.205;   -8.491;38003.012
629.937;31806.479;   -9.721;38402.039
630.516;31936.178;   -9.951;37868.801
631.096;31949.252;  -11.731;35760.410
631.675;33739.906;   -8.572;35225.219
632.254;33576.699;  -11.282;35130.289
632.834;32957.930;  -13.322;35794.570
633.413;33181.328;  -10.301;35788.922
633.992;32751.988;   -8.582;34532.863
634.571;33444.641;   -8.352;33590.113
635.151;32906.238;  -11.912;34943.863
635.730;31915.135;  -10.511;35352.523
636.309;33678.449;   -7.731;35366.605
636.888;32626.645;   -9.952;36165.637
637.467;31699.988;  -11.672;37515.902
638.046;31488.023;   -8.901;39288.695
638.625;31890.521;   -7.912;38279.699
639.204;32408.998;  -10.022;37741.598
639.782;31076.250;  -12.252;38364.551
640.361;29376.264;  -10.041;36740.621
640.940;28388.566;  -11.161;34950.082
641.519;29900.566;   -9.701;34137.398
642.097;32237.156;  -11.271;35654.258
642.676;33010.988;   -8.651;35637.957
643.255;34411.113;   -8.711;36567.074
643.833;32361.084;   -9.581;37809.434
644.412;29479.359;  -13.711;37337.293
644.990;30226.213;  -11.811;37018.531
645.569;32783.410;   -9.411;36518.469
646.147;32288.631;  -10.291;36186.430
646.726;30976.990;  -12.401;36267.688
647.304;30777.230;  -10.411;36647.625
647.882;30906.451;   -9.651;39286.742
648.461;32338.457;   -9.631;39157.703
649.039;35284.711;  -11.881;35412.883
649.617;36202.164;   -9.661;34744.918
650.195;33938.805;   -9.301;35403.098
650.773;32416.979;  -10.511;35053.797
651.352;31564.982;  -11.521;33756.816
651.930;29040.203;  -12.211;31868.773
652.508;25296.172;   -9.171;33121.551
653.086;26095.680;   -9.371;33564.793
653.663;31105.486;  -13.161;34054.668
654.241;33851.742;  -13.031;35693.309
654.819;35689.758;   -9.371;36422.906
655.397;35820.672;  -10.511;38213.484
655.975;33269.344;  -10.371;39507.625
656.553;31461.703;  -10.051;39498.223
657.130;30666.793;  -10.061;40395.480
657.708;29016.063;   -9.561;39242.020
658.286;25631.617;  -11.511;38920.020
658.863;26358.275;  -10.261;40202.898
659.441;30687.717;   -7.531;39677.938
660.018;32719.100;   -9.501;40413.355
660.596;31686.777;  -13.301;39931.414
661.173;29989.338;  -11.211;39604.531
661.750;31315.209;   -9.951;39700.070
662.328;31470.627;   -9.390;39292.809
662.905;30330.266;  -11.330;38235.648
663.482;27509.334;   -9.050;36212.305
664.060;24787.789;   -8.240;35944.945
664.637;25812.842;  -10.050;35170.785
665.214;28948.502;  -11.760;34197.523
665.791;30382.262;  -10.530;34549.520
666.368;29820.668;   -9.690;35118.578
666.945;30600.551;   -9.320;36019.418
667.522;30459.096;  -11.860;36048.438
668.099;31881.471;  -10.770;36243.914
668.676;32884.133;   -6.260;35958.875
669.253;34968.215;   -7.000;37384.730
669.830;36313.605;  -10.190;36779.629
670.407;33047.418;   -9.550;35231.289
670.984;32913.871;   -9.260;35544.270
671.560;29943.664;   -9.280;35466.867
672.137;24691.154;  -11.810;34280.863
672.714;25836.260;  -11.490;34632.863
673.290;30927.373;   -7.740;35135.422
673.867;31390.139;  -10.660;36114.480
674.443;31378.145;  -12.230;36152.859
675.020;31020.068;  -10.450;35327.238
675.596;30908.684;   -9.260;35795.176
676.173;30644.555;  -10.780;35430.355
676.749;29816.043;  -13.690;33549.516
677.326;29102.035;  -11.980;32210.012
677.902;28170.381;   -8.630;32068.871
678.478;29408.902;  -10.730;32583.891
679.054;30213.150;  -10.520;32088.928
679.631;30160.986;  -11.920;30978.848
680.207;30027.602;   -7.490;33160.887
680.783;31798.918;   -9.860;35570.363
681.359;33042.141;  -13.380;36125.184
681.935;33352.223;  -12.480;35240.922
682.511;32097.982;   -7.900;34429.961
683.087;31206.582;   -7.710;34463.680
683.663;30382.695;  -11.480;34648.898
684.239;29305.334;  -14.090;34546.457
684.815;28614.465;   -7.560;35586.375
685.390;29003.377;   -9.910;35821.895
685.966;30370.775;  -11.159;35085.871
686.542;31458.404;  -11.169;34198.230
687.118;32803.945;   -5.959;32847.707
687.693;32065.078;  -10.329;32794.027
688.269;31865.215;  -12.059;33072.367
688.844;32538.572;  -10.909;33141.664
689.420;31034.293;   -8.019;33965.742
689.995;29721.086;   -8.399;34655.523
690.571;30772.902;  -10.949;33576.742
691.146;30341.561;   -9.619;32657.219
691.722;28772.691;   -8.999;32526.979
692.297;27524.873;  -11.589;33014.617
692.872;28019.936;  -11.739;34012.254
693.448;31167.992;  -11.059;34237.434
694.023;31517.863;  -10.139;34142.672
694.598;28145.064;   -9.029;34132.031
695.173;29119.477;  -13.319;34205.250
695.748;30446.379;  -10.169;32882.488
696.323;28652.410;   -8.339;32864.906
696.898;27481.645;   -8.169;33170.004
697.473;27767.506;  -12.309;32432.984
698.048;27890.586;  -10.989;31649.303
698.623;26983.637;   -9.329;30778.141
699.198;27471.451;   -9.849;31140.119
699.773;28362.779;  -12.329;31764.299
700.348;30113.850;  -10.389;31780.816
700.922;30298.568;   -9.269;32046.375
701.497;31075.973;   -9.329;32603.574
702.072;32078.697;  -10.789;34799.871
702.646;30977.564;  -10.839;35793.172
703.221;31021.309;   -9.099;35201.590
703.795;32802.938;  -10.939;34764.527
704.370;30353.174;  -12.859;34307.367
704.944;28549.002;  -11.559;33509.887
705.519;29105.389;   -7.939;31388.584
706.093;30917.137;  -10.499;31340.104
706.668;32928.523;  -11.289;32630.281
707.242;32372.607;  -11.509;32728.779
707.816;29900.641;   -9.639;32947.238
708.390;29111.393;  -11.429;33277.855
708.965;29109.660;  -11.869;33834.336
709.539;31016.330;  -11.689;33709.273
710.113;30940.291;  -10.478;33044.313
710.687;30045.061;  -10.228;31953.992
711.261;29341.379;  -13.698;30505.949
711.835;29587.332;  -13.378;30262.369
712.409;28873.186;   -9.698;31254.447
712.983;27710.682;  -11.898;32754.986
713.557;29824.240;  -15.138;34018.824
714.131;28422.018;  -14.098;34579.625
714.704;27959.223;   -9.958;33890.262
715.278;29471.906;  -10.028;33531.102
715.852;28082.789;  -11.148;33601.660
716.425;27238.963;   -9.068;33515.117
716.999;26456.750;  -10.038;33185.555
717.573;26117.770;   -9.798;33905.996
718.146;25489.113;  -12.378;35199.293
718.720;25508.971;  -11.918;35060.551
719.293;26033.832;   -8.088;34973.230
719.867;28313.684;  -10.888;36394.449
720.440;30831.637;  -11.938;36663.008
721.013;31459.467;  -12.818;35102.426
721.587;29173.936;  -10.298;33985.266
722.160;27321.010;  -10.048;33524.965
722.733;26316.252;  -12.108;32987.043
723.306;26301.305;  -10.818;33066.301
723.880;27854.539;   -8.908;33399.500
724.453;26981.348;   -9.878;33468.297
725.026;27605.252;  -11.188;33816.637
725.599;31045.682;  -11.678;32797.996
726.172;30686.961;   -9.618;33187.434
726.745;27584.439;   -8.258;35136.613
727.318;26691.781;  -12.978;35751.730
727.891;26434.369;  -12.148;35890.430
728.463;26117.906;   -8.968;34822.090
729.036;25539.668;  -10.188;32895.086
729.609;25604.705;  -11.788;31823.225
730.182;24117.324;  -11.788;31445.283
730.754;22562.381;  -10.268;32373.223
731.327;22266.625;   -9.998;33676.820
731.900;23501.979;  -12.228;33417.000
732.472;24170.443;  -13.848;31978.498
733.045;23540.617;   -8.698;30368.777
733.617;22385.408;  -10.607;30574.215
734.190;24081.604;  -11.507;31280.975
734.762;25404.711;  -13.647;31674.412
735.334;25603.904;   -9.767;31247.291
735.907;25584.795;   -9.897;29876.211
736.479;25650.340;  -11.637;29808.488
737.051;27303.527;   -9.567;30233.547
737.623;27578.748;   -8.187;31469.086
738.195;26361.404;  -11.187;31784.225
738.768;24912.188;  -12.337;32120.523
739.340;22966.781;  -12.227;32094.342
739.912;21813.672;  -11.057;31312.680
740.484;21253.725;  -10.207;31946.238
741.056;20784.873;  -10.047;32984.059
741.628;21893.270;  -13.627;33897.715
742.199;23640.951;   -7.177;33213.016
742.771;26385.967;  -10.797;31369.113
743.343;27702.852;  -11.997;31865.473
743.915;27370.645;  -12.867;32388.631
744.487;24601.074;   -7.617;31079.568
745.058;21476.703;   -9.557;30570.107
745.630;21900.234;   -9.877;29970.127
746.201;23258.445;  -14.177;29186.766
746.773;23630.297;   -9.237;28805.723
747.344;22483.736;   -9.847;29591.223
747.916;20956.273;  -11.657;31412.201
748.487;21341.785;  -10.587;32194.898
749.059;22888.258;   -8.707;32533.719
749.630;23599.750;  -10.537;32158.518
750.201;23271.354;  -11.687;30855.395
750.773;22036.512;  -11.647;28622.555
751.344;21265.506;   -7.147;28405.732
751.915;22663.711;   -9.757;28461.551
752.486;23842.600;  -12.427;27842.850
753.057;23000.268;  -12.227;27845.008
753.628;22942.082;  -10.417;27728.107
754.199;22249.141;  -11.767;27381.086
754.770;22333.172;  -11.187;25882.203
755.341;21852.576;  -10.507;25886.184
755.912;20235.857;   -9.387;26050.861
756.483;18567.354;  -10.647;26798.779
757.054;18964.646;  -11.837;27048.238
757.625;19054.432;  -12.716;26294.838
758.195;19138.762;   -9.666;26142.076
758.766;19625.555;   -8.656;26392.234
759.337;18977.590;  -12.856;26334.594
759.907;18891.266;  -13.366;27579.652
760.478;18770.781;   -8.576;28352.770
761.048;19496.100;  -10.526;27325.088
761.619;19776.730;  -11.116;26460.428
762.189;18332.875;  -12.136;26029.826
762.760;17784.350;   -9.456;26430.145
763.330;18164.824;   -7.136;26670.902
763.900;18516.777;  -11.786;26603.021
764.471;17969.381;  -11.546;25542.740
765.041;16986.910;   -8.096;24358.459
765.611;16390.828;   -8.876;23991.297
766.181;16297.534;  -12.196;24470.236
766.751;15947.334;  -11.636;24845.975
767.321;16496.332;  -10.156;24533.633
767.891;16320.083;  -11.766;24916.492
768.461;16737.820;  -14.936;24776.771
769.031;17943.258;  -12.356;24757.988
769.601;18447.455;   -7.526;24181.088
770.171;17990.535;  -10.766;23670.387
770.741;16843.191;  -13.176;22960.045
771.311;16391.633;  -10.616;22917.523
771.880;16545.242;   -9.576;23562.941
772.450;16174.303;  -10.336;24216.500
773.020;16169.773;  -13.516;24140.398
773.589;17063.998;  -13.466;24414.857
774.159;16755.389;   -8.686;23858.717
774.729;15602.238;   -9.476;22942.135
775.298;13976.378;  -13.666;22324.033
775.867;13580.014;  -11.716;21140.313
776.437;13955.126;   -9.906;20838.092
777.006;13170.750;  -12.166;20599.510
777.576;12481.785;  -12.356;20508.809
778.145;12557.557;  -11.646;20732.947
778.714;12933.192;   -8.226;21062.465
779.283;13755.200;   -9.556;20949.664
779.853;14435.354;  -14.116;20508.623
780.422;13916.304;  -11.506;20649.082
780.991;13437.745;   -9.556;21527.520
781.560;13145.525;   -9.095;22632.658
782.129;12829.977;  -12.135;23048.277
782.698;12820.750;  -10.865;23438.555
783.267;12643.058;   -9.335;23267.734
783.836;12674.637;  -11.045;22415.133
784.404;13346.160;  -13.865;20443.152
784.973;12833.376;  -13.095;19699.150
785.542;11607.526;  -11.575;19763.828
786.111;11000.011;   -9.705;20341.408
786.679;11563.196;  -12.105;20207.967
787.248;11776.837;  -12.455;19516.465
787.817;11176.448;  -11.535;18900.363
788.385;11261.555;   -9.765;17879.121
788.954;11534.881;  -14.005;17658.301
789.522;11164.124;  -11.955;17788.879
790.090;11318.563;  -10.135;18118.277
790.659;12373.554;  -10.975;18338.736
791.227;12515.368;  -13.375;18508.615
791.795;11858.399;  -12.375;17898.254
792.364;11248.834;  -10.725;17295.133
792.932;11193.691;   -9.715;16822.051
793.500;11352.796;  -12.675;17040.148
794.068;11108.198;  -13.495;17179.787
794.636; 9920.200;  -10.885;16664.246
795.204; 8789.159;  -11.045;16524.545
795.772; 9368.833;  -13.175;17274.564
796.340;10652.054;  -12.445;17891.002
796.908;10442.995;   -9.735;17648.561
797.476;10550.672;   -9.815;17064.080
798.044;11297.404;  -13.985;16672.777
798.612;11224.142;  -13.115;17023.996
799.180;10044.288;  -10.185;16561.615
799.747; 8892.229;   -9.055;15962.773
800.315; 8167.083;  -12.385;15296.992
800.883; 8466.666;  -15.035;14801.771
801.450; 8995.412;  -10.365;14534.430
802.018; 9235.286;   -9.855;14173.248
802.585; 9542.488;  -11.905;14029.547
803.153; 9145.234;  -11.585;13836.846
803.720; 8357.307;   -9.095;13567.324
804.287; 8452.989;   -9.135;13360.622
804.855; 9016.561;  -11.604;13681.981
805.422; 9095.468;  -11.794;13536.560
805.989; 8736.931;  -10.734;13355.958
806.556; 8207.585;  -10.444;13747.896
807.124; 8035.349;  -12.764;13987.376
807.691; 8629.780;  -12.964;14038.674
808.258; 8990.366;  -11.134;14120.152
808.825; 9052.022;   -9.854;13860.111
809.392; 8667.916;  -10.504;13268.790
809.959; 8157.080;  -13.054;12680.389
810.526; 7911.703;   -8.294;12427.308
811.093; 7758.506;   -8.394;12030.105
811.659; 7214.954;  -12.304;11653.664
812.226; 6960.311;  -13.944;11637.183
812.793; 7389.171;  -10.484;11611.521
813.360; 7563.577;  -10.144;11885.181
813.926; 6975.533;  -11.684;12770.539
814.493; 6326.948;  -13.644;12677.638
815.060; 6152.921;   -9.724;11974.336
815.626; 6410.057;   -9.854;11594.715
816.193; 6467.859;  -13.254;11579.474
816.759; 6454.509;  -13.204;11666.972
817.325; 6374.739;   -9.434;11325.530
817.892; 6115.884;  -10.134;11105.369
818.458; 6018.025;  -13.474;10843.928
819.024; 5836.343;  -11.854;10714.406
819.591; 5966.902;  -10.244;10469.165
820.157; 6124.883;  -10.704;10235.523
820.723; 6461.347;  -12.324;10847.563
821.289; 6945.279;   -9.444;11040.980
821.855; 7034.419;   -8.374;10357.100
822.421; 6642.113;  -10.234; 9978.918
822.987; 6344.178;  -13.294; 9754.177
823.553; 6292.234;  -10.884;10065.755
824.119; 5948.749;   -8.884;10036.294
824.685; 5768.000;   -6.784;10029.192
825.251; 5705.465;  -12.004;10199.230
825.816; 5915.513;  -11.474; 9820.189
826.382; 5815.660;   -9.174; 9297.248
826.948; 5482.713;   -9.214; 9381.347
827.513; 5189.875;  -10.774; 9450.726
828.079; 5106.591;  -11.924; 9472.444
828.645; 5109.028;  -10.543; 9292.643
829.210; 5128.605;  -10.533; 9065.341
829.776; 5134.211;  -10.753; 9132.620
830.341; 5153.479;  -10.173; 9092.878
830.906; 5335.540;  -10.743; 9078.557
831.472; 5342.864;  -11.113; 8534.535
832.037; 4879.998;  -10.603; 8677.874
832.602; 4741.217;  -13.323; 8628.692
833.167; 5090.909;  -10.823; 8879.031
833.733; 5097.884;  -10.113; 9189.790
834.298; 4909.788;  -13.583; 9052.608
834.863; 4782.446;  -12.703; 8895.087
835.428; 4596.617;  -10.523; 8824.266
835.993; 4420.828;   -6.963; 8845.385
836.558; 4431.842;  -10.763; 8888.563
837.123; 4568.051;   -9.903; 8966.582
837.688; 4512.636;   -9.913; 8617.860
838.253; 4427.207;  -10.283; 8590.699
838.817; 4581.484;  -12.963; 8443.797
839.382; 4757.946;  -14.243; 8799.356
839.947; 4579.591;  -10.733; 8810.595
840.511; 4544.044;   -9.383; 8796.394
841.076; 4602.130;  -12.563; 8347.231
841.641; 4422.377;  -12.953; 8224.330
842.205; 4100.605;   -7.043; 8223.349
842.770; 4039.984;   -8.163; 8622.107
843.334; 4128.264;  -12.503; 8410.386
843.898; 4169.262;  -11.693; 8337.465
844.463; 4081.557;  -10.203; 8506.283
845.027; 3988.155;   -9.533; 8280.962
845.591; 4085.017;  -13.443; 8231.141
846.156; 4032.644;  -13.143; 7969.179
846.720; 3767.881;   -9.433; 7768.278
847.284; 3383.721;  -11.033; 7630.957
847.848; 3210.098;  -10.403; 7472.395
848.412; 3287.842;  -11.553; 7437.394
848.976; 3495.942;   -8.393; 7674.592
849.540; 3578.052;   -8.713; 7836.011
850.104; 3552.193;  -12.463; 7913.669
850.668; 3626.704;  -12.973; 7694.508
851.232; 3642.192;  -10.793; 7756.887
851.796; 3573.473;  -10.662; 7926.545
852.359; 3612.820;  -13.082; 7827.844
852.923; 3399.162;  -12.192; 7641.163
853.487; 3278.686;  -11.912; 7342.501
854.050; 3420.412;  -10.892; 7042.820
854.614; 3380.343;  -13.992; 7151.338
855.177; 3222.611;  -11.732; 7105.077
855.741; 3140.252;   -8.962; 6989.675
856.304; 3074.778;   -9.442; 6596.634
856.868; 2872.863;  -14.192; 6356.272
857.431; 2687.889;  -12.702; 6468.571
857.995; 2765.961;   -9.942; 6373.210
858.558; 2814.768;   -9.112; 6324.448
859.121; 2581.557;  -12.932; 6408.327
859.684; 2420.053;  -13.442; 6347.886
860.247; 2744.838;  -10.632; 6321.264
860.810; 3131.571;  -11.272; 6301.903
861.374; 3194.281;   -9.832; 6607.881
861.937; 3178.913;  -11.762; 6408.200
862.500; 3086.480;   -9.722; 6572.639
863.062; 2762.835;  -10.512; 6387.297
863.625; 2559.478;  -11.232; 6190.836
864.188; 2500.280;  -14.112; 5807.254
864.751; 2472.841;  -11.302; 5682.413
865.314; 2602.931;  -10.112; 5547.492
865.876; 2755.468;  -12.182; 5500.150
866.439; 2779.238;  -10.722; 5415.909
867.002; 2664.899;   -9.252; 5501.567
867.564; 2545.473;   -9.572; 5413.946
868.127; 2401.728;  -13.142; 5160.325
868.689; 2105.656;  -12.902; 5133.183
869.252; 1922.104;   -9.732; 5252.382
869.814; 1930.872;   -9.432; 5297.141
870.377; 2073.918;  -11.552; 5390.919
870.939; 2087.237;   -9.052; 5599.898
871.501; 1997.320;  -10.982; 5248.336
872.063; 2020.826;  -12.292; 4854.235
872.626; 2003.909;  -14.912; 4817.074
873.188; 1990.165;  -13.112; 4987.732
873.750; 1932.417;  -13.442; 4868.651
874.312; 1956.984;   -9.402; 4779.330
874.874; 2084.301;  -11.062; 4866.348
875.436; 2021.924;  -13.931; 4718.887
875.998; 1761.218;   -9.561; 4660.005
876.560; 1578.577;  -11.321; 4462.964
877.122; 1559.827;  -12.221; 4145.042
877.683; 1539.789;  -12.191; 4056.481
878.245; 1613.388;  -12.101; 3950.740
878.807; 1758.343;   -8.971; 4058.958
879.369; 1794.514;  -12.071; 3954.677
879.930; 1728.755;  -14.621; 3941.495
880.492; 1586.013;  -10.311; 4067.014
881.053; 1432.007;  -10.901; 3859.633
881.615; 1387.114;  -14.411; 3776.071
882.176; 1399.184;  -13.761; 3734.750
882.738; 1424.891;   -9.181; 3678.489
883.299; 1399.051;  -11.791; 3405.407
883.860; 1318.905;  -13.121; 3351.106
884.422; 1214.343;  -11.211; 3394.044
884.983; 1145.671;  -10.091; 3166.443
885.544; 1126.349;   -8.461; 3189.802
886.105; 1079.495;  -12.361; 3160.360
886.666; 1009.657;  -14.141; 3093.059
887.227;  981.437;  -11.361; 2941.957
887.788;  995.528;  -11.401; 2974.836
888.349;  962.339;  -13.791; 2721.214
888.910;  873.482;  -13.191; 2696.493
889.471;  773.779;   -9.881; 2560.172
890.032;  701.283;   -9.881; 2558.190
890.593;  691.969;  -10.371; 2567.669
891.153;  693.461;  -13.301; 2460.307
891.714;  634.716;  -11.431; 2372.046
892.275;  588.584;  -11.291; 2309.505
892.835;  588.554;  -11.471; 2382.543
893.396;  579.017;  -11.541; 2295.502
893.956;  558.525;  -11.181; 2162.420
894.517;  530.868;  -11.741; 2125.439
895.077;  480.311;  -11.671; 2086.978
895.638;  435.390;  -11.311; 2126.316
896.198;  418.138;   -9.831; 1838.275
896.758;  415.488;   -8.421; 1892.813
897.319;  406.764;  -12.351; 1792.232
897.879;  389.197;  -13.511; 1762.751
898.439;  365.615;  -12.001; 1661.149
898.999;  344.839;  -10.180; 1781.468
899.559;  331.296;  -12.030; 1703.347
900.119;  326.327;  -15.710; 1537.525
900.679;  312.356;   -8.900; 1638.384
901.239;  286.041;   -8.340; 1527.902
901.799;  268.479;  -13.910; 1456.441
902.359;  258.695;  -13.460; 1357.140
902.919;  253.246;  -11.490; 1331.118
903.479;  252.428;  -12.110; 1317.257
904.038;  244.387;  -11.720; 1262.595
904.598;  227.193;  -13.610; 1152.034
905.158;  215.908;  -11.040; 1240.893
905.717;  209.826;  -10.900; 1233.691
906.277;  205.716;  -15.080; 1217.330
906.836;  203.431;  -13.380; 1222.408
907.396;  199.489;  -10.780; 1193.047
907.955;  194.279;   -8.500; 1182.526
908.515;  186.922;  -12.760; 1099.364
909.074;  182.640;  -11.900; 1092.863
909.633;  179.263;   -8.950; 1069.121
910.192;  177.568;   -8.770; 1196.460
910.752;  172.029;  -12.390; 1029.960
911.311;  167.841;  -13.680; 1009.780
911.870;  164.013;  -12.370;  971.460
912.429;  161.402;  -10.900; 1094.080
912.988;  160.021;  -11.690; 1081.060
913.547;  154.609;  -13.240;  940.380
914.106;  152.952;  -11.990;  999.420
914.665;  153.612;   -9.990;  984.020
915.224;  152.666;  -12.880; 1035.760
915.782;  151.420;  -12.350;  922.560
916.341;  151.860;   -9.110; 1049.840
916.900;  149.481;   -9.270;  925.260
917.458;  147.304;  -13.240;  884.220
918.017;  144.823;  -13.550;  942.600
918.576;  144.089;  -12.320;  904.440
919.134;  144.327;  -11.490;  837.980
919.693;  142.821;  -13.670;  893.060
920.251;  141.604;  -15.470;  876.500
920.809;  140.744;  -11.290;  839.580
921.368;  139.604;  -10.210;  885.360
921.926;  140.876;  -12.140;  842.940
922.484;  139.212;  -13.080;  903.360
923.042;  138.395;  -11.720;  880.340
923.601;  139.996;   -7.480;  998.680
924.159;  139.307;  -11.570;  935.560
924.717;  137.377;  -13.840;  841.080
925.275;  139.548;  -10.640;  903.240
925.833;  138.978;  -11.540;  779.320
926.391;  139.272;  -12.960;  938.380
926.949;  138.779;  -14.130;  857.680
927.506;  137.375;  -11.750;  903.500
928.064;  137.510;  -10.250;  877.580
928.622;  137.528;  -13.030;  880.100
929.180;  137.711;  -13.400;  814.180
929.737;  138.892;  -10.700;  808.540
930.295;  139.879;  -10.070;  928.480
930.853;  139.856;  -11.960;  849.100
931.410;  139.449;  -13.120;  821.120
931.968;  139.290;  -10.770;  940.660
932.525;  140.511;  -10.680;  909.380
933.082;  143.765;  -13.130;  811.440
933.640;  149.185;  -13.210;  925.900
934.197;  149.894;  -11.060;  886.360
934.754;  152.012;   -9.580;  897.780
935.312;  153.145;  -14.000;  863.340
935.869;  155.060;  -10.710; 1012.980
936.426;  153.629;   -9.860;  872.800
936.983;  153.572;   -9.710;  889.020
937.540;  152.422;  -13.990;  838.280
938.097;  151.605;  -14.040;  940.120
938.654;  153.209;  -10.310;  898.860
939.211;  153.809;  -10.560;  952.480
939.768;  151.557;  -13.900;  915.420
940.324;  153.272;  -14.760;  904.200
940.881;  156.499;  -10.370;  878.500
941.438;  162.552;   -8.260; 1021.200
941.995;  163.122;  -12.540;  992.560
942.551;  162.251;  -14.670;  875.620
943.108;  161.913;  -10.450;  937.920
943.664;  163.095;  -10.750;  869.340
944.221;  168.083;  -11.550; 1088.140
944.777;  169.403;  -14.770;  869.680
945.334;  169.814;  -12.820;  884.840
945.890;  168.593;  -10.130;  946.480
946.446;  166.517;  -13.470;  947.020
947.003;  166.803;  -12.120;  964.940
947.559;  167.672;   -9.980; 1063.040
948.115;  166.644;   -9.080; 1026.540
948.671;  164.543;  -10.830;  967.300
949.227;  160.677;  -12.440;  859.560
949.783;  157.778;  -12.910;  858.900
950.339;  160.744;  -10.270;  991.000
950.895;  161.525;  -13.630; 1023.840
951.451;  159.167;  -15.100;  925.280
952.007;  159.616;  -11.330;  998.540
952.563;  159.361;  -10.580;  937.780
953.118;  155.536;  -13.440;  904.940
953.674;  152.095;  -12.710;  935.780
954.230;  152.654;  -10.350;  949.640
954.785;  155.754;   -9.190;  936.640
955.341;  156.327;  -11.200;  998.160
955.897;  152.321;  -16.560;  834.660
956.452;  149.824;  -12.570;  953.840
957.008;  148.138;   -7.970; 1083.640
957.563;  147.305;  -11.940; 1009.540
958.118;  147.186;  -13.450;  877.700
958.674;  146.724;  -12.030;  946.780
959.229;  147.127;   -9.410; 1013.980
959.784;  145.417;  -12.000;  832.400
960.339;  142.145;  -14.780; 1001.280
960.894;  134.512;   -9.860;  963.760
961.449;  129.165;   -9.970;  859.960
962.004;  128.700;  -10.900; 1212.840
962.559;  122.905;  -13.150;  860.140
963.114;  119.058;  -13.740;  742.480
963.669;  122.665;   -9.820;  915.500
964.224;  123.184;  -13.890;  874.340
964.779;  122.140;  -12.600;  828.420
965.334;  122.615;  -10.950; 1017.860
965.888;  119.475;  -11.170;  875.360
966.443;  119.879;  -12.540;  972.380
966.998;  120.202;  -15.780;  819.460
967.552;  119.904;   -9.760;  908.380
968.107;  115.575;   -9.060;  868.300
968.661;  114.208;  -11.950;  922.440
969.216;  112.043;  -12.800;  856.280
969.770;  112.368;  -11.210;  917.200
970.324;  110.420;  -11.610;  923.140
970.879;  108.544;  -11.370;  947.180
971.433;  107.516;  -12.540;  952.720
971.987;  105.227;  -11.320;  895.340
972.541;  104.493;  -10.720;  917.100
973.095;  106.019;   -9.680; 1009.460
973.649;  105.160;  -11.440;  809.480
974.203;  105.091;  -11.210;  829.040
974.757;  105.391;  -10.240;  855.220
975.311;  106.201;  -13.720;  872.600
975.865;  106.515;  -13.770;  881.820
976.419;  105.429;  -11.690;  857.400
976.973;  106.036;   -9.510;  849.620
977.526;  105.586;  -12.620;  949.920
978.080;  100.875;  -12.010;  796.780
978.634;  100.037;  -10.170;  921.320
979.187;   96.751;   -9.020;  905.400
979.741;   96.643;   -9.820; 1018.380
980.294;   92.468;  -14.870;  789.160
980.848;   88.196;  -12.380;  717.220
981.401;   88.589;  -10.350;  816.540
981.955;   88.637;  -13.720;  844.300
982.508;   86.114;  -11.490;  746.340
983.061;   85.055;  -10.000;  915.260
983.615;   84.506;  -11.480;  798.800
984.168;   83.621;  -13.220;  770.080
984.721;   83.317;  -13.960;  880.760
985.274;   81.415;  -10.870;  867.500
985.827;   80.077;   -9.790;  834.220
986.380;   78.668;  -13.120;  721.340
986.933;   79.186;  -12.450;  864.800
987.486;   77.859;  -10.210;  861.920
988.039;   78.236;   -8.430;  863.100
988.591;   76.954;  -10.520;  893.260
989.144;   73.105;  -14.860;  737.260
989.697;   70.915;  -13.080;  758.740
990.250;   69.812;  -10.150;  858.100
990.802;   67.793;  -13.430;  755.860
991.355;   67.121;  -12.750;  974.880
991.907;   64.694;  -12.040;  864.320
992.460;   62.267;  -11.330;  753.760
993.012;   61.185;  -13.610;  749.540
993.565;   59.892;  -13.460;  711.360
994.117;   60.621;   -9.360;  950.780
994.669;   58.638;  -11.300;  701.320
995.221;   58.816;  -13.540;  791.920
995.774;   56.981;  -13.430;  787.580
996.326;   56.903;  -12.520;  740.220
996.878;   56.948;  -10.950;  838.420
997.430;   55.273;  -14.300;  699.860
997.982;   53.626;  -13.760;  750.140
998.534;   52.903;  -11.530;  739.060
999.086;   51.729;  -10.310;  738.220
999.638;   51.486;  -12.530;  661.380
1000.190;   50.294;  -11.840;  699.320
1000.741;   49.860;  -10.260;  742.700
1001.293;   49.660;   -8.860;  686.020
1001.845;   48.899;  -13.700;  676.640
1002.396;   49.412;  -12.100;  743.400
1002.948;   47.968;  -12.760;  737.400
1003.500;   46.862;  -10.380;  723.780
1004.051;   47.880;  -11.900;  907.580
1004.603;   46.134;  -12.250;  791.820
1005.154;   42.490;  -13.210;  608.980
1005.705;   42.492;  -10.950;  723.960
1006.257;   42.422;  -13.880;  707.220
1006.808;   41.455;  -12.840;  685.460
1007.359;   40.310;  -10.570;  763.240
1007.910;   39.110;   -9.620;  646.640
1008.461;   40.275;  -13.630;  732.940
1009.013;   38.070;  -17.200;  588.340
1009.564;   39.100;  -10.200;  793.520
1010.115;   36.441;  -12.570;  597.040
1010.665;   37.781;  -15.150;  602.160
1011.216;   37.532;  -14.480;  667.920
1011.767;   36.396;  -11.340;  697.920
1012.318;   37.333;   -9.780;  736.980
1012.869;   36.207;  -12.380;  679.000
1013.419;   34.984;  -15.560;  603.120
1013.970;   35.537;  -11.010;  666.640
1014.521;   34.600;  -11.610;  620.620
1015.071;   35.166;  -13.450;  670.380
1015.622;   35.247;  -13.870;  635.460
1016.172;   33.632;  -11.610;  596.820
1016.723;   33.478;  -12.120;  614.380
1017.273;   34.056;  -13.620;  604.160
1017.823;   33.478;  -14.140;  650.340
1018.374;   32.956;  -12.800;  611.760
1018.924;   32.157;  -12.340;  716.880
1019.474;   34.160;  -11.410;  718.880
1020.024;   31.264;  -14.770;  657.580
1020.574;   32.686;   -9.780;  726.160
1021.124;   32.680;   -8.560;  673.580
1021.674;   31.658;  -15.190;  559.120
1022.224;   33.830;  -13.530;  708.940
1022.774;   31.219;  -13.280;  668.820
1023.324;   32.304;  -10.690;  753.520
1023.874;   33.431;  -10.240;  875.760
1024.423;   31.480;  -12.540;  613.700
1024.973;   29.995;  -10.010;  610.760
1025.523;   30.046;  -10.550;  620.960
1026.072;   30.226;  -13.560;  606.420
1026.622;   29.895;  -15.120;  675.740
1027.172;   30.346;  -11.260;  715.660
1027.721;   29.160;  -11.410;  601.220
1028.270;   29.612;  -13.530;  663.400
1028.820;   29.114;  -13.680;  638.080
1029.369;   28.817;  -13.520;  612.700
1029.918;   28.750;  -10.980;  649.840
1030.468;   29.050;  -13.530;  564.780
1031.017;   29.143;  -13.170;  634.800
1031.566;   27.252;  -12.200;  608.900
1032.115;   28.630;   -9.960;  694.500
1032.664;   27.265;  -13.210;  596.480
1033.213;   27.864;  -12.500;  735.420
1033.762;   27.052;  -11.910;  635.620
1034.311;   27.000;   -9.640;  677.220
1034.860;   28.207;  -13.310;  691.000
1035.408;   27.564;  -11.830;  722.720
1035.957;   26.523;  -12.000;  719.540
1036.506;   25.153;  -11.690;  530.800
1037.055;   29.021;  -10.990;  844.320
1037.603;   26.037;  -15.120;  664.000
1038.152;   24.370;  -12.450;  534.760
1038.700;   25.212;  -10.560;  585.740
1039.249;   25.742;  -11.080;  681.220
1039.797;   25.752;  -12.540;  633.360
1040.345;   24.579;  -11.920;  705.420
1040.894;   25.416;  -11.410;  625.300
1041.442;   25.809;  -14.320;  632.200
1041.990;   24.140;  -16.240;  559.160
1042.538;   24.200;  -11.680;  536.180
1043.087;   23.934;  -10.760;  570.860
1043.635;   25.396;  -11.850;  670.500
1044.183;   24.084;  -15.480;  586.400
1044.731;   23.958;  -11.770;  576.000
1045.279;   23.424;  -13.090;  674.920
1045.827;   25.990;  -12.440;  892.400
1046.374;   22.379;  -13.840;  515.420
1046.922;   22.111;  -13.220;  590.580
1047.470;   23.914;  -10.230;  691.300
1048.018;   23.501;  -14.590;  647.960
1048.565;   24.256;  -12.050;  708.600
1049.113;   22.169;  -11.650;  557.000
1049.660;   22.114;  -10.510;  629.660
1050.208;   22.221;  -13.310;  675.640
1050.755;   21.953;  -15.900;  606.580
1051.303;   22.023;  -11.430;  686.820
1051.850;   21.616;   -8.480;  635.120
1052.397;   19.865;  -15.010;  473.960
1052.945;   21.182;  -13.960;  617.760
1053.492;   22.781;  -13.150;  741.840
1054.039;   21.857;   -9.630;  720.180
1054.586;   20.434;  -13.680;  557.240
1055.133;   21.803;  -14.570;  693.140
1055.680;   21.874;  -13.820;  646.620
1056.227;   20.224;  -11.730;  542.780
1056.774;   21.934;  -12.480;  794.980
1057.321;   19.716;  -13.930;  523.260
1057.868;   20.208;  -11.690;  651.320
1058.415;   20.571;   -9.520;  651.980
1058.961;   20.759;  -13.160;  678.940
1059.508;   19.692;  -12.920;  643.820
1060.055;   18.880;  -11.920;  581.780
1060.601;   19.809;  -11.500;  624.300
1061.148;   19.765;  -14.330;  616.820
1061.694;   18.823;  -16.870;  592.580
1062.241;   18.673;  -10.330;  596.320
1062.787;   19.970;  -10.620;  663.140
1063.334;   21.135;  -10.110;  808.560
1063.880;   19.139;  -13.400;  668.360
1064.426;   18.734;  -10.680;  706.820
1064.972;   17.553;   -9.920;  601.340
1065.518;   17.845;  -10.980;  566.640
1066.065;   18.860;  -14.890;  624.460
1066.611;   17.352;  -12.870;  598.800
1067.157;   17.576;  -12.950;  641.860
1067.703;   18.047;  -13.540;  668.480
1068.249;   18.746;  -13.540;  605.220
1068.794;   17.961;  -12.600;  626.880
1069.340;   16.620;  -10.620;  578.960
1069.886;   17.422;  -12.830;  590.700
1070.432;   16.617;  -14.870;  541.720
1070.977;   16.241;  -11.980;  601.080
1071.523;   16.324;   -8.200;  573.060
1072.068;   16.765;  -12.330;  582.000
1072.614;   16.474;  -16.370;  527.760
1073.160;   16.855;  -11.100;  687.040
1073.705;   15.993;  -10.480;  572.520
1074.250;   17.062;  -14.520;  559.900
1074.796;   17.433;  -11.460;  655.160
1075.341;   16.922;  -11.950;  664.100
1075.886;   15.684;  -11.460;  594.240
1076.431;   16.148;  -13.770;  649.880
1076.976;   15.546;  -12.680;  639.220
1077.521;   14.674;  -13.170;  583.080
1078.067;   14.960;  -10.860;  579.400
1078.612;   15.075;  -13.920;  661.620
1079.156;   15.085;  -13.880;  601.540
1079.701;   14.781;  -13.120;  693.260
1080.246;   15.820;   -9.940;  696.300
1080.791;   15.595;  -14.740;  625.020
1081.336;   15.645;  -13.750;  659.320
1081.880;   14.562;  -13.400;  649.680
1082.425;   14.174;  -12.220;  573.480
1082.970;   16.305;  -11.610;  717.040
1083.514;   14.190;  -13.580;  597.000
1084.059;   13.334;  -12.810;  586.720
1084.603;   13.431;  -12.320;  565.840
1085.147;   14.455;  -13.190;  645.220
1085.692;   15.472;  -12.480;  716.800
1086.236;   12.760;  -13.020;  503.140
1086.780;   14.990;   -9.190;  751.440
1087.325;   14.027;  -12.480;  654.620
1087.869;   14.492;  -12.450;  610.700
1088.413;   13.719;  -12.240;  705.040
1088.957;   12.576;   -9.020;  543.400
1089.501;   14.438;  -10.320;  766.640
1090.045;   13.154;  -12.720;  726.480
1090.589;   11.387;  -13.690;  569.920
1091.133;   13.281;  -10.020;  673.340
1091.676;   13.111;  -12.330;  591.940
1092.220;   12.637;  -14.970;  600.920
1092.764;   13.416;  -12.430;  706.960
1093.307;   12.872;   -9.800;  673.780
1093.851;   11.940;  -14.970;  556.540
1094.395;   12.685;  -15.310;  683.140
1094.938;   11.536;  -10.370;  632.520
1095.482;   11.534;  -11.050;  559.800
1096.025;   12.518;  -11.840;  710.880
1096.568;   13.146;  -12.840;  779.280
1097.112;    9.897;  -14.700;  508.180
1097.655;   11.386;   -8.720;  603.000
1098.198;   10.681;  -13.610;  600.180
1098.741;   11.229;  -13.350;  612.860
1099.285;   11.071;  -11.230;  657.300
1099.828;    9.298;  -11.840;  439.400
1100.371;   10.455;  -10.840;  608.160
1100.914;   10.721;  -14.190;  682.660
1101.457;   10.368;  -11.240;  679.900
1101.999;    9.167;  -11.270;  584.680
1102.542;   10.597;  -11.480;  641.440
1103.085;   10.257;  -11.750;  658.500
1103.628;   10.275;  -11.400;  762.060
1104.170;    9.678;  -10.490;  588.280
1104.713;   10.445;  -10.600;  646.700
1105.256;    9.047;  -14.360;  557.440
1105.798;    9.159;  -13.210;  499.980
1106.341;   10.497;  -10.270;  728.900
1106.883;    9.556;  -12.200;  521.340
1107.425;    8.968;  -13.110;  668.180
1107.968;    8.783;  -12.840;  612.380
1108.510;    9.682;   -6.480;  684.960
1109.052;    8.867;  -13.940;  612.620
1109.594;    8.694;  -13.690;  554.440
1110.136;    7.997;  -11.880;  643.220
1110.679;    8.124;   -9.500;  633.080
1111.221;    9.175;  -14.160;  604.460
1111.763;    8.259;  -13.980;  559.220
1112.304;    7.730;  -13.880;  547.140
1112.846;    8.402;  -12.210;  666.240
1113.388;   11.582;  -11.390;  942.180
1113.930;    8.326;  -14.540;  694.200
1114.472;    7.462;  -12.640;  606.540
1115.013;    6.735;  -11.620;  551.280
1115.555;    6.868;  -13.640;  587.100
1116.097;    6.987;  -15.380;  579.480
1116.638;    7.578;  -12.640;  684.600
1117.180;    7.376;   -9.850;  667.740
1117.721;    7.685;  -13.690;  568.580
1118.262;    8.182;  -12.680;  677.960
1118.804;    7.073;  -12.530;  637.340
1119.345;    6.571;  -11.690;  578.400
1119.886;    8.104;  -13.380;  704.040
1120.427;    6.668;  -14.070;  589.020
1120.969;    5.745;  -13.500;  597.920
1121.510;    5.885;  -11.480;  563.060
1122.051;    6.441;  -12.830;  723.580
1122.592;    5.821;  -14.290;  655.420
1123.133;    4.721;  -12.400;  547.940
1123.673;    6.748;  -10.130;  706.480
1124.214;    6.398;  -12.930;  612.460
1124.755;    7.051;  -14.380;  639.460
1125.296;    5.973;  -14.000;  627.320
1125.836;    6.716;  -10.070;  691.500
1126.377;    5.494;  -12.640;  599.660
1126.918;    6.569;  -12.960;  614.980
1127.458;    5.318;  -13.350;  622.220
1127.999;    6.149;  -10.750;  656.980
1128.539;    5.837;  -12.350;  694.240
1129.079;    4.962;  -14.860;  632.720
1129.620;    3.980;  -13.840;  558.100
1130.160;    4.490;  -12.330;  539.480
1130.700;    5.951;  -14.530;  640.840
1131.240;    5.912;  -12.530;  643.700
1131.781;    4.610;  -14.450;  619.680
1132.321;    4.503;   -9.790;  599.120
1132.861;    4.148;  -14.860;  564.200
1133.401;    3.313;  -14.290;  593.940
1133.941;    4.633;  -11.750;  626.280
1134.481;    3.586;   -9.920;  597.580
1135.020;    4.354;  -12.290;  609.160
1135.560;    4.725;  -11.650;  674.940
1136.100;    3.249;  -16.270;  501.160
1136.640;    3.676;  -10.890;  510.480
1137.179;    3.779;  -14.180;  537.960
1137.719;    4.304;  -16.250;  605.400
1138.258;    3.123;  -14.230;  587.360
1138.798;    4.540;   -9.090;  663.780
1139.337;    2.370;  -15.130;  482.840
1139.877;    4.745;  -13.680;  642.360
1140.416;    5.314;  -11.320;  878.060
1140.955;    2.140;  -10.860;  535.380
1141.494;    3.271;  -12.920;  669.280
1142.034;    2.563;  -13.930;  583.520
1142.573;    3.585;  -11.440;  646.280
1143.112;    2.416;  -12.000;  553.480
1143.651;    2.958;  -13.670;  536.480
1144.190;    4.220;  -12.730;  691.640
1144.729;    2.224;  -14.560;  607.420
1145.267;    3.071;  -11.830;  584.900
1145.806;    4.280;  -12.230;  637.040
1146.345;    2.282;  -14.130;  635.020
1146.884;    2.269;  -11.590;  622.500
1147.422;    1.456;  -12.550;  533.060
1147.961;    3.639;  -11.180;  708.460
1148.500;    3.822;  -11.510;  669.720
1149.038;    2.892;  -11.640;  632.500
1149.577;    1.991;  -10.130;  698.640
1150.115;    1.109;  -13.970;  452.280
1150.653;    2.435;  -14.520;  607.340
1151.192;    1.930;  -12.810;  552.920
1151.730;    1.804;   -9.100;  652.560
1152.268;    1.962;  -12.220;  589.520
1152.806;    1.718;  -14.140;  571.180
1153.344;   -0.042;  -12.350;  577.640
1153.882;    1.777;   -8.980;  600.060
1154.421;    0.205;  -15.190;  470.620
1154.958;    0.845;  -15.210;  595.240
1155.496;    1.749;  -12.850;  645.280
1156.034;    1.967;   -9.940;  721.880
1156.572;    2.328;  -13.570;  667.060
1157.110;    0.595;  -14.590;  473.940
1157.647;    1.716;  -13.030;  676.960
1158.185;    0.116;  -12.140;  564.320
1158.723;    0.526;  -14.390;  509.200
1159.260;    1.292;  -14.090;  701.700
1159.798;    0.675;  -11.920;  658.160
1160.335;    0.281;  -11.110;  631.820

