
Integration time [ms]:   3.276
Averaging Nr. [scans]: 1000
Smoothing Nr. [pixels]: 0
Data measured with spectrometer [name]: 7414430SP
Wave   ;Sample   ;Dark     ;Reference
[nm]   ;[counts] ;[counts] ;[counts] 

288.544;  150.347;    7.793;  793.890
289.143;  155.234;    7.462;  681.602
289.742;  155.101;    8.602;  828.814
290.341;  140.233;    1.321;  789.841
290.940;  128.435;   -0.709;  730.702
291.538;  130.608;    0.881;  881.108
292.137;  130.629;    0.122;  792.581
292.736;  134.007;   -1.929;  975.101
293.335;  130.713;   -8.229;  735.086
293.934;  131.658;   -5.279;  781.677
294.532;  129.791;   -1.369; 1031.958
295.131;  115.476;   -7.641;  834.394
295.730;  115.629;   -8.420;  809.588
296.328;  115.721;   -5.611;  783.442
296.927;  116.236;   -5.781;  779.652
297.525;  116.245;   -6.361;  781.236
298.124;  107.535;  -11.382;  654.009
298.722;  111.250;   -7.641;  761.933
299.321;  109.511;   -6.811;  708.597
299.919;  106.294;   -6.991;  751.918
300.518;  103.882;  -10.362;  689.338
301.116;  105.969;   -9.581;  691.381
301.715;  105.865;   -4.891;  730.222
302.313;  103.429;   -8.801;  704.943
302.911;   99.535;   -8.522;  733.830
303.509;  105.154;   -6.171;  925.627
304.108;  102.992;   -7.311;  760.383
304.706;  101.202;   -8.321;  801.664
305.304;   95.914;  -10.222;  796.707
305.902;  101.995;   -6.021;  784.484
306.500;   98.254;   -4.971;  728.200
307.098;   95.202;   -7.061;  746.560
307.696;   94.331;   -8.801;  780.432
308.294;   95.340;   -6.411;  731.359
308.892;   96.522;   -2.901;  759.769
309.490;   92.330;   -5.041;  712.161
310.088;   90.678;   -5.002;  788.444
310.686;   95.325;   -2.041;  821.749
311.284;   91.392;   -2.351;  766.040
311.882;   89.013;   -4.422;  731.225
312.480;   86.371;   -4.192;  697.167
313.078;   87.703;   -1.172;  808.331
313.675;   88.226;   -2.601;  691.600
314.273;   82.724;   -1.312;  797.837
314.871;   82.243;   -3.942;  589.829
315.468;   80.669;   -2.802;  652.090
316.066;   83.051;   -0.701;  694.427
316.664;   75.339;   -4.362;  656.351
317.261;   79.973;   -2.872;  910.128
317.859;   76.050;   -2.022;  768.735
318.456;   75.952;   -0.531;  830.096
319.054;   71.318;   -3.912;  787.828
319.651;   70.633;   -4.752;  759.928
320.249;   70.818;   -2.602;  810.188
320.846;   68.364;   -0.821;  714.286
321.443;   64.355;   -4.642;  832.135
322.041;   62.971;   -5.002;  812.315
322.638;   60.572;   -3.982;  701.456
323.235;   62.263;   -3.411;  665.683
323.833;   58.092;   -7.361;  740.354
324.430;   54.186;   -8.611;  615.900
325.027;   54.966;   -4.061;  876.855
325.624;   54.639;   -4.031;  644.532
326.221;   51.239;   -7.481;  689.717
326.818;   50.956;   -5.281;  818.332
327.415;   55.636;   -7.460;  748.828
328.012;   54.447;   -5.510;  690.585
328.609;   52.184;   -7.880;  731.389
329.206;   51.096;   -8.331;  778.621
329.803;   51.649;   -5.121;  737.841
330.400;   53.632;   -4.510;  704.260
330.997;   55.203;   -6.441;  817.147
331.594;   53.914;   -8.831;  788.185
332.191;   59.943;   -7.621;  728.722
332.787;   62.327;   -4.591;  844.463
333.384;   60.689;   -7.412;  763.093
333.981;   58.856;   -8.293;  815.687
334.578;   62.061;   -7.052;  708.378
335.174;   65.012;   -3.102;  731.469
335.771;   63.852;   -5.943;  836.456
336.367;   60.639;   -7.393;  710.631
336.964;   64.743;   -4.063;  793.266
337.561;   62.918;   -3.813;  731.112
338.157;   58.060;   -4.654;  911.916
338.754;   55.467;   -7.934;  796.589
339.350;   53.784;   -4.414;  722.493
339.946;   55.476;   -4.664;  773.135
340.543;   47.816;   -6.375;  846.136
341.139;   42.431;   -9.815;  720.836
341.735;   40.660;   -4.526;  772.593
342.332;   39.355;   -4.895;  691.472
342.928;   38.549;   -4.295;  795.394
343.524;   34.055;   -5.476;  761.684
344.120;   31.458;   -5.856;  738.562
344.716;   32.678;   -2.155;  723.717
345.313;   30.784;   -6.275;  795.342
345.909;   25.610;   -8.815;  627.336
346.505;   28.063;   -5.305;  740.247
347.101;   28.588;   -2.674;  827.864
347.697;   28.171;   -4.344;  785.398
348.293;   23.038;   -9.975;  627.244
348.889;   24.344;   -5.774;  745.914
349.485;   24.530;   -5.004;  688.205
350.081;   24.235;   -4.704;  772.592
350.676;   19.311;   -6.635;  691.606
351.272;   24.188;   -4.504;  809.530
351.868;   22.982;   -3.914;  780.497
352.464;   20.211;   -9.044;  723.932
353.059;   16.230;   -8.314;  646.017
353.655;   20.900;   -7.024;  777.063
354.251;   22.215;   -5.343;  759.845
354.846;   15.696;   -8.604;  740.646
355.442;   13.487;   -6.945;  753.071
356.038;   15.615;   -7.564;  751.708
356.633;   16.154;   -5.814;  728.594
357.229;   12.996;   -7.364;  724.757
357.824;   12.260;   -8.024;  703.600
358.420;   11.585;   -9.384;  679.726
359.015;   12.439;   -5.104;  695.357
359.610;   12.151;   -6.854;  763.920
360.206;    6.071;  -10.185;  603.240
360.801;    9.571;   -7.054;  646.503
361.396;   11.908;   -5.034;  725.975
361.992;    7.252;   -8.284;  668.220
362.587;    4.603;   -8.625;  670.160
363.182;    6.086;   -7.674;  689.631
363.777;    7.501;   -5.164;  738.242
364.372;    7.576;   -8.604;  737.314
364.967;    3.314;   -9.055;  680.744
365.563;    8.223;   -6.114;  815.567
366.158;    5.080;   -5.814;  685.161
366.753;    5.043;   -7.854;  649.263
367.348;    3.462;   -7.804;  746.056
367.942;    3.831;   -7.954;  697.298
368.537;    3.444;   -4.984;  754.245
369.132;    2.673;   -8.564;  703.428
369.727;   -1.565;   -8.855;  638.079
370.322;    0.387;   -6.245;  580.186
370.917;    0.082;   -6.425;  710.646
371.511;    2.157;   -6.294;  861.834
372.106;   -0.945;   -7.685;  776.964
372.701;   -3.331;   -7.335;  585.988
373.296;    1.900;   -4.564;  863.135
373.890;   -2.689;  -10.235;  647.840
374.485;   -5.220;   -7.885;  691.199
375.079;   -1.059;   -7.324;  738.685
375.674;   -0.096;   -3.494;  812.970
376.268;   -4.041;   -8.525;  691.759
376.863;  -10.430;  -10.086;  580.327
377.457;   -3.823;   -7.025;  662.490
378.052;   -5.505;   -3.585;  764.884
378.646;   -6.025;   -7.595;  741.167
379.240;   -6.789;   -8.335;  721.176
379.835;   -5.202;   -5.785;  636.978
380.429;   -6.550;   -4.335;  562.557
381.023;   -8.024;   -6.805;  779.205
381.617;  -10.933;   -9.195;  680.106
382.212;   -6.151;   -6.905;  685.303
382.806;   -6.048;   -3.745;  760.690
383.400;  -10.317;   -7.745;  672.281
383.994;  -11.134;   -9.765;  664.870
384.588;   -7.235;   -6.564;  697.701
385.182;   -5.566;   -5.344;  726.624
385.776;   -7.682;   -8.514;  706.875
386.370;  -11.185;   -9.555;  681.968
386.964;   -9.245;   -8.715;  684.155
387.558;   -6.998;   -6.174;  598.360
388.152;  -10.939;   -8.725;  681.959
388.745;   -9.443;   -7.965;  814.707
389.339;   -7.428;   -5.924;  747.642
389.933;   -6.029;   -5.524;  695.370
390.527;   -7.665;   -7.114;  859.029
391.120;  -13.769;  -10.725;  595.318
391.714;  -10.088;   -8.035;  711.633
392.308;   -7.205;   -3.574;  780.253
392.901;  -11.566;   -7.245;  642.460
393.495;  -13.551;   -9.285;  595.414
394.089;  -10.302;   -5.895;  760.452
394.682;  -10.813;   -4.295;  697.188
395.275;  -12.271;   -9.875;  719.927
395.869;  -13.545;   -8.485;  667.314
396.462;  -11.822;   -7.455;  616.609
397.056;   -7.021;   -5.424;  776.621
397.649;  -12.661;   -6.605;  731.575
398.242;  -10.331;   -8.224;  712.645
398.836;   -9.401;   -7.474;  766.408
399.429;  -10.087;   -7.094;  631.041
400.022;  -14.036;   -9.475;  665.902
400.615;  -11.636;   -7.145;  805.609
401.208;   -9.477;   -7.174;  691.451
401.802;  -10.732;   -5.515;  699.329
402.395;  -13.556;   -9.875;  683.502
402.988;  -14.196;   -8.845;  696.627
403.581;  -10.667;   -8.874;  646.878
404.174;   -7.357;   -5.324;  686.568
404.767;  -11.090;   -9.575;  638.583
405.360;  -13.240;  -10.965;  621.445
405.953;   -7.712;   -8.764;  759.034
406.545;   -7.873;   -7.514;  725.342
407.138;  -12.485;  -10.025;  618.350
407.731;   -9.970;  -10.034;  613.303
408.324;   -6.744;   -9.374;  660.554
408.917;   -7.559;   -6.534;  681.864
409.509;   -9.272;   -8.004;  740.396
410.102;  -10.962;   -9.875;  643.948
410.695;   -5.102;   -8.604;  665.758
411.287;   -5.312;   -6.794;  599.821
411.880;   -7.970;   -9.334;  585.421
412.472;  -10.076;  -10.254;  613.092
413.065;   -7.441;   -6.714;  629.408
413.657;   -5.435;   -7.234;  576.678
414.250;   -5.702;  -10.544;  646.681
414.842;   -7.686;   -9.744;  676.353
415.434;   -3.976;   -6.994;  570.463
416.027;    0.010;   -5.893;  652.196
416.619;   -2.647;   -7.264;  713.400
417.211;   -3.996;  -10.374;  599.352
417.804;    0.538;   -7.993;  628.499
418.396;   -2.707;   -7.234;  607.643
418.988;   -1.131;   -9.443;  659.238
419.580;   -4.554;  -10.724;  568.276
420.172;   -2.043;  -10.323;  536.196
420.764;    2.257;   -8.793;  672.482
421.356;    0.833;  -11.143;  636.898
421.948;   -0.303;   -8.293;  677.661
422.540;    5.828;   -7.893;  680.027
423.132;    4.333;   -7.082;  600.641
423.724;    0.784;   -8.653;  561.267
424.316;    3.131;  -10.213;  621.345
424.908;    6.877;   -9.762;  591.517
425.500;    7.097;   -5.572;  647.978
426.092;    7.241;   -8.422;  648.268
426.683;    6.268;   -9.283;  684.836
427.275;    9.826;   -7.852;  641.471
427.867;   11.268;   -5.272;  668.948
428.458;   11.051;   -7.682;  732.344
429.050;    9.285;  -10.612;  680.749
429.642;   12.103;   -9.882;  743.124
430.233;   13.366;   -6.962;  569.356
430.825;   13.790;   -6.842;  724.809
431.416;   11.323;   -9.672;  698.241
432.008;   14.897;   -6.552;  651.723
432.599;   16.239;   -6.891;  656.073
433.190;   12.414;  -10.912;  637.670
433.782;   12.343;  -11.172;  590.395
434.373;   19.939;   -6.061;  884.765
434.964;   18.436;   -8.251;  602.920
435.556;   15.854;   -9.722;  634.537
436.147;   18.350;   -9.082;  758.490
436.738;   19.382;   -8.041;  701.099
437.329;   24.536;   -7.341;  721.723
437.920;   17.375;   -8.162;  666.688
438.511;   17.087;  -11.802;  564.526
439.103;   24.566;  -10.191;  623.998
439.694;   25.617;   -7.601;  681.583
440.285;   26.453;   -8.541;  764.432
440.876;   24.043;   -9.751;  845.738
441.466;   24.257;   -9.401;  575.162
442.057;   29.405;   -7.760;  665.814
442.648;   28.111;   -9.971;  746.255
443.239;   26.523;  -11.001;  620.477
443.830;   31.549;   -7.990;  704.958
444.421;   33.836;   -7.910;  655.474
445.011;   30.108;   -8.131;  693.619
445.602;   29.468;   -7.111;  743.126
446.193;   31.800;  -10.920;  488.117
446.783;   35.552;   -6.500;  640.397
447.374;   31.050;   -8.671;  692.759
447.964;   32.156;  -10.781;  713.770
448.555;   40.672;   -9.650;  822.742
449.145;   38.082;   -8.660;  662.853
449.736;   37.571;   -8.990;  803.179
450.326;   37.444;   -9.500;  713.626
450.917;   43.052;   -8.680;  675.324
451.507;   42.575;   -7.520;  600.661
452.097;   42.779;   -8.590;  746.267
452.688;   43.174;  -11.340;  742.160
453.278;   43.643;  -10.100;  566.840
453.868;   48.041;   -6.019;  793.550
454.458;   45.468;   -9.440;  651.141
455.048;   46.864;  -10.560;  711.783
455.639;   48.263;  -11.799;  567.096
456.229;   51.415;   -6.899;  710.694
456.819;   53.330;   -7.389;  751.158
457.409;   53.197;  -11.119;  773.993
457.999;   56.601;   -9.289;  737.505
458.589;   56.144;   -6.139;  686.606
459.179;   55.792;   -8.729;  717.658
459.769;   54.600;   -9.789;  627.099
460.358;   60.048;  -10.259;  797.262
460.948;   59.360;   -7.299;  689.503
461.538;   61.168;  -10.289;  660.677
462.128;   58.658;  -11.269;  664.934
462.717;   65.475;   -9.368;  710.326
463.307;   69.343;   -7.908;  705.846
463.897;   63.696;   -9.599;  656.942
464.486;   63.484;   -9.769;  837.128
465.076;   68.554;   -8.048;  733.776
465.666;   72.699;   -9.358;  652.900
466.255;   69.261;   -7.919;  785.651
466.845;   68.516;  -11.689;  666.749
467.434;   72.009;   -7.818;  725.873
468.023;   73.211;   -7.678;  658.357
468.613;   70.129;  -10.939;  713.946
469.202;   75.793;  -10.118;  646.507
469.791;   79.228;   -9.108;  737.811
470.381;   81.503;   -6.058;  742.813
470.970;   79.981;  -10.428;  711.099
471.559;   80.944;  -10.268;  733.291
472.148;   84.961;   -8.448;  675.737
472.738;   86.768;   -6.917;  765.466
473.327;   86.135;  -11.978;  637.529
473.916;   85.342;  -11.888;  737.446
474.505;   90.574;   -9.437;  751.703
475.094;   93.864;   -6.747;  806.570
475.683;   92.376;   -9.367;  797.699
476.272;   93.960;  -12.637;  730.632
476.861;   96.726;  -10.027;  706.754
477.449;  103.578;   -8.716;  728.487
478.038;   97.700;   -9.577;  692.513
478.627;   99.034;   -9.718;  714.852
479.216;  105.751;   -8.947;  769.441
479.805;  109.068;   -6.256;  783.375
480.393;  108.130;   -7.937; 1008.945
480.982;  107.251;   -7.717;  874.501
481.571;  114.219;   -9.266;  858.333
482.159;  115.264;   -7.636;  705.386
482.748;  114.275;   -9.667;  821.385
483.336;  119.495;  -10.376;  858.209
483.925;  120.220;   -7.147;  774.373
484.513;  127.308;   -7.996;  758.962
485.102;  123.424;  -10.027;  810.965
485.690;  131.435;  -10.446; 1011.050
486.278;  134.300;   -8.446;  979.329
486.867;  135.504;   -6.356;  809.662
487.455;  137.263;   -9.136;  898.229
488.043;  138.576;  -10.646;  748.361
488.631;  148.236;   -7.456; 1005.079
489.220;  151.359;   -6.636;  908.626
489.808;  152.953;  -11.036;  741.415
490.396;  161.153;  -10.246;  914.645
490.984;  166.918;   -8.556;  830.161
491.572;  177.162;   -5.886;  940.315
492.160;  183.319;   -9.486;  919.081
492.748;  197.178;  -10.976;  884.341
493.336;  220.249;   -8.776; 1019.693
493.924;  247.910;   -5.465;  958.077
494.512;  278.893;   -9.986; 1066.638
495.100;  317.227;  -10.636; 1103.280
495.687;  375.914;  -10.885; 1206.373
496.275;  444.093;   -8.126; 1150.796
496.863;  518.187;  -10.586; 1281.171
497.451;  625.055;  -11.926; 1386.805
498.038;  766.881;  -10.885; 1556.729
498.626;  880.099;   -6.315; 1741.407
499.214; 1047.987;   -7.326; 2016.609
499.801; 1265.290;  -11.906; 2220.633
500.389; 1530.333;  -10.466; 2312.494
500.976; 1832.584;   -5.236; 2744.849
501.564; 2305.121;   -8.936; 3148.565
502.151; 2684.891;  -13.176; 3515.999
502.738; 3114.023;  -10.646; 3971.274
503.326; 3565.554;   -9.525; 4403.796
503.913; 3999.978;  -10.856; 5161.749
504.500; 4428.866;  -11.586; 5986.420
505.088; 4841.869;  -10.336; 6381.201
505.675; 5423.750;   -6.355; 6925.547
506.262; 6123.685;   -9.046; 7619.060
506.849; 6896.014;  -10.416; 8733.969
507.436; 7470.462;  -10.305; 9790.121
508.023; 8095.019;   -5.496; 9985.472
508.610; 8409.816;   -7.856;10434.618
509.197; 9095.054;  -10.097;11198.435
509.784;10524.409;  -10.886;12391.194
510.371;11819.082;   -9.315;13603.713
510.958;12628.719;   -9.936;14426.586
511.545;13395.854;   -9.326;15243.775
512.132;14237.109;  -10.075;15945.876
512.719;14699.547;   -7.796;16340.369
513.305;15881.278;  -10.606;18011.766
513.892;16637.846;  -11.486;19754.971
514.479;17863.850;   -9.126;20967.805
515.066;19631.225;   -6.026;22299.793
515.652;21561.098;   -8.466;22908.660
516.239;22774.594;  -10.886;23798.875
516.825;23511.041;  -11.496;25567.275
517.412;24462.920;   -5.796;28154.959
517.998;25379.307;  -10.506;28344.111
518.585;25573.262;  -10.076;27134.219
519.171;26247.168;   -8.315;27268.576
519.758;28141.459;   -8.596;28964.129
520.344;30424.982;   -8.466;30664.494
520.930;30210.313;  -11.006;32550.605
521.516;31081.203;  -10.495;35422.895
522.103;32921.832;   -5.526;38280.004
522.689;33287.449;   -8.746;37835.117
523.275;33074.496;  -11.376;37288.613
523.861;35143.508;  -11.156;37281.395
524.447;37051.621;   -8.135;37846.949
525.033;36818.461;   -7.896;38321.949
525.619;36974.629;  -12.476;38579.285
526.205;38496.895;   -9.516;40622.875
526.791;41694.133;   -6.926;42258.836
527.377;41748.867;   -8.346;42966.902
527.963;42723.535;   -8.717;42018.949
528.549;41981.082;  -11.016;42476.828
529.135;40399.543;   -8.536;41854.852
529.721;39085.188;   -9.666;41237.711
530.306;38215.906;  -10.066;41259.445
530.892;37801.660;  -11.356;41506.047
531.478;39320.109;   -6.596;43559.613
532.063;43184.703;   -8.836;47695.563
532.649;44749.063;  -10.047;50808.324
533.235;45024.555;   -9.746;51787.500
533.820;44499.277;   -6.566;52145.035
534.406;46022.848;  -10.817;51133.488
534.991;46134.551;   -9.416;49996.805
535.576;44207.328;   -9.036;48882.852
536.162;45148.059;   -6.156;46942.285
536.747;46500.777;  -11.607;45711.746
537.333;49076.648;  -11.787;48510.180
537.918;52429.531;  -12.437;50439.891
538.503;52085.793;   -7.196;50863.711
539.088;48307.145;  -10.556;50906.922
539.673;47471.441;   -8.767;52621.965
540.259;48244.434;  -10.026;52368.094
540.844;45939.289;   -7.416;50879.109
541.429;48116.289;   -9.467;52077.777
542.014;50181.762;   -9.527;52716.695
542.599;48972.129;   -9.946;52363.281
543.184;45940.430;   -7.927;53187.137
543.769;47089.051;   -9.297;54697.605
544.354;47205.371;  -10.127;53913.914
544.938;45568.707;   -9.267;49680.164
545.523;47245.352;   -6.506;47386.277
546.108;50515.109;   -9.787;49151.949
546.693;52427.363;  -11.587;51384.637
547.278;52661.023;  -10.986;51853.254
547.862;50001.523;   -8.206;51173.750
548.447;45561.531;  -10.067;51691.395
549.031;44345.414;   -9.637;52456.703
549.616;48823.270;   -9.926;52714.516
550.201;49016.898;   -6.347;52414.598
550.785;50476.137;   -7.917;52355.059
551.370;49345.324;  -10.867;54589.453
551.954;48229.219;   -9.047;58267.348
552.538;49039.758;   -7.827;59062.176
553.123;47521.660;  -10.287;58115.285
553.707;44955.203;  -12.178;56556.285
554.291;46589.395;   -8.717;56201.668
554.876;50434.645;   -7.457;55335.762
555.460;50644.082;  -10.387;54155.703
556.044;50714.152;   -9.618;53721.484
556.628;48461.965;  -11.567;53731.016
557.212;46910.770;   -8.097;54312.531
557.796;45709.602;  -11.077;53797.773
558.380;46203.633;  -11.108;56145.984
558.964;46345.820;   -9.057;57277.930
559.548;47603.766;   -6.977;56459.641
560.132;45514.637;  -11.457;54434.543
560.716;43335.379;  -11.378;54800.617
561.300;44135.457;   -9.577;57606.945
561.884;45333.184;   -7.127;58972.445
562.467;43134.258;   -7.118;57327.570
563.051;42693.266;  -13.358;54962.434
563.635;44584.004;  -10.178;52594.473
564.219;44957.402;   -7.837;50610.410
564.802;45746.555;  -11.398;49551.180
565.386;45218.180;  -12.788;48370.953
565.969;44251.227;   -9.077;48178.871
566.553;42611.996;   -6.207;49957.305
567.136;43760.750;   -8.568;50369.594
567.720;40988.453;  -11.868;49492.004
568.303;38845.781;   -8.268;50616.352
568.887;38829.859;   -8.698;50727.148
569.470;39385.516;   -6.808;51698.379
570.053;38675.344;  -13.188;52122.078
570.637;36119.516;  -12.037;52536.438
571.220;35817.609;   -8.577;51186.098
571.803;37061.813;   -8.498;51032.762
572.386;39118.113;  -10.498;49609.887
572.969;41385.688;   -9.388;48285.926
573.552;40011.875;   -8.338;47624.285
574.135;38303.902;   -8.518;45498.641
574.718;35757.164;  -13.628;41970.434
575.301;35352.703;  -10.893;41447.137
575.884;34948.242;   -8.158;40923.836
576.467;36256.766;  -10.328;45267.723
577.050;37295.324;  -13.058;48175.543
577.633;38117.902;   -9.458;47729.328
578.216;37416.613;   -8.928;47579.793
578.799;36612.629;   -9.358;47820.996
579.381;35922.828;  -11.388;48115.551
579.964;33678.426;  -11.718;47333.766
580.547;35934.914;   -8.588;46668.969
581.129;36841.754;   -8.859;44466.141
581.712;37734.809;  -10.729;44164.922
582.294;38052.426;  -11.118;46477.855
582.877;37917.582;   -5.218;48244.254
583.459;36383.367;   -8.679;47437.895
584.042;34310.969;  -10.709;46943.219
584.624;33832.156;  -11.669;46792.227
585.206;33628.531;   -8.218;46557.250
585.789;33709.332;  -10.569;45793.773
586.371;36010.145;  -11.859;43836.391
586.953;36915.367;  -10.719;42972.492
587.536;37846.090;   -7.198;42487.211
588.118;38626.691;   -8.720;42086.414
588.700;34201.348;  -10.439;43389.930
589.282;33110.031;   -9.198;43646.039
589.864;34162.016;   -9.199;43438.109
590.446;35578.938;  -11.319;43151.926
591.028;35798.258;  -11.159;42781.867
591.610;34422.078;  -11.779;42839.098
592.192;31402.230;   -7.668;42820.402
592.774;29950.664;  -11.949;40724.277
593.356;28812.137;  -12.129;39874.789
593.937;27812.945;  -10.669;39980.648
594.519;29966.488;   -6.509;42069.633
595.101;32012.521;  -10.849;42976.031
595.683;32131.322;  -11.679;44084.441
596.264;32887.398;   -9.049;43478.797
596.846;33130.156;   -8.849;43803.672
597.427;33348.129;   -9.570;42986.934
598.009;34658.148;  -12.620;42832.219
598.591;34741.707;  -10.039;42580.086
599.172;34372.410;  -10.369;43061.805
599.753;34476.031;   -9.140;41691.469
600.335;35761.016;  -11.430;40692.520
600.916;33867.492;   -9.939;39982.422
601.498;31629.428;   -8.479;40318.617
602.079;30219.281;  -10.920;40670.609
602.660;29688.258;  -11.480;41450.898
603.241;31469.922;  -11.699;41137.738
603.823;30455.150;   -9.579;38868.797
604.404;29027.844;  -10.620;38182.785
604.985;30785.582;  -10.450;38078.047
605.566;31421.738;   -9.129;38056.633
606.147;31432.590;   -7.510;37020.418
606.728;32617.758;  -10.660;37883.359
607.309;31112.684;  -11.740;38748.273
607.890;31117.908;   -9.759;38850.230
608.471;30765.254;   -8.250;37457.918
609.051;29951.678;   -9.240;36066.457
609.632;28693.756;  -12.120;35991.074
610.213;28615.955;   -9.110;37402.641
610.794;29325.639;   -8.030;38383.363
611.374;29327.107;   -8.110;40562.387
611.955;30727.527;  -13.560;38533.727
612.536;32250.727;  -11.400;36951.789
613.116;31407.525;   -8.070;37197.891
613.697;31715.352;  -10.830;38411.125
614.277;29805.775;  -11.641;38673.938
614.858;30468.752;  -13.310;37075.863
615.438;30086.352;   -7.460;35092.906
616.019;28129.768;   -7.601;33666.301
616.599;28340.713;  -12.020;34189.023
617.179;29975.100;  -11.780;36952.047
617.760;31286.387;   -8.570;39582.574
618.340;32063.811;  -11.471;38943.977
618.920;33033.051;  -11.170;37594.156
619.500;33128.480;  -11.071;37866.938
620.080;31825.512;   -7.750;37869.043
620.660;32623.121;  -12.711;36868.617
621.241;34362.520;  -10.211;36352.309
621.821;35294.645;  -10.961;35459.520
622.401;34072.668;   -7.720;35207.414
622.980;32715.635;   -8.981;35980.422
623.560;31271.982;   -9.331;37351.328
624.140;29692.178;   -9.850;34388.582
624.720;25106.930;   -7.451;32368.764
625.300;21927.457;   -9.070;32638.629
625.880;25259.826;  -12.601;34599.035
626.459;29243.893;  -11.751;36831.738
627.039;32070.563;   -9.281;38299.098
627.619;32011.127;   -8.801;38289.574
628.198;30658.920;  -12.071;37220.695
628.778;29714.578;   -9.461;37632.563
629.357;30094.375;   -8.491;38003.012
629.937;30230.824;   -9.721;38402.039
630.516;29754.865;   -9.951;37868.801
631.096;29711.057;  -11.731;35760.410
631.675;31481.750;   -8.572;35225.219
632.254;36635.133;  -11.282;35130.289
632.834;36412.379;  -13.322;35794.570
633.413;34723.828;  -10.301;35788.922
633.992;32534.518;   -8.582;34532.863
634.571;32816.254;   -8.352;33590.113
635.151;35473.066;  -11.912;34943.863
635.730;34314.219;  -10.511;35352.523
636.309;31155.219;   -7.731;35366.605
636.888;28393.498;   -9.952;36165.637
637.467;28459.600;  -11.672;37515.902
638.046;29761.486;   -8.901;39288.695
638.625;32389.680;   -7.912;38279.699
639.204;32344.682;  -10.022;37741.598
639.782;31438.176;  -12.252;38364.551
640.361;27966.500;  -10.041;36740.621
640.940;25349.816;  -11.161;34950.082
641.519;26348.111;   -9.701;34137.398
642.097;29166.277;  -11.271;35654.258
642.676;31629.732;   -8.651;35637.957
643.255;32971.492;   -8.711;36567.074
643.833;32496.660;   -9.581;37809.434
644.412;32345.656;  -13.711;37337.293
644.990;31143.482;  -11.811;37018.531
645.569;30610.342;   -9.411;36518.469
646.147;30349.535;  -10.291;36186.430
646.726;31022.107;  -12.401;36267.688
647.304;32094.383;  -10.411;36647.625
647.882;33145.234;   -9.651;39286.742
648.461;34674.777;   -9.631;39157.703
649.039;33283.605;  -11.881;35412.883
649.617;32193.184;   -9.661;34744.918
650.195;31129.273;   -9.301;35403.098
650.773;29953.979;  -10.511;35053.797
651.352;27754.088;  -11.521;33756.816
651.930;25280.162;  -12.211;31868.773
652.508;23709.285;   -9.171;33121.551
653.086;27399.078;   -9.371;33564.793
653.663;30800.734;  -13.161;34054.668
654.241;29354.967;  -13.031;35693.309
654.819;30430.564;   -9.371;36422.906
655.397;30354.365;  -10.511;38213.484
655.975;29786.270;  -10.371;39507.625
656.553;29674.914;  -10.051;39498.223
657.130;28383.176;  -10.061;40395.480
657.708;27383.219;   -9.561;39242.020
658.286;27496.977;  -11.511;38920.020
658.863;28867.686;  -10.261;40202.898
659.441;32217.623;   -7.531;39677.938
660.018;32415.395;   -9.501;40413.355
660.596;30827.906;  -13.301;39931.414
661.173;32018.154;  -11.211;39604.531
661.750;32449.256;   -9.951;39700.070
662.328;31198.143;   -9.390;39292.809
662.905;30399.260;  -11.330;38235.648
663.482;26751.539;   -9.050;36212.305
664.060;24738.449;   -8.240;35944.945
664.637;27400.568;  -10.050;35170.785
665.214;28591.012;  -11.760;34197.523
665.791;30236.738;  -10.530;34549.520
666.368;29667.848;   -9.690;35118.578
666.945;30021.496;   -9.320;36019.418
667.522;31615.732;  -11.860;36048.438
668.099;31333.994;  -10.770;36243.914
668.676;29943.473;   -6.260;35958.875
669.253;28656.883;   -7.000;37384.730
669.830;28801.354;  -10.190;36779.629
670.407;28785.135;   -9.550;35231.289
670.984;28499.162;   -9.260;35544.270
671.560;29579.500;   -9.280;35466.867
672.137;29180.150;  -11.810;34280.863
672.714;29955.895;  -11.490;34632.863
673.290;31175.080;   -7.740;35135.422
673.867;31175.383;  -10.660;36114.480
674.443;31092.268;  -12.230;36152.859
675.020;29052.523;  -10.450;35327.238
675.596;29759.637;   -9.260;35795.176
676.173;30314.561;  -10.780;35430.355
676.749;30066.117;  -13.690;33549.516
677.326;29985.453;  -11.980;32210.012
677.902;29941.875;   -8.630;32068.871
678.478;29439.902;  -10.730;32583.891
679.054;28286.256;  -10.520;32088.928
679.631;28412.955;  -11.920;30978.848
680.207;29890.643;   -7.490;33160.887
680.783;31419.801;   -9.860;35570.363
681.359;30598.416;  -13.380;36125.184
681.935;30317.334;  -12.480;35240.922
682.511;30632.426;   -7.900;34429.961
683.087;31199.379;   -7.710;34463.680
683.663;30163.123;  -11.480;34648.898
684.239;28522.652;  -14.090;34546.457
684.815;27789.467;   -7.560;35586.375
685.390;27981.840;   -9.910;35821.895
685.966;28634.943;  -11.159;35085.871
686.542;30810.129;  -11.169;34198.230
687.118;33253.699;   -5.959;32847.707
687.693;33973.836;  -10.329;32794.027
688.269;33577.762;  -12.059;33072.367
688.844;31938.084;  -10.909;33141.664
689.420;30112.096;   -8.019;33965.742
689.995;28418.859;   -8.399;34655.523
690.571;26894.908;  -10.949;33576.742
691.146;26706.029;   -9.619;32657.219
691.722;26678.012;   -8.999;32526.979
692.297;25995.502;  -11.589;33014.617
692.872;27057.998;  -11.739;34012.254
693.448;27059.271;  -11.059;34237.434
694.023;26125.705;  -10.139;34142.672
694.598;27899.949;   -9.029;34132.031
695.173;28794.783;  -13.319;34205.250
695.748;27599.959;  -10.169;32882.488
696.323;27572.941;   -8.339;32864.906
696.898;28071.051;   -8.169;33170.004
697.473;28524.908;  -12.309;32432.984
698.048;27916.740;  -10.989;31649.303
698.623;27392.846;   -9.329;30778.141
699.198;28529.801;   -9.849;31140.119
699.773;29924.441;  -12.329;31764.299
700.348;28721.789;  -10.389;31780.816
700.922;28785.760;   -9.269;32046.375
701.497;30108.410;   -9.329;32603.574
702.072;30662.004;  -10.789;34799.871
702.646;29092.926;  -10.839;35793.172
703.221;26492.150;   -9.099;35201.590
703.795;28113.705;  -10.939;34764.527
704.370;28647.639;  -12.859;34307.367
704.944;28930.047;  -11.559;33509.887
705.519;29421.172;   -7.939;31388.584
706.093;30438.570;  -10.499;31340.104
706.668;31199.939;  -11.289;32630.281
707.242;30127.896;  -11.509;32728.779
707.816;28797.355;   -9.639;32947.238
708.390;27303.594;  -11.429;33277.855
708.965;27594.467;  -11.869;33834.336
709.539;27332.740;  -11.689;33709.273
710.113;27334.865;  -10.478;33044.313
710.687;27029.453;  -10.228;31953.992
711.261;25785.316;  -13.698;30505.949
711.835;25485.594;  -13.378;30262.369
712.409;25561.852;   -9.698;31254.447
712.983;27620.865;  -11.898;32754.986
713.557;29074.668;  -15.138;34018.824
714.131;29010.035;  -14.098;34579.625
714.704;28042.914;   -9.958;33890.262
715.278;25473.188;  -10.028;33531.102
715.852;24084.111;  -11.148;33601.660
716.425;25084.459;   -9.068;33515.117
716.999;26369.766;  -10.038;33185.555
717.573;27371.576;   -9.798;33905.996
718.146;28508.697;  -12.378;35199.293
718.720;28677.518;  -11.918;35060.551
719.293;28572.264;   -8.088;34973.230
719.867;31560.203;  -10.888;36394.449
720.440;31516.611;  -11.938;36663.008
721.013;29749.537;  -12.818;35102.426
721.587;28057.416;  -10.298;33985.266
722.160;26707.115;  -10.048;33524.965
722.733;25596.512;  -12.108;32987.043
723.306;25766.967;  -10.818;33066.301
723.880;27944.195;   -8.908;33399.500
724.453;30562.428;   -9.878;33468.297
725.026;30106.688;  -11.188;33816.637
725.599;27053.928;  -11.678;32797.996
726.172;26517.301;   -9.618;33187.434
726.745;27427.877;   -8.258;35136.613
727.318;28494.906;  -12.978;35751.730
727.891;29337.453;  -12.148;35890.430
728.463;29082.867;   -8.968;34822.090
729.036;27833.223;  -10.188;32895.086
729.609;28320.084;  -11.788;31823.225
730.182;25770.623;  -11.788;31445.283
730.754;23462.240;  -10.268;32373.223
731.327;23809.148;   -9.998;33676.820
731.900;24039.041;  -12.228;33417.000
732.472;24511.229;  -13.848;31978.498
733.045;25963.018;   -8.698;30368.777
733.617;26096.613;  -10.607;30574.215
734.190;26622.434;  -11.507;31280.975
734.762;24653.422;  -13.647;31674.412
735.334;22667.295;   -9.767;31247.291
735.907;22860.732;   -9.897;29876.211
736.479;23352.578;  -11.637;29808.488
737.051;23060.154;   -9.567;30233.547
737.623;23483.088;   -8.187;31469.086
738.195;23543.182;  -11.187;31784.225
738.768;25261.061;  -12.337;32120.523
739.340;26429.471;  -12.227;32094.342
739.912;25902.783;  -11.057;31312.680
740.484;24498.037;  -10.207;31946.238
741.056;22700.307;  -10.047;32984.059
741.628;23737.816;  -13.627;33897.715
742.199;25791.094;   -7.177;33213.016
742.771;24540.400;  -10.797;31369.113
743.343;22639.188;  -11.997;31865.473
743.915;21655.684;  -12.867;32388.631
744.487;21506.385;   -7.617;31079.568
745.058;21636.465;   -9.557;30570.107
745.630;22273.275;   -9.877;29970.127
746.201;23670.738;  -14.177;29186.766
746.773;24553.646;   -9.237;28805.723
747.344;24304.150;   -9.847;29591.223
747.916;22257.934;  -11.657;31412.201
748.487;22038.445;  -10.587;32194.898
749.059;23287.777;   -8.707;32533.719
749.630;24060.744;  -10.537;32158.518
750.201;22948.770;  -11.687;30855.395
750.773;21227.623;  -11.647;28622.555
751.344;20910.732;   -7.147;28405.732
751.915;21765.340;   -9.757;28461.551
752.486;22190.652;  -12.427;27842.850
753.057;20488.939;  -12.227;27845.008
753.628;19264.479;  -10.417;27728.107
754.199;20086.971;  -11.767;27381.086
754.770;21151.818;  -11.187;25882.203
755.341;21422.652;  -10.507;25886.184
755.912;21599.541;   -9.387;26050.861
756.483;21112.008;  -10.647;26798.779
757.054;19388.584;  -11.837;27048.238
757.625;18010.379;  -12.716;26294.838
758.195;17729.188;   -9.666;26142.076
758.766;17321.480;   -8.656;26392.234
759.337;17871.424;  -12.856;26334.594
759.907;19236.840;  -13.366;27579.652
760.478;20129.996;   -8.576;28352.770
761.048;19738.852;  -10.526;27325.088
761.619;18733.875;  -11.116;26460.428
762.189;18728.104;  -12.136;26029.826
762.760;19587.377;   -9.456;26430.145
763.330;20858.932;   -7.136;26670.902
763.900;20639.916;  -11.786;26603.021
764.471;18489.178;  -11.546;25542.740
765.041;17215.928;   -8.096;24358.459
765.611;16909.756;   -8.876;23991.297
766.181;16977.514;  -12.196;24470.236
766.751;17976.184;  -11.636;24845.975
767.321;17936.592;  -10.156;24533.633
767.891;16173.250;  -11.766;24916.492
768.461;15583.454;  -14.936;24776.771
769.031;16005.377;  -12.356;24757.988
769.601;17705.820;   -7.526;24181.088
770.171;17864.725;  -10.766;23670.387
770.741;16759.459;  -13.176;22960.045
771.311;16548.855;  -10.616;22917.523
771.880;17209.875;   -9.576;23562.941
772.450;17214.016;  -10.336;24216.500
773.020;17040.293;  -13.516;24140.398
773.589;16141.165;  -13.466;24414.857
774.159;15420.006;   -8.686;23858.717
774.729;15127.805;   -9.476;22942.135
775.298;14904.003;  -13.666;22324.033
775.867;14467.167;  -11.716;21140.313
776.437;14726.236;   -9.906;20838.092
777.006;14582.926;  -12.166;20599.510
777.576;14129.492;  -12.356;20508.809
778.145;13930.563;  -11.646;20732.947
778.714;14004.320;   -8.226;21062.465
779.283;13544.845;   -9.556;20949.664
779.853;12957.143;  -14.116;20508.623
780.422;13281.828;  -11.506;20649.082
780.991;12907.522;   -9.556;21527.520
781.560;11664.189;   -9.095;22632.658
782.129;11488.168;  -12.135;23048.277
782.698;11538.318;  -10.865;23438.555
783.267;11177.877;   -9.335;23267.734
783.836;11048.326;  -11.045;22415.133
784.404;11968.186;  -13.865;20443.152
784.973;12685.735;  -13.095;19699.150
785.542;12771.366;  -11.575;19763.828
786.111;12561.261;   -9.705;20341.408
786.679;12119.293;  -12.105;20207.967
787.248;11848.656;  -12.455;19516.465
787.817;11692.231;  -11.535;18900.363
788.385;11444.467;   -9.765;17879.121
788.954;10994.854;  -14.005;17658.301
789.522;10307.362;  -11.955;17788.879
790.090;10620.289;  -10.135;18118.277
790.659;11240.920;  -10.975;18338.736
791.227;10899.726;  -13.375;18508.615
791.795;11208.732;  -12.375;17898.254
792.364;11553.059;  -10.725;17295.133
792.932;11952.400;   -9.715;16822.051
793.500;12216.624;  -12.675;17040.148
794.068;12334.578;  -13.495;17179.787
794.636;12503.944;  -10.885;16664.246
795.204;11820.063;  -11.045;16524.545
795.772;11776.980;  -13.175;17274.564
796.340;11309.233;  -12.445;17891.002
796.908;11036.935;   -9.735;17648.561
797.476;10938.388;   -9.815;17064.080
798.044;10632.081;  -13.985;16672.777
798.612; 9951.167;  -13.115;17023.996
799.180; 9558.094;  -10.185;16561.615
799.747; 9384.503;   -9.055;15962.773
800.315; 9055.096;  -12.385;15296.992
800.883; 8843.047;  -15.035;14801.771
801.450; 9067.852;  -10.365;14534.430
802.018; 9217.015;   -9.855;14173.248
802.585; 9254.866;  -11.905;14029.547
803.153; 9232.648;  -11.585;13836.846
803.720; 9031.852;   -9.095;13567.324
804.287; 8555.015;   -9.135;13360.622
804.855; 8027.711;  -11.604;13681.981
805.422; 7851.990;  -11.794;13536.560
805.989; 7953.628;  -10.734;13355.958
806.556; 8115.894;  -10.444;13747.896
807.124; 8328.369;  -12.764;13987.376
807.691; 8277.542;  -12.964;14038.674
808.258; 8124.483;  -11.134;14120.152
808.825; 7860.079;   -9.854;13860.111
809.392; 7988.127;  -10.504;13268.790
809.959; 7513.007;  -13.054;12680.389
810.526; 6968.419;   -8.294;12427.308
811.093; 6896.711;   -8.394;12030.105
811.659; 7550.683;  -12.304;11653.664
812.226; 8212.383;  -13.944;11637.183
812.793; 8063.571;  -10.484;11611.521
813.360; 7427.441;  -10.144;11885.181
813.926; 7086.122;  -11.684;12770.539
814.493; 6883.334;  -13.644;12677.638
815.060; 6492.394;   -9.724;11974.336
815.626; 6393.798;   -9.854;11594.715
816.193; 6711.396;  -13.254;11579.474
816.759; 6748.602;  -13.204;11666.972
817.325; 6759.843;   -9.434;11325.530
817.892; 7083.791;  -10.134;11105.369
818.458; 7526.103;  -13.474;10843.928
819.024; 7221.881;  -11.854;10714.406
819.591; 6904.058;  -10.244;10469.165
820.157; 6684.889;  -10.704;10235.523
820.723; 6151.210;  -12.324;10847.563
821.289; 5827.976;   -9.444;11040.980
821.855; 5786.560;   -8.374;10357.100
822.421; 5833.086;  -10.234; 9978.918
822.987; 5876.402;  -13.294; 9754.177
823.553; 5486.421;  -10.884;10065.755
824.119; 5198.288;   -8.884;10036.294
824.685; 5305.624;   -6.784;10029.192
825.251; 5444.833;  -12.004;10199.230
825.816; 5404.258;  -11.474; 9820.189
826.382; 5109.407;   -9.174; 9297.248
826.948; 5206.261;   -9.214; 9381.347
827.513; 5630.037;  -10.774; 9450.726
828.079; 5585.979;  -11.924; 9472.444
828.645; 5005.661;  -10.543; 9292.643
829.210; 4759.938;  -10.533; 9065.341
829.776; 4710.037;  -10.753; 9132.620
830.341; 4578.384;  -10.173; 9092.878
830.906; 4689.951;  -10.743; 9078.557
831.472; 5032.023;  -11.113; 8534.535
832.037; 4902.075;  -10.603; 8677.874
832.602; 4430.500;  -13.323; 8628.692
833.167; 4170.708;  -10.823; 8879.031
833.733; 4120.854;  -10.113; 9189.790
834.298; 4263.696;  -13.583; 9052.608
834.863; 4426.809;  -12.703; 8895.087
835.428; 4453.366;  -10.523; 8824.266
835.993; 4274.762;   -6.963; 8845.385
836.558; 4064.669;  -10.763; 8888.563
837.123; 4097.339;   -9.903; 8966.582
837.688; 4338.904;   -9.913; 8617.860
838.253; 4635.786;  -10.283; 8590.699
838.817; 4830.674;  -12.963; 8443.797
839.382; 4736.040;  -14.243; 8799.356
839.947; 4437.791;  -10.733; 8810.595
840.511; 4159.885;   -9.383; 8796.394
841.076; 3814.356;  -12.563; 8347.231
841.641; 3861.178;  -12.953; 8224.330
842.205; 3980.703;   -7.043; 8223.349
842.770; 3979.814;   -8.163; 8622.107
843.334; 4045.457;  -12.503; 8410.386
843.898; 3978.722;  -11.693; 8337.465
844.463; 3977.830;  -10.203; 8506.283
845.027; 3801.891;   -9.533; 8280.962
845.591; 3635.708;  -13.443; 8231.141
846.156; 3663.293;  -13.143; 7969.179
846.720; 3583.382;   -9.433; 7768.278
847.284; 3486.798;  -11.033; 7630.957
847.848; 3362.532;  -10.403; 7472.395
848.412; 3277.738;  -11.553; 7437.394
848.976; 3319.886;   -8.393; 7674.592
849.540; 3222.863;   -8.713; 7836.011
850.104; 3247.645;  -12.463; 7913.669
850.668; 3596.743;  -12.973; 7694.508
851.232; 3784.245;  -10.793; 7756.887
851.796; 3670.748;  -10.662; 7926.545
852.359; 3368.020;  -13.082; 7827.844
852.923; 3173.418;  -12.192; 7641.163
853.487; 3031.092;  -11.912; 7342.501
854.050; 3014.694;  -10.892; 7042.820
854.614; 3146.936;  -13.992; 7151.338
855.177; 3249.436;  -11.732; 7105.077
855.741; 3278.852;   -8.962; 6989.675
856.304; 3167.475;   -9.442; 6596.634
856.868; 3138.558;  -14.192; 6356.272
857.431; 3249.178;  -12.702; 6468.571
857.995; 3380.718;   -9.942; 6373.210
858.558; 3429.578;   -9.112; 6324.448
859.121; 3187.027;  -12.932; 6408.327
859.684; 3003.385;  -13.442; 6347.886
860.247; 3093.857;  -10.632; 6321.264
860.810; 3150.141;  -11.272; 6301.903
861.374; 2929.851;   -9.832; 6607.881
861.937; 2673.209;  -11.762; 6408.200
862.500; 2669.212;   -9.722; 6572.639
863.062; 2808.292;  -10.512; 6387.297
863.625; 2939.945;  -11.232; 6190.836
864.188; 3091.950;  -14.112; 5807.254
864.751; 3164.697;  -11.302; 5682.413
865.314; 3082.604;  -10.112; 5547.492
865.876; 2853.542;  -12.182; 5500.150
866.439; 2795.403;  -10.722; 5415.909
867.002; 2765.527;   -9.252; 5501.567
867.564; 2603.098;   -9.572; 5413.946
868.127; 2414.521;  -13.142; 5160.325
868.689; 2296.602;  -12.902; 5133.183
869.252; 2199.743;   -9.732; 5252.382
869.814; 2105.765;   -9.432; 5297.141
870.377; 2100.403;  -11.552; 5390.919
870.939; 2150.243;   -9.052; 5599.898
871.501; 2215.627;  -10.982; 5248.336
872.063; 2231.721;  -12.292; 4854.235
872.626; 2173.218;  -14.912; 4817.074
873.188; 2158.680;  -13.112; 4987.732
873.750; 2137.738;  -13.442; 4868.651
874.312; 2055.252;   -9.402; 4779.330
874.874; 1979.668;  -11.062; 4866.348
875.436; 1897.949;  -13.931; 4718.887
875.998; 1888.028;   -9.561; 4660.005
876.560; 1923.497;  -11.321; 4462.964
877.122; 1868.948;  -12.221; 4145.042
877.683; 1759.058;  -12.191; 4056.481
878.245; 1674.081;  -12.101; 3950.740
878.807; 1713.216;   -8.971; 4058.958
879.369; 1743.780;  -12.071; 3954.677
879.930; 1656.177;  -14.621; 3941.495
880.492; 1585.331;  -10.311; 4067.014
881.053; 1560.813;  -10.901; 3859.633
881.615; 1477.633;  -14.411; 3776.071
882.176; 1375.989;  -13.761; 3734.750
882.738; 1314.193;   -9.181; 3678.489
883.299; 1285.537;  -11.791; 3405.407
883.860; 1267.297;  -13.121; 3351.106
884.422; 1254.936;  -11.211; 3394.044
884.983; 1218.238;  -10.091; 3166.443
885.544; 1152.926;   -8.461; 3189.802
886.105; 1079.922;  -12.361; 3160.360
886.666; 1013.979;  -14.141; 3093.059
887.227;  954.880;  -11.361; 2941.957
887.788;  896.602;  -11.401; 2974.836
888.349;  830.121;  -13.791; 2721.214
888.910;  817.992;  -13.191; 2696.493
889.471;  822.034;   -9.881; 2560.172
890.032;  807.884;   -9.881; 2558.190
890.593;  782.253;  -10.371; 2567.669
891.153;  754.911;  -13.301; 2460.307
891.714;  711.373;  -11.431; 2372.046
892.275;  679.680;  -11.291; 2309.505
892.835;  652.065;  -11.471; 2382.543
893.396;  605.070;  -11.541; 2295.502
893.956;  549.832;  -11.181; 2162.420
894.517;  508.023;  -11.741; 2125.439
895.077;  497.186;  -11.671; 2086.978
895.638;  499.310;  -11.311; 2126.316
896.198;  475.217;   -9.831; 1838.275
896.758;  433.547;   -8.421; 1892.813
897.319;  402.652;  -12.351; 1792.232
897.879;  386.221;  -13.511; 1762.751
898.439;  364.774;  -12.001; 1661.149
898.999;  340.232;  -10.180; 1781.468
899.559;  329.320;  -12.030; 1703.347
900.119;  325.584;  -15.710; 1537.525
900.679;  321.596;   -8.900; 1638.384
901.239;  306.670;   -8.340; 1527.902
901.799;  295.741;  -13.910; 1456.441
902.359;  289.785;  -13.460; 1357.140
902.919;  284.725;  -11.490; 1331.118
903.479;  272.379;  -12.110; 1317.257
904.038;  252.797;  -11.720; 1262.595
904.598;  238.224;  -13.610; 1152.034
905.158;  235.578;  -11.040; 1240.893
905.717;  230.711;  -10.900; 1233.691
906.277;  219.312;  -15.080; 1217.330
906.836;  210.054;  -13.380; 1222.408
907.396;  201.559;  -10.780; 1193.047
907.955;  193.052;   -8.500; 1182.526
908.515;  188.654;  -12.760; 1099.364
909.074;  182.057;  -11.900; 1092.863
909.633;  177.602;   -8.950; 1069.121
910.192;  172.839;   -8.770; 1196.460
910.752;  167.634;  -12.390; 1029.960
911.311;  163.990;  -13.680; 1009.780
911.870;  162.015;  -12.370;  971.460
912.429;  162.024;  -10.900; 1094.080
912.988;  160.043;  -11.690; 1081.060
913.547;  156.859;  -13.240;  940.380
914.106;  152.700;  -11.990;  999.420
914.665;  149.041;   -9.990;  984.020
915.224;  148.301;  -12.880; 1035.760
915.782;  148.049;  -12.350;  922.560
916.341;  148.153;   -9.110; 1049.840
916.900;  144.762;   -9.270;  925.260
917.458;  140.973;  -13.240;  884.220
918.017;  140.704;  -13.550;  942.600
918.576;  141.133;  -12.320;  904.440
919.134;  139.461;  -11.490;  837.980
919.693;  137.299;  -13.670;  893.060
920.251;  136.226;  -15.470;  876.500
920.809;  135.230;  -11.290;  839.580
921.368;  134.457;  -10.210;  885.360
921.926;  133.605;  -12.140;  842.940
922.484;  132.560;  -13.080;  903.360
923.042;  132.882;  -11.720;  880.340
923.601;  135.386;   -7.480;  998.680
924.159;  133.245;  -11.570;  935.560
924.717;  130.029;  -13.840;  841.080
925.275;  130.232;  -10.640;  903.240
925.833;  129.063;  -11.540;  779.320
926.391;  129.807;  -12.960;  938.380
926.949;  128.067;  -14.130;  857.680
927.506;  129.473;  -11.750;  903.500
928.064;  129.936;  -10.250;  877.580
928.622;  128.977;  -13.030;  880.100
929.180;  128.006;  -13.400;  814.180
929.737;  128.871;  -10.700;  808.540
930.295;  132.486;  -10.070;  928.480
930.853;  132.620;  -11.960;  849.100
931.410;  133.935;  -13.120;  821.120
931.968;  134.244;  -10.770;  940.660
932.525;  133.184;  -10.680;  909.380
933.082;  134.286;  -13.130;  811.440
933.640;  134.739;  -13.210;  925.900
934.197;  134.192;  -11.060;  886.360
934.754;  134.365;   -9.580;  897.780
935.312;  137.058;  -14.000;  863.340
935.869;  141.320;  -10.710; 1012.980
936.426;  142.554;   -9.860;  872.800
936.983;  142.996;   -9.710;  889.020
937.540;  142.053;  -13.990;  838.280
938.097;  141.759;  -14.040;  940.120
938.654;  143.703;  -10.310;  898.860
939.211;  144.668;  -10.560;  952.480
939.768;  147.553;  -13.900;  915.420
940.324;  150.538;  -14.760;  904.200
940.881;  153.191;  -10.370;  878.500
941.438;  154.464;   -8.260; 1021.200
941.995;  150.014;  -12.540;  992.560
942.551;  147.258;  -14.670;  875.620
943.108;  147.341;  -10.450;  937.920
943.664;  149.175;  -10.750;  869.340
944.221;  152.033;  -11.550; 1088.140
944.777;  149.187;  -14.770;  869.680
945.334;  149.222;  -12.820;  884.840
945.890;  150.932;  -10.130;  946.480
946.446;  150.779;  -13.470;  947.020
947.003;  153.236;  -12.120;  964.940
947.559;  156.780;   -9.980; 1063.040
948.115;  155.243;   -9.080; 1026.540
948.671;  153.446;  -10.830;  967.300
949.227;  150.319;  -12.440;  859.560
949.783;  149.356;  -12.910;  858.900
950.339;  150.560;  -10.270;  991.000
950.895;  149.736;  -13.630; 1023.840
951.451;  148.894;  -15.100;  925.280
952.007;  149.639;  -11.330;  998.540
952.563;  148.298;  -10.580;  937.780
953.118;  146.794;  -13.440;  904.940
953.674;  146.696;  -12.710;  935.780
954.230;  146.949;  -10.350;  949.640
954.785;  144.512;   -9.190;  936.640
955.341;  141.092;  -11.200;  998.160
955.897;  140.178;  -16.560;  834.660
956.452;  142.876;  -12.570;  953.840
957.008;  141.761;   -7.970; 1083.640
957.563;  139.058;  -11.940; 1009.540
958.118;  134.178;  -13.450;  877.700
958.674;  134.631;  -12.030;  946.780
959.229;  135.715;   -9.410; 1013.980
959.784;  133.987;  -12.000;  832.400
960.339;  132.341;  -14.780; 1001.280
960.894;  129.801;   -9.860;  963.760
961.449;  126.496;   -9.970;  859.960
962.004;  126.270;  -10.900; 1212.840
962.559;  121.287;  -13.150;  860.140
963.114;  117.840;  -13.740;  742.480
963.669;  117.735;   -9.820;  915.500
964.224;  115.674;  -13.890;  874.340
964.779;  115.029;  -12.600;  828.420
965.334;  117.137;  -10.950; 1017.860
965.888;  115.864;  -11.170;  875.360
966.443;  118.442;  -12.540;  972.380
966.998;  118.043;  -15.780;  819.460
967.552;  118.475;   -9.760;  908.380
968.107;  113.288;   -9.060;  868.300
968.661;  114.547;  -11.950;  922.440
969.216;  114.932;  -12.800;  856.280
969.770;  115.655;  -11.210;  917.200
970.324;  114.355;  -11.610;  923.140
970.879;  111.077;  -11.370;  947.180
971.433;  108.230;  -12.540;  952.720
971.987;  104.234;  -11.320;  895.340
972.541;  101.627;  -10.720;  917.100
973.095;   99.783;   -9.680; 1009.460
973.649;   98.156;  -11.440;  809.480
974.203;   97.806;  -11.210;  829.040
974.757;   97.229;  -10.240;  855.220
975.311;   97.501;  -13.720;  872.600
975.865;   97.050;  -13.770;  881.820
976.419;   95.770;  -11.690;  857.400
976.973;   95.332;   -9.510;  849.620
977.526;   96.903;  -12.620;  949.920
978.080;   95.809;  -12.010;  796.780
978.634;   98.648;  -10.170;  921.320
979.187;   95.781;   -9.020;  905.400
979.741;   93.248;   -9.820; 1018.380
980.294;   87.833;  -14.870;  789.160
980.848;   86.671;  -12.380;  717.220
981.401;   88.734;  -10.350;  816.540
981.955;   90.150;  -13.720;  844.300
982.508;   89.039;  -11.490;  746.340
983.061;   90.220;  -10.000;  915.260
983.615;   85.708;  -11.480;  798.800
984.168;   82.578;  -13.220;  770.080
984.721;   82.405;  -13.960;  880.760
985.274;   81.956;  -10.870;  867.500
985.827;   80.351;   -9.790;  834.220
986.380;   77.292;  -13.120;  721.340
986.933;   76.157;  -12.450;  864.800
987.486;   76.086;  -10.210;  861.920
988.039;   75.135;   -8.430;  863.100
988.591;   73.068;  -10.520;  893.260
989.144;   70.112;  -14.860;  737.260
989.697;   70.686;  -13.080;  758.740
990.250;   69.988;  -10.150;  858.100
990.802;   68.409;  -13.430;  755.860
991.355;   68.977;  -12.750;  974.880
991.907;   67.027;  -12.040;  864.320
992.460;   65.078;  -11.330;  753.760
993.012;   64.659;  -13.610;  749.540
993.565;   62.595;  -13.460;  711.360
994.117;   65.390;   -9.360;  950.780
994.669;   61.793;  -11.300;  701.320
995.221;   59.445;  -13.540;  791.920
995.774;   57.423;  -13.430;  787.580
996.326;   56.594;  -12.520;  740.220
996.878;   56.906;  -10.950;  838.420
997.430;   54.611;  -14.300;  699.860
997.982;   53.084;  -13.760;  750.140
998.534;   53.718;  -11.530;  739.060
999.086;   51.664;  -10.310;  738.220
999.638;   50.584;  -12.530;  661.380
1000.190;   49.630;  -11.840;  699.320
1000.741;   50.820;  -10.260;  742.700
1001.293;   49.899;   -8.860;  686.020
1001.845;   48.186;  -13.700;  676.640
1002.396;   48.061;  -12.100;  743.400
1002.948;   48.180;  -12.760;  737.400
1003.500;   46.784;  -10.380;  723.780
1004.051;   46.819;  -11.900;  907.580
1004.603;   45.232;  -12.250;  791.820
1005.154;   42.123;  -13.210;  608.980
1005.705;   41.660;  -10.950;  723.960
1006.257;   40.663;  -13.880;  707.220
1006.808;   39.449;  -12.840;  685.460
1007.359;   39.809;  -10.570;  763.240
1007.910;   38.576;   -9.620;  646.640
1008.461;   38.262;  -13.630;  732.940
1009.013;   36.740;  -17.200;  588.340
1009.564;   38.577;  -10.200;  793.520
1010.115;   36.563;  -12.570;  597.040
1010.665;   35.743;  -15.150;  602.160
1011.216;   35.976;  -14.480;  667.920
1011.767;   35.663;  -11.340;  697.920
1012.318;   35.851;   -9.780;  736.980
1012.869;   33.667;  -12.380;  679.000
1013.419;   32.856;  -15.560;  603.120
1013.970;   34.487;  -11.010;  666.640
1014.521;   33.578;  -11.610;  620.620
1015.071;   34.066;  -13.450;  670.380
1015.622;   32.577;  -13.870;  635.460
1016.172;   33.003;  -11.610;  596.820
1016.723;   32.825;  -12.120;  614.380
1017.273;   31.798;  -13.620;  604.160
1017.823;   31.682;  -14.140;  650.340
1018.374;   31.732;  -12.800;  611.760
1018.924;   31.757;  -12.340;  716.880
1019.474;   31.658;  -11.410;  718.880
1020.024;   30.652;  -14.770;  657.580
1020.574;   32.026;   -9.780;  726.160
1021.124;   31.822;   -8.560;  673.580
1021.674;   29.858;  -15.190;  559.120
1022.224;   30.886;  -13.530;  708.940
1022.774;   31.114;  -13.280;  668.820
1023.324;   31.270;  -10.690;  753.520
1023.874;   31.397;  -10.240;  875.760
1024.423;   28.969;  -12.540;  613.700
1024.973;   29.246;  -10.010;  610.760
1025.523;   29.196;  -10.550;  620.960
1026.072;   28.189;  -13.560;  606.420
1026.622;   27.848;  -15.120;  675.740
1027.172;   29.599;  -11.260;  715.660
1027.721;   27.989;  -11.410;  601.220
1028.270;   28.012;  -13.530;  663.400
1028.820;   27.770;  -13.680;  638.080
1029.369;   28.014;  -13.520;  612.700
1029.918;   28.124;  -10.980;  649.840
1030.468;   26.962;  -13.530;  564.780
1031.017;   26.830;  -13.170;  634.800
1031.566;   26.827;  -12.200;  608.900
1032.115;   27.405;   -9.960;  694.500
1032.664;   26.006;  -13.210;  596.480
1033.213;   26.163;  -12.500;  735.420
1033.762;   26.661;  -11.910;  635.620
1034.311;   26.129;   -9.640;  677.220
1034.860;   25.947;  -13.310;  691.000
1035.408;   25.859;  -11.830;  722.720
1035.957;   26.764;  -12.000;  719.540
1036.506;   24.634;  -11.690;  530.800
1037.055;   26.277;  -10.990;  844.320
1037.603;   24.628;  -15.120;  664.000
1038.152;   23.959;  -12.450;  534.760
1038.700;   24.557;  -10.560;  585.740
1039.249;   24.410;  -11.080;  681.220
1039.797;   24.147;  -12.540;  633.360
1040.345;   24.775;  -11.920;  705.420
1040.894;   24.464;  -11.410;  625.300
1041.442;   23.072;  -14.320;  632.200
1041.990;   22.879;  -16.240;  559.160
1042.538;   22.557;  -11.680;  536.180
1043.087;   23.067;  -10.760;  570.860
1043.635;   24.120;  -11.850;  670.500
1044.183;   22.080;  -15.480;  586.400
1044.731;   22.563;  -11.770;  576.000
1045.279;   22.339;  -13.090;  674.920
1045.827;   23.689;  -12.440;  892.400
1046.374;   20.014;  -13.840;  515.420
1046.922;   21.477;  -13.220;  590.580
1047.470;   23.137;  -10.230;  691.300
1048.018;   21.838;  -14.590;  647.960
1048.565;   22.102;  -12.050;  708.600
1049.113;   20.801;  -11.650;  557.000
1049.660;   21.367;  -10.510;  629.660
1050.208;   21.554;  -13.310;  675.640
1050.755;   20.469;  -15.900;  606.580
1051.303;   21.815;  -11.430;  686.820
1051.850;   20.795;   -8.480;  635.120
1052.397;   17.927;  -15.010;  473.960
1052.945;   19.555;  -13.960;  617.760
1053.492;   21.472;  -13.150;  741.840
1054.039;   20.605;   -9.630;  720.180
1054.586;   19.804;  -13.680;  557.240
1055.133;   20.246;  -14.570;  693.140
1055.680;   20.510;  -13.820;  646.620
1056.227;   19.120;  -11.730;  542.780
1056.774;   19.971;  -12.480;  794.980
1057.321;   18.350;  -13.930;  523.260
1057.868;   18.996;  -11.690;  651.320
1058.415;   19.172;   -9.520;  651.980
1058.961;   18.907;  -13.160;  678.940
1059.508;   18.487;  -12.920;  643.820
1060.055;   19.217;  -11.920;  581.780
1060.601;   19.348;  -11.500;  624.300
1061.148;   17.789;  -14.330;  616.820
1061.694;   16.814;  -16.870;  592.580
1062.241;   17.805;  -10.330;  596.320
1062.787;   17.957;  -10.620;  663.140
1063.334;   19.195;  -10.110;  808.560
1063.880;   17.402;  -13.400;  668.360
1064.426;   18.599;  -10.680;  706.820
1064.972;   16.947;   -9.920;  601.340
1065.518;   15.512;  -10.980;  566.640
1066.065;   16.655;  -14.890;  624.460
1066.611;   16.396;  -12.870;  598.800
1067.157;   17.421;  -12.950;  641.860
1067.703;   17.220;  -13.540;  668.480
1068.249;   16.125;  -13.540;  605.220
1068.794;   16.652;  -12.600;  626.880
1069.340;   15.715;  -10.620;  578.960
1069.886;   15.703;  -12.830;  590.700
1070.432;   14.850;  -14.870;  541.720
1070.977;   15.698;  -11.980;  601.080
1071.523;   15.664;   -8.200;  573.060
1072.068;   15.360;  -12.330;  582.000
1072.614;   15.546;  -16.370;  527.760
1073.160;   16.695;  -11.100;  687.040
1073.705;   15.962;  -10.480;  572.520
1074.250;   14.494;  -14.520;  559.900
1074.796;   15.643;  -11.460;  655.160
1075.341;   15.242;  -11.950;  664.100
1075.886;   15.446;  -11.460;  594.240
1076.431;   14.205;  -13.770;  649.880
1076.976;   14.023;  -12.680;  639.220
1077.521;   13.851;  -13.170;  583.080
1078.067;   14.211;  -10.860;  579.400
1078.612;   14.798;  -13.920;  661.620
1079.156;   14.102;  -13.880;  601.540
1079.701;   14.796;  -13.120;  693.260
1080.246;   15.282;   -9.940;  696.300
1080.791;   14.014;  -14.740;  625.020
1081.336;   13.618;  -13.750;  659.320
1081.880;   14.207;  -13.400;  649.680
1082.425;   12.983;  -12.220;  573.480
1082.970;   14.122;  -11.610;  717.040
1083.514;   12.588;  -13.580;  597.000
1084.059;   12.353;  -12.810;  586.720
1084.603;   12.489;  -12.320;  565.840
1085.147;   12.404;  -13.190;  645.220
1085.692;   13.635;  -12.480;  716.800
1086.236;   11.877;  -13.020;  503.140
1086.780;   13.577;   -9.190;  751.440
1087.325;   12.737;  -12.480;  654.620
1087.869;   12.065;  -12.450;  610.700
1088.413;   12.795;  -12.240;  705.040
1088.957;   11.216;   -9.020;  543.400
1089.501;   12.954;  -10.320;  766.640
1090.045;   12.199;  -12.720;  726.480
1090.589;   10.972;  -13.690;  569.920
1091.133;   11.966;  -10.020;  673.340
1091.676;   11.372;  -12.330;  591.940
1092.220;   10.097;  -14.970;  600.920
1092.764;   12.863;  -12.430;  706.960
1093.307;   11.781;   -9.800;  673.780
1093.851;   10.052;  -14.970;  556.540
1094.395;   11.184;  -15.310;  683.140
1094.938;   10.999;  -10.370;  632.520
1095.482;   11.184;  -11.050;  559.800
1096.025;   10.677;  -11.840;  710.880
1096.568;   10.872;  -12.840;  779.280
1097.112;    8.895;  -14.700;  508.180
1097.655;   10.341;   -8.720;  603.000
1098.198;    8.685;  -13.610;  600.180
1098.741;    9.166;  -13.350;  612.860
1099.285;    9.981;  -11.230;  657.300
1099.828;    8.647;  -11.840;  439.400
1100.371;    9.421;  -10.840;  608.160
1100.914;    8.942;  -14.190;  682.660
1101.457;    9.800;  -11.240;  679.900
1101.999;    9.075;  -11.270;  584.680
1102.542;    8.863;  -11.480;  641.440
1103.085;    8.927;  -11.750;  658.500
1103.628;    9.456;  -11.400;  762.060
1104.170;    9.534;  -10.490;  588.280
1104.713;    8.628;  -10.600;  646.700
1105.256;    7.684;  -14.360;  557.440
1105.798;    8.084;  -13.210;  499.980
1106.341;    9.738;  -10.270;  728.900
1106.883;    7.613;  -12.200;  521.340
1107.425;    7.877;  -13.110;  668.180
1107.968;    8.148;  -12.840;  612.380
1108.510;    8.650;   -6.480;  684.960
1109.052;    6.630;  -13.940;  612.620
1109.594;    6.891;  -13.690;  554.440
1110.136;    8.886;  -11.880;  643.220
1110.679;    7.122;   -9.500;  633.080
1111.221;    7.709;  -14.160;  604.460
1111.763;    6.481;  -13.980;  559.220
1112.304;    6.758;  -13.880;  547.140
1112.846;    8.408;  -12.210;  666.240
1113.388;    9.366;  -11.390;  942.180
1113.930;    6.675;  -14.540;  694.200
1114.472;    6.630;  -12.640;  606.540
1115.013;    6.058;  -11.620;  551.280
1115.555;    5.708;  -13.640;  587.100
1116.097;    5.244;  -15.380;  579.480
1116.638;    6.944;  -12.640;  684.600
1117.180;    7.591;   -9.850;  667.740
1117.721;    5.979;  -13.690;  568.580
1118.262;    6.187;  -12.680;  677.960
1118.804;    7.162;  -12.530;  637.340
1119.345;    5.290;  -11.690;  578.400
1119.886;    6.577;  -13.380;  704.040
1120.427;    4.868;  -14.070;  589.020
1120.969;    5.172;  -13.500;  597.920
1121.510;    4.966;  -11.480;  563.060
1122.051;    5.301;  -12.830;  723.580
1122.592;    4.531;  -14.290;  655.420
1123.133;    4.547;  -12.400;  547.940
1123.673;    6.474;  -10.130;  706.480
1124.214;    4.619;  -12.930;  612.460
1124.755;    5.340;  -14.380;  639.460
1125.296;    5.302;  -14.000;  627.320
1125.836;    5.794;  -10.070;  691.500
1126.377;    3.641;  -12.640;  599.660
1126.918;    4.583;  -12.960;  614.980
1127.458;    4.572;  -13.350;  622.220
1127.999;    5.113;  -10.750;  656.980
1128.539;    4.517;  -12.350;  694.240
1129.079;    3.948;  -14.860;  632.720
1129.620;    3.854;  -13.840;  558.100
1130.160;    3.480;  -12.330;  539.480
1130.700;    3.904;  -14.530;  640.840
1131.240;    4.290;  -12.530;  643.700
1131.781;    4.071;  -14.450;  619.680
1132.321;    3.977;   -9.790;  599.120
1132.861;    3.025;  -14.860;  564.200
1133.401;    2.392;  -14.290;  593.940
1133.941;    4.156;  -11.750;  626.280
1134.481;    2.696;   -9.920;  597.580
1135.020;    2.814;  -12.290;  609.160
1135.560;    2.728;  -11.650;  674.940
1136.100;    3.191;  -16.270;  501.160
1136.640;    2.688;  -10.890;  510.480
1137.179;    2.985;  -14.180;  537.960
1137.719;    2.386;  -16.250;  605.400
1138.258;    3.542;  -14.230;  587.360
1138.798;    3.538;   -9.090;  663.780
1139.337;    1.465;  -15.130;  482.840
1139.877;    1.887;  -13.680;  642.360
1140.416;    4.895;  -11.320;  878.060
1140.955;    1.747;  -10.860;  535.380
1141.494;    2.346;  -12.920;  669.280
1142.034;    1.340;  -13.930;  583.520
1142.573;    3.403;  -11.440;  646.280
1143.112;    1.655;  -12.000;  553.480
1143.651;    2.038;  -13.670;  536.480
1144.190;    2.452;  -12.730;  691.640
1144.729;    2.062;  -14.560;  607.420
1145.267;    2.086;  -11.830;  584.900
1145.806;    2.852;  -12.230;  637.040
1146.345;    0.640;  -14.130;  635.020
1146.884;    1.959;  -11.590;  622.500
1147.422;    1.103;  -12.550;  533.060
1147.961;    3.068;  -11.180;  708.460
1148.500;    1.745;  -11.510;  669.720
1149.038;    2.522;  -11.640;  632.500
1149.577;    1.762;  -10.130;  698.640
1150.115;   -0.575;  -13.970;  452.280
1150.653;    0.732;  -14.520;  607.340
1151.192;    0.938;  -12.810;  552.920
1151.730;    1.048;   -9.100;  652.560
1152.268;    0.318;  -12.220;  589.520
1152.806;    0.349;  -14.140;  571.180
1153.344;   -0.158;  -12.350;  577.640
1153.882;    0.870;   -8.980;  600.060
1154.421;   -0.979;  -15.190;  470.620
1154.958;   -0.036;  -15.210;  595.240
1155.496;    1.607;  -12.850;  645.280
1156.034;    0.686;   -9.940;  721.880
1156.572;    1.874;  -13.570;  667.060
1157.110;   -0.747;  -14.590;  473.940
1157.647;    1.009;  -13.030;  676.960
1158.185;   -0.751;  -12.140;  564.320
1158.723;   -1.658;  -14.390;  509.200
1159.260;   -0.584;  -14.090;  701.700
1159.798;    1.127;  -11.920;  658.160
1160.335;   -0.695;  -11.110;  631.820

