
Integration time [ms]:   3.882
Averaging Nr. [scans]: 1000
Smoothing Nr. [pixels]: 0
Data measured with spectrometer [name]: 7414430SP
Wave   ;Sample   ;Dark     ;Reference
[nm]   ;[counts] ;[counts] ;[counts] 

288.544;  138.677;    7.153;  793.890
289.143;  142.340;    8.402;  681.602
289.742;  145.138;    7.062;  828.814
290.341;  131.283;    0.191;  789.841
290.940;  121.858;    0.321;  730.702
291.538;  123.076;    3.811;  881.108
292.137;  121.919;   -3.438;  792.581
292.736;  124.367;   -2.809;  975.101
293.335;  120.841;   -5.239;  735.086
293.934;  123.121;   -4.939;  781.677
294.532;  122.700;   -2.199; 1031.958
295.131;  110.208;   -6.831;  834.394
295.730;  108.396;   -6.620;  809.588
296.328;  106.375;   -6.471;  783.442
296.927;  105.837;   -6.571;  779.652
297.525;  107.513;   -7.391;  781.236
298.124;   98.292;   -9.402;  654.009
298.722;  103.456;   -5.781;  761.933
299.321;  100.926;   -6.351;  708.597
299.919;   98.519;   -8.661;  751.918
300.518;   95.049;  -11.922;  689.338
301.116;   96.537;   -6.941;  691.381
301.715;   97.183;   -5.471;  730.222
302.313;   95.831;   -8.361;  704.943
302.911;   90.836;   -9.082;  733.830
303.509;   96.383;   -4.571;  925.627
304.108;   94.416;   -7.111;  760.383
304.706;   94.139;   -7.681;  801.664
305.304;   88.668;   -9.162;  796.707
305.902;   93.859;   -6.761;  784.484
306.500;   89.212;   -6.921;  728.200
307.098;   87.334;   -6.491;  746.560
307.696;   85.954;   -6.941;  780.432
308.294;   86.133;   -6.301;  731.359
308.892;   88.816;   -4.771;  759.769
309.490;   84.807;   -5.141;  712.161
310.088;   83.041;   -2.912;  788.444
310.686;   87.777;   -0.421;  821.749
311.284;   82.964;   -3.461;  766.040
311.882;   81.853;   -6.282;  731.225
312.480;   78.146;   -3.632;  697.167
313.078;   79.709;   -2.112;  808.331
313.675;   80.453;   -1.931;  691.600
314.273;   76.210;   -1.442;  797.837
314.871;   74.826;   -3.002;  589.829
315.468;   72.619;   -2.252;  652.090
316.066;   76.444;   -1.091;  694.427
316.664;   68.637;   -4.512;  656.351
317.261;   73.175;   -0.062;  910.128
317.859;   69.006;   -0.952;  768.735
318.456;   70.379;    0.719;  830.096
319.054;   65.409;   -4.002;  787.828
319.651;   64.998;   -4.972;  759.928
320.249;   64.431;   -1.162;  810.188
320.846;   62.714;   -2.651;  714.286
321.443;   59.973;   -3.832;  832.135
322.041;   56.853;   -4.312;  812.315
322.638;   54.261;   -3.872;  701.456
323.235;   56.902;   -4.361;  665.683
323.833;   53.267;   -4.821;  740.354
324.430;   48.626;   -6.971;  615.900
325.027;   50.633;   -4.361;  876.855
325.624;   50.660;   -5.581;  644.532
326.221;   47.308;   -6.601;  689.717
326.818;   47.537;   -7.301;  818.332
327.415;   49.769;   -6.180;  748.828
328.012;   48.579;   -5.920;  690.585
328.609;   46.174;   -8.390;  731.389
329.206;   45.123;   -6.121;  778.621
329.803;   45.240;   -5.241;  737.841
330.400;   46.891;   -7.420;  704.260
330.997;   46.957;   -5.931;  817.147
331.594;   45.027;   -5.641;  788.185
332.191;   51.622;   -6.451;  728.722
332.787;   54.254;   -4.651;  844.463
333.384;   52.853;   -5.472;  763.093
333.981;   49.633;   -6.303;  815.687
334.578;   52.625;   -5.892;  708.378
335.174;   55.283;   -4.102;  731.469
335.771;   55.064;   -8.053;  836.456
336.367;   51.825;   -7.363;  710.631
336.964;   54.096;   -6.243;  793.266
337.561;   54.710;   -5.653;  731.112
338.157;   50.414;   -7.074;  911.916
338.754;   47.605;   -5.474;  796.589
339.350;   46.580;   -5.624;  722.493
339.946;   49.259;   -5.054;  773.135
340.543;   41.483;   -6.695;  846.136
341.139;   35.329;   -6.215;  720.836
341.735;   34.634;   -5.746;  772.593
342.332;   32.886;   -7.335;  691.472
342.928;   32.578;   -4.835;  795.394
343.524;   27.261;   -4.586;  761.684
344.120;   24.213;   -3.946;  738.562
344.716;   27.124;   -4.835;  723.717
345.313;   24.543;   -5.325;  795.342
345.909;   19.558;   -6.535;  627.336
346.505;   22.055;   -4.725;  740.247
347.101;   23.219;   -4.164;  827.864
347.697;   23.103;   -5.274;  785.398
348.293;   17.791;   -7.145;  627.244
348.889;   18.256;   -4.364;  745.914
349.485;   18.251;   -6.404;  688.205
350.081;   18.404;   -7.534;  772.592
350.676;   14.193;   -6.995;  691.606
351.272;   18.484;   -3.544;  809.530
351.868;   17.575;   -5.324;  780.497
352.464;   15.367;   -7.204;  723.932
353.059;   11.968;   -6.894;  646.017
353.655;   15.440;   -3.754;  777.063
354.251;   16.515;   -6.143;  759.845
354.846;   10.258;   -9.464;  740.646
355.442;    8.062;   -7.555;  753.071
356.038;   10.612;   -5.474;  751.708
356.633;   10.787;   -5.914;  728.594
357.229;    8.392;   -8.944;  724.757
357.824;    6.697;   -6.794;  703.600
358.420;    6.041;   -5.754;  679.726
359.015;    6.400;   -5.664;  695.357
359.610;    6.999;   -8.004;  763.920
360.206;    0.923;   -8.815;  603.240
360.801;    4.346;   -8.834;  646.503
361.396;    7.541;   -6.274;  725.975
361.992;    2.219;   -8.574;  668.220
362.587;   -0.406;   -9.265;  670.160
363.182;    1.999;   -5.484;  689.631
363.777;    3.082;   -5.164;  738.242
364.372;    1.656;   -6.954;  737.314
364.967;   -1.747;   -7.065;  680.744
365.563;    3.145;   -5.684;  815.567
366.158;    0.268;   -6.484;  685.161
366.753;    0.141;   -8.004;  649.263
367.348;   -0.666;  -10.114;  746.056
367.942;   -1.701;   -7.764;  697.298
368.537;   -1.894;   -4.554;  754.245
369.132;   -1.855;   -7.664;  703.428
369.727;   -5.870;   -8.905;  638.079
370.322;   -4.598;   -4.945;  580.186
370.917;   -4.737;   -7.095;  710.646
371.511;   -1.316;   -6.574;  861.834
372.106;   -5.708;   -6.515;  776.964
372.701;   -9.294;   -8.225;  585.988
373.296;   -2.372;   -4.494;  863.135
373.890;   -6.978;   -7.965;  647.840
374.485;  -10.024;   -9.745;  691.199
375.079;   -6.499;   -5.554;  738.685
375.674;   -4.881;   -4.724;  812.970
376.268;   -8.851;   -8.365;  691.759
376.863;  -14.136;   -8.126;  580.327
377.457;   -8.274;   -6.045;  662.490
378.052;   -9.922;   -6.835;  764.884
378.646;  -10.916;   -9.375;  741.167
379.240;  -11.304;   -6.185;  721.176
379.835;  -10.023;   -6.135;  636.978
380.429;  -12.365;   -8.365;  562.557
381.023;  -12.091;   -7.935;  779.205
381.617;  -14.290;   -8.325;  680.106
382.212;  -10.804;   -7.405;  685.303
382.806;  -10.397;   -4.155;  760.690
383.400;  -14.517;   -8.945;  672.281
383.994;  -15.315;   -8.365;  664.870
384.588;  -10.628;   -7.824;  697.701
385.182;   -9.102;   -7.984;  726.624
385.776;  -12.195;  -10.404;  706.875
386.370;  -14.873;   -7.335;  681.968
386.964;  -13.391;   -7.485;  684.155
387.558;  -11.725;   -8.174;  598.360
388.152;  -15.010;  -10.415;  681.959
388.745;  -13.052;   -9.595;  814.707
389.339;  -12.205;   -6.454;  747.642
389.933;  -10.828;   -5.804;  695.370
390.527;  -11.742;   -6.854;  859.029
391.120;  -18.026;   -7.665;  595.318
391.714;  -15.383;   -7.245;  711.633
392.308;  -11.740;   -4.514;  780.253
392.901;  -15.148;   -7.935;  642.460
393.495;  -17.437;   -8.585;  595.414
394.089;  -14.719;   -5.245;  760.452
394.682;  -15.452;   -6.305;  697.188
395.275;  -16.219;   -9.335;  719.927
395.869;  -17.014;   -7.375;  667.314
396.462;  -17.194;   -7.055;  616.609
397.056;  -12.563;   -5.434;  776.621
397.649;  -16.701;   -9.525;  731.575
398.242;  -13.712;   -7.574;  712.645
398.836;  -12.777;   -5.134;  766.408
399.429;  -14.564;   -6.544;  631.041
400.022;  -18.055;   -9.215;  665.902
400.615;  -15.432;   -8.105;  805.609
401.208;  -13.440;   -7.614;  691.451
401.802;  -15.674;   -8.085;  699.329
402.395;  -17.103;   -9.575;  683.502
402.988;  -18.492;   -9.285;  696.627
403.581;  -13.999;   -7.514;  646.878
404.174;  -12.454;   -6.404;  686.568
404.767;  -16.060;   -8.775;  638.583
405.360;  -18.119;   -7.415;  621.445
405.953;  -12.221;   -5.624;  759.034
406.545;  -11.902;   -6.474;  725.342
407.138;  -15.782;   -8.445;  618.350
407.731;  -15.181;  -10.044;  613.303
408.324;  -10.942;   -8.484;  660.554
408.917;  -12.040;   -7.624;  681.864
409.509;  -13.332;   -8.304;  740.396
410.102;  -16.141;   -8.495;  643.948
410.695;   -9.265;   -7.824;  665.758
411.287;  -10.578;   -7.754;  599.821
411.880;  -12.498;   -9.294;  585.421
412.472;  -14.550;   -8.814;  613.092
413.065;  -12.476;   -6.674;  629.408
413.657;  -10.022;   -9.664;  576.678
414.250;  -10.033;  -10.264;  646.681
414.842;  -12.099;   -8.664;  676.353
415.434;   -8.925;   -8.584;  570.463
416.027;   -5.018;   -9.423;  652.196
416.619;   -6.698;  -10.764;  713.400
417.211;   -7.613;   -7.404;  599.352
417.804;   -4.287;   -7.383;  628.499
418.396;   -8.132;   -8.334;  607.643
418.988;   -5.903;   -9.633;  659.238
419.580;  -10.127;  -10.554;  568.276
420.172;   -6.485;   -8.683;  536.196
420.764;   -2.657;   -9.713;  672.482
421.356;   -4.518;  -11.303;  636.898
421.948;   -4.167;   -8.453;  677.661
422.540;    0.599;   -5.793;  680.027
423.132;   -0.371;   -7.162;  600.641
423.724;   -4.809;   -7.933;  561.267
424.316;   -1.683;   -9.083;  621.345
424.908;    2.095;   -8.392;  591.517
425.500;    2.683;   -8.062;  647.978
426.092;    3.270;   -9.692;  648.268
426.683;    1.584;   -8.223;  684.836
427.275;    4.962;   -8.602;  641.471
427.867;    6.787;   -8.382;  668.948
428.458;    6.485;  -10.472;  732.344
429.050;    5.282;   -9.112;  680.749
429.642;    7.091;   -7.752;  743.124
430.233;    7.216;   -8.832;  569.356
430.825;    8.634;   -8.292;  724.809
431.416;    5.902;   -7.522;  698.241
432.008;    9.899;   -9.262;  651.723
432.599;   10.219;   -6.441;  656.073
433.190;    7.639;   -9.222;  637.670
433.782;    6.928;  -11.832;  590.395
434.373;   14.407;   -7.121;  884.765
434.964;   12.477;   -9.141;  602.920
435.556;   10.471;   -9.332;  634.537
436.147;   13.530;   -8.892;  758.490
436.738;   12.757;   -8.151;  701.099
437.329;   18.801;   -8.281;  721.723
437.920;   12.054;   -9.062;  666.688
438.511;   11.008;  -11.182;  564.526
439.103;   17.938;   -7.461;  623.998
439.694;   20.215;   -8.541;  681.583
440.285;   19.849;   -7.351;  764.432
440.876;   18.978;   -8.201;  845.738
441.466;   18.232;  -10.381;  575.162
442.057;   23.379;   -7.620;  665.814
442.648;   22.371;   -8.461;  746.255
443.239;   20.698;   -8.991;  620.477
443.830;   25.791;   -7.910;  704.958
444.421;   27.422;   -7.340;  655.474
445.011;   23.677;   -8.981;  693.619
445.602;   24.050;   -9.341;  743.126
446.193;   25.796;  -11.390;  488.117
446.783;   29.728;  -11.240;  640.397
447.374;   24.837;   -8.471;  692.759
447.964;   25.904;   -8.471;  713.770
448.555;   34.428;   -6.590;  822.742
449.145;   30.703;   -8.200;  662.853
449.736;   31.114;  -11.040;  803.179
450.326;   31.679;   -9.640;  713.626
450.917;   35.662;   -9.480;  675.324
451.507;   35.604;   -8.020;  600.661
452.097;   36.141;  -10.210;  746.267
452.688;   36.627;   -7.810;  742.160
453.278;   37.066;   -9.360;  566.840
453.868;   42.365;   -8.669;  793.550
454.458;   39.032;  -10.950;  651.141
455.048;   39.375;  -10.200;  711.783
455.639;   41.230;   -9.369;  567.096
456.229;   44.116;   -7.739;  710.694
456.819;   46.146;   -8.939;  751.158
457.409;   47.100;   -7.169;  773.993
457.999;   49.100;   -7.779;  737.505
458.589;   49.460;   -7.039;  686.606
459.179;   48.262;   -9.019;  717.658
459.769;   46.553;   -8.909;  627.099
460.358;   51.973;   -8.659;  797.262
460.948;   52.411;   -8.209;  689.503
461.538;   54.204;   -9.879;  660.677
462.128;   51.527;   -9.379;  664.934
462.717;   58.967;   -9.158;  710.326
463.307;   61.348;   -8.638;  705.846
463.897;   56.832;   -8.869;  656.942
464.486;   56.375;   -7.409;  837.128
465.076;   60.294;   -9.618;  733.776
465.666;   64.789;   -7.578;  652.900
466.255;   62.297;   -9.369;  785.651
466.845;   61.038;  -10.049;  666.749
467.434;   63.721;   -8.168;  725.873
468.023;   64.868;   -9.188;  658.357
468.613;   62.755;   -9.849;  713.946
469.202;   66.793;  -12.958;  646.507
469.791;   71.841;   -9.488;  737.811
470.381;   73.943;   -6.468;  742.813
470.970;   72.403;  -10.248;  711.099
471.559;   72.293;  -11.428;  733.291
472.148;   75.478;   -9.738;  675.737
472.738;   78.002;   -7.877;  765.466
473.327;   78.085;  -11.868;  637.529
473.916;   77.157;   -8.578;  737.446
474.505;   80.743;  -11.137;  751.703
475.094;   84.397;   -9.407;  806.570
475.683;   83.797;   -9.977;  797.699
476.272;   83.966;  -10.807;  730.632
476.861;   87.334;  -11.017;  706.754
477.449;   93.642;  -10.316;  728.487
478.038;   87.797;  -10.187;  692.513
478.627;   89.311;  -12.458;  714.852
479.216;   96.616;  -10.127;  769.441
479.805;   99.310;   -6.256;  783.375
480.393;   98.461;   -8.737; 1008.945
480.982;   97.567;   -9.087;  874.501
481.571;  103.015;   -7.806;  858.333
482.159;  103.902;  -10.596;  705.386
482.748;  103.498;  -11.507;  821.385
483.336;  108.161;   -8.366;  858.209
483.925;  108.293;   -7.497;  774.373
484.513;  114.709;   -8.326;  758.962
485.102;  111.053;  -10.277;  810.965
485.690;  119.960;   -8.256; 1011.050
486.278;  121.765;   -7.146;  979.329
486.867;  122.750;   -7.986;  809.662
487.455;  124.800;   -9.926;  898.229
488.043;  125.712;  -10.026;  748.361
488.631;  134.277;   -7.226; 1005.079
489.220;  138.623;   -8.696;  908.626
489.808;  137.658;  -12.276;  741.415
490.396;  145.597;   -9.386;  914.645
490.984;  150.704;   -8.506;  830.161
491.572;  161.053;   -8.226;  940.315
492.160;  165.943;   -9.836;  919.081
492.748;  176.656;  -10.316;  884.341
493.336;  197.049;   -7.146; 1019.693
493.924;  219.373;   -7.965;  958.077
494.512;  247.195;  -10.316; 1066.638
495.100;  281.225;  -10.186; 1103.280
495.687;  336.544;   -7.805; 1206.373
496.275;  396.936;   -9.686; 1150.796
496.863;  480.082;  -11.566; 1281.171
497.451;  560.813;  -11.406; 1386.805
498.038;  662.937;   -8.235; 1556.729
498.626;  782.114;   -7.485; 1741.407
499.214;  938.119;   -8.646; 2016.609
499.801; 1187.204;   -9.936; 2220.633
500.389; 1401.585;   -8.056; 2312.494
500.976; 1551.511;   -6.166; 2744.849
501.564; 1735.118;   -9.126; 3148.565
502.151; 2006.790;  -12.456; 3515.999
502.738; 2384.454;  -10.056; 3971.274
503.326; 2801.444;  -10.605; 4403.796
503.913; 3192.866;  -10.576; 5161.749
504.500; 3655.895;   -9.056; 5986.420
505.088; 4162.497;  -10.136; 6381.201
505.675; 4814.463;   -9.075; 6925.547
506.262; 5272.803;  -11.346; 7619.060
506.849; 6114.184;   -9.376; 8733.969
507.436; 6843.089;   -7.365; 9790.121
508.023; 6809.215;   -8.686; 9985.472
508.610; 6998.258;   -8.846;10434.618
509.197; 7747.471;   -9.077;11198.435
509.784; 9144.078;  -10.246;12391.194
510.371;10356.519;   -9.825;13603.713
510.958;11431.054;  -10.896;14426.586
511.545;12140.808;   -9.006;15243.775
512.132;11930.153;   -8.765;15945.876
512.719;12345.623;   -8.286;16340.369
513.305;14267.384;   -9.256;18011.766
513.892;16326.002;  -11.106;19754.971
514.479;19298.041;   -8.576;20967.805
515.066;22230.357;   -9.046;22299.793
515.652;23017.016;  -10.676;22908.660
516.239;23526.324;  -10.166;23798.875
516.825;22963.045;  -11.266;25567.275
517.412;22275.459;   -7.446;28154.959
517.998;21859.070;  -10.916;28344.111
518.585;21408.473;   -9.166;27134.219
519.171;20651.814;  -10.135;27268.576
519.758;21589.881;   -8.806;28964.129
520.344;24275.059;   -6.716;30664.494
520.930;26770.082;  -10.166;32550.605
521.516;26887.438;   -9.615;35422.895
522.103;29041.895;   -8.656;38280.004
522.689;29662.475;   -9.646;37835.117
523.275;28269.326;  -10.786;37288.613
523.861;28773.070;   -9.266;37281.395
524.447;27700.498;   -8.285;37846.949
525.033;27378.184;   -9.426;38321.949
525.619;30431.611;   -9.836;38579.285
526.205;35571.879;   -8.136;40622.875
526.791;37691.305;   -9.986;42258.836
527.377;37609.395;   -8.236;42966.902
527.963;36825.969;  -12.117;42018.949
528.549;35182.395;   -8.376;42476.828
529.135;36069.289;   -8.696;41854.852
529.721;38132.895;   -9.686;41237.711
530.306;40391.109;   -8.616;41259.445
530.892;43077.273;   -9.396;41506.047
531.478;44176.461;   -9.926;43559.613
532.063;44574.770;  -10.236;47695.563
532.649;45569.777;   -8.257;50808.324
533.235;46493.004;  -11.476;51787.500
533.820;46415.863;   -8.156;52145.035
534.406;47227.809;  -12.257;51133.488
534.991;44283.309;   -8.686;49996.805
535.576;41601.492;   -9.426;48882.852
536.162;41303.504;   -8.436;46942.285
536.747;41901.426;  -10.957;45711.746
537.333;41291.918;  -13.147;48510.180
537.918;42627.758;   -9.027;50439.891
538.503;44747.605;   -8.256;50863.711
539.088;45667.070;  -10.576;50906.922
539.673;46747.910;  -10.907;52621.965
540.259;47838.164;   -9.126;52368.094
540.844;46549.176;   -9.026;50879.109
541.429;44768.969;   -9.597;52077.777
542.014;44441.430;  -11.447;52716.695
542.599;43275.438;   -9.236;52363.281
543.184;43244.320;  -12.267;53187.137
543.769;46935.992;  -10.367;54697.605
544.354;50089.246;  -10.887;53913.914
544.938;46715.891;  -11.687;49680.164
545.523;43847.426;   -8.286;47386.277
546.108;45010.953;   -9.317;49151.949
546.693;46157.203;  -10.187;51384.637
547.278;43986.203;   -9.926;51853.254
547.862;42996.855;   -9.196;51173.750
548.447;42275.398;   -9.657;51691.395
549.031;43775.738;   -9.127;52456.703
549.616;46577.859;  -10.836;52714.516
550.201;47636.738;   -8.507;52414.598
550.785;48064.074;  -10.537;52355.059
551.370;51262.184;  -11.727;54589.453
551.954;50575.313;   -9.457;58267.348
552.538;48971.301;   -8.147;59062.176
553.123;48690.445;   -9.397;58115.285
553.707;50123.984;   -9.558;56556.285
554.291;49775.789;   -9.417;56201.668
554.876;51606.262;   -7.627;55335.762
555.460;49842.535;  -10.457;54155.703
556.044;45173.969;  -10.078;53721.484
556.628;44432.008;   -9.407;53731.016
557.212;43333.086;   -7.957;54312.531
557.796;42305.398;  -11.327;53797.773
558.380;46321.484;  -10.868;56145.984
558.964;46793.824;   -9.637;57277.930
559.548;45016.125;   -8.807;56459.641
560.132;47365.996;  -10.187;54434.543
560.716;48314.477;   -9.868;54800.617
561.300;49810.133;  -10.217;57606.945
561.884;49947.746;   -4.947;58972.445
562.467;46951.934;   -9.588;57327.570
563.051;42516.520;  -11.138;54962.434
563.635;43007.770;   -9.358;52594.473
564.219;44019.773;   -9.797;50610.410
564.802;42524.277;   -9.918;49551.180
565.386;41533.465;  -10.838;48370.953
565.969;41039.277;   -8.037;48178.871
566.553;39844.445;   -5.667;49957.305
567.136;39706.488;   -8.258;50369.594
567.720;40278.293;  -11.278;49492.004
568.303;38366.699;   -9.028;50616.352
568.887;36699.574;   -7.508;50727.148
569.470;35627.074;  -11.068;51698.379
570.053;37770.074;  -10.028;52122.078
570.637;37966.086;  -11.077;52536.438
571.220;39519.500;   -8.747;51186.098
571.803;41990.578;   -8.868;51032.762
572.386;43217.465;  -10.608;49609.887
572.969;42507.926;  -10.548;48285.926
573.552;39972.645;   -7.898;47624.285
574.135;39040.762;   -9.918;45498.641
574.718;34679.418;  -10.328;41970.434
575.301;32168.738;   -9.548;41447.137
575.884;29658.059;   -8.768;40923.836
576.467;34910.246;   -9.858;45267.723
577.050;35514.398;  -11.018;48175.543
577.633;36935.234;  -10.048;47729.328
578.216;36038.750;  -10.268;47579.793
578.799;34013.414;  -11.808;47820.996
579.381;33261.102;   -7.338;48115.551
579.964;34948.844;   -9.728;47333.766
580.547;35219.289;   -8.928;46668.969
581.129;35072.266;   -9.149;44466.141
581.712;36712.723;  -11.359;44164.922
582.294;36739.996;  -10.738;46477.855
582.877;34756.352;   -8.788;48244.254
583.459;33643.477;   -9.859;47437.895
584.042;34708.383;   -9.649;46943.219
584.624;35188.367;  -10.529;46792.227
585.206;33691.949;  -10.298;46557.250
585.789;31845.043;  -11.029;45793.773
586.371;31864.479;   -9.359;43836.391
586.953;32496.756;   -8.799;42972.492
587.536;32695.906;   -8.928;42487.211
588.118;32119.697;   -9.180;42086.414
588.700;30547.832;  -10.519;43389.930
589.282;29718.609;   -8.098;43646.039
589.864;29904.090;   -8.139;43438.109
590.446;31327.061;  -10.509;43151.926
591.028;34092.434;  -11.119;42781.867
591.610;35019.973;  -10.019;42839.098
592.192;33408.270;   -8.838;42820.402
592.774;31077.756;  -11.549;40724.277
593.356;28749.398;  -11.609;39874.789
593.937;29178.684;  -10.019;39980.648
594.519;31881.070;   -7.839;42069.633
595.101;33168.715;  -10.779;42976.031
595.683;34311.172;  -10.049;44084.441
596.264;34432.086;   -9.969;43478.797
596.846;33207.969;   -9.699;43803.672
597.427;32548.500;  -10.970;42986.934
598.009;33591.262;  -13.090;42832.219
598.591;33777.465;   -9.509;42580.086
599.172;31955.730;   -9.019;43061.805
599.753;29398.023;  -13.310;41691.469
600.335;29666.166;  -11.010;40692.520
600.916;30481.018;  -10.309;39982.422
601.498;30496.445;   -8.209;40318.617
602.079;30483.174;  -11.440;40670.609
602.660;31942.629;   -8.690;41450.898
603.241;33519.645;  -12.759;41137.738
603.823;31822.443;  -10.409;38868.797
604.404;31802.016;  -11.790;38182.785
604.985;30326.879;  -10.280;38078.047
605.566;30897.383;   -8.059;38056.633
606.147;31299.111;   -8.960;37020.418
606.728;31029.865;  -10.710;37883.359
607.309;30270.777;  -12.760;38748.273
607.890;28234.672;   -9.959;38850.230
608.471;26525.596;   -9.780;37457.918
609.051;28381.240;   -8.940;36066.457
609.632;31243.008;  -12.070;35991.074
610.213;33193.277;   -9.610;37402.641
610.794;33487.563;   -8.750;38383.363
611.374;32432.352;  -11.100;40562.387
611.955;32835.449;  -12.200;38533.727
612.536;32594.195;  -10.410;36951.789
613.116;32843.051;  -10.010;37197.891
613.697;32091.334;  -10.480;38411.125
614.277;30405.283;  -12.751;38673.938
614.858;30202.096;  -11.600;37075.863
615.438;29615.826;   -8.190;35092.906
616.019;28096.531;   -8.941;33666.301
616.599;29268.775;  -13.540;34189.023
617.179;29858.396;  -10.890;36952.047
617.760;30543.004;   -7.610;39582.574
618.340;29938.393;  -14.441;38943.977
618.920;29195.254;   -9.180;37594.156
619.500;29095.047;  -11.881;37866.938
620.080;30994.363;   -9.870;37869.043
620.660;31179.771;  -13.211;36868.617
621.241;30032.803;  -11.921;36352.309
621.821;28901.945;  -10.271;35459.520
622.401;28660.453;   -8.200;35207.414
622.980;29593.764;  -11.141;35980.422
623.560;31016.793;  -14.321;37351.328
624.140;30727.752;   -9.360;34388.582
624.720;27407.297;   -7.481;32368.764
625.300;24068.891;  -12.730;32638.629
625.880;28850.316;  -11.441;34599.035
626.459;32655.641;  -10.971;36831.738
627.039;34217.629;   -9.011;38299.098
627.619;33977.336;   -8.521;38289.574
628.198;34978.918;   -9.861;37220.695
628.778;34681.695;   -8.841;37632.563
629.357;33298.563;   -9.891;38003.012
629.937;31048.500;  -11.871;38402.039
630.516;29858.914;  -10.641;37868.801
631.096;31969.154;  -11.391;35760.410
631.675;33562.867;   -6.622;35225.219
632.254;31458.000;  -13.002;35130.289
632.834;29727.232;  -11.622;35794.570
633.413;31711.568;   -8.321;35788.922
633.992;30106.828;   -7.732;34532.863
634.571;29651.744;  -10.992;33590.113
635.151;31185.068;  -10.422;34943.863
635.730;31579.461;  -11.511;35352.523
636.309;30746.166;   -7.901;35366.605
636.888;29805.314;  -11.452;36165.637
637.467;29398.365;  -10.672;37515.902
638.046;29466.506;   -9.301;39288.695
638.625;30540.309;  -11.452;38279.699
639.204;32021.219;  -12.262;37741.598
639.782;31484.701;  -11.892;38364.551
640.361;30072.164;  -11.411;36740.621
640.940;26909.650;  -11.501;34950.082
641.519;27123.809;  -10.921;34137.398
642.097;30341.369;  -10.101;35654.258
642.676;30980.711;  -10.821;35637.957
643.255;33382.770;   -8.631;36567.074
643.833;35471.680;  -11.411;37809.434
644.412;36404.047;  -12.021;37337.293
644.990;36111.625;  -12.271;37018.531
645.569;35205.770;   -9.741;36518.469
646.147;33948.590;   -9.051;36186.430
646.726;32188.906;  -13.861;36267.688
647.304;32370.740;   -9.461;36647.625
647.882;31339.432;  -13.171;39286.742
648.461;31308.652;  -11.911;39157.703
649.039;31651.443;   -9.541;35412.883
649.617;33376.840;   -8.901;34744.918
650.195;31508.588;   -8.591;35403.098
650.773;30034.357;  -13.031;35053.797
651.352;28534.896;  -12.211;33756.816
651.930;25485.629;  -11.361;31868.773
652.508;22836.715;   -8.601;33121.551
653.086;26446.217;   -9.991;33564.793
653.663;30752.363;  -11.931;34054.668
654.241;32411.889;  -10.821;35693.309
654.819;32964.066;   -9.341;36422.906
655.397;30950.893;  -10.851;38213.484
655.975;29260.041;  -11.461;39507.625
656.553;29745.209;   -8.841;39498.223
657.130;29376.721;  -10.371;40395.480
657.708;28401.938;  -11.071;39242.020
658.286;28322.885;  -11.141;38920.020
658.863;30916.338;  -10.861;40202.898
659.441;36658.602;  -11.181;39677.938
660.018;38120.480;  -10.851;40413.355
660.596;36793.313;  -12.571;39931.414
661.173;37238.508;  -12.141;39604.531
661.750;33913.293;  -11.571;39700.070
662.328;30737.922;  -10.780;39292.809
662.905;29743.811;  -10.750;38235.648
663.482;26936.836;  -11.320;36212.305
664.060;25942.475;  -10.160;35944.945
664.637;31554.941;  -13.120;35170.785
665.214;34200.660;  -11.500;34197.523
665.791;32157.584;  -12.430;34549.520
666.368;29742.836;   -9.840;35118.578
666.945;28581.840;  -11.290;36019.418
667.522;28974.098;  -13.540;36048.438
668.099;29798.736;  -10.250;36243.914
668.676;28707.607;  -11.270;35958.875
669.253;28056.256;   -8.210;37384.730
669.830;26802.711;   -9.710;36779.629
670.407;26286.641;   -9.700;35231.289
670.984;26001.711;   -9.190;35544.270
671.560;24759.752;   -9.560;35466.867
672.137;24570.008;  -11.820;34280.863
672.714;27554.301;  -12.460;34632.863
673.290;31801.893;  -10.940;35135.422
673.867;33096.914;  -10.510;36114.480
674.443;31195.410;  -12.110;36152.859
675.020;31068.035;  -11.760;35327.238
675.596;31753.949;   -9.380;35795.176
676.173;31184.680;  -11.120;35430.355
676.749;30371.764;  -13.390;33549.516
677.326;29277.686;  -12.600;32210.012
677.902;28397.502;  -10.830;32068.871
678.478;27767.830;  -12.400;32583.891
679.054;29139.512;   -8.610;32088.928
679.631;30640.242;  -11.640;30978.848
680.207;31376.379;   -8.140;33160.887
680.783;30971.926;  -12.300;35570.363
681.359;29441.893;  -10.910;36125.184
681.935;28586.480;  -11.040;35240.922
682.511;29035.324;  -11.130;34429.961
683.087;29225.592;  -11.080;34463.680
683.663;30989.611;  -10.530;34648.898
684.239;31409.164;  -12.120;34546.457
684.815;30233.725;   -8.870;35586.375
685.390;28918.986;   -8.940;35821.895
685.966;27973.314;  -12.109;35085.871
686.542;26790.365;  -13.539;34198.230
687.118;26007.537;  -10.379;32847.707
687.693;26903.715;  -10.189;32794.027
688.269;26306.098;  -12.939;33072.367
688.844;25175.076;   -8.679;33141.664
689.420;25926.479;  -10.919;33965.742
689.995;26441.840;   -7.489;34655.523
690.571;25913.152;  -12.199;33576.742
691.146;26208.818;   -8.979;32657.219
691.722;27755.209;   -9.119;32526.979
692.297;27875.633;  -10.519;33014.617
692.872;27881.004;  -10.629;34012.254
693.448;28166.605;  -12.119;34237.434
694.023;27477.910;   -8.219;34142.672
694.598;25739.176;  -13.209;34132.031
695.173;24384.154;  -11.879;34205.250
695.748;24814.238;  -12.039;32882.488
696.323;25881.822;  -11.779;32864.906
696.898;26459.932;  -10.219;33170.004
697.473;27980.301;  -13.639;32432.984
698.048;28779.068;  -11.239;31649.303
698.623;30695.143;  -10.859;30778.141
699.198;32542.375;  -13.379;31140.119
699.773;32849.375;  -13.409;31764.299
700.348;31837.668;  -12.329;31780.816
700.922;31743.736;   -8.749;32046.375
701.497;31752.256;  -12.449;32603.574
702.072;30272.430;   -8.879;34799.871
702.646;28333.729;  -10.719;35793.172
703.221;27709.383;   -8.469;35201.590
703.795;28574.641;  -11.389;34764.527
704.370;27494.674;  -12.499;34307.367
704.944;25884.791;  -11.449;33509.887
705.519;25763.146;  -10.659;31388.584
706.093;25158.867;  -12.909;31340.104
706.668;25616.777;  -13.509;32630.281
707.242;26672.164;  -10.049;32728.779
707.816;26548.867;  -10.629;32947.238
708.390;25760.221;  -11.829;33277.855
708.965;24382.730;  -11.159;33834.336
709.539;24648.922;  -11.069;33709.273
710.113;24386.094;  -10.908;33044.313
710.687;22543.975;   -9.488;31953.992
711.261;22751.014;  -13.068;30505.949
711.835;25304.273;  -12.748;30262.369
712.409;27666.672;  -10.678;31254.447
712.983;27435.389;  -11.658;32754.986
713.557;26998.859;  -13.718;34018.824
714.131;27726.611;  -13.388;34579.625
714.704;30094.625;   -9.818;33890.262
715.278;31654.434;  -11.818;33531.102
715.852;31367.654;  -11.328;33601.660
716.425;31665.379;   -9.118;33515.117
716.999;31926.686;  -10.188;33185.555
717.573;31292.344;   -9.808;33905.996
718.146;30411.295;  -11.478;35199.293
718.720;29238.711;  -10.998;35060.551
719.293;28326.018;   -9.508;34973.230
719.867;29293.330;  -12.138;36394.449
720.440;28872.107;  -11.288;36663.008
721.013;30901.039;  -11.428;35102.426
721.587;32599.639;  -11.698;33985.266
722.160;34165.922;  -11.608;33524.965
722.733;34555.484;  -11.428;32987.043
723.306;31354.453;  -12.518;33066.301
723.880;29787.191;   -7.408;33399.500
724.453;29598.439;  -11.048;33468.297
725.026;28556.738;  -11.678;33816.637
725.599;27068.410;  -10.978;32797.996
726.172;25191.541;   -8.838;33187.434
726.745;24781.277;  -11.438;35136.613
727.318;26215.498;   -9.828;35751.730
727.891;27082.363;  -10.868;35890.430
728.463;27169.506;  -11.348;34822.090
729.036;26120.914;  -11.608;32895.086
729.609;25766.924;  -14.738;31823.225
730.182;25967.572;   -8.448;31445.283
730.754;26779.639;  -11.228;32373.223
731.327;27066.301;  -12.018;33676.820
731.900;28900.563;  -13.748;33417.000
732.472;30050.402;  -10.928;31978.498
733.045;29607.344;   -9.478;30368.777
733.617;27652.906;  -12.967;30574.215
734.190;27042.213;  -11.707;31280.975
734.762;26541.980;  -11.067;31674.412
735.334;25465.744;  -10.587;31247.291
735.907;24262.449;  -11.947;29876.211
736.479;24684.943;  -11.667;29808.488
737.051;26326.684;  -10.187;30233.547
737.623;26980.291;   -6.887;31469.086
738.195;28276.668;  -12.117;31784.225
738.768;30445.846;  -14.077;32120.523
739.340;29960.563;  -12.207;32094.342
739.912;27530.131;   -8.977;31312.680
740.484;25937.326;  -11.017;31946.238
741.056;27809.143;  -13.517;32984.059
741.628;30446.189;  -11.507;33897.715
742.199;31015.268;   -7.597;33213.016
742.771;30439.332;  -12.227;31369.113
743.343;28922.895;  -12.427;31865.473
743.915;26996.168;   -9.827;32388.631
744.487;25841.834;  -10.007;31079.568
745.058;25012.250;  -11.887;30570.107
745.630;24025.744;  -10.787;29970.127
746.201;23526.604;  -10.887;29186.766
746.773;25037.236;   -9.707;28805.723
747.344;26146.008;  -11.137;29591.223
747.916;25523.430;  -11.887;31412.201
748.487;24733.602;   -9.707;32194.898
749.059;24224.508;  -10.027;32533.719
749.630;23520.020;  -11.787;32158.518
750.201;22222.760;  -12.767;30855.395
750.773;20358.686;  -11.497;28622.555
751.344;21202.936;   -9.937;28405.732
751.915;21264.756;  -11.567;28461.551
752.486;19258.486;  -13.267;27842.850
753.057;18218.793;  -10.627;27845.008
753.628;18245.814;  -11.657;27728.107
754.199;20570.865;  -12.097;27381.086
754.770;22112.707;  -11.447;25882.203
755.341;22410.309;  -11.997;25886.184
755.912;20809.600;  -10.207;26050.861
756.483;19090.260;  -10.937;26798.779
757.054;19540.547;  -11.527;27048.238
757.625;19775.781;  -12.886;26294.838
758.195;19265.793;  -11.226;26142.076
758.766;19602.510;  -12.366;26392.234
759.337;18336.107;  -11.946;26334.594
759.907;17776.459;  -13.856;27579.652
760.478;19012.641;   -9.606;28352.770
761.048;20531.209;  -11.606;27325.088
761.619;21211.145;  -11.036;26460.428
762.189;19634.828;  -12.206;26029.826
762.760;18730.549;   -9.666;26430.145
763.330;19683.664;   -9.796;26670.902
763.900;19588.357;  -10.896;26603.021
764.471;19144.021;  -11.726;25542.740
765.041;19894.252;   -9.656;24358.459
765.611;20358.338;  -11.276;23991.297
766.181;19860.701;  -12.116;24470.236
766.751;19608.893;  -12.376;24845.975
767.321;19869.682;  -11.626;24533.633
767.891;19642.820;  -10.426;24916.492
768.461;18025.932;  -13.456;24776.771
769.031;15650.635;  -11.616;24757.988
769.601;14723.589;  -11.356;24181.088
770.171;14778.913;  -11.586;23670.387
770.741;15428.759;  -12.696;22960.045
771.311;17083.242;  -10.226;22917.523
771.880;17694.227;  -11.146;23562.941
772.450;18031.268;  -11.716;24216.500
773.020;18016.832;  -13.226;24140.398
773.589;17050.367;  -12.586;24414.857
774.159;16631.303;  -10.246;23858.717
774.729;15953.214;  -11.586;22942.135
775.298;15770.664;  -15.926;22324.033
775.867;15712.341;  -10.426;21140.313
776.437;15341.194;  -11.416;20838.092
777.006;13599.371;  -12.766;20599.510
777.576;13570.589;  -13.666;20508.809
778.145;14930.313;  -10.066;20732.947
778.714;15188.550;  -10.276;21062.465
779.283;14632.052;  -12.086;20949.664
779.853;14338.011;  -14.016;20508.623
780.422;14144.205;  -12.376;20649.082
780.991;13510.952;   -9.246;21527.520
781.560;13211.386;   -9.775;22632.658
782.129;13515.289;  -12.495;23048.277
782.698;13620.765;  -11.775;23438.555
783.267;13534.658;  -10.065;23267.734
783.836;14473.263;  -12.455;22415.133
784.404;14996.771;  -13.385;20443.152
784.973;14803.870;  -11.045;19699.150
785.542;14262.976;   -9.505;19763.828
786.111;13530.274;   -9.385;20341.408
786.679;13310.063;  -13.475;20207.967
787.248;13262.512;  -11.245;19516.465
787.817;11822.282;  -12.485;18900.363
788.385;10355.806;  -11.165;17879.121
788.954;10913.181;  -11.755;17658.301
789.522;11938.551;   -9.625;17788.879
790.090;12316.166;   -9.665;18118.277
790.659;11700.827;   -9.295;18338.736
791.227;11652.928;  -12.175;18508.615
791.795;12431.954;  -12.145;17898.254
792.364;12450.554;  -11.575;17295.133
792.932;11891.917;  -11.085;16822.051
793.500;11502.208;  -11.345;17040.148
794.068;11138.531;  -12.565;17179.787
794.636;11718.485;  -12.105;16664.246
795.204;12782.418;  -11.995;16524.545
795.772;12729.455;  -12.615;17274.564
796.340;12164.136;  -12.425;17891.002
796.908;11730.708;  -11.455;17648.561
797.476;10876.599;  -12.165;17064.080
798.044; 9755.278;  -15.795;16672.777
798.612; 9251.504;  -10.985;17023.996
799.180; 9835.043;  -12.055;16561.615
799.747;10380.534;  -12.525;15962.773
800.315; 9593.022;  -14.765;15296.992
800.883; 8439.787;  -12.435;14801.771
801.450; 8338.974;  -11.295;14534.430
802.018; 8778.032;  -11.185;14173.248
802.585; 8954.455;  -11.625;14029.547
803.153; 8295.660;  -10.665;13836.846
803.720; 7794.091;  -10.275;13567.324
804.287; 7953.287;  -12.865;13360.622
804.855; 8215.688;  -12.324;13681.981
805.422; 8178.798;  -11.574;13536.560
805.989; 7839.302;  -11.004;13355.958
806.556; 8063.532;  -12.214;13747.896
807.124; 8459.038;  -13.304;13987.376
807.691; 8386.807;  -12.034;14038.674
808.258; 8212.212;  -11.014;14120.152
808.825; 8093.010;  -11.804;13860.111
809.392; 7835.412;  -11.544;13268.790
809.959; 7643.000;  -14.954;12680.389
810.526; 7930.174;  -10.214;12427.308
811.093; 7941.834;  -10.754;12030.105
811.659; 7525.785;  -12.194;11653.664
812.226; 6822.527;   -9.194;11637.183
812.793; 6686.678;   -9.644;11611.521
813.360; 7343.218;  -11.544;11885.181
813.926; 8316.139;  -12.814;12770.539
814.493; 8394.847;  -11.524;12677.638
815.060; 8182.959;  -12.254;11974.336
815.626; 8003.915;  -12.114;11594.715
816.193; 7447.172;  -11.994;11579.474
816.759; 6872.196;  -11.464;11666.972
817.325; 6430.122;  -10.444;11325.530
817.892; 6153.625;  -11.124;11105.369
818.458; 6162.660;  -11.864;10843.928
819.024; 6681.605;  -10.634;10714.406
819.591; 6898.384;  -10.554;10469.165
820.157; 6941.211;  -13.334;10235.523
820.723; 6953.348;  -13.044;10847.563
821.289; 6818.867;   -9.664;11040.980
821.855; 6904.342;  -10.994;10357.100
822.421; 7164.365;  -11.784; 9978.918
822.987; 7339.766;  -12.554; 9754.177
823.553; 7344.407;  -12.554;10065.755
824.119; 6966.179;   -8.544;10036.294
824.685; 6183.740;  -12.144;10029.192
825.251; 5838.608;  -12.754;10199.230
825.816; 5539.074;  -11.354; 9820.189
826.382; 5170.039;  -11.004; 9297.248
826.948; 5152.073;  -11.004; 9381.347
827.513; 5359.533;  -12.474; 9450.726
828.079; 5435.532;  -13.084; 9472.444
828.645; 5567.199;  -10.813; 9292.643
829.210; 5427.624;  -11.593; 9065.341
829.776; 5434.143;  -12.633; 9132.620
830.341; 5710.053;  -10.473; 9092.878
830.906; 5608.844;   -8.763; 9078.557
831.472; 4926.614;  -13.453; 8534.535
832.037; 4002.845;  -12.173; 8677.874
832.602; 3699.650;  -14.093; 8628.692
833.167; 4041.143;  -13.593; 8879.031
833.733; 4625.621;  -10.793; 9189.790
834.298; 4998.709;  -14.783; 9052.608
834.863; 4682.275;  -11.023; 8895.087
835.428; 4363.952;  -11.113; 8824.266
835.993; 4673.890;   -9.983; 8845.385
836.558; 4921.580;  -13.003; 8888.563
837.123; 4824.916;  -10.733; 8966.582
837.688; 4471.075;   -9.683; 8617.860
838.253; 4228.877;  -12.253; 8590.699
838.817; 4385.400;  -11.643; 8443.797
839.382; 4591.102;  -11.953; 8799.356
839.947; 4570.606;  -11.443; 8810.595
840.511; 4433.787;  -10.843; 8796.394
841.076; 4429.074;  -13.533; 8347.231
841.641; 4549.859;  -11.743; 8224.330
842.205; 4407.422;  -10.013; 8223.349
842.770; 4257.005;  -11.023; 8622.107
843.334; 4243.790;  -14.273; 8410.386
843.898; 4391.565;  -11.323; 8337.465
844.463; 4756.346;  -10.263; 8506.283
845.027; 4935.838;  -10.353; 8280.962
845.591; 4854.454;  -12.163; 8231.141
846.156; 4655.503;  -12.263; 7969.179
846.720; 4639.280;  -11.553; 7768.278
847.284; 4539.031;  -12.393; 7630.957
847.848; 3940.263;  -12.623; 7472.395
848.412; 3390.604;  -11.863; 7437.394
848.976; 3301.063;  -10.203; 7674.592
849.540; 3392.595;  -10.603; 7836.011
850.104; 3514.635;  -12.423; 7913.669
850.668; 3575.384;  -14.613; 7694.508
851.232; 3521.350;  -12.873; 7756.887
851.796; 3545.543;  -14.192; 7926.545
852.359; 3687.006;  -13.652; 7827.844
852.923; 3655.392;  -11.402; 7641.163
853.487; 3532.781;  -12.022; 7342.501
854.050; 3407.053;  -15.202; 7042.820
854.614; 3403.697;  -14.592; 7151.338
855.177; 3365.582;  -12.572; 7105.077
855.741; 3381.407;   -9.932; 6989.675
856.304; 3538.256;  -12.192; 6596.634
856.868; 3580.351;  -13.462; 6356.272
857.431; 3532.381;  -11.542; 6468.571
857.995; 3560.443;  -12.062; 6373.210
858.558; 3348.053;  -11.142; 6324.448
859.121; 3052.603;  -11.742; 6408.327
859.684; 2867.916;  -10.332; 6347.886
860.247; 2834.647;  -11.962; 6321.264
860.810; 2961.391;  -12.332; 6301.903
861.374; 3013.634;  -10.292; 6607.881
861.937; 2946.289;  -12.062; 6408.200
862.500; 3029.988;  -11.702; 6572.639
863.062; 3212.414;  -13.852; 6387.297
863.625; 3332.217;  -12.972; 6190.836
864.188; 3255.487;  -10.292; 5807.254
864.751; 3120.504;  -12.382; 5682.413
865.314; 2938.386;  -13.232; 5547.492
865.876; 2718.255;  -12.772; 5500.150
866.439; 2542.882;  -11.952; 5415.909
867.002; 2512.032;   -9.332; 5501.567
867.564; 2718.422;  -11.712; 5413.946
868.127; 2901.898;  -12.012; 5160.325
868.689; 2719.055;  -11.882; 5133.183
869.252; 2411.148;  -11.572; 5252.382
869.814; 2282.091;  -10.692; 5297.141
870.377; 2375.937;  -12.392; 5390.919
870.939; 2507.967;  -10.582; 5599.898
871.501; 2530.382;  -12.782; 5248.336
872.063; 2467.525;  -15.612; 4854.235
872.626; 2454.425;  -13.922; 4817.074
873.188; 2385.343;  -13.832; 4987.732
873.750; 2350.530;  -10.962; 4868.651
874.312; 2581.011;  -11.022; 4779.330
874.874; 2768.429;  -13.152; 4866.348
875.436; 2635.640;  -13.401; 4718.887
875.998; 2206.499;   -8.891; 4660.005
876.560; 1673.836;  -12.591; 4462.964
877.122; 1278.889;  -14.531; 4145.042
877.683; 1112.200;  -10.781; 4056.481
878.245; 1120.698;  -14.281; 3950.740
878.807; 1230.768;  -10.311; 4058.958
879.369; 1292.579;  -13.201; 3954.677
879.930; 1352.566;  -12.061; 3941.495
880.492; 1449.611;   -9.181; 4067.014
881.053; 1539.855;  -12.051; 3859.633
881.615; 1564.990;  -11.501; 3776.071
882.176; 1510.021;  -12.221; 3734.750
882.738; 1411.588;   -8.931; 3678.489
883.299; 1317.280;  -13.571; 3405.407
883.860; 1323.632;  -12.331; 3351.106
884.422; 1286.627;  -10.201; 3394.044
884.983; 1159.746;  -12.521; 3166.443
885.544; 1058.853;  -12.291; 3189.802
886.105; 1038.439;  -12.991; 3160.360
886.666; 1049.373;  -12.901; 3093.059
887.227; 1035.209;  -12.061; 2941.957
887.788;  992.017;  -11.641; 2974.836
888.349;  948.082;  -14.691; 2721.214
888.910;  902.541;   -9.681; 2696.493
889.471;  877.258;   -9.971; 2560.172
890.032;  860.226;  -13.151; 2558.190
890.593;  837.319;  -12.051; 2567.669
891.153;  805.857;  -12.841; 2460.307
891.714;  783.377;  -13.561; 2372.046
892.275;  765.140;  -12.401; 2309.505
892.835;  731.602;  -13.191; 2382.543
893.396;  687.619;  -12.551; 2295.502
893.956;  672.097;  -11.981; 2162.420
894.517;  675.560;  -12.221; 2125.439
895.077;  651.529;  -12.021; 2086.978
895.638;  586.954;  -10.891; 2126.316
896.198;  526.790;  -13.171; 1838.275
896.758;  485.600;  -11.891; 1892.813
897.319;  443.961;  -12.491; 1792.232
897.879;  421.091;  -12.401; 1762.751
898.439;  394.576;  -13.431; 1661.149
898.999;  375.997;  -11.340; 1781.468
899.559;  367.811;  -13.930; 1703.347
900.119;  352.607;  -13.730; 1537.525
900.679;  337.380;   -9.210; 1638.384
901.239;  322.540;  -10.860; 1527.902
901.799;  304.091;  -11.450; 1456.441
902.359;  280.908;  -13.800; 1357.140
902.919;  271.513;  -12.130; 1331.118
903.479;  267.868;  -12.650; 1317.257
904.038;  258.280;  -16.110; 1262.595
904.598;  241.441;  -13.690; 1152.034
905.158;  227.767;  -10.290; 1240.893
905.717;  219.820;  -10.670; 1233.691
906.277;  217.334;  -14.040; 1217.330
906.836;  217.083;  -13.510; 1222.408
907.396;  211.979;  -11.530; 1193.047
907.955;  201.691;  -13.190; 1182.526
908.515;  190.284;  -12.950; 1099.364
909.074;  181.453;  -12.390; 1092.863
909.633;  176.388;  -10.340; 1069.121
910.192;  175.216;  -11.170; 1196.460
910.752;  171.871;  -14.200; 1029.960
911.311;  167.627;  -13.810; 1009.780
911.870;  165.619;  -12.750;  971.460
912.429;  164.750;  -12.380; 1094.080
912.988;  163.328;  -11.930; 1081.060
913.547;  157.732;  -10.990;  940.380
914.106;  155.221;  -11.200;  999.420
914.665;  152.209;  -13.150;  984.020
915.224;  149.996;  -13.310; 1035.760
915.782;  148.136;  -13.340;  922.560
916.341;  147.721;  -10.710; 1049.840
916.900;  144.309;  -12.980;  925.260
917.458;  141.626;  -13.060;  884.220
918.017;  139.827;  -10.900;  942.600
918.576;  137.770;  -11.630;  904.440
919.134;  137.307;  -12.860;  837.980
919.693;  138.308;  -15.160;  893.060
920.251;  138.412;  -13.470;  876.500
920.809;  138.006;  -13.700;  839.580
921.368;  137.721;  -13.420;  885.360
921.926;  137.870;  -14.710;  842.940
922.484;  139.679;  -12.560;  903.360
923.042;  140.907;  -11.930;  880.340
923.601;  141.555;  -10.270;  998.680
924.159;  138.865;  -12.960;  935.560
924.717;  136.717;  -13.040;  841.080
925.275;  138.811;  -12.560;  903.240
925.833;  138.877;  -13.040;  779.320
926.391;  142.019;  -13.360;  938.380
926.949;  140.913;  -13.940;  857.680
927.506;  141.476;   -9.400;  903.500
928.064;  140.823;  -10.940;  877.580
928.622;  140.414;  -13.180;  880.100
929.180;  140.467;  -12.730;  814.180
929.737;  141.618;  -12.840;  808.540
930.295;  145.054;  -11.810;  928.480
930.853;  150.227;  -13.650;  849.100
931.410;  154.455;  -13.580;  821.120
931.968;  156.039;  -12.020;  940.660
932.525;  156.096;  -13.320;  909.380
933.082;  155.955;  -13.800;  811.440
933.640;  159.947;  -11.380;  925.900
934.197;  161.626;  -11.480;  886.360
934.754;  163.505;  -13.220;  897.780
935.312;  162.536;  -14.950;  863.340
935.869;  161.163;  -10.940; 1012.980
936.426;  155.202;  -12.100;  872.800
936.983;  154.606;  -12.930;  889.020
937.540;  155.778;  -14.250;  838.280
938.097;  162.456;  -12.600;  940.120
938.654;  167.200;  -11.260;  898.860
939.211;  170.482;  -13.020;  952.480
939.768;  172.885;  -15.760;  915.420
940.324;  177.136;  -13.920;  904.200
940.881;  175.975;  -11.620;  878.500
941.438;  172.961;   -9.870; 1021.200
941.995;  168.619;  -13.920;  992.560
942.551;  166.170;  -12.830;  875.620
943.108;  167.040;  -11.980;  937.920
943.664;  169.651;  -13.740;  869.340
944.221;  177.825;  -12.670; 1088.140
944.777;  176.891;  -13.250;  869.680
945.334;  173.368;  -13.000;  884.840
945.890;  171.226;  -13.020;  946.480
946.446;  170.636;  -13.880;  947.020
947.003;  170.978;  -12.660;  964.940
947.559;  172.587;   -8.730; 1063.040
948.115;  169.263;  -11.960; 1026.540
948.671;  165.987;  -12.360;  967.300
949.227;  161.696;  -12.700;  859.560
949.783;  158.791;  -13.450;  858.900
950.339;  157.638;  -10.620;  991.000
950.895;  155.160;  -14.770; 1023.840
951.451;  152.428;  -13.650;  925.280
952.007;  153.893;  -11.180;  998.540
952.563;  153.264;  -11.680;  937.780
953.118;  152.503;  -13.280;  904.940
953.674;  153.324;  -12.510;  935.780
954.230;  153.311;  -12.220;  949.640
954.785;  149.781;  -12.190;  936.640
955.341;  146.559;  -12.270;  998.160
955.897;  143.044;  -14.900;  834.660
956.452;  145.669;  -12.520;  953.840
957.008;  144.517;   -9.410; 1083.640
957.563;  141.521;  -11.280; 1009.540
958.118;  138.527;  -13.470;  877.700
958.674;  139.941;  -12.190;  946.780
959.229;  141.070;  -12.760; 1013.980
959.784;  143.699;  -15.710;  832.400
960.339;  149.495;  -12.540; 1001.280
960.894;  148.831;  -11.680;  963.760
961.449;  144.297;  -11.410;  859.960
962.004;  142.814;  -10.430; 1212.840
962.559;  135.565;  -14.040;  860.140
963.114;  130.230;  -14.270;  742.480
963.669;  131.273;  -11.320;  915.500
964.224;  132.309;  -14.620;  874.340
964.779;  129.582;  -14.150;  828.420
965.334;  131.059;  -10.850; 1017.860
965.888;  130.043;  -14.530;  875.360
966.443;  131.861;  -13.520;  972.380
966.998;  128.482;  -13.370;  819.460
967.552;  126.603;   -9.960;  908.380
968.107;  122.439;  -12.360;  868.300
968.661;  123.314;  -12.270;  922.440
969.216;  121.676;  -12.140;  856.280
969.770;  122.301;  -11.860;  917.200
970.324;  121.416;  -12.170;  923.140
970.879;  121.410;  -14.160;  947.180
971.433;  119.823;  -12.940;  952.720
971.987;  116.298;  -10.180;  895.340
972.541;  114.764;  -12.130;  917.100
973.095;  115.107;  -14.980; 1009.460
973.649;  113.118;  -14.480;  809.480
974.203;  115.423;  -13.530;  829.040
974.757;  116.522;  -12.060;  855.220
975.311;  114.839;  -13.240;  872.600
975.865;  112.935;  -12.550;  881.820
976.419;  112.536;  -13.180;  857.400
976.973;  111.416;  -14.100;  849.620
977.526;  109.790;  -13.330;  949.920
978.080;  105.726;  -15.390;  796.780
978.634;  105.365;  -11.670;  921.320
979.187;  101.481;  -10.640;  905.400
979.741;  101.856;  -13.330; 1018.380
980.294;   99.486;  -14.480;  789.160
980.848;   99.354;  -13.420;  717.220
981.401;   97.899;  -12.360;  816.540
981.955;   94.510;  -12.480;  844.300
982.508;   90.474;  -14.000;  746.340
983.061;   89.908;  -10.440;  915.260
983.615;   86.934;  -14.340;  798.800
984.168;   84.208;  -14.950;  770.080
984.721;   84.588;  -13.270;  880.760
985.274;   82.176;  -12.240;  867.500
985.827;   80.216;  -12.720;  834.220
986.380;   77.285;  -14.920;  721.340
986.933;   77.239;  -12.860;  864.800
987.486;   76.373;  -10.440;  861.920
988.039;   74.680;  -11.820;  863.100
988.591;   72.862;  -13.760;  893.260
989.144;   71.009;  -14.080;  737.260
989.697;   70.999;  -13.440;  758.740
990.250;   72.316;  -12.050;  858.100
990.802;   70.263;  -14.550;  755.860
991.355;   71.475;  -10.770;  974.880
991.907;   69.628;  -11.710;  864.320
992.460;   67.781;  -12.650;  753.760
993.012;   66.365;  -13.860;  749.540
993.565;   64.689;  -14.310;  711.360
994.117;   64.892;   -9.920;  950.780
994.669;   59.940;  -13.420;  701.320
995.221;   59.759;  -14.200;  791.920
995.774;   59.488;  -13.400;  787.580
996.326;   58.440;  -11.850;  740.220
996.878;   58.276;  -12.230;  838.420
997.430;   56.052;  -14.260;  699.860
997.982;   55.658;  -11.430;  750.140
998.534;   56.189;  -11.590;  739.060
999.086;   54.577;  -11.960;  738.220
999.638;   54.141;  -13.640;  661.380
1000.190;   53.369;  -13.660;  699.320
1000.741;   53.141;   -9.980;  742.700
1001.293;   51.630;  -11.860;  686.020
1001.845;   50.379;  -14.280;  676.640
1002.396;   50.566;  -12.270;  743.400
1002.948;   50.376;  -13.670;  737.400
1003.500;   49.116;  -12.010;  723.780
1004.051;   50.208;  -11.890;  907.580
1004.603;   49.208;  -11.220;  791.820
1005.154;   45.084;  -13.210;  608.980
1005.705;   44.099;  -11.850;  723.960
1006.257;   43.963;  -13.670;  707.220
1006.808;   42.905;  -12.060;  685.460
1007.359;   43.434;  -10.250;  763.240
1007.910;   40.690;  -13.440;  646.640
1008.461;   41.054;  -13.170;  732.940
1009.013;   40.113;  -14.590;  588.340
1009.564;   41.804;  -12.100;  793.520
1010.115;   38.658;  -14.000;  597.040
1010.665;   38.513;  -15.020;  602.160
1011.216;   39.533;  -12.560;  667.920
1011.767;   39.205;  -11.330;  697.920
1012.318;   39.366;  -11.450;  736.980
1012.869;   37.742;  -11.000;  679.000
1013.419;   36.941;  -11.760;  603.120
1013.970;   38.044;  -11.800;  666.640
1014.521;   36.565;  -14.750;  620.620
1015.071;   37.320;  -14.430;  670.380
1015.622;   36.735;  -14.170;  635.460
1016.172;   35.790;  -11.700;  596.820
1016.723;   35.350;  -13.230;  614.380
1017.273;   35.234;  -16.120;  604.160
1017.823;   35.701;  -13.360;  650.340
1018.374;   34.697;  -13.710;  611.760
1018.924;   34.659;  -11.050;  716.880
1019.474;   35.461;  -14.120;  718.880
1020.024;   33.697;  -12.990;  657.580
1020.574;   34.863;  -12.010;  726.160
1021.124;   33.957;  -12.080;  673.580
1021.674;   32.996;  -15.860;  559.120
1022.224;   34.454;  -11.710;  708.940
1022.774;   32.928;  -13.030;  668.820
1023.324;   34.217;  -11.000;  753.520
1023.874;   34.339;  -13.270;  875.760
1024.423;   32.389;  -14.570;  613.700
1024.973;   32.233;  -12.620;  610.760
1025.523;   31.540;  -12.630;  620.960
1026.072;   30.788;  -14.110;  606.420
1026.622;   31.555;  -15.390;  675.740
1027.172;   32.073;   -9.090;  715.660
1027.721;   30.681;  -12.250;  601.220
1028.270;   31.015;  -15.590;  663.400
1028.820;   30.762;  -13.840;  638.080
1029.369;   30.731;  -13.170;  612.700
1029.918;   30.055;  -14.080;  649.840
1030.468;   29.559;  -13.860;  564.780
1031.017;   30.153;  -12.970;  634.800
1031.566;   29.420;  -12.320;  608.900
1032.115;   29.916;  -13.140;  694.500
1032.664;   28.328;  -14.560;  596.480
1033.213;   30.124;  -11.620;  735.420
1033.762;   29.057;  -13.190;  635.620
1034.311;   28.529;  -13.460;  677.220
1034.860;   28.481;  -15.770;  691.000
1035.408;   29.129;  -13.100;  722.720
1035.957;   29.015;  -12.880;  719.540
1036.506;   26.801;  -13.640;  530.800
1037.055;   29.630;  -12.420;  844.320
1037.603;   27.369;  -13.740;  664.000
1038.152;   26.613;  -13.840;  534.760
1038.700;   26.522;  -10.770;  585.740
1039.249;   26.283;  -13.520;  681.220
1039.797;   26.921;  -13.060;  633.360
1040.345;   27.202;  -11.760;  705.420
1040.894;   26.429;  -10.790;  625.300
1041.442;   26.006;  -15.420;  632.200
1041.990;   25.552;  -14.550;  559.160
1042.538;   24.333;  -15.620;  536.180
1043.087;   24.574;  -14.940;  570.860
1043.635;   25.893;  -12.100;  670.500
1044.183;   25.331;  -13.200;  586.400
1044.731;   25.185;  -11.630;  576.000
1045.279;   25.228;  -14.200;  674.920
1045.827;   27.043;  -12.510;  892.400
1046.374;   23.137;  -14.960;  515.420
1046.922;   23.023;  -11.850;  590.580
1047.470;   25.020;  -13.770;  691.300
1048.018;   24.052;  -15.380;  647.960
1048.565;   24.922;  -14.010;  708.600
1049.113;   23.233;  -14.620;  557.000
1049.660;   23.608;  -14.940;  629.660
1050.208;   23.802;  -14.540;  675.640
1050.755;   22.696;  -13.710;  606.580
1051.303;   23.348;  -11.880;  686.820
1051.850;   22.234;  -12.160;  635.120
1052.397;   20.550;  -15.110;  473.960
1052.945;   21.564;  -14.770;  617.760
1053.492;   23.729;  -12.320;  741.840
1054.039;   23.030;  -13.290;  720.180
1054.586;   21.052;  -15.210;  557.240
1055.133;   22.212;  -12.920;  693.140
1055.680;   22.879;  -12.610;  646.620
1056.227;   21.682;  -12.620;  542.780
1056.774;   23.179;  -13.010;  794.980
1057.321;   20.857;  -16.180;  523.260
1057.868;   21.620;  -11.230;  651.320
1058.415;   21.098;  -10.890;  651.980
1058.961;   21.339;  -12.530;  678.940
1059.508;   20.623;  -14.120;  643.820
1060.055;   20.981;  -13.340;  581.780
1060.601;   21.773;  -12.920;  624.300
1061.148;   19.967;  -14.430;  616.820
1061.694;   20.382;  -14.140;  592.580
1062.241;   20.504;  -12.550;  596.320
1062.787;   20.549;  -13.370;  663.140
1063.334;   21.540;  -12.260;  808.560
1063.880;   19.628;  -10.800;  668.360
1064.426;   20.446;   -9.920;  706.820
1064.972;   18.402;  -12.970;  601.340
1065.518;   17.675;  -14.440;  566.640
1066.065;   19.050;  -12.680;  624.460
1066.611;   18.798;  -13.520;  598.800
1067.157;   18.443;  -11.100;  641.860
1067.703;   18.987;  -14.100;  668.480
1068.249;   18.654;  -13.750;  605.220
1068.794;   18.801;  -11.070;  626.880
1069.340;   17.474;  -13.210;  578.960
1069.886;   18.148;  -14.850;  590.700
1070.432;   17.243;  -14.580;  541.720
1070.977;   17.124;  -12.930;  601.080
1071.523;   17.385;  -11.970;  573.060
1072.068;   17.529;  -13.730;  582.000
1072.614;   16.010;  -14.550;  527.760
1073.160;   17.742;  -13.690;  687.040
1073.705;   16.393;  -14.780;  572.520
1074.250;   15.931;  -15.430;  559.900
1074.796;   17.886;  -11.620;  655.160
1075.341;   17.682;  -11.580;  664.100
1075.886;   16.816;  -13.190;  594.240
1076.431;   16.625;  -13.630;  649.880
1076.976;   16.832;  -11.670;  639.220
1077.521;   15.895;  -11.600;  583.080
1078.067;   15.598;  -13.920;  579.400
1078.612;   15.940;  -12.910;  661.620
1079.156;   15.486;  -15.340;  601.540
1079.701;   15.827;  -12.560;  693.260
1080.246;   16.292;  -12.490;  696.300
1080.791;   15.834;  -14.550;  625.020
1081.336;   15.531;  -15.210;  659.320
1081.880;   16.026;  -11.280;  649.680
1082.425;   14.948;  -12.830;  573.480
1082.970;   16.478;  -11.680;  717.040
1083.514;   15.283;  -15.500;  597.000
1084.059;   13.950;  -11.770;  586.720
1084.603;   13.930;  -13.480;  565.840
1085.147;   14.739;  -13.940;  645.220
1085.692;   15.086;  -13.170;  716.800
1086.236;   13.353;  -15.740;  503.140
1086.780;   15.634;  -10.750;  751.440
1087.325;   14.207;  -14.900;  654.620
1087.869;   14.627;  -15.160;  610.700
1088.413;   15.243;  -11.030;  705.040
1088.957;   12.544;  -15.210;  543.400
1089.501;   14.907;  -12.310;  766.640
1090.045;   14.825;  -12.790;  726.480
1090.589;   12.776;  -14.040;  569.920
1091.133;   13.119;  -12.800;  673.340
1091.676;   13.137;  -13.600;  591.940
1092.220;   12.424;  -12.960;  600.920
1092.764;   13.870;  -10.830;  706.960
1093.307;   13.070;  -12.390;  673.780
1093.851;   11.594;  -15.850;  556.540
1094.395;   13.330;  -12.980;  683.140
1094.938;   12.633;  -13.670;  632.520
1095.482;   12.143;  -12.740;  559.800
1096.025;   13.592;  -13.340;  710.880
1096.568;   13.420;  -10.500;  779.280
1097.112;   10.326;  -13.500;  508.180
1097.655;   12.354;  -13.060;  603.000
1098.198;   10.617;  -13.240;  600.180
1098.741;   10.881;  -15.490;  612.860
1099.285;   12.305;  -13.410;  657.300
1099.828;    9.744;  -15.640;  439.400
1100.371;   10.617;  -13.980;  608.160
1100.914;   11.445;  -13.990;  682.660
1101.457;   11.504;  -15.030;  679.900
1101.999;   10.158;  -12.480;  584.680
1102.542;   11.440;  -12.410;  641.440
1103.085;   10.312;  -14.730;  658.500
1103.628;   11.790;  -12.190;  762.060
1104.170;   10.052;  -12.360;  588.280
1104.713;   10.233;  -13.350;  646.700
1105.256;    9.595;  -14.930;  557.440
1105.798;    9.048;  -15.150;  499.980
1106.341;   11.522;  -13.230;  728.900
1106.883;    9.533;  -14.680;  521.340
1107.425;   10.181;  -14.810;  668.180
1107.968;   10.194;  -12.940;  612.380
1108.510;   10.527;  -10.550;  684.960
1109.052;    8.055;  -15.640;  612.620
1109.594;    9.148;  -14.440;  554.440
1110.136;    9.593;  -11.380;  643.220
1110.679;    8.181;  -13.090;  633.080
1111.221;    9.379;  -14.230;  604.460
1111.763;    8.029;  -14.260;  559.220
1112.304;    8.428;  -14.510;  547.140
1112.846;    9.324;  -14.700;  666.240
1113.388;   12.122;  -12.270;  942.180
1113.930;    8.845;  -13.340;  694.200
1114.472;    8.591;  -12.560;  606.540
1115.013;    7.114;  -14.280;  551.280
1115.555;    7.244;  -14.010;  587.100
1116.097;    6.970;  -14.730;  579.480
1116.638;    8.403;  -12.160;  684.600
1117.180;    8.381;  -14.320;  667.740
1117.721;    7.248;  -15.730;  568.580
1118.262;    8.213;  -13.480;  677.960
1118.804;    7.706;  -11.530;  637.340
1119.345;    6.549;  -13.540;  578.400
1119.886;    8.402;  -14.470;  704.040
1120.427;    7.262;  -13.030;  589.020
1120.969;    6.592;  -13.150;  597.920
1121.510;    5.978;  -13.940;  563.060
1122.051;    7.120;  -12.310;  723.580
1122.592;    6.308;  -13.870;  655.420
1123.133;    5.709;  -12.890;  547.940
1123.673;    7.222;  -13.300;  706.480
1124.214;    6.663;  -14.000;  612.460
1124.755;    7.521;  -13.210;  639.460
1125.296;    6.759;  -13.450;  627.320
1125.836;    7.063;  -12.610;  691.500
1126.377;    5.563;  -15.840;  599.660
1126.918;    7.442;  -11.830;  614.980
1127.458;    6.225;  -11.830;  622.220
1127.999;    6.463;  -11.490;  656.980
1128.539;    6.397;  -12.900;  694.240
1129.079;    5.155;  -14.910;  632.720
1129.620;    5.202;  -12.920;  558.100
1130.160;    4.804;  -14.640;  539.480
1130.700;    5.393;  -13.270;  640.840
1131.240;    5.257;  -14.110;  643.700
1131.781;    5.225;  -13.130;  619.680
1132.321;    5.286;  -15.220;  599.120
1132.861;    4.087;  -15.670;  564.200
1133.401;    4.018;  -13.970;  593.940
1133.941;    5.324;  -13.740;  626.280
1134.481;    4.402;  -13.200;  597.580
1135.020;    4.417;  -14.830;  609.160
1135.560;    4.492;  -14.590;  674.940
1136.100;    4.005;  -13.730;  501.160
1136.640;    3.934;  -15.240;  510.480
1137.179;    3.673;  -14.710;  537.960
1137.719;    4.004;  -14.090;  605.400
1138.258;    4.608;  -12.470;  587.360
1138.798;    4.835;  -12.580;  663.780
1139.337;    2.036;  -16.480;  482.840
1139.877;    4.206;  -13.970;  642.360
1140.416;    6.779;   -9.870;  878.060
1140.955;    3.054;  -14.860;  535.380
1141.494;    3.663;  -14.530;  669.280
1142.034;    2.389;  -13.940;  583.520
1142.573;    4.560;  -11.160;  646.280
1143.112;    2.531;  -15.050;  553.480
1143.651;    2.323;  -15.390;  536.480
1144.190;    4.419;  -12.990;  691.640
1144.729;    3.726;  -12.220;  607.420
1145.267;    3.785;  -14.020;  584.900
1145.806;    3.646;  -12.740;  637.040
1146.345;    2.821;  -14.810;  635.020
1146.884;    3.283;  -12.920;  622.500
1147.422;    1.964;  -13.930;  533.060
1147.961;    3.245;  -11.830;  708.460
1148.500;    3.307;  -12.710;  669.720
1149.038;    4.021;  -14.420;  632.500
1149.577;    3.283;  -13.920;  698.640
1150.115;    0.320;  -17.050;  452.280
1150.653;    2.672;  -14.890;  607.340
1151.192;    2.818;  -15.270;  552.920
1151.730;    1.868;  -13.160;  652.560
1152.268;    2.026;  -15.430;  589.520
1152.806;    1.550;  -15.880;  571.180
1153.344;    0.425;  -13.240;  577.640
1153.882;    1.296;  -13.010;  600.060
1154.421;   -0.206;  -16.180;  470.620
1154.958;    0.814;  -13.880;  595.240
1155.496;    2.470;  -13.590;  645.280
1156.034;    1.499;  -11.910;  721.880
1156.572;    3.167;  -12.010;  667.060
1157.110;    0.560;  -16.250;  473.940
1157.647;    2.545;  -15.230;  676.960
1158.185;    0.563;  -13.770;  564.320
1158.723;   -0.354;  -15.300;  509.200
1159.260;    2.286;  -13.130;  701.700
1159.798;    2.968;  -11.300;  658.160
1160.335;    0.904;  -13.210;  631.820

