
Integration time [ms]:   3.276
Averaging Nr. [scans]: 1000
Smoothing Nr. [pixels]: 0
Data measured with spectrometer [name]: 7414430SP
Wave   ;Sample   ;Dark     ;Reference
[nm]   ;[counts] ;[counts] ;[counts] 

288.544;  151.925;    7.793;  793.890
289.143;  155.542;    7.462;  681.602
289.742;  156.265;    8.602;  828.814
290.341;  140.751;    1.321;  789.841
290.940;  130.547;   -0.709;  730.702
291.538;  130.772;    0.881;  881.108
292.137;  131.628;    0.122;  792.581
292.736;  136.246;   -1.929;  975.101
293.335;  131.403;   -8.229;  735.086
293.934;  132.332;   -5.279;  781.677
294.532;  131.415;   -1.369; 1031.958
295.131;  116.422;   -7.641;  834.394
295.730;  116.920;   -8.420;  809.588
296.328;  115.963;   -5.611;  783.442
296.927;  117.266;   -5.781;  779.652
297.525;  118.581;   -6.361;  781.236
298.124;  107.678;  -11.382;  654.009
298.722;  111.244;   -7.641;  761.933
299.321;  109.341;   -6.811;  708.597
299.919;  107.832;   -6.991;  751.918
300.518;  104.609;  -10.362;  689.338
301.116;  105.638;   -9.581;  691.381
301.715;  105.992;   -4.891;  730.222
302.313;  105.125;   -8.801;  704.943
302.911;  100.537;   -8.522;  733.830
303.509;  105.101;   -6.171;  925.627
304.108;  103.545;   -7.311;  760.383
304.706;  103.154;   -8.321;  801.664
305.304;   96.267;  -10.222;  796.707
305.902;  101.528;   -6.021;  784.484
306.500;   98.123;   -4.971;  728.200
307.098;   96.617;   -7.061;  746.560
307.696;   93.655;   -8.801;  780.432
308.294;   94.680;   -6.411;  731.359
308.892;   97.687;   -2.901;  759.769
309.490;   93.624;   -5.041;  712.161
310.088;   91.075;   -5.002;  788.444
310.686;   95.401;   -2.041;  821.749
311.284;   91.699;   -2.351;  766.040
311.882;   89.446;   -4.422;  731.225
312.480;   86.193;   -4.192;  697.167
313.078;   86.614;   -1.172;  808.331
313.675;   88.126;   -2.601;  691.600
314.273;   83.377;   -1.312;  797.837
314.871;   82.591;   -3.942;  589.829
315.468;   80.376;   -2.802;  652.090
316.066;   83.726;   -0.701;  694.427
316.664;   76.311;   -4.362;  656.351
317.261;   80.545;   -2.872;  910.128
317.859;   75.364;   -2.022;  768.735
318.456;   76.866;   -0.531;  830.096
319.054;   72.050;   -3.912;  787.828
319.651;   71.368;   -4.752;  759.928
320.249;   69.935;   -2.602;  810.188
320.846;   68.375;   -0.821;  714.286
321.443;   66.210;   -4.642;  832.135
322.041;   62.220;   -5.002;  812.315
322.638;   59.560;   -3.982;  701.456
323.235;   61.512;   -3.411;  665.683
323.833;   57.937;   -7.361;  740.354
324.430;   53.805;   -8.611;  615.900
325.027;   54.826;   -4.061;  876.855
325.624;   54.483;   -4.031;  644.532
326.221;   51.668;   -7.481;  689.717
326.818;   50.726;   -5.281;  818.332
327.415;   53.980;   -7.460;  748.828
328.012;   54.261;   -5.510;  690.585
328.609;   52.796;   -7.880;  731.389
329.206;   50.975;   -8.331;  778.621
329.803;   50.566;   -5.121;  737.841
330.400;   53.862;   -4.510;  704.260
330.997;   54.890;   -6.441;  817.147
331.594;   53.424;   -8.831;  788.185
332.191;   58.361;   -7.621;  728.722
332.787;   61.400;   -4.591;  844.463
333.384;   60.034;   -7.412;  763.093
333.981;   58.334;   -8.293;  815.687
334.578;   61.836;   -7.052;  708.378
335.174;   64.818;   -3.102;  731.469
335.771;   63.545;   -5.943;  836.456
336.367;   60.351;   -7.393;  710.631
336.964;   64.698;   -4.063;  793.266
337.561;   62.761;   -3.813;  731.112
338.157;   58.976;   -4.654;  911.916
338.754;   56.528;   -7.934;  796.589
339.350;   53.494;   -4.414;  722.493
339.946;   55.942;   -4.664;  773.135
340.543;   48.248;   -6.375;  846.136
341.139;   41.955;   -9.815;  720.836
341.735;   39.937;   -4.526;  772.593
342.332;   38.987;   -4.895;  691.472
342.928;   38.828;   -4.295;  795.394
343.524;   32.774;   -5.476;  761.684
344.120;   29.125;   -5.856;  738.562
344.716;   33.370;   -2.155;  723.717
345.313;   31.276;   -6.275;  795.342
345.909;   24.710;   -8.815;  627.336
346.505;   26.987;   -5.305;  740.247
347.101;   27.373;   -2.674;  827.864
347.697;   28.333;   -4.344;  785.398
348.293;   22.185;   -9.975;  627.244
348.889;   23.279;   -5.774;  745.914
349.485;   23.105;   -5.004;  688.205
350.081;   23.339;   -4.704;  772.592
350.676;   18.169;   -6.635;  691.606
351.272;   23.107;   -4.504;  809.530
351.868;   22.874;   -3.914;  780.497
352.464;   19.366;   -9.044;  723.932
353.059;   15.645;   -8.314;  646.017
353.655;   19.249;   -7.024;  777.063
354.251;   20.597;   -5.343;  759.845
354.846;   14.699;   -8.604;  740.646
355.442;   12.834;   -6.945;  753.071
356.038;   13.565;   -7.564;  751.708
356.633;   15.188;   -5.814;  728.594
357.229;   12.758;   -7.364;  724.757
357.824;   10.820;   -8.024;  703.600
358.420;   10.493;   -9.384;  679.726
359.015;   10.822;   -5.104;  695.357
359.610;   11.652;   -6.854;  763.920
360.206;    5.724;  -10.185;  603.240
360.801;    8.649;   -7.054;  646.503
361.396;   11.300;   -5.034;  725.975
361.992;    5.131;   -8.284;  668.220
362.587;    3.414;   -8.625;  670.160
363.182;    4.635;   -7.674;  689.631
363.777;    6.341;   -5.164;  738.242
364.372;    6.309;   -8.604;  737.314
364.967;    1.994;   -9.055;  680.744
365.563;    6.662;   -6.114;  815.567
366.158;    4.127;   -5.814;  685.161
366.753;    3.269;   -7.854;  649.263
367.348;    2.065;   -7.804;  746.056
367.942;    2.351;   -7.954;  697.298
368.537;    1.584;   -4.984;  754.245
369.132;    1.428;   -8.564;  703.428
369.727;   -2.489;   -8.855;  638.079
370.322;   -1.664;   -6.245;  580.186
370.917;   -1.567;   -6.425;  710.646
371.511;    1.616;   -6.294;  861.834
372.106;   -2.288;   -7.685;  776.964
372.701;   -4.823;   -7.335;  585.988
373.296;    0.389;   -4.564;  863.135
373.890;   -4.732;  -10.235;  647.840
374.485;   -7.536;   -7.885;  691.199
375.079;   -2.726;   -7.324;  738.685
375.674;   -1.883;   -3.494;  812.970
376.268;   -5.776;   -8.525;  691.759
376.863;  -12.013;  -10.086;  580.327
377.457;   -5.590;   -7.025;  662.490
378.052;   -7.243;   -3.585;  764.884
378.646;   -8.406;   -7.595;  741.167
379.240;   -8.719;   -8.335;  721.176
379.835;   -7.780;   -5.785;  636.978
380.429;   -9.749;   -4.335;  562.557
381.023;   -9.557;   -6.805;  779.205
381.617;  -12.015;   -9.195;  680.106
382.212;   -8.859;   -6.905;  685.303
382.806;   -7.329;   -3.745;  760.690
383.400;  -11.795;   -7.745;  672.281
383.994;  -12.718;   -9.765;  664.870
384.588;   -8.211;   -6.564;  697.701
385.182;   -7.543;   -5.344;  726.624
385.776;   -9.302;   -8.514;  706.875
386.370;  -12.775;   -9.555;  681.968
386.964;  -11.857;   -8.715;  684.155
387.558;   -8.980;   -6.174;  598.360
388.152;  -13.172;   -8.725;  681.959
388.745;  -11.084;   -7.965;  814.707
389.339;   -9.569;   -5.924;  747.642
389.933;   -8.620;   -5.524;  695.370
390.527;  -10.091;   -7.114;  859.029
391.120;  -16.226;  -10.725;  595.318
391.714;  -13.503;   -8.035;  711.633
392.308;   -9.561;   -3.574;  780.253
392.901;  -13.187;   -7.245;  642.460
393.495;  -15.819;   -9.285;  595.414
394.089;  -12.631;   -5.895;  760.452
394.682;  -12.975;   -4.295;  697.188
395.275;  -14.256;   -9.875;  719.927
395.869;  -15.988;   -8.485;  667.314
396.462;  -14.577;   -7.455;  616.609
397.056;   -9.270;   -5.424;  776.621
397.649;  -14.889;   -6.605;  731.575
398.242;  -12.577;   -8.224;  712.645
398.836;  -11.498;   -7.474;  766.408
399.429;  -12.178;   -7.094;  631.041
400.022;  -15.915;   -9.475;  665.902
400.615;  -13.454;   -7.145;  805.609
401.208;  -12.092;   -7.174;  691.451
401.802;  -14.126;   -5.515;  699.329
402.395;  -14.507;   -9.875;  683.502
402.988;  -15.776;   -8.845;  696.627
403.581;  -12.587;   -8.874;  646.878
404.174;  -10.760;   -5.324;  686.568
404.767;  -13.440;   -9.575;  638.583
405.360;  -16.003;  -10.965;  621.445
405.953;  -10.524;   -8.764;  759.034
406.545;   -9.517;   -7.514;  725.342
407.138;  -13.699;  -10.025;  618.350
407.731;  -13.740;  -10.034;  613.303
408.324;   -9.511;   -9.374;  660.554
408.917;   -9.560;   -6.534;  681.864
409.509;  -11.946;   -8.004;  740.396
410.102;  -14.200;   -9.875;  643.948
410.695;   -7.783;   -8.604;  665.758
411.287;   -8.448;   -6.794;  599.821
411.880;   -9.971;   -9.334;  585.421
412.472;  -13.142;  -10.254;  613.092
413.065;  -10.958;   -6.714;  629.408
413.657;   -8.005;   -7.234;  576.678
414.250;   -8.163;  -10.544;  646.681
414.842;  -10.065;   -9.744;  676.353
415.434;   -7.520;   -6.994;  570.463
416.027;   -3.391;   -5.893;  652.196
416.619;   -5.155;   -7.264;  713.400
417.211;   -6.158;  -10.374;  599.352
417.804;   -2.821;   -7.993;  628.499
418.396;   -6.170;   -7.234;  607.643
418.988;   -5.080;   -9.443;  659.238
419.580;   -7.481;  -10.724;  568.276
420.172;   -5.484;  -10.323;  536.196
420.764;   -0.353;   -8.793;  672.482
421.356;   -2.473;  -11.143;  636.898
421.948;   -3.668;   -8.293;  677.661
422.540;    1.385;   -7.893;  680.027
423.132;    1.113;   -7.082;  600.641
423.724;   -1.687;   -8.653;  561.267
424.316;   -0.770;  -10.213;  621.345
424.908;    2.712;   -9.762;  591.517
425.500;    4.208;   -5.572;  647.978
426.092;    4.469;   -8.422;  648.268
426.683;    2.999;   -9.283;  684.836
427.275;    5.972;   -7.852;  641.471
427.867;    7.846;   -5.272;  668.948
428.458;    8.133;   -7.682;  732.344
429.050;    5.924;  -10.612;  680.749
429.642;    8.904;   -9.882;  743.124
430.233;    9.500;   -6.962;  569.356
430.825;   10.972;   -6.842;  724.809
431.416;    7.936;   -9.672;  698.241
432.008;   11.879;   -6.552;  651.723
432.599;   12.943;   -6.891;  656.073
433.190;    8.880;  -10.912;  637.670
433.782;    8.739;  -11.172;  590.395
434.373;   15.756;   -6.061;  884.765
434.964;   15.612;   -8.251;  602.920
435.556;   12.345;   -9.722;  634.537
436.147;   15.442;   -9.082;  758.490
436.738;   14.675;   -8.041;  701.099
437.329;   20.429;   -7.341;  721.723
437.920;   13.476;   -8.162;  666.688
438.511;   13.242;  -11.802;  564.526
439.103;   19.031;  -10.191;  623.998
439.694;   22.466;   -7.601;  681.583
440.285;   22.698;   -8.541;  764.432
440.876;   20.607;   -9.751;  845.738
441.466;   19.826;   -9.401;  575.162
442.057;   25.666;   -7.760;  665.814
442.648;   23.923;   -9.971;  746.255
443.239;   22.026;  -11.001;  620.477
443.830;   27.008;   -7.990;  704.958
444.421;   29.431;   -7.910;  655.474
445.011;   26.065;   -8.131;  693.619
445.602;   25.592;   -7.111;  743.126
446.193;   27.313;  -10.920;  488.117
446.783;   31.607;   -6.500;  640.397
447.374;   27.933;   -8.671;  692.759
447.964;   27.633;  -10.781;  713.770
448.555;   36.372;   -9.650;  822.742
449.145;   32.184;   -8.660;  662.853
449.736;   33.747;   -8.990;  803.179
450.326;   33.718;   -9.500;  713.626
450.917;   37.549;   -8.680;  675.324
451.507;   37.699;   -7.520;  600.661
452.097;   38.530;   -8.590;  746.267
452.688;   38.736;  -11.340;  742.160
453.278;   39.283;  -10.100;  566.840
453.868;   44.308;   -6.019;  793.550
454.458;   41.453;   -9.440;  651.141
455.048;   41.292;  -10.560;  711.783
455.639;   43.181;  -11.799;  567.096
456.229;   46.635;   -6.899;  710.694
456.819;   48.265;   -7.389;  751.158
457.409;   48.325;  -11.119;  773.993
457.999;   51.674;   -9.289;  737.505
458.589;   52.043;   -6.139;  686.606
459.179;   51.501;   -8.729;  717.658
459.769;   49.263;   -9.789;  627.099
460.358;   54.035;  -10.259;  797.262
460.948;   54.409;   -7.299;  689.503
461.538;   55.943;  -10.289;  660.677
462.128;   53.692;  -11.269;  664.934
462.717;   59.665;   -9.368;  710.326
463.307;   64.038;   -7.908;  705.846
463.897;   59.753;   -9.599;  656.942
464.486;   58.702;   -9.769;  837.128
465.076;   62.767;   -8.048;  733.776
465.666;   66.901;   -9.358;  652.900
466.255;   64.763;   -7.919;  785.651
466.845;   63.620;  -11.689;  666.749
467.434;   66.797;   -7.818;  725.873
468.023;   68.053;   -7.678;  658.357
468.613;   65.977;  -10.939;  713.946
469.202;   69.650;  -10.118;  646.507
469.791;   73.180;   -9.108;  737.811
470.381;   75.666;   -6.058;  742.813
470.970;   75.338;  -10.428;  711.099
471.559;   74.648;  -10.268;  733.291
472.148;   77.346;   -8.448;  675.737
472.738;   81.031;   -6.917;  765.466
473.327;   80.703;  -11.978;  637.529
473.916;   79.796;  -11.888;  737.446
474.505;   83.870;   -9.437;  751.703
475.094;   87.495;   -6.747;  806.570
475.683;   86.696;   -9.367;  797.699
476.272;   87.831;  -12.637;  730.632
476.861;   90.636;  -10.027;  706.754
477.449;   96.987;   -8.716;  728.487
478.038;   91.751;   -9.577;  692.513
478.627;   92.560;   -9.718;  714.852
479.216;   99.131;   -8.947;  769.441
479.805;  101.770;   -6.256;  783.375
480.393;  102.792;   -7.937; 1008.945
480.982;  101.191;   -7.717;  874.501
481.571;  107.329;   -9.266;  858.333
482.159;  108.054;   -7.636;  705.386
482.748;  107.400;   -9.667;  821.385
483.336;  112.107;  -10.376;  858.209
483.925;  112.343;   -7.147;  774.373
484.513;  120.375;   -7.996;  758.962
485.102;  116.877;  -10.027;  810.965
485.690;  124.533;  -10.446; 1011.050
486.278;  127.383;   -8.446;  979.329
486.867;  128.357;   -6.356;  809.662
487.455;  130.037;   -9.136;  898.229
488.043;  130.467;  -10.646;  748.361
488.631;  138.431;   -7.456; 1005.079
489.220;  142.894;   -6.636;  908.626
489.808;  143.393;  -11.036;  741.415
490.396;  150.826;  -10.246;  914.645
490.984;  156.405;   -8.556;  830.161
491.572;  166.756;   -5.886;  940.315
492.160;  172.404;   -9.486;  919.081
492.748;  184.390;  -10.976;  884.341
493.336;  205.752;   -8.776; 1019.693
493.924;  232.607;   -5.465;  958.077
494.512;  259.811;   -9.986; 1066.638
495.100;  295.100;  -10.636; 1103.280
495.687;  351.554;  -10.885; 1206.373
496.275;  413.557;   -8.126; 1150.796
496.863;  482.679;  -10.586; 1281.171
497.451;  580.735;  -11.926; 1386.805
498.038;  712.940;  -10.885; 1556.729
498.626;  818.766;   -6.315; 1741.407
499.214;  968.938;   -7.326; 2016.609
499.801; 1168.754;  -11.906; 2220.633
500.389; 1404.570;  -10.466; 2312.494
500.976; 1704.105;   -5.236; 2744.849
501.564; 2141.684;   -8.936; 3148.565
502.151; 2509.079;  -13.176; 3515.999
502.738; 2931.189;  -10.646; 3971.274
503.326; 3326.694;   -9.525; 4403.796
503.913; 3729.995;  -10.856; 5161.749
504.500; 4111.886;  -11.586; 5986.420
505.088; 4494.103;  -10.336; 6381.201
505.675; 5055.279;   -6.355; 6925.547
506.262; 5761.164;   -9.046; 7619.060
506.849; 6470.820;  -10.416; 8733.969
507.436; 6993.811;  -10.305; 9790.121
508.023; 7586.396;   -5.496; 9985.472
508.610; 7829.985;   -7.856;10434.618
509.197; 8459.572;  -10.097;11198.435
509.784; 9812.117;  -10.886;12391.194
510.371;10913.782;   -9.315;13603.713
510.958;11607.521;   -9.936;14426.586
511.545;12272.447;   -9.326;15243.775
512.132;13200.738;  -10.075;15945.876
512.719;13804.143;   -7.796;16340.369
513.305;14868.796;  -10.606;18011.766
513.892;15606.219;  -11.486;19754.971
514.479;16754.348;   -9.126;20967.805
515.066;18174.850;   -6.026;22299.793
515.652;19724.373;   -8.466;22908.660
516.239;20961.695;  -10.886;23798.875
516.825;21929.777;  -11.496;25567.275
517.412;22983.875;   -5.796;28154.959
517.998;23740.666;  -10.506;28344.111
518.585;23621.025;  -10.076;27134.219
519.171;24169.654;   -8.315;27268.576
519.758;25997.488;   -8.596;28964.129
520.344;28092.434;   -8.466;30664.494
520.930;27767.238;  -11.006;32550.605
521.516;28699.746;  -10.495;35422.895
522.103;30638.262;   -5.526;38280.004
522.689;31270.504;   -8.746;37835.117
523.275;30875.568;  -11.376;37288.613
523.861;32254.912;  -11.156;37281.395
524.447;33773.992;   -8.135;37846.949
525.033;33372.559;   -7.896;38321.949
525.619;33636.117;  -12.476;38579.285
526.205;35127.188;   -9.516;40622.875
526.791;37830.566;   -6.926;42258.836
527.377;37494.801;   -8.346;42966.902
527.963;38475.977;   -8.717;42018.949
528.549;37660.461;  -11.016;42476.828
529.135;36204.211;   -8.536;41854.852
529.721;34954.566;   -9.666;41237.711
530.306;33753.328;  -10.066;41259.445
530.892;32833.402;  -11.356;41506.047
531.478;32866.375;   -6.596;43559.613
532.063;35044.867;   -8.836;47695.563
532.649;36416.340;  -10.047;50808.324
533.235;37410.621;   -9.746;51787.500
533.820;36900.590;   -6.566;52145.035
534.406;35908.590;  -10.817;51133.488
534.991;33270.328;   -9.416;49996.805
535.576;30836.650;   -9.036;48882.852
536.162;33306.086;   -6.156;46942.285
536.747;38773.781;  -11.607;45711.746
537.333;45290.184;  -11.787;48510.180
537.918;50501.582;  -12.437;50439.891
538.503;50748.535;   -7.196;50863.711
539.088;47452.621;  -10.556;50906.922
539.673;47243.109;   -8.767;52621.965
540.259;47798.719;  -10.026;52368.094
540.844;44923.832;   -7.416;50879.109
541.429;46244.188;   -9.467;52077.777
542.014;48636.137;   -9.527;52716.695
542.599;48039.480;   -9.946;52363.281
543.184;44993.727;   -7.927;53187.137
543.769;45873.949;   -9.297;54697.605
544.354;45882.059;  -10.127;53913.914
544.938;44385.910;   -9.267;49680.164
545.523;45963.410;   -6.506;47386.277
546.108;48793.668;   -9.787;49151.949
546.693;50955.133;  -11.587;51384.637
547.278;51191.406;  -10.986;51853.254
547.862;48065.758;   -8.206;51173.750
548.447;43431.277;  -10.067;51691.395
549.031;42517.914;   -9.637;52456.703
549.616;47141.301;   -9.926;52714.516
550.201;46894.160;   -6.347;52414.598
550.785;48078.801;   -7.917;52355.059
551.370;47507.559;  -10.867;54589.453
551.954;47081.055;   -9.047;58267.348
552.538;47991.160;   -7.827;59062.176
553.123;46455.203;  -10.287;58115.285
553.707;44280.738;  -12.178;56556.285
554.291;45839.188;   -8.717;56201.668
554.876;49157.035;   -7.457;55335.762
555.460;49300.629;  -10.387;54155.703
556.044;49535.328;   -9.618;53721.484
556.628;47154.410;  -11.567;53731.016
557.212;45625.551;   -8.097;54312.531
557.796;44534.957;  -11.077;53797.773
558.380;44649.828;  -11.108;56145.984
558.964;44681.203;   -9.057;57277.930
559.548;45793.449;   -6.977;56459.641
560.132;43878.227;  -11.457;54434.543
560.716;42309.172;  -11.378;54800.617
561.300;43588.234;   -9.577;57606.945
561.884;44705.047;   -7.127;58972.445
562.467;42596.344;   -7.118;57327.570
563.051;41894.953;  -13.358;54962.434
563.635;43535.559;  -10.178;52594.473
564.219;44074.336;   -7.837;50610.410
564.802;44584.734;  -11.398;49551.180
565.386;44116.910;  -12.788;48370.953
565.969;43516.148;   -9.077;48178.871
566.553;42431.691;   -6.207;49957.305
567.136;43380.938;   -8.568;50369.594
567.720;40088.555;  -11.868;49492.004
568.303;38139.184;   -8.268;50616.352
568.887;38232.684;   -8.698;50727.148
569.470;38696.594;   -6.808;51698.379
570.053;37900.152;  -13.188;52122.078
570.637;35508.465;  -12.037;52536.438
571.220;35150.734;   -8.577;51186.098
571.803;36243.465;   -8.498;51032.762
572.386;38558.906;  -10.498;49609.887
572.969;40839.238;   -9.388;48285.926
573.552;39177.043;   -8.338;47624.285
574.135;37503.484;   -8.518;45498.641
574.718;34950.508;  -13.628;41970.434
575.301;34283.672;  -10.893;41447.137
575.884;33616.836;   -8.158;40923.836
576.467;34941.965;  -10.328;45267.723
577.050;36212.379;  -13.058;48175.543
577.633;37054.102;   -9.458;47729.328
578.216;36206.863;   -8.928;47579.793
578.799;35354.543;   -9.358;47820.996
579.381;34502.535;  -11.388;48115.551
579.964;32499.834;  -11.718;47333.766
580.547;34727.070;   -8.588;46668.969
581.129;35684.105;   -8.859;44466.141
581.712;36402.734;  -10.729;44164.922
582.294;36644.250;  -11.118;46477.855
582.877;36641.086;   -5.218;48244.254
583.459;34932.180;   -8.679;47437.895
584.042;32937.184;  -10.709;46943.219
584.624;32785.211;  -11.669;46792.227
585.206;32625.678;   -8.218;46557.250
585.789;33011.891;  -10.569;45793.773
586.371;35418.406;  -11.859;43836.391
586.953;36426.234;  -10.719;42972.492
587.536;37179.625;   -7.198;42487.211
588.118;37448.758;   -8.720;42086.414
588.700;33408.852;  -10.439;43389.930
589.282;32415.416;   -9.198;43646.039
589.864;33478.211;   -9.199;43438.109
590.446;34646.414;  -11.319;43151.926
591.028;34545.105;  -11.159;42781.867
591.610;33378.402;  -11.779;42839.098
592.192;30685.959;   -7.668;42820.402
592.774;29414.705;  -11.949;40724.277
593.356;28373.709;  -12.129;39874.789
593.937;27381.613;  -10.669;39980.648
594.519;29602.836;   -6.509;42069.633
595.101;31835.695;  -10.849;42976.031
595.683;32040.865;  -11.679;44084.441
596.264;32907.355;   -9.049;43478.797
596.846;32751.027;   -8.849;43803.672
597.427;32425.600;   -9.570;42986.934
598.009;33614.383;  -12.620;42832.219
598.591;33678.309;  -10.039;42580.086
599.172;33075.078;  -10.369;43061.805
599.753;33089.844;   -9.140;41691.469
600.335;34396.539;  -11.430;40692.520
600.916;32879.004;   -9.939;39982.422
601.498;30927.824;   -8.479;40318.617
602.079;29553.297;  -10.920;40670.609
602.660;29200.838;  -11.480;41450.898
603.241;30905.383;  -11.699;41137.738
603.823;29859.801;   -9.579;38868.797
604.404;28917.836;  -10.620;38182.785
604.985;30536.787;  -10.450;38078.047
605.566;30545.385;   -9.129;38056.633
606.147;30568.947;   -7.510;37020.418
606.728;32191.223;  -10.660;37883.359
607.309;30931.789;  -11.740;38748.273
607.890;30767.969;   -9.759;38850.230
608.471;30363.861;   -8.250;37457.918
609.051;29567.734;   -9.240;36066.457
609.632;28335.844;  -12.120;35991.074
610.213;28638.711;   -9.110;37402.641
610.794;29397.121;   -8.030;38383.363
611.374;29430.016;   -8.110;40562.387
611.955;30277.123;  -13.560;38533.727
612.536;31508.365;  -11.400;36951.789
613.116;30917.783;   -8.070;37197.891
613.697;31182.262;  -10.830;38411.125
614.277;29545.201;  -11.641;38673.938
614.858;30358.967;  -13.310;37075.863
615.438;29895.805;   -7.460;35092.906
616.019;27672.461;   -7.601;33666.301
616.599;27740.018;  -12.020;34189.023
617.179;29408.873;  -11.780;36952.047
617.760;30549.127;   -8.570;39582.574
618.340;31213.678;  -11.471;38943.977
618.920;32272.809;  -11.170;37594.156
619.500;32385.592;  -11.071;37866.938
620.080;31438.125;   -7.750;37869.043
620.660;32341.494;  -12.711;36868.617
621.241;34110.105;  -10.211;36352.309
621.821;34719.117;  -10.961;35459.520
622.401;33430.773;   -7.720;35207.414
622.980;32262.596;   -8.981;35980.422
623.560;30772.033;   -9.331;37351.328
624.140;29351.217;   -9.850;34388.582
624.720;24574.479;   -7.451;32368.764
625.300;21315.660;   -9.070;32638.629
625.880;24743.346;  -12.601;34599.035
626.459;28971.160;  -11.751;36831.738
627.039;32004.971;   -9.281;38299.098
627.619;31918.781;   -8.801;38289.574
628.198;30447.951;  -12.071;37220.695
628.778;29305.471;   -9.461;37632.563
629.357;29748.764;   -8.491;38003.012
629.937;30137.869;   -9.721;38402.039
630.516;29635.896;   -9.951;37868.801
631.096;29315.564;  -11.731;35760.410
631.675;31478.123;   -8.572;35225.219
632.254;36767.379;  -11.282;35130.289
632.834;36520.547;  -13.322;35794.570
633.413;34747.035;  -10.301;35788.922
633.992;31929.965;   -8.582;34532.863
634.571;32248.271;   -8.352;33590.113
635.151;34791.719;  -11.912;34943.863
635.730;33616.801;  -10.511;35352.523
636.309;30599.586;   -7.731;35366.605
636.888;28170.785;   -9.952;36165.637
637.467;28577.098;  -11.672;37515.902
638.046;29960.436;   -8.901;39288.695
638.625;32640.402;   -7.912;38279.699
639.204;32519.254;  -10.022;37741.598
639.782;31436.301;  -12.252;38364.551
640.361;27709.385;  -10.041;36740.621
640.940;24835.887;  -11.161;34950.082
641.519;25656.500;   -9.701;34137.398
642.097;28817.215;  -11.271;35654.258
642.676;31522.422;   -8.651;35637.957
643.255;32724.236;   -8.711;36567.074
643.833;32033.287;   -9.581;37809.434
644.412;32239.900;  -13.711;37337.293
644.990;31343.588;  -11.811;37018.531
645.569;31077.689;   -9.411;36518.469
646.147;30444.258;  -10.291;36186.430
646.726;30502.781;  -12.401;36267.688
647.304;31336.869;  -10.411;36647.625
647.882;32592.111;   -9.651;39286.742
648.461;34369.715;   -9.631;39157.703
649.039;32988.199;  -11.881;35412.883
649.617;31898.121;   -9.661;34744.918
650.195;30922.064;   -9.301;35403.098
650.773;29624.178;  -10.511;35053.797
651.352;27594.322;  -11.521;33756.816
651.930;25365.908;  -12.211;31868.773
652.508;23868.705;   -9.171;33121.551
653.086;27742.174;   -9.371;33564.793
653.663;30813.859;  -13.161;34054.668
654.241;29356.094;  -13.031;35693.309
654.819;30637.248;   -9.371;36422.906
655.397;30574.967;  -10.511;38213.484
655.975;30244.955;  -10.371;39507.625
656.553;29943.850;  -10.051;39498.223
657.130;28338.666;  -10.061;40395.480
657.708;27440.027;   -9.561;39242.020
658.286;27527.080;  -11.511;38920.020
658.863;28704.867;  -10.261;40202.898
659.441;32089.688;   -7.531;39677.938
660.018;32330.219;   -9.501;40413.355
660.596;30992.424;  -13.301;39931.414
661.173;32469.875;  -11.211;39604.531
661.750;32824.496;   -9.951;39700.070
662.328;31683.641;   -9.390;39292.809
662.905;30780.408;  -11.330;38235.648
663.482;26658.727;   -9.050;36212.305
664.060;24836.283;   -8.240;35944.945
664.637;27946.553;  -10.050;35170.785
665.214;29258.865;  -11.760;34197.523
665.791;30747.818;  -10.530;34549.520
666.368;29901.492;   -9.690;35118.578
666.945;30416.523;   -9.320;36019.418
667.522;31983.721;  -11.860;36048.438
668.099;31777.268;  -10.770;36243.914
668.676;30451.197;   -6.260;35958.875
669.253;29033.305;   -7.000;37384.730
669.830;29159.809;  -10.190;36779.629
670.407;29265.822;   -9.550;35231.289
670.984;29260.672;   -9.260;35544.270
671.560;30014.750;   -9.280;35466.867
672.137;29139.199;  -11.810;34280.863
672.714;29830.051;  -11.490;34632.863
673.290;30963.930;   -7.740;35135.422
673.867;31275.688;  -10.660;36114.480
674.443;31025.809;  -12.230;36152.859
675.020;28889.596;  -10.450;35327.238
675.596;29624.139;   -9.260;35795.176
676.173;30312.994;  -10.780;35430.355
676.749;30168.066;  -13.690;33549.516
677.326;30089.912;  -11.980;32210.012
677.902;30146.451;   -8.630;32068.871
678.478;29706.320;  -10.730;32583.891
679.054;28782.115;  -10.520;32088.928
679.631;28836.141;  -11.920;30978.848
680.207;30121.324;   -7.490;33160.887
680.783;31645.326;   -9.860;35570.363
681.359;30900.863;  -13.380;36125.184
681.935;30609.012;  -12.480;35240.922
682.511;30618.758;   -7.900;34429.961
683.087;31125.170;   -7.710;34463.680
683.663;30343.490;  -11.480;34648.898
684.239;28810.160;  -14.090;34546.457
684.815;28058.227;   -7.560;35586.375
685.390;28025.764;   -9.910;35821.895
685.966;28410.938;  -11.159;35085.871
686.542;30793.412;  -11.169;34198.230
687.118;33164.270;   -5.959;32847.707
687.693;33853.180;  -10.329;32794.027
688.269;33581.629;  -12.059;33072.367
688.844;31860.977;  -10.909;33141.664
689.420;29843.758;   -8.019;33965.742
689.995;28026.354;   -8.399;34655.523
690.571;26493.381;  -10.949;33576.742
691.146;26535.652;   -9.619;32657.219
691.722;26445.186;   -8.999;32526.979
692.297;26115.627;  -11.589;33014.617
692.872;27518.482;  -11.739;34012.254
693.448;27320.182;  -11.059;34237.434
694.023;26411.807;  -10.139;34142.672
694.598;28316.139;   -9.029;34132.031
695.173;29137.342;  -13.319;34205.250
695.748;28013.100;  -10.169;32882.488
696.323;27704.953;   -8.339;32864.906
696.898;27959.861;   -8.169;33170.004
697.473;28366.162;  -12.309;32432.984
698.048;27871.313;  -10.989;31649.303
698.623;27603.750;   -9.329;30778.141
699.198;28980.998;   -9.849;31140.119
699.773;30332.596;  -12.329;31764.299
700.348;28991.912;  -10.389;31780.816
700.922;28849.635;   -9.269;32046.375
701.497;29878.254;   -9.329;32603.574
702.072;30394.934;  -10.789;34799.871
702.646;29065.348;  -10.839;35793.172
703.221;26638.813;   -9.099;35201.590
703.795;28340.242;  -10.939;34764.527
704.370;28946.088;  -12.859;34307.367
704.944;29220.123;  -11.559;33509.887
705.519;29840.104;   -7.939;31388.584
706.093;31084.602;  -10.499;31340.104
706.668;31511.645;  -11.289;32630.281
707.242;30383.932;  -11.509;32728.779
707.816;29083.283;   -9.639;32947.238
708.390;27353.422;  -11.429;33277.855
708.965;27860.920;  -11.869;33834.336
709.539;28196.527;  -11.689;33709.273
710.113;28226.832;  -10.478;33044.313
710.687;27635.129;  -10.228;31953.992
711.261;26029.738;  -13.698;30505.949
711.835;25830.533;  -13.378;30262.369
712.409;26300.400;   -9.698;31254.447
712.983;28391.635;  -11.898;32754.986
713.557;29734.268;  -15.138;34018.824
714.131;29634.895;  -14.098;34579.625
714.704;28783.838;   -9.958;33890.262
715.278;26270.098;  -10.028;33531.102
715.852;25036.619;  -11.148;33601.660
716.425;26084.736;   -9.068;33515.117
716.999;27173.516;  -10.038;33185.555
717.573;28051.459;   -9.798;33905.996
718.146;29109.689;  -12.378;35199.293
718.720;29159.002;  -11.918;35060.551
719.293;28917.113;   -8.088;34973.230
719.867;31942.689;  -10.888;36394.449
720.440;31826.205;  -11.938;36663.008
721.013;29853.691;  -12.818;35102.426
721.587;28105.018;  -10.298;33985.266
722.160;26878.430;  -10.048;33524.965
722.733;25908.799;  -12.108;32987.043
723.306;26259.143;  -10.818;33066.301
723.880;28332.088;   -8.908;33399.500
724.453;30551.744;   -9.878;33468.297
725.026;29905.961;  -11.188;33816.637
725.599;27097.967;  -11.678;32797.996
726.172;27018.508;   -9.618;33187.434
726.745;28175.086;   -8.258;35136.613
727.318;29490.648;  -12.978;35751.730
727.891;30188.475;  -12.148;35890.430
728.463;29651.480;   -8.968;34822.090
729.036;28292.510;  -10.188;32895.086
729.609;28837.766;  -11.788;31823.225
730.182;26084.611;  -11.788;31445.283
730.754;23648.686;  -10.268;32373.223
731.327;24047.941;   -9.998;33676.820
731.900;24619.479;  -12.228;33417.000
732.472;25336.883;  -13.848;31978.498
733.045;26639.535;   -8.698;30368.777
733.617;26570.850;  -10.607;30574.215
734.190;26898.617;  -11.507;31280.975
734.762;24645.738;  -13.647;31674.412
735.334;22837.682;   -9.767;31247.291
735.907;23307.996;   -9.897;29876.211
736.479;23697.127;  -11.637;29808.488
737.051;23283.850;   -9.567;30233.547
737.623;23771.738;   -8.187;31469.086
738.195;24128.293;  -11.187;31784.225
738.768;26165.219;  -12.337;32120.523
739.340;27036.734;  -12.227;32094.342
739.912;26080.883;  -11.057;31312.680
740.484;24540.607;  -10.207;31946.238
741.056;22875.104;  -10.047;32984.059
741.628;23920.184;  -13.627;33897.715
742.199;26124.783;   -7.177;33213.016
742.771;24974.158;  -10.797;31369.113
743.343;22858.211;  -11.997;31865.473
743.915;21935.195;  -12.867;32388.631
744.487;21956.742;   -7.617;31079.568
745.058;22085.234;   -9.557;30570.107
745.630;22676.801;   -9.877;29970.127
746.201;23923.531;  -14.177;29186.766
746.773;24578.834;   -9.237;28805.723
747.344;24341.775;   -9.847;29591.223
747.916;22507.352;  -11.657;31412.201
748.487;22616.025;  -10.587;32194.898
749.059;24144.070;   -8.707;32533.719
749.630;24987.146;  -10.537;32158.518
750.201;24093.158;  -11.687;30855.395
750.773;22248.936;  -11.647;28622.555
751.344;21870.732;   -7.147;28405.732
751.915;22768.328;   -9.757;28461.551
752.486;22930.859;  -12.427;27842.850
753.057;21007.023;  -12.227;27845.008
753.628;19736.590;  -10.417;27728.107
754.199;20609.436;  -11.767;27381.086
754.770;21774.402;  -11.187;25882.203
755.341;22066.836;  -10.507;25886.184
755.912;22155.756;   -9.387;26050.861
756.483;21546.191;  -10.647;26798.779
757.054;19743.600;  -11.837;27048.238
757.625;18313.490;  -12.716;26294.838
758.195;18216.951;   -9.666;26142.076
758.766;17949.818;   -8.656;26392.234
759.337;18530.686;  -12.856;26334.594
759.907;20072.760;  -13.366;27579.652
760.478;21023.230;   -8.576;28352.770
761.048;20439.877;  -10.526;27325.088
761.619;19343.531;  -11.116;26460.428
762.189;19439.543;  -12.136;26029.826
762.760;20621.738;   -9.456;26430.145
763.330;21816.984;   -7.136;26670.902
763.900;21426.512;  -11.786;26603.021
764.471;18920.766;  -11.546;25542.740
765.041;17429.063;   -8.096;24358.459
765.611;17225.494;   -8.876;23991.297
766.181;17443.953;  -12.196;24470.236
766.751;18521.242;  -11.636;24845.975
767.321;18379.242;  -10.156;24533.633
767.891;16377.058;  -11.766;24916.492
768.461;15751.003;  -14.936;24776.771
769.031;16179.400;  -12.356;24757.988
769.601;17840.791;   -7.526;24181.088
770.171;18006.154;  -10.766;23670.387
770.741;17102.494;  -13.176;22960.045
771.311;17126.178;  -10.616;22917.523
771.880;17756.166;   -9.576;23562.941
772.450;17646.570;  -10.336;24216.500
773.020;17612.232;  -13.516;24140.398
773.589;16784.145;  -13.466;24414.857
774.159;16002.103;   -8.686;23858.717
774.729;15536.016;   -9.476;22942.135
775.298;15197.302;  -13.666;22324.033
775.867;14736.321;  -11.716;21140.313
776.437;14917.653;   -9.906;20838.092
777.006;14727.618;  -12.166;20599.510
777.576;14403.907;  -12.356;20508.809
778.145;14426.585;  -11.646;20732.947
778.714;14576.413;   -8.226;21062.465
779.283;14083.082;   -9.556;20949.664
779.853;13483.928;  -14.116;20508.623
780.422;13786.739;  -11.506;20649.082
780.991;13388.204;   -9.556;21527.520
781.560;12101.046;   -9.095;22632.658
782.129;11828.060;  -12.135;23048.277
782.698;11806.110;  -10.865;23438.555
783.267;11490.668;   -9.335;23267.734
783.836;11467.318;  -11.045;22415.133
784.404;12444.608;  -13.865;20443.152
784.973;13166.997;  -13.095;19699.150
785.542;13297.550;  -11.575;19763.828
786.111;13122.404;   -9.705;20341.408
786.679;12650.553;  -12.105;20207.967
787.248;12364.220;  -12.455;19516.465
787.817;12184.411;  -11.535;18900.363
788.385;11816.054;   -9.765;17879.121
788.954;11229.479;  -14.005;17658.301
789.522;10512.781;  -11.955;17788.879
790.090;10811.436;  -10.135;18118.277
790.659;11434.472;  -10.975;18338.736
791.227;11119.338;  -13.375;18508.615
791.795;11548.796;  -12.375;17898.254
792.364;11889.697;  -10.725;17295.133
792.932;12173.844;   -9.715;16822.051
793.500;12450.881;  -12.675;17040.148
794.068;12620.617;  -13.495;17179.787
794.636;12748.947;  -10.885;16664.246
795.204;12070.536;  -11.045;16524.545
795.772;12030.708;  -13.175;17274.564
796.340;11575.679;  -12.445;17891.002
796.908;11333.097;   -9.735;17648.561
797.476;11259.702;   -9.815;17064.080
798.044;10926.769;  -13.985;16672.777
798.612;10209.033;  -13.115;17023.996
799.180; 9768.794;  -10.185;16561.615
799.747; 9588.889;   -9.055;15962.773
800.315; 9257.495;  -12.385;15296.992
800.883; 9065.572;  -15.035;14801.771
801.450; 9256.610;  -10.365;14534.430
802.018; 9334.098;   -9.855;14173.248
802.585; 9353.055;  -11.905;14029.547
803.153; 9391.193;  -11.585;13836.846
803.720; 9246.889;   -9.095;13567.324
804.287; 8755.186;   -9.135;13360.622
804.855; 8247.039;  -11.604;13681.981
805.422; 8062.029;  -11.794;13536.560
805.989; 8119.436;  -10.734;13355.958
806.556; 8334.050;  -10.444;13747.896
807.124; 8615.485;  -12.764;13987.376
807.691; 8572.965;  -12.964;14038.674
808.258; 8381.346;  -11.134;14120.152
808.825; 8027.897;   -9.854;13860.111
809.392; 8129.497;  -10.504;13268.790
809.959; 7677.665;  -13.054;12680.389
810.526; 7189.425;   -8.294;12427.308
811.093; 7143.445;   -8.394;12030.105
811.659; 7741.254;  -12.304;11653.664
812.226; 8348.565;  -13.944;11637.183
812.793; 8140.066;  -10.484;11611.521
813.360; 7476.843;  -10.144;11885.181
813.926; 7113.227;  -11.684;12770.539
814.493; 6910.944;  -13.644;12677.638
815.060; 6569.915;   -9.724;11974.336
815.626; 6517.858;   -9.854;11594.715
816.193; 6878.967;  -13.254;11579.474
816.759; 6922.702;  -13.204;11666.972
817.325; 6927.232;   -9.434;11325.530
817.892; 7240.746;  -10.134;11105.369
818.458; 7674.029;  -13.474;10843.928
819.024; 7343.744;  -11.854;10714.406
819.591; 7010.815;  -10.244;10469.165
820.157; 6845.344;  -10.704;10235.523
820.723; 6373.594;  -12.324;10847.563
821.289; 6045.456;   -9.444;11040.980
821.855; 5955.347;   -8.374;10357.100
822.421; 5901.826;  -10.234; 9978.918
822.987; 5889.470;  -13.294; 9754.177
823.553; 5530.130;  -10.884;10065.755
824.119; 5297.945;   -8.884;10036.294
824.685; 5416.949;   -6.784;10029.192
825.251; 5562.745;  -12.004;10199.230
825.816; 5533.797;  -11.474; 9820.189
826.382; 5254.660;   -9.174; 9297.248
826.948; 5386.651;   -9.214; 9381.347
827.513; 5796.173;  -10.774; 9450.726
828.079; 5709.336;  -11.924; 9472.444
828.645; 5125.121;  -10.543; 9292.643
829.210; 4931.163;  -10.533; 9065.341
829.776; 4911.527;  -10.753; 9132.620
830.341; 4789.526;  -10.173; 9092.878
830.906; 4921.822;  -10.743; 9078.557
831.472; 5261.548;  -11.113; 8534.535
832.037; 5094.712;  -10.603; 8677.874
832.602; 4576.626;  -13.323; 8628.692
833.167; 4308.483;  -10.823; 8879.031
833.733; 4247.774;  -10.113; 9189.790
834.298; 4388.427;  -13.583; 9052.608
834.863; 4531.214;  -12.703; 8895.087
835.428; 4535.544;  -10.523; 8824.266
835.993; 4377.184;   -6.963; 8845.385
836.558; 4207.789;  -10.763; 8888.563
837.123; 4290.667;   -9.903; 8966.582
837.688; 4550.935;   -9.913; 8617.860
838.253; 4822.107;  -10.283; 8590.699
838.817; 5026.046;  -12.963; 8443.797
839.382; 4952.069;  -14.243; 8799.356
839.947; 4628.472;  -10.733; 8810.595
840.511; 4318.626;   -9.383; 8796.394
841.076; 3929.443;  -12.563; 8347.231
841.641; 3970.973;  -12.953; 8224.330
842.205; 4089.931;   -7.043; 8223.349
842.770; 4122.259;   -8.163; 8622.107
843.334; 4250.558;  -12.503; 8410.386
843.898; 4230.994;  -11.693; 8337.465
844.463; 4247.915;  -10.203; 8506.283
845.027; 4050.814;   -9.533; 8280.962
845.591; 3861.235;  -13.443; 8231.141
846.156; 3865.967;  -13.143; 7969.179
846.720; 3778.724;   -9.433; 7768.278
847.284; 3681.598;  -11.033; 7630.957
847.848; 3546.780;  -10.403; 7472.395
848.412; 3446.759;  -11.553; 7437.394
848.976; 3479.408;   -8.393; 7674.592
849.540; 3396.188;   -8.713; 7836.011
850.104; 3430.982;  -12.463; 7913.669
850.668; 3784.931;  -12.973; 7694.508
851.232; 3956.369;  -10.793; 7756.887
851.796; 3833.164;  -10.662; 7926.545
852.359; 3518.672;  -13.082; 7827.844
852.923; 3327.044;  -12.192; 7641.163
853.487; 3184.108;  -11.912; 7342.501
854.050; 3149.803;  -10.892; 7042.820
854.614; 3267.220;  -13.992; 7151.338
855.177; 3371.205;  -11.732; 7105.077
855.741; 3413.706;   -8.962; 6989.675
856.304; 3328.265;   -9.442; 6596.634
856.868; 3303.370;  -14.192; 6356.272
857.431; 3426.488;  -12.702; 6468.571
857.995; 3564.908;   -9.942; 6373.210
858.558; 3605.081;   -9.112; 6324.448
859.121; 3342.090;  -12.932; 6408.327
859.684; 3152.481;  -13.442; 6347.886
860.247; 3247.463;  -10.632; 6321.264
860.810; 3274.218;  -11.272; 6301.903
861.374; 3031.171;   -9.832; 6607.881
861.937; 2758.738;  -11.762; 6408.200
862.500; 2735.023;   -9.722; 6572.639
863.062; 2884.172;  -10.512; 6387.297
863.625; 3019.212;  -11.232; 6190.836
864.188; 3181.815;  -14.112; 5807.254
864.751; 3288.987;  -11.302; 5682.413
865.314; 3221.323;  -10.112; 5547.492
865.876; 2994.327;  -12.182; 5500.150
866.439; 2949.328;  -10.722; 5415.909
867.002; 2918.963;   -9.252; 5501.567
867.564; 2743.019;   -9.572; 5413.946
868.127; 2525.135;  -13.142; 5160.325
868.689; 2391.054;  -12.902; 5133.183
869.252; 2277.836;   -9.732; 5252.382
869.814; 2177.051;   -9.432; 5297.141
870.377; 2178.563;  -11.552; 5390.919
870.939; 2238.460;   -9.052; 5599.898
871.501; 2312.855;  -10.982; 5248.336
872.063; 2333.422;  -12.292; 4854.235
872.626; 2277.945;  -14.912; 4817.074
873.188; 2282.472;  -13.112; 4987.732
873.750; 2262.472;  -13.442; 4868.651
874.312; 2180.194;   -9.402; 4779.330
874.874; 2100.706;  -11.062; 4866.348
875.436; 2007.761;  -13.931; 4718.887
875.998; 1998.628;   -9.561; 4660.005
876.560; 2036.786;  -11.321; 4462.964
877.122; 1985.236;  -12.221; 4145.042
877.683; 1880.658;  -12.191; 4056.481
878.245; 1794.020;  -12.101; 3950.740
878.807; 1826.371;   -8.971; 4058.958
879.369; 1855.828;  -12.071; 3954.677
879.930; 1767.179;  -14.621; 3941.495
880.492; 1699.796;  -10.311; 4067.014
881.053; 1679.761;  -10.901; 3859.633
881.615; 1584.883;  -14.411; 3776.071
882.176; 1478.756;  -13.761; 3734.750
882.738; 1422.400;   -9.181; 3678.489
883.299; 1400.304;  -11.791; 3405.407
883.860; 1392.780;  -13.121; 3351.106
884.422; 1376.755;  -11.211; 3394.044
884.983; 1327.432;  -10.091; 3166.443
885.544; 1259.660;   -8.461; 3189.802
886.105; 1220.870;  -12.361; 3160.360
886.666; 1189.533;  -14.141; 3093.059
887.227; 1075.750;  -11.361; 2941.957
887.788;  862.814;  -11.401; 2974.836
888.349;  651.953;  -13.791; 2721.214
888.910;  556.714;  -13.191; 2696.493
889.471;  538.371;   -9.881; 2560.172
890.032;  544.276;   -9.881; 2558.190
890.593;  557.565;  -10.371; 2567.669
891.153;  574.620;  -13.301; 2460.307
891.714;  572.909;  -11.431; 2372.046
892.275;  572.285;  -11.291; 2309.505
892.835;  566.585;  -11.471; 2382.543
893.396;  539.120;  -11.541; 2295.502
893.956;  499.199;  -11.181; 2162.420
894.517;  470.155;  -11.741; 2125.439
895.077;  467.693;  -11.671; 2086.978
895.638;  473.231;  -11.311; 2126.316
896.198;  453.059;   -9.831; 1838.275
896.758;  417.696;   -8.421; 1892.813
897.319;  391.411;  -12.351; 1792.232
897.879;  378.894;  -13.511; 1762.751
898.439;  356.483;  -12.001; 1661.149
898.999;  335.488;  -10.180; 1781.468
899.559;  326.835;  -12.030; 1703.347
900.119;  322.177;  -15.710; 1537.525
900.679;  319.542;   -8.900; 1638.384
901.239;  308.598;   -8.340; 1527.902
901.799;  298.306;  -13.910; 1456.441
902.359;  292.002;  -13.460; 1357.140
902.919;  286.816;  -11.490; 1331.118
903.479;  276.201;  -12.110; 1317.257
904.038;  256.689;  -11.720; 1262.595
904.598;  241.595;  -13.610; 1152.034
905.158;  237.904;  -11.040; 1240.893
905.717;  232.309;  -10.900; 1233.691
906.277;  221.006;  -15.080; 1217.330
906.836;  211.666;  -13.380; 1222.408
907.396;  202.308;  -10.780; 1193.047
907.955;  196.363;   -8.500; 1182.526
908.515;  191.154;  -12.760; 1099.364
909.074;  185.081;  -11.900; 1092.863
909.633;  180.140;   -8.950; 1069.121
910.192;  176.520;   -8.770; 1196.460
910.752;  170.450;  -12.390; 1029.960
911.311;  166.106;  -13.680; 1009.780
911.870;  164.044;  -12.370;  971.460
912.429;  165.398;  -10.900; 1094.080
912.988;  164.655;  -11.690; 1081.060
913.547;  160.824;  -13.240;  940.380
914.106;  155.236;  -11.990;  999.420
914.665;  152.899;   -9.990;  984.020
915.224;  151.098;  -12.880; 1035.760
915.782;  152.236;  -12.350;  922.560
916.341;  151.295;   -9.110; 1049.840
916.900;  148.352;   -9.270;  925.260
917.458;  145.388;  -13.240;  884.220
918.017;  145.539;  -13.550;  942.600
918.576;  144.690;  -12.320;  904.440
919.134;  143.700;  -11.490;  837.980
919.693;  141.210;  -13.670;  893.060
920.251;  139.342;  -15.470;  876.500
920.809;  138.245;  -11.290;  839.580
921.368;  139.312;  -10.210;  885.360
921.926;  137.419;  -12.140;  842.940
922.484;  136.923;  -13.080;  903.360
923.042;  135.330;  -11.720;  880.340
923.601;  138.920;   -7.480;  998.680
924.159;  137.760;  -11.570;  935.560
924.717;  133.142;  -13.840;  841.080
925.275;  133.173;  -10.640;  903.240
925.833;  133.316;  -11.540;  779.320
926.391;  134.158;  -12.960;  938.380
926.949;  131.870;  -14.130;  857.680
927.506;  132.688;  -11.750;  903.500
928.064;  133.224;  -10.250;  877.580
928.622;  132.458;  -13.030;  880.100
929.180;  130.988;  -13.400;  814.180
929.737;  132.604;  -10.700;  808.540
930.295;  135.710;  -10.070;  928.480
930.853;  137.548;  -11.960;  849.100
931.410;  138.452;  -13.120;  821.120
931.968;  137.971;  -10.770;  940.660
932.525;  138.716;  -10.680;  909.380
933.082;  138.907;  -13.130;  811.440
933.640;  139.514;  -13.210;  925.900
934.197;  137.651;  -11.060;  886.360
934.754;  139.566;   -9.580;  897.780
935.312;  141.896;  -14.000;  863.340
935.869;  145.813;  -10.710; 1012.980
936.426;  146.499;   -9.860;  872.800
936.983;  146.992;   -9.710;  889.020
937.540;  146.879;  -13.990;  838.280
938.097;  145.770;  -14.040;  940.120
938.654;  146.644;  -10.310;  898.860
939.211;  148.411;  -10.560;  952.480
939.768;  151.484;  -13.900;  915.420
940.324;  155.466;  -14.760;  904.200
940.881;  157.138;  -10.370;  878.500
941.438;  158.012;   -8.260; 1021.200
941.995;  153.984;  -12.540;  992.560
942.551;  151.204;  -14.670;  875.620
943.108;  150.318;  -10.450;  937.920
943.664;  153.432;  -10.750;  869.340
944.221;  157.065;  -11.550; 1088.140
944.777;  154.068;  -14.770;  869.680
945.334;  154.445;  -12.820;  884.840
945.890;  156.083;  -10.130;  946.480
946.446;  155.833;  -13.470;  947.020
947.003;  157.037;  -12.120;  964.940
947.559;  159.954;   -9.980; 1063.040
948.115;  160.626;   -9.080; 1026.540
948.671;  159.265;  -10.830;  967.300
949.227;  156.248;  -12.440;  859.560
949.783;  152.916;  -12.910;  858.900
950.339;  155.341;  -10.270;  991.000
950.895;  155.700;  -13.630; 1023.840
951.451;  154.774;  -15.100;  925.280
952.007;  154.064;  -11.330;  998.540
952.563;  153.774;  -10.580;  937.780
953.118;  150.871;  -13.440;  904.940
953.674;  151.540;  -12.710;  935.780
954.230;  151.520;  -10.350;  949.640
954.785;  150.514;   -9.190;  936.640
955.341;  146.986;  -11.200;  998.160
955.897;  145.338;  -16.560;  834.660
956.452;  147.371;  -12.570;  953.840
957.008;  147.062;   -7.970; 1083.640
957.563;  145.203;  -11.940; 1009.540
958.118;  139.682;  -13.450;  877.700
958.674;  138.947;  -12.030;  946.780
959.229;  141.590;   -9.410; 1013.980
959.784;  138.739;  -12.000;  832.400
960.339;  137.769;  -14.780; 1001.280
960.894;  134.432;   -9.860;  963.760
961.449;  130.924;   -9.970;  859.960
962.004;  131.102;  -10.900; 1212.840
962.559;  125.462;  -13.150;  860.140
963.114;  122.316;  -13.740;  742.480
963.669;  122.428;   -9.820;  915.500
964.224;  120.593;  -13.890;  874.340
964.779;  119.896;  -12.600;  828.420
965.334;  120.425;  -10.950; 1017.860
965.888;  120.054;  -11.170;  875.360
966.443;  123.242;  -12.540;  972.380
966.998;  121.663;  -15.780;  819.460
967.552;  121.208;   -9.760;  908.380
968.107;  118.710;   -9.060;  868.300
968.661;  118.789;  -11.950;  922.440
969.216;  119.268;  -12.800;  856.280
969.770;  118.497;  -11.210;  917.200
970.324;  118.239;  -11.610;  923.140
970.879;  114.739;  -11.370;  947.180
971.433;  111.581;  -12.540;  952.720
971.987;  106.857;  -11.320;  895.340
972.541;  104.030;  -10.720;  917.100
973.095;  102.940;   -9.680; 1009.460
973.649;  101.385;  -11.440;  809.480
974.203;  100.933;  -11.210;  829.040
974.757;  100.880;  -10.240;  855.220
975.311;  100.764;  -13.720;  872.600
975.865;  100.062;  -13.770;  881.820
976.419;   98.257;  -11.690;  857.400
976.973;   99.036;   -9.510;  849.620
977.526;   99.719;  -12.620;  949.920
978.080;   98.535;  -12.010;  796.780
978.634;  100.586;  -10.170;  921.320
979.187;   98.764;   -9.020;  905.400
979.741;   95.816;   -9.820; 1018.380
980.294;   90.418;  -14.870;  789.160
980.848;   88.660;  -12.380;  717.220
981.401;   90.412;  -10.350;  816.540
981.955;   92.785;  -13.720;  844.300
982.508;   90.886;  -11.490;  746.340
983.061;   92.119;  -10.000;  915.260
983.615;   89.072;  -11.480;  798.800
984.168;   85.724;  -13.220;  770.080
984.721;   84.859;  -13.960;  880.760
985.274;   83.079;  -10.870;  867.500
985.827;   81.962;   -9.790;  834.220
986.380;   80.423;  -13.120;  721.340
986.933;   80.036;  -12.450;  864.800
987.486;   77.807;  -10.210;  861.920
988.039;   77.741;   -8.430;  863.100
988.591;   75.453;  -10.520;  893.260
989.144;   72.274;  -14.860;  737.260
989.697;   71.817;  -13.080;  758.740
990.250;   72.308;  -10.150;  858.100
990.802;   70.778;  -13.430;  755.860
991.355;   71.795;  -12.750;  974.880
991.907;   69.868;  -12.040;  864.320
992.460;   67.942;  -11.330;  753.760
993.012;   66.578;  -13.610;  749.540
993.565;   66.258;  -13.460;  711.360
994.117;   67.223;   -9.360;  950.780
994.669;   64.674;  -11.300;  701.320
995.221;   62.641;  -13.540;  791.920
995.774;   60.007;  -13.430;  787.580
996.326;   59.148;  -12.520;  740.220
996.878;   58.740;  -10.950;  838.420
997.430;   56.767;  -14.300;  699.860
997.982;   55.508;  -13.760;  750.140
998.534;   55.682;  -11.530;  739.060
999.086;   54.337;  -10.310;  738.220
999.638;   52.319;  -12.530;  661.380
1000.190;   52.124;  -11.840;  699.320
1000.741;   51.781;  -10.260;  742.700
1001.293;   51.987;   -8.860;  686.020
1001.845;   50.432;  -13.700;  676.640
1002.396;   49.729;  -12.100;  743.400
1002.948;   49.352;  -12.760;  737.400
1003.500;   48.650;  -10.380;  723.780
1004.051;   49.035;  -11.900;  907.580
1004.603;   47.524;  -12.250;  791.820
1005.154;   43.595;  -13.210;  608.980
1005.705;   42.845;  -10.950;  723.960
1006.257;   42.041;  -13.880;  707.220
1006.808;   41.528;  -12.840;  685.460
1007.359;   41.131;  -10.570;  763.240
1007.910;   40.594;   -9.620;  646.640
1008.461;   39.754;  -13.630;  732.940
1009.013;   38.877;  -17.200;  588.340
1009.564;   40.272;  -10.200;  793.520
1010.115;   37.742;  -12.570;  597.040
1010.665;   38.328;  -15.150;  602.160
1011.216;   37.180;  -14.480;  667.920
1011.767;   37.209;  -11.340;  697.920
1012.318;   37.780;   -9.780;  736.980
1012.869;   36.480;  -12.380;  679.000
1013.419;   35.670;  -15.560;  603.120
1013.970;   35.524;  -11.010;  666.640
1014.521;   35.184;  -11.610;  620.620
1015.071;   35.739;  -13.450;  670.380
1015.622;   34.242;  -13.870;  635.460
1016.172;   33.800;  -11.610;  596.820
1016.723;   33.768;  -12.120;  614.380
1017.273;   33.927;  -13.620;  604.160
1017.823;   33.356;  -14.140;  650.340
1018.374;   32.367;  -12.800;  611.760
1018.924;   33.821;  -12.340;  716.880
1019.474;   32.986;  -11.410;  718.880
1020.024;   32.005;  -14.770;  657.580
1020.574;   32.590;   -9.780;  726.160
1021.124;   33.148;   -8.560;  673.580
1021.674;   31.274;  -15.190;  559.120
1022.224;   32.360;  -13.530;  708.940
1022.774;   31.847;  -13.280;  668.820
1023.324;   32.908;  -10.690;  753.520
1023.874;   32.765;  -10.240;  875.760
1024.423;   30.558;  -12.540;  613.700
1024.973;   30.556;  -10.010;  610.760
1025.523;   30.151;  -10.550;  620.960
1026.072;   29.796;  -13.560;  606.420
1026.622;   29.896;  -15.120;  675.740
1027.172;   30.709;  -11.260;  715.660
1027.721;   29.882;  -11.410;  601.220
1028.270;   30.066;  -13.530;  663.400
1028.820;   29.777;  -13.680;  638.080
1029.369;   29.015;  -13.520;  612.700
1029.918;   29.352;  -10.980;  649.840
1030.468;   29.281;  -13.530;  564.780
1031.017;   29.396;  -13.170;  634.800
1031.566;   27.304;  -12.200;  608.900
1032.115;   28.668;   -9.960;  694.500
1032.664;   27.059;  -13.210;  596.480
1033.213;   28.326;  -12.500;  735.420
1033.762;   27.703;  -11.910;  635.620
1034.311;   27.692;   -9.640;  677.220
1034.860;   28.015;  -13.310;  691.000
1035.408;   27.252;  -11.830;  722.720
1035.957;   27.731;  -12.000;  719.540
1036.506;   26.153;  -11.690;  530.800
1037.055;   28.150;  -10.990;  844.320
1037.603;   26.650;  -15.120;  664.000
1038.152;   24.426;  -12.450;  534.760
1038.700;   25.948;  -10.560;  585.740
1039.249;   25.644;  -11.080;  681.220
1039.797;   25.694;  -12.540;  633.360
1040.345;   25.496;  -11.920;  705.420
1040.894;   26.018;  -11.410;  625.300
1041.442;   25.443;  -14.320;  632.200
1041.990;   23.210;  -16.240;  559.160
1042.538;   23.484;  -11.680;  536.180
1043.087;   24.415;  -10.760;  570.860
1043.635;   25.328;  -11.850;  670.500
1044.183;   23.777;  -15.480;  586.400
1044.731;   23.159;  -11.770;  576.000
1045.279;   24.004;  -13.090;  674.920
1045.827;   26.063;  -12.440;  892.400
1046.374;   22.449;  -13.840;  515.420
1046.922;   22.547;  -13.220;  590.580
1047.470;   23.847;  -10.230;  691.300
1048.018;   24.013;  -14.590;  647.960
1048.565;   22.966;  -12.050;  708.600
1049.113;   22.746;  -11.650;  557.000
1049.660;   22.523;  -10.510;  629.660
1050.208;   23.281;  -13.310;  675.640
1050.755;   21.472;  -15.900;  606.580
1051.303;   22.160;  -11.430;  686.820
1051.850;   21.812;   -8.480;  635.120
1052.397;   20.404;  -15.010;  473.960
1052.945;   20.818;  -13.960;  617.760
1053.492;   22.237;  -13.150;  741.840
1054.039;   22.454;   -9.630;  720.180
1054.586;   21.574;  -13.680;  557.240
1055.133;   21.484;  -14.570;  693.140
1055.680;   21.254;  -13.820;  646.620
1056.227;   20.453;  -11.730;  542.780
1056.774;   21.770;  -12.480;  794.980
1057.321;   18.978;  -13.930;  523.260
1057.868;   19.926;  -11.690;  651.320
1058.415;   20.506;   -9.520;  651.980
1058.961;   20.677;  -13.160;  678.940
1059.508;   19.774;  -12.920;  643.820
1060.055;   19.556;  -11.920;  581.780
1060.601;   20.615;  -11.500;  624.300
1061.148;   20.609;  -14.330;  616.820
1061.694;   18.902;  -16.870;  592.580
1062.241;   18.949;  -10.330;  596.320
1062.787;   19.218;  -10.620;  663.140
1063.334;   20.853;  -10.110;  808.560
1063.880;   18.457;  -13.400;  668.360
1064.426;   18.958;  -10.680;  706.820
1064.972;   17.742;   -9.920;  601.340
1065.518;   17.489;  -10.980;  566.640
1066.065;   18.548;  -14.890;  624.460
1066.611;   17.604;  -12.870;  598.800
1067.157;   18.407;  -12.950;  641.860
1067.703;   18.146;  -13.540;  668.480
1068.249;   18.127;  -13.540;  605.220
1068.794;   17.300;  -12.600;  626.880
1069.340;   17.382;  -10.620;  578.960
1069.886;   17.223;  -12.830;  590.700
1070.432;   16.074;  -14.870;  541.720
1070.977;   16.143;  -11.980;  601.080
1071.523;   16.828;   -8.200;  573.060
1072.068;   16.638;  -12.330;  582.000
1072.614;   16.128;  -16.370;  527.760
1073.160;   16.783;  -11.100;  687.040
1073.705;   16.280;  -10.480;  572.520
1074.250;   14.926;  -14.520;  559.900
1074.796;   17.029;  -11.460;  655.160
1075.341;   17.049;  -11.950;  664.100
1075.886;   15.582;  -11.460;  594.240
1076.431;   15.412;  -13.770;  649.880
1076.976;   15.385;  -12.680;  639.220
1077.521;   14.690;  -13.170;  583.080
1078.067;   15.034;  -10.860;  579.400
1078.612;   15.778;  -13.920;  661.620
1079.156;   14.964;  -13.880;  601.540
1079.701;   15.342;  -13.120;  693.260
1080.246;   15.695;   -9.940;  696.300
1080.791;   15.371;  -14.740;  625.020
1081.336;   14.096;  -13.750;  659.320
1081.880;   14.614;  -13.400;  649.680
1082.425;   13.632;  -12.220;  573.480
1082.970;   15.779;  -11.610;  717.040
1083.514;   13.999;  -13.580;  597.000
1084.059;   12.856;  -12.810;  586.720
1084.603;   13.023;  -12.320;  565.840
1085.147;   14.181;  -13.190;  645.220
1085.692;   14.282;  -12.480;  716.800
1086.236;   12.566;  -13.020;  503.140
1086.780;   14.642;   -9.190;  751.440
1087.325;   13.861;  -12.480;  654.620
1087.869;   12.738;  -12.450;  610.700
1088.413;   13.473;  -12.240;  705.040
1088.957;   12.364;   -9.020;  543.400
1089.501;   13.802;  -10.320;  766.640
1090.045;   12.778;  -12.720;  726.480
1090.589;   11.419;  -13.690;  569.920
1091.133;   12.860;  -10.020;  673.340
1091.676;   13.176;  -12.330;  591.940
1092.220;   12.333;  -14.970;  600.920
1092.764;   12.735;  -12.430;  706.960
1093.307;   12.636;   -9.800;  673.780
1093.851;   11.815;  -14.970;  556.540
1094.395;   12.393;  -15.310;  683.140
1094.938;   10.817;  -10.370;  632.520
1095.482;   11.533;  -11.050;  559.800
1096.025;   12.828;  -11.840;  710.880
1096.568;   11.886;  -12.840;  779.280
1097.112;    9.710;  -14.700;  508.180
1097.655;   11.700;   -8.720;  603.000
1098.198;   10.695;  -13.610;  600.180
1098.741;    9.685;  -13.350;  612.860
1099.285;   11.087;  -11.230;  657.300
1099.828;    9.406;  -11.840;  439.400
1100.371;   10.927;  -10.840;  608.160
1100.914;   10.363;  -14.190;  682.660
1101.457;   10.584;  -11.240;  679.900
1101.999;    9.419;  -11.270;  584.680
1102.542;   10.227;  -11.480;  641.440
1103.085;    9.290;  -11.750;  658.500
1103.628;   10.622;  -11.400;  762.060
1104.170;    9.292;  -10.490;  588.280
1104.713;   10.193;  -10.600;  646.700
1105.256;    9.106;  -14.360;  557.440
1105.798;    8.150;  -13.210;  499.980
1106.341;   10.374;  -10.270;  728.900
1106.883;    9.191;  -12.200;  521.340
1107.425;    9.492;  -13.110;  668.180
1107.968;    8.439;  -12.840;  612.380
1108.510;    9.145;   -6.480;  684.960
1109.052;    8.671;  -13.940;  612.620
1109.594;    7.794;  -13.690;  554.440
1110.136;    8.699;  -11.880;  643.220
1110.679;    8.459;   -9.500;  633.080
1111.221;    9.093;  -14.160;  604.460
1111.763;    8.541;  -13.980;  559.220
1112.304;    6.968;  -13.880;  547.140
1112.846;    8.694;  -12.210;  666.240
1113.388;   10.434;  -11.390;  942.180
1113.930;    8.234;  -14.540;  694.200
1114.472;    6.622;  -12.640;  606.540
1115.013;    6.772;  -11.620;  551.280
1115.555;    7.135;  -13.640;  587.100
1116.097;    6.917;  -15.380;  579.480
1116.638;    7.247;  -12.640;  684.600
1117.180;    8.148;   -9.850;  667.740
1117.721;    7.000;  -13.690;  568.580
1118.262;    7.349;  -12.680;  677.960
1118.804;    7.385;  -12.530;  637.340
1119.345;    6.490;  -11.690;  578.400
1119.886;    7.777;  -13.380;  704.040
1120.427;    5.816;  -14.070;  589.020
1120.969;    5.991;  -13.500;  597.920
1121.510;    5.727;  -11.480;  563.060
1122.051;    7.236;  -12.830;  723.580
1122.592;    5.808;  -14.290;  655.420
1123.133;    4.865;  -12.400;  547.940
1123.673;    6.730;  -10.130;  706.480
1124.214;    6.195;  -12.930;  612.460
1124.755;    5.865;  -14.380;  639.460
1125.296;    6.179;  -14.000;  627.320
1125.836;    6.734;  -10.070;  691.500
1126.377;    5.394;  -12.640;  599.660
1126.918;    5.820;  -12.960;  614.980
1127.458;    5.075;  -13.350;  622.220
1127.999;    5.901;  -10.750;  656.980
1128.539;    6.203;  -12.350;  694.240
1129.079;    4.305;  -14.860;  632.720
1129.620;    4.447;  -13.840;  558.100
1130.160;    4.924;  -12.330;  539.480
1130.700;    5.627;  -14.530;  640.840
1131.240;    5.600;  -12.530;  643.700
1131.781;    4.118;  -14.450;  619.680
1132.321;    4.787;   -9.790;  599.120
1132.861;    3.809;  -14.860;  564.200
1133.401;    3.596;  -14.290;  593.940
1133.941;    3.766;  -11.750;  626.280
1134.481;    3.957;   -9.920;  597.580
1135.020;    3.680;  -12.290;  609.160
1135.560;    4.170;  -11.650;  674.940
1136.100;    2.249;  -16.270;  501.160
1136.640;    3.218;  -10.890;  510.480
1137.179;    3.583;  -14.180;  537.960
1137.719;    4.043;  -16.250;  605.400
1138.258;    3.315;  -14.230;  587.360
1138.798;    4.229;   -9.090;  663.780
1139.337;    3.309;  -15.130;  482.840
1139.877;    3.471;  -13.680;  642.360
1140.416;    4.919;  -11.320;  878.060
1140.955;    2.416;  -10.860;  535.380
1141.494;    3.352;  -12.920;  669.280
1142.034;    2.467;  -13.930;  583.520
1142.573;    3.586;  -11.440;  646.280
1143.112;    2.411;  -12.000;  553.480
1143.651;    3.010;  -13.670;  536.480
1144.190;    3.682;  -12.730;  691.640
1144.729;    2.675;  -14.560;  607.420
1145.267;    2.998;  -11.830;  584.900
1145.806;    3.075;  -12.230;  637.040
1146.345;    2.298;  -14.130;  635.020
1146.884;    2.338;  -11.590;  622.500
1147.422;    1.310;  -12.550;  533.060
1147.961;    4.136;  -11.180;  708.460
1148.500;    3.042;  -11.510;  669.720
1149.038;    3.309;  -11.640;  632.500
1149.577;    3.176;  -10.130;  698.640
1150.115;    1.253;  -13.970;  452.280
1150.653;    2.280;  -14.520;  607.340
1151.192;    1.104;  -12.810;  552.920
1151.730;    2.088;   -9.100;  652.560
1152.268;    1.408;  -12.220;  589.520
1152.806;    1.215;  -14.140;  571.180
1153.344;    0.211;  -12.350;  577.640
1153.882;    2.244;   -8.980;  600.060
1154.421;   -0.198;  -15.190;  470.620
1154.958;    0.309;  -15.210;  595.240
1155.496;    1.575;  -12.850;  645.280
1156.034;    0.922;   -9.940;  721.880
1156.572;    2.364;  -13.570;  667.060
1157.110;   -0.132;  -14.590;  473.940
1157.647;    1.147;  -13.030;  676.960
1158.185;    0.107;  -12.140;  564.320
1158.723;   -0.176;  -14.390;  509.200
1159.260;    1.195;  -14.090;  701.700
1159.798;    1.098;  -11.920;  658.160
1160.335;    0.832;  -11.110;  631.820

