
Integration time [ms]:   3.276
Averaging Nr. [scans]: 1000
Smoothing Nr. [pixels]: 0
Data measured with spectrometer [name]: 7414430SP
Wave   ;Sample   ;Dark     ;Reference
[nm]   ;[counts] ;[counts] ;[counts] 

288.544;  150.734;    7.793;  793.890
289.143;  155.333;    7.462;  681.602
289.742;  155.079;    8.602;  828.814
290.341;  140.345;    1.321;  789.841
290.940;  129.986;   -0.709;  730.702
291.538;  130.803;    0.881;  881.108
292.137;  130.561;    0.122;  792.581
292.736;  135.073;   -1.929;  975.101
293.335;  132.216;   -8.229;  735.086
293.934;  131.141;   -5.279;  781.677
294.532;  129.468;   -1.369; 1031.958
295.131;  115.699;   -7.641;  834.394
295.730;  116.888;   -8.420;  809.588
296.328;  115.875;   -5.611;  783.442
296.927;  116.145;   -5.781;  779.652
297.525;  117.773;   -6.361;  781.236
298.124;  107.422;  -11.382;  654.009
298.722;  111.653;   -7.641;  761.933
299.321;  108.914;   -6.811;  708.597
299.919;  107.535;   -6.991;  751.918
300.518;  104.212;  -10.362;  689.338
301.116;  106.478;   -9.581;  691.381
301.715;  105.019;   -4.891;  730.222
302.313;  104.369;   -8.801;  704.943
302.911;  100.412;   -8.522;  733.830
303.509;  105.632;   -6.171;  925.627
304.108;  103.338;   -7.311;  760.383
304.706;  102.203;   -8.321;  801.664
305.304;   96.726;  -10.222;  796.707
305.902;  102.253;   -6.021;  784.484
306.500;   97.791;   -4.971;  728.200
307.098;   97.146;   -7.061;  746.560
307.696;   93.697;   -8.801;  780.432
308.294;   95.163;   -6.411;  731.359
308.892;   96.617;   -2.901;  759.769
309.490;   92.865;   -5.041;  712.161
310.088;   91.306;   -5.002;  788.444
310.686;   95.545;   -2.041;  821.749
311.284;   91.226;   -2.351;  766.040
311.882;   88.544;   -4.422;  731.225
312.480;   86.123;   -4.192;  697.167
313.078;   87.725;   -1.172;  808.331
313.675;   88.516;   -2.601;  691.600
314.273;   83.576;   -1.312;  797.837
314.871;   82.916;   -3.942;  589.829
315.468;   80.541;   -2.802;  652.090
316.066;   82.944;   -0.701;  694.427
316.664;   76.226;   -4.362;  656.351
317.261;   79.887;   -2.872;  910.128
317.859;   76.035;   -2.022;  768.735
318.456;   76.766;   -0.531;  830.096
319.054;   71.842;   -3.912;  787.828
319.651;   71.452;   -4.752;  759.928
320.249;   71.049;   -2.602;  810.188
320.846;   67.476;   -0.821;  714.286
321.443;   65.760;   -4.642;  832.135
322.041;   62.335;   -5.002;  812.315
322.638;   60.305;   -3.982;  701.456
323.235;   61.171;   -3.411;  665.683
323.833;   58.570;   -7.361;  740.354
324.430;   54.594;   -8.611;  615.900
325.027;   55.416;   -4.061;  876.855
325.624;   54.533;   -4.031;  644.532
326.221;   51.869;   -7.481;  689.717
326.818;   51.497;   -5.281;  818.332
327.415;   55.283;   -7.460;  748.828
328.012;   53.985;   -5.510;  690.585
328.609;   53.137;   -7.880;  731.389
329.206;   51.582;   -8.331;  778.621
329.803;   51.714;   -5.121;  737.841
330.400;   53.872;   -4.510;  704.260
330.997;   55.518;   -6.441;  817.147
331.594;   54.193;   -8.831;  788.185
332.191;   59.403;   -7.621;  728.722
332.787;   61.531;   -4.591;  844.463
333.384;   59.864;   -7.412;  763.093
333.981;   59.712;   -8.293;  815.687
334.578;   62.848;   -7.052;  708.378
335.174;   64.691;   -3.102;  731.469
335.771;   63.990;   -5.943;  836.456
336.367;   61.252;   -7.393;  710.631
336.964;   64.847;   -4.063;  793.266
337.561;   62.539;   -3.813;  731.112
338.157;   58.943;   -4.654;  911.916
338.754;   56.285;   -7.934;  796.589
339.350;   54.357;   -4.414;  722.493
339.946;   55.157;   -4.664;  773.135
340.543;   47.953;   -6.375;  846.136
341.139;   43.511;   -9.815;  720.836
341.735;   41.311;   -4.526;  772.593
342.332;   39.561;   -4.895;  691.472
342.928;   40.003;   -4.295;  795.394
343.524;   34.066;   -5.476;  761.684
344.120;   30.560;   -5.856;  738.562
344.716;   33.537;   -2.155;  723.717
345.313;   32.140;   -6.275;  795.342
345.909;   26.837;   -8.815;  627.336
346.505;   28.241;   -5.305;  740.247
347.101;   28.880;   -2.674;  827.864
347.697;   28.985;   -4.344;  785.398
348.293;   23.586;   -9.975;  627.244
348.889;   25.049;   -5.774;  745.914
349.485;   23.740;   -5.004;  688.205
350.081;   24.368;   -4.704;  772.592
350.676;   19.588;   -6.635;  691.606
351.272;   23.689;   -4.504;  809.530
351.868;   23.586;   -3.914;  780.497
352.464;   20.163;   -9.044;  723.932
353.059;   17.207;   -8.314;  646.017
353.655;   21.082;   -7.024;  777.063
354.251;   21.626;   -5.343;  759.845
354.846;   16.749;   -8.604;  740.646
355.442;   14.187;   -6.945;  753.071
356.038;   16.204;   -7.564;  751.708
356.633;   16.515;   -5.814;  728.594
357.229;   13.825;   -7.364;  724.757
357.824;   12.636;   -8.024;  703.600
358.420;   12.300;   -9.384;  679.726
359.015;   11.854;   -5.104;  695.357
359.610;   12.908;   -6.854;  763.920
360.206;    6.909;  -10.185;  603.240
360.801;   10.071;   -7.054;  646.503
361.396;   11.989;   -5.034;  725.975
361.992;    7.901;   -8.284;  668.220
362.587;    5.592;   -8.625;  670.160
363.182;    7.511;   -7.674;  689.631
363.777;    8.007;   -5.164;  738.242
364.372;    7.720;   -8.604;  737.314
364.967;    3.693;   -9.055;  680.744
365.563;    7.487;   -6.114;  815.567
366.158;    4.870;   -5.814;  685.161
366.753;    5.577;   -7.854;  649.263
367.348;    4.924;   -7.804;  746.056
367.942;    4.231;   -7.954;  697.298
368.537;    2.492;   -4.984;  754.245
369.132;    3.220;   -8.564;  703.428
369.727;   -0.643;   -8.855;  638.079
370.322;    0.195;   -6.245;  580.186
370.917;    0.297;   -6.425;  710.646
371.511;    2.321;   -6.294;  861.834
372.106;   -0.064;   -7.685;  776.964
372.701;   -3.586;   -7.335;  585.988
373.296;    1.628;   -4.564;  863.135
373.890;   -2.606;  -10.235;  647.840
374.485;   -4.828;   -7.885;  691.199
375.079;   -0.792;   -7.324;  738.685
375.674;    0.001;   -3.494;  812.970
376.268;   -3.347;   -8.525;  691.759
376.863;   -8.902;  -10.086;  580.327
377.457;   -3.522;   -7.025;  662.490
378.052;   -5.196;   -3.585;  764.884
378.646;   -5.634;   -7.595;  741.167
379.240;   -5.890;   -8.335;  721.176
379.835;   -5.106;   -5.785;  636.978
380.429;   -6.881;   -4.335;  562.557
381.023;   -7.722;   -6.805;  779.205
381.617;   -9.283;   -9.195;  680.106
382.212;   -5.987;   -6.905;  685.303
382.806;   -5.084;   -3.745;  760.690
383.400;   -8.879;   -7.745;  672.281
383.994;  -10.558;   -9.765;  664.870
384.588;   -6.453;   -6.564;  697.701
385.182;   -6.172;   -5.344;  726.624
385.776;   -7.138;   -8.514;  706.875
386.370;   -9.267;   -9.555;  681.968
386.964;   -8.553;   -8.715;  684.155
387.558;   -7.365;   -6.174;  598.360
388.152;  -11.265;   -8.725;  681.959
388.745;   -8.668;   -7.965;  814.707
389.339;   -6.957;   -5.924;  747.642
389.933;   -6.372;   -5.524;  695.370
390.527;   -7.256;   -7.114;  859.029
391.120;  -13.318;  -10.725;  595.318
391.714;  -10.229;   -8.035;  711.633
392.308;   -8.021;   -3.574;  780.253
392.901;  -11.245;   -7.245;  642.460
393.495;  -12.525;   -9.285;  595.414
394.089;   -9.769;   -5.895;  760.452
394.682;  -11.284;   -4.295;  697.188
395.275;  -11.693;   -9.875;  719.927
395.869;  -13.126;   -8.485;  667.314
396.462;  -11.617;   -7.455;  616.609
397.056;   -7.779;   -5.424;  776.621
397.649;  -11.906;   -6.605;  731.575
398.242;   -9.441;   -8.224;  712.645
398.836;   -8.833;   -7.474;  766.408
399.429;  -10.111;   -7.094;  631.041
400.022;  -13.084;   -9.475;  665.902
400.615;  -10.490;   -7.145;  805.609
401.208;   -8.469;   -7.174;  691.451
401.802;  -10.560;   -5.515;  699.329
402.395;  -12.854;   -9.875;  683.502
402.988;  -12.854;   -8.845;  696.627
403.581;   -9.722;   -8.874;  646.878
404.174;   -7.146;   -5.324;  686.568
404.767;  -10.751;   -9.575;  638.583
405.360;  -12.494;  -10.965;  621.445
405.953;   -7.214;   -8.764;  759.034
406.545;   -7.334;   -7.514;  725.342
407.138;  -11.045;  -10.025;  618.350
407.731;  -10.022;  -10.034;  613.303
408.324;   -5.761;   -9.374;  660.554
408.917;   -7.313;   -6.534;  681.864
409.509;   -8.769;   -8.004;  740.396
410.102;  -11.052;   -9.875;  643.948
410.695;   -4.245;   -8.604;  665.758
411.287;   -6.256;   -6.794;  599.821
411.880;   -7.288;   -9.334;  585.421
412.472;   -9.955;  -10.254;  613.092
413.065;   -6.883;   -6.714;  629.408
413.657;   -5.047;   -7.234;  576.678
414.250;   -5.032;  -10.544;  646.681
414.842;   -6.464;   -9.744;  676.353
415.434;   -3.983;   -6.994;  570.463
416.027;   -0.647;   -5.893;  652.196
416.619;   -2.061;   -7.264;  713.400
417.211;   -2.233;  -10.374;  599.352
417.804;    0.705;   -7.993;  628.499
418.396;   -3.234;   -7.234;  607.643
418.988;   -0.637;   -9.443;  659.238
419.580;   -4.659;  -10.724;  568.276
420.172;   -1.246;  -10.323;  536.196
420.764;    1.929;   -8.793;  672.482
421.356;    0.825;  -11.143;  636.898
421.948;    0.138;   -8.293;  677.661
422.540;    4.615;   -7.893;  680.027
423.132;    4.589;   -7.082;  600.641
423.724;    1.600;   -8.653;  561.267
424.316;    3.520;  -10.213;  621.345
424.908;    7.313;   -9.762;  591.517
425.500;    7.274;   -5.572;  647.978
426.092;    7.404;   -8.422;  648.268
426.683;    6.502;   -9.283;  684.836
427.275;   10.038;   -7.852;  641.471
427.867;   10.683;   -5.272;  668.948
428.458;   11.454;   -7.682;  732.344
429.050;   10.032;  -10.612;  680.749
429.642;   13.021;   -9.882;  743.124
430.233;   12.766;   -6.962;  569.356
430.825;   13.965;   -6.842;  724.809
431.416;   11.683;   -9.672;  698.241
432.008;   15.664;   -6.552;  651.723
432.599;   16.116;   -6.891;  656.073
433.190;   13.550;  -10.912;  637.670
433.782;   12.609;  -11.172;  590.395
434.373;   20.031;   -6.061;  884.765
434.964;   17.862;   -8.251;  602.920
435.556;   16.416;   -9.722;  634.537
436.147;   19.104;   -9.082;  758.490
436.738;   19.767;   -8.041;  701.099
437.329;   24.587;   -7.341;  721.723
437.920;   17.619;   -8.162;  666.688
438.511;   17.790;  -11.802;  564.526
439.103;   24.168;  -10.191;  623.998
439.694;   25.671;   -7.601;  681.583
440.285;   26.318;   -8.541;  764.432
440.876;   25.239;   -9.751;  845.738
441.466;   24.319;   -9.401;  575.162
442.057;   29.571;   -7.760;  665.814
442.648;   28.915;   -9.971;  746.255
443.239;   27.300;  -11.001;  620.477
443.830;   31.781;   -7.990;  704.958
444.421;   33.898;   -7.910;  655.474
445.011;   29.804;   -8.131;  693.619
445.602;   29.154;   -7.111;  743.126
446.193;   31.919;  -10.920;  488.117
446.783;   35.523;   -6.500;  640.397
447.374;   32.284;   -8.671;  692.759
447.964;   32.484;  -10.781;  713.770
448.555;   40.977;   -9.650;  822.742
449.145;   38.173;   -8.660;  662.853
449.736;   37.614;   -8.990;  803.179
450.326;   38.285;   -9.500;  713.626
450.917;   42.886;   -8.680;  675.324
451.507;   41.780;   -7.520;  600.661
452.097;   43.015;   -8.590;  746.267
452.688;   42.797;  -11.340;  742.160
453.278;   43.773;  -10.100;  566.840
453.868;   48.311;   -6.019;  793.550
454.458;   46.198;   -9.440;  651.141
455.048;   46.765;  -10.560;  711.783
455.639;   48.148;  -11.799;  567.096
456.229;   52.456;   -6.899;  710.694
456.819;   54.173;   -7.389;  751.158
457.409;   53.947;  -11.119;  773.993
457.999;   56.746;   -9.289;  737.505
458.589;   56.363;   -6.139;  686.606
459.179;   56.553;   -8.729;  717.658
459.769;   54.085;   -9.789;  627.099
460.358;   59.924;  -10.259;  797.262
460.948;   59.914;   -7.299;  689.503
461.538;   60.873;  -10.289;  660.677
462.128;   58.316;  -11.269;  664.934
462.717;   66.498;   -9.368;  710.326
463.307;   68.795;   -7.908;  705.846
463.897;   64.791;   -9.599;  656.942
464.486;   64.292;   -9.769;  837.128
465.076;   68.626;   -8.048;  733.776
465.666;   71.807;   -9.358;  652.900
466.255;   70.332;   -7.919;  785.651
466.845;   69.399;  -11.689;  666.749
467.434;   72.672;   -7.818;  725.873
468.023;   73.749;   -7.678;  658.357
468.613;   71.178;  -10.939;  713.946
469.202;   75.277;  -10.118;  646.507
469.791;   79.300;   -9.108;  737.811
470.381;   81.336;   -6.058;  742.813
470.970;   81.225;  -10.428;  711.099
471.559;   80.643;  -10.268;  733.291
472.148;   84.973;   -8.448;  675.737
472.738;   86.400;   -6.917;  765.466
473.327;   86.868;  -11.978;  637.529
473.916;   86.583;  -11.888;  737.446
474.505;   90.742;   -9.437;  751.703
475.094;   93.217;   -6.747;  806.570
475.683;   93.182;   -9.367;  797.699
476.272;   93.839;  -12.637;  730.632
476.861;   96.462;  -10.027;  706.754
477.449;  103.700;   -8.716;  728.487
478.038;   98.049;   -9.577;  692.513
478.627;   99.455;   -9.718;  714.852
479.216;  105.854;   -8.947;  769.441
479.805;  108.304;   -6.256;  783.375
480.393;  108.145;   -7.937; 1008.945
480.982;  107.801;   -7.717;  874.501
481.571;  114.290;   -9.266;  858.333
482.159;  114.052;   -7.636;  705.386
482.748;  114.731;   -9.667;  821.385
483.336;  119.221;  -10.376;  858.209
483.925;  120.757;   -7.147;  774.373
484.513;  126.526;   -7.996;  758.962
485.102;  124.077;  -10.027;  810.965
485.690;  133.351;  -10.446; 1011.050
486.278;  135.408;   -8.446;  979.329
486.867;  135.331;   -6.356;  809.662
487.455;  137.341;   -9.136;  898.229
488.043;  138.446;  -10.646;  748.361
488.631;  148.843;   -7.456; 1005.079
489.220;  151.764;   -6.636;  908.626
489.808;  152.384;  -11.036;  741.415
490.396;  160.758;  -10.246;  914.645
490.984;  167.061;   -8.556;  830.161
491.572;  177.716;   -5.886;  940.315
492.160;  183.259;   -9.486;  919.081
492.748;  197.729;  -10.976;  884.341
493.336;  221.016;   -8.776; 1019.693
493.924;  248.985;   -5.465;  958.077
494.512;  278.906;   -9.986; 1066.638
495.100;  318.103;  -10.636; 1103.280
495.687;  378.506;  -10.885; 1206.373
496.275;  445.599;   -8.126; 1150.796
496.863;  520.917;  -10.586; 1281.171
497.451;  627.929;  -11.926; 1386.805
498.038;  771.032;  -10.885; 1556.729
498.626;  884.971;   -6.315; 1741.407
499.214; 1046.985;   -7.326; 2016.609
499.801; 1261.251;  -11.906; 2220.633
500.389; 1519.138;  -10.466; 2312.494
500.976; 1834.727;   -5.236; 2744.849
501.564; 2299.995;   -8.936; 3148.565
502.151; 2690.288;  -13.176; 3515.999
502.738; 3142.317;  -10.646; 3971.274
503.326; 3565.727;   -9.525; 4403.796
503.913; 3992.668;  -10.856; 5161.749
504.500; 4403.158;  -11.586; 5986.420
505.088; 4793.892;  -10.336; 6381.201
505.675; 5377.204;   -6.355; 6925.547
506.262; 6129.544;   -9.046; 7619.060
506.849; 6913.226;  -10.416; 8733.969
507.436; 7484.719;  -10.305; 9790.121
508.023; 8129.338;   -5.496; 9985.472
508.610; 8373.746;   -7.856;10434.618
509.197; 9018.818;  -10.097;11198.435
509.784;10466.816;  -10.886;12391.194
510.371;11680.139;   -9.315;13603.713
510.958;12476.796;   -9.936;14426.586
511.545;13219.487;   -9.326;15243.775
512.132;14166.680;  -10.075;15945.876
512.719;14778.665;   -7.796;16340.369
513.305;15888.852;  -10.606;18011.766
513.892;16662.309;  -11.486;19754.971
514.479;17929.658;   -9.126;20967.805
515.066;19525.740;   -6.026;22299.793
515.652;21266.369;   -8.466;22908.660
516.239;22645.111;  -10.886;23798.875
516.825;23566.646;  -11.496;25567.275
517.412;24602.014;   -5.796;28154.959
517.998;25390.014;  -10.506;28344.111
518.585;25311.906;  -10.076;27134.219
519.171;25924.350;   -8.315;27268.576
519.758;27944.514;   -8.596;28964.129
520.344;30245.447;   -8.466;30664.494
520.930;29948.621;  -11.006;32550.605
521.516;31034.713;  -10.495;35422.895
522.103;33108.359;   -5.526;38280.004
522.689;33684.469;   -8.746;37835.117
523.275;33267.012;  -11.376;37288.613
523.861;34874.777;  -11.156;37281.395
524.447;36676.719;   -8.135;37846.949
525.033;36430.984;   -7.896;38321.949
525.619;36750.109;  -12.476;38579.285
526.205;38356.844;   -9.516;40622.875
526.791;41250.914;   -6.926;42258.836
527.377;41120.230;   -8.346;42966.902
527.963;42240.949;   -8.717;42018.949
528.549;41394.625;  -11.016;42476.828
529.135;40005.863;   -8.536;41854.852
529.721;38838.543;   -9.666;41237.711
530.306;38035.309;  -10.066;41259.445
530.892;37815.906;  -11.356;41506.047
531.478;39303.816;   -6.596;43559.613
532.063;43116.973;   -8.836;47695.563
532.649;44204.996;  -10.047;50808.324
533.235;44566.430;   -9.746;51787.500
533.820;44549.781;   -6.566;52145.035
534.406;45972.465;  -10.817;51133.488
534.991;45970.301;   -9.416;49996.805
535.576;44225.473;   -9.036;48882.852
536.162;44950.563;   -6.156;46942.285
536.747;46326.434;  -11.607;45711.746
537.333;49321.547;  -11.787;48510.180
537.918;52592.262;  -12.437;50439.891
538.503;51955.328;   -7.196;50863.711
539.088;48301.613;  -10.556;50906.922
539.673;48110.715;   -8.767;52621.965
540.259;48827.172;  -10.026;52368.094
540.844;46097.039;   -7.416;50879.109
541.429;47721.906;   -9.467;52077.777
542.014;50079.477;   -9.527;52716.695
542.599;49279.293;   -9.946;52363.281
543.184;46146.355;   -7.927;53187.137
543.769;47106.754;   -9.297;54697.605
544.354;47068.688;  -10.127;53913.914
544.938;45578.391;   -9.267;49680.164
545.523;47256.660;   -6.506;47386.277
546.108;50201.742;   -9.787;49151.949
546.693;52404.906;  -11.587;51384.637
547.278;52590.313;  -10.986;51853.254
547.862;49394.164;   -8.206;51173.750
548.447;44757.832;  -10.067;51691.395
549.031;44007.867;   -9.637;52456.703
549.616;48745.934;   -9.926;52714.516
550.201;48417.883;   -6.347;52414.598
550.785;49656.063;   -7.917;52355.059
551.370;48968.520;  -10.867;54589.453
551.954;48459.242;   -9.047;58267.348
552.538;49407.188;   -7.827;59062.176
553.123;47912.617;  -10.287;58115.285
553.707;45577.945;  -12.178;56556.285
554.291;47091.980;   -8.717;56201.668
554.876;50400.832;   -7.457;55335.762
555.460;50534.672;  -10.387;54155.703
556.044;50602.543;   -9.618;53721.484
556.628;48228.547;  -11.567;53731.016
557.212;46775.102;   -8.097;54312.531
557.796;45690.496;  -11.077;53797.773
558.380;45854.047;  -11.108;56145.984
558.964;45847.867;   -9.057;57277.930
559.548;46980.074;   -6.977;56459.641
560.132;45189.250;  -11.457;54434.543
560.716;43432.418;  -11.378;54800.617
561.300;44516.418;   -9.577;57606.945
561.884;45649.500;   -7.127;58972.445
562.467;43458.094;   -7.118;57327.570
563.051;42694.379;  -13.358;54962.434
563.635;44388.328;  -10.178;52594.473
564.219;45001.547;   -7.837;50610.410
564.802;45572.996;  -11.398;49551.180
565.386;45085.445;  -12.788;48370.953
565.969;44340.211;   -9.077;48178.871
566.553;43234.430;   -6.207;49957.305
567.136;44205.098;   -8.568;50369.594
567.720;40963.703;  -11.868;49492.004
568.303;38942.883;   -8.268;50616.352
568.887;39062.973;   -8.698;50727.148
569.470;39679.242;   -6.808;51698.379
570.053;38753.941;  -13.188;52122.078
570.637;36289.988;  -12.037;52536.438
571.220;35833.633;   -8.577;51186.098
571.803;36902.262;   -8.498;51032.762
572.386;39148.621;  -10.498;49609.887
572.969;41522.879;   -9.388;48285.926
573.552;40002.617;   -8.338;47624.285
574.135;38434.020;   -8.518;45498.641
574.718;35822.055;  -13.628;41970.434
575.301;35117.680;  -10.893;41447.137
575.884;34413.305;   -8.158;40923.836
576.467;35794.387;  -10.328;45267.723
577.050;37253.813;  -13.058;48175.543
577.633;38070.418;   -9.458;47729.328
578.216;37253.516;   -8.928;47579.793
578.799;36415.727;   -9.358;47820.996
579.381;35413.910;  -11.388;48115.551
579.964;33323.895;  -11.718;47333.766
580.547;35577.648;   -8.588;46668.969
581.129;36684.387;   -8.859;44466.141
581.712;37563.371;  -10.729;44164.922
582.294;37877.352;  -11.118;46477.855
582.877;37757.957;   -5.218;48244.254
583.459;35902.770;   -8.679;47437.895
584.042;33807.859;  -10.709;46943.219
584.624;33740.305;  -11.669;46792.227
585.206;33526.527;   -8.218;46557.250
585.789;33780.422;  -10.569;45793.773
586.371;36088.688;  -11.859;43836.391
586.953;36840.887;  -10.719;42972.492
587.536;37680.480;   -7.198;42487.211
588.118;38180.527;   -8.720;42086.414
588.700;34120.035;  -10.439;43389.930
589.282;33068.926;   -9.198;43646.039
589.864;34268.027;   -9.199;43438.109
590.446;35616.105;  -11.319;43151.926
591.028;35507.949;  -11.159;42781.867
591.610;34146.691;  -11.779;42839.098
592.192;31316.746;   -7.668;42820.402
592.774;29994.080;  -11.949;40724.277
593.356;28945.760;  -12.129;39874.789
593.937;27968.564;  -10.669;39980.648
594.519;30231.590;   -6.509;42069.633
595.101;32326.990;  -10.849;42976.031
595.683;32308.543;  -11.679;44084.441
596.264;33268.730;   -9.049;43478.797
596.846;33189.914;   -8.849;43803.672
597.427;33053.910;   -9.570;42986.934
598.009;34330.684;  -12.620;42832.219
598.591;34397.809;  -10.039;42580.086
599.172;33873.375;  -10.369;43061.805
599.753;34054.277;   -9.140;41691.469
600.335;35492.566;  -11.430;40692.520
600.916;33747.809;   -9.939;39982.422
601.498;31602.740;   -8.479;40318.617
602.079;30113.000;  -10.920;40670.609
602.660;29786.656;  -11.480;41450.898
603.241;31540.477;  -11.699;41137.738
603.823;30391.834;   -9.579;38868.797
604.404;29358.576;  -10.620;38182.785
604.985;31075.061;  -10.450;38078.047
605.566;31249.139;   -9.129;38056.633
606.147;31253.871;   -7.510;37020.418
606.728;32688.195;  -10.660;37883.359
607.309;31259.256;  -11.740;38748.273
607.890;31163.887;   -9.759;38850.230
608.471;30814.068;   -8.250;37457.918
609.051;29951.848;   -9.240;36066.457
609.632;28615.027;  -12.120;35991.074
610.213;28844.482;   -9.110;37402.641
610.794;29571.080;   -8.030;38383.363
611.374;29597.816;   -8.110;40562.387
611.955;30564.600;  -13.560;38533.727
612.536;31867.725;  -11.400;36951.789
613.116;31346.076;   -8.070;37197.891
613.697;31646.547;  -10.830;38411.125
614.277;29848.057;  -11.641;38673.938
614.858;30694.088;  -13.310;37075.863
615.438;30312.139;   -7.460;35092.906
616.019;28098.541;   -7.601;33666.301
616.599;28199.676;  -12.020;34189.023
617.179;29783.873;  -11.780;36952.047
617.760;30895.281;   -8.570;39582.574
618.340;31604.816;  -11.471;38943.977
618.920;32598.664;  -11.170;37594.156
619.500;32715.148;  -11.071;37866.938
620.080;31770.982;   -7.750;37869.043
620.660;32769.004;  -12.711;36868.617
621.241;34486.566;  -10.211;36352.309
621.821;35159.344;  -10.961;35459.520
622.401;33945.688;   -7.720;35207.414
622.980;32734.359;   -8.981;35980.422
623.560;31261.883;   -9.331;37351.328
624.140;29883.561;   -9.850;34388.582
624.720;25076.814;   -7.451;32368.764
625.300;21704.184;   -9.070;32638.629
625.880;25107.768;  -12.601;34599.035
626.459;29314.914;  -11.751;36831.738
627.039;32268.068;   -9.281;38299.098
627.619;32062.045;   -8.801;38289.574
628.198;30583.018;  -12.071;37220.695
628.778;29536.932;   -9.461;37632.563
629.357;30063.127;   -8.491;38003.012
629.937;30455.389;   -9.721;38402.039
630.516;30047.408;   -9.951;37868.801
631.096;29676.832;  -11.731;35760.410
631.675;31743.434;   -8.572;35225.219
632.254;37017.195;  -11.282;35130.289
632.834;36792.840;  -13.322;35794.570
633.413;35053.875;  -10.301;35788.922
633.992;32328.500;   -8.582;34532.863
634.571;32690.355;   -8.352;33590.113
635.151;35419.137;  -11.912;34943.863
635.730;34105.883;  -10.511;35352.523
636.309;30913.061;   -7.731;35366.605
636.888;28311.377;   -9.952;36165.637
637.467;28678.447;  -11.672;37515.902
638.046;30098.328;   -8.901;39288.695
638.625;32869.359;   -7.912;38279.699
639.204;32760.875;  -10.022;37741.598
639.782;31752.771;  -12.252;38364.551
640.361;28107.631;  -10.041;36740.621
640.940;25371.119;  -11.161;34950.082
641.519;26211.203;   -9.701;34137.398
642.097;29116.475;  -11.271;35654.258
642.676;31710.213;   -8.651;35637.957
643.255;32877.402;   -8.711;36567.074
643.833;32175.008;   -9.581;37809.434
644.412;32286.207;  -13.711;37337.293
644.990;31376.135;  -11.811;37018.531
645.569;31117.791;   -9.411;36518.469
646.147;30375.340;  -10.291;36186.430
646.726;30565.119;  -12.401;36267.688
647.304;31584.488;  -10.411;36647.625
647.882;32814.605;   -9.651;39286.742
648.461;34365.527;   -9.631;39157.703
649.039;32845.773;  -11.881;35412.883
649.617;31878.822;   -9.661;34744.918
650.195;30989.451;   -9.301;35403.098
650.773;29622.498;  -10.511;35053.797
651.352;27481.309;  -11.521;33756.816
651.930;25279.531;  -12.211;31868.773
652.508;23784.029;   -9.171;33121.551
653.086;27595.287;   -9.371;33564.793
653.663;30704.988;  -13.161;34054.668
654.241;29227.258;  -13.031;35693.309
654.819;30394.338;   -9.371;36422.906
655.397;30371.094;  -10.511;38213.484
655.975;30029.854;  -10.371;39507.625
656.553;29735.686;  -10.051;39498.223
657.130;28174.828;  -10.061;40395.480
657.708;27408.834;   -9.561;39242.020
658.286;27607.074;  -11.511;38920.020
658.863;28918.770;  -10.261;40202.898
659.441;32271.703;   -7.531;39677.938
660.018;32306.375;   -9.501;40413.355
660.596;30802.711;  -13.301;39931.414
661.173;32213.234;  -11.211;39604.531
661.750;32564.680;   -9.951;39700.070
662.328;31450.889;   -9.390;39292.809
662.905;30653.398;  -11.330;38235.648
663.482;26582.471;   -9.050;36212.305
664.060;24717.027;   -8.240;35944.945
664.637;27615.213;  -10.050;35170.785
665.214;28911.191;  -11.760;34197.523
665.791;30402.963;  -10.530;34549.520
666.368;29561.758;   -9.690;35118.578
666.945;30092.977;   -9.320;36019.418
667.522;31583.199;  -11.860;36048.438
668.099;31278.064;  -10.770;36243.914
668.676;29965.002;   -6.260;35958.875
669.253;28692.721;   -7.000;37384.730
669.830;28928.277;  -10.190;36779.629
670.407;28920.238;   -9.550;35231.289
670.984;28895.160;   -9.260;35544.270
671.560;29814.842;   -9.280;35466.867
672.137;29130.338;  -11.810;34280.863
672.714;29943.814;  -11.490;34632.863
673.290;31007.861;   -7.740;35135.422
673.867;31131.197;  -10.660;36114.480
674.443;30863.580;  -12.230;36152.859
675.020;28793.877;  -10.450;35327.238
675.596;29655.324;   -9.260;35795.176
676.173;30237.080;  -10.780;35430.355
676.749;29907.799;  -13.690;33549.516
677.326;29821.928;  -11.980;32210.012
677.902;29832.107;   -8.630;32068.871
678.478;29376.730;  -10.730;32583.891
679.054;28477.182;  -10.520;32088.928
679.631;28588.965;  -11.920;30978.848
680.207;30002.305;   -7.490;33160.887
680.783;31469.434;   -9.860;35570.363
681.359;30634.697;  -13.380;36125.184
681.935;30435.098;  -12.480;35240.922
682.511;30471.449;   -7.900;34429.961
683.087;30892.896;   -7.710;34463.680
683.663;30075.219;  -11.480;34648.898
684.239;28540.115;  -14.090;34546.457
684.815;27822.180;   -7.560;35586.375
685.390;27858.609;   -9.910;35821.895
685.966;28347.605;  -11.159;35085.871
686.542;30779.674;  -11.169;34198.230
687.118;33182.180;   -5.959;32847.707
687.693;33753.648;  -10.329;32794.027
688.269;33421.148;  -12.059;33072.367
688.844;31697.275;  -10.909;33141.664
689.420;29710.234;   -8.019;33965.742
689.995;27835.895;   -8.399;34655.523
690.571;26251.525;  -10.949;33576.742
691.146;26172.801;   -9.619;32657.219
691.722;26069.225;   -8.999;32526.979
692.297;25725.281;  -11.589;33014.617
692.872;27141.730;  -11.739;34012.254
693.448;27043.441;  -11.059;34237.434
694.023;26111.428;  -10.139;34142.672
694.598;27906.445;   -9.029;34132.031
695.173;28592.715;  -13.319;34205.250
695.748;27526.916;  -10.169;32882.488
696.323;27385.684;   -8.339;32864.906
696.898;27735.691;   -8.169;33170.004
697.473;28094.021;  -12.309;32432.984
698.048;27585.258;  -10.989;31649.303
698.623;27304.994;   -9.329;30778.141
699.198;28705.271;   -9.849;31140.119
699.773;29913.350;  -12.329;31764.299
700.348;28539.025;  -10.389;31780.816
700.922;28457.063;   -9.269;32046.375
701.497;29623.705;   -9.329;32603.574
702.072;30127.293;  -10.789;34799.871
702.646;28616.092;  -10.839;35793.172
703.221;26255.867;   -9.099;35201.590
703.795;28046.297;  -10.939;34764.527
704.370;28559.949;  -12.859;34307.367
704.944;28871.869;  -11.559;33509.887
705.519;29506.023;   -7.939;31388.584
706.093;30711.379;  -10.499;31340.104
706.668;31044.805;  -11.289;32630.281
707.242;29972.160;  -11.509;32728.779
707.816;28713.893;   -9.639;32947.238
708.390;27121.805;  -11.429;33277.855
708.965;27609.068;  -11.869;33834.336
709.539;27769.014;  -11.689;33709.273
710.113;27846.676;  -10.478;33044.313
710.687;27279.777;  -10.228;31953.992
711.261;25678.598;  -13.698;30505.949
711.835;25392.436;  -13.378;30262.369
712.409;25793.453;   -9.698;31254.447
712.983;27862.588;  -11.898;32754.986
713.557;29166.684;  -15.138;34018.824
714.131;29065.930;  -14.098;34579.625
714.704;28178.625;   -9.958;33890.262
715.278;25639.354;  -10.028;33531.102
715.852;24439.592;  -11.148;33601.660
716.425;25546.043;   -9.068;33515.117
716.999;26661.975;  -10.038;33185.555
717.573;27521.945;   -9.798;33905.996
718.146;28537.273;  -12.378;35199.293
718.720;28654.836;  -11.918;35060.551
719.293;28489.682;   -8.088;34973.230
719.867;31430.490;  -10.888;36394.449
720.440;31196.785;  -11.938;36663.008
721.013;29344.547;  -12.818;35102.426
721.587;27791.609;  -10.298;33985.266
722.160;26589.045;  -10.048;33524.965
722.733;25543.428;  -12.108;32987.043
723.306;25793.559;  -10.818;33066.301
723.880;27971.719;   -8.908;33399.500
724.453;30255.449;   -9.878;33468.297
725.026;29615.475;  -11.188;33816.637
725.599;26741.596;  -11.678;32797.996
726.172;26626.783;   -9.618;33187.434
726.745;27681.072;   -8.258;35136.613
727.318;28907.955;  -12.978;35751.730
727.891;29631.033;  -12.148;35890.430
728.463;29175.301;   -8.968;34822.090
729.036;27895.441;  -10.188;32895.086
729.609;28382.295;  -11.788;31823.225
730.182;25623.602;  -11.788;31445.283
730.754;23251.762;  -10.268;32373.223
731.327;23600.775;   -9.998;33676.820
731.900;24010.271;  -12.228;33417.000
732.472;24714.162;  -13.848;31978.498
733.045;26118.535;   -8.698;30368.777
733.617;26224.951;  -10.607;30574.215
734.190;26584.119;  -11.507;31280.975
734.762;24383.871;  -13.647;31674.412
735.334;22549.004;   -9.767;31247.291
735.907;22965.285;   -9.897;29876.211
736.479;23209.293;  -11.637;29808.488
737.051;22713.861;   -9.567;30233.547
737.623;23192.461;   -8.187;31469.086
738.195;23547.594;  -11.187;31784.225
738.768;25496.127;  -12.337;32120.523
739.340;26358.357;  -12.227;32094.342
739.912;25562.381;  -11.057;31312.680
740.484;24142.150;  -10.207;31946.238
741.056;22564.297;  -10.047;32984.059
741.628;23680.303;  -13.627;33897.715
742.199;25783.248;   -7.177;33213.016
742.771;24620.020;  -10.797;31369.113
743.343;22571.004;  -11.997;31865.473
743.915;21603.922;  -12.867;32388.631
744.487;21563.461;   -7.617;31079.568
745.058;21664.484;   -9.557;30570.107
745.630;22285.986;   -9.877;29970.127
746.201;23536.574;  -14.177;29186.766
746.773;24177.164;   -9.237;28805.723
747.344;23904.330;   -9.847;29591.223
747.916;22131.342;  -11.657;31412.201
748.487;22205.979;  -10.587;32194.898
749.059;23564.051;   -8.707;32533.719
749.630;24290.025;  -10.537;32158.518
750.201;23336.355;  -11.687;30855.395
750.773;21621.188;  -11.647;28622.555
751.344;21252.156;   -7.147;28405.732
751.915;22102.998;   -9.757;28461.551
752.486;22312.793;  -12.427;27842.850
753.057;20495.979;  -12.227;27845.008
753.628;19313.369;  -10.417;27728.107
754.199;20192.611;  -11.767;27381.086
754.770;21226.441;  -11.187;25882.203
755.341;21451.504;  -10.507;25886.184
755.912;21537.498;   -9.387;26050.861
756.483;20951.865;  -10.647;26798.779
757.054;19217.418;  -11.837;27048.238
757.625;17848.215;  -12.716;26294.838
758.195;17631.084;   -9.666;26142.076
758.766;17318.287;   -8.656;26392.234
759.337;17917.068;  -12.856;26334.594
759.907;19362.266;  -13.366;27579.652
760.478;20229.701;   -8.576;28352.770
761.048;19697.381;  -10.526;27325.088
761.619;18758.313;  -11.116;26460.428
762.189;18865.441;  -12.136;26029.826
762.760;19947.326;   -9.456;26430.145
763.330;21125.604;   -7.136;26670.902
763.900;20772.512;  -11.786;26603.021
764.471;18356.848;  -11.546;25542.740
765.041;16971.705;   -8.096;24358.459
765.611;16781.941;   -8.876;23991.297
766.181;16979.467;  -12.196;24470.236
766.751;18034.166;  -11.636;24845.975
767.321;17943.844;  -10.156;24533.633
767.891;16041.454;  -11.766;24916.492
768.461;15400.622;  -14.936;24776.771
769.031;15775.153;  -12.356;24757.988
769.601;17401.598;   -7.526;24181.088
770.171;17531.748;  -10.766;23670.387
770.741;16597.670;  -13.176;22960.045
771.311;16606.473;  -10.616;22917.523
771.880;17217.605;   -9.576;23562.941
772.450;17184.500;  -10.336;24216.500
773.020;17148.068;  -13.516;24140.398
773.589;16250.190;  -13.466;24414.857
774.159;15488.148;   -8.686;23858.717
774.729;15117.063;   -9.476;22942.135
775.298;14808.435;  -13.666;22324.033
775.867;14394.531;  -11.716;21140.313
776.437;14594.792;   -9.906;20838.092
777.006;14402.091;  -12.166;20599.510
777.576;14014.220;  -12.356;20508.809
778.145;13965.396;  -11.646;20732.947
778.714;14077.978;   -8.226;21062.465
779.283;13579.868;   -9.556;20949.664
779.853;13029.336;  -14.116;20508.623
780.422;13366.054;  -11.506;20649.082
780.991;12953.336;   -9.556;21527.520
781.560;11731.402;   -9.095;22632.658
782.129;11551.255;  -12.135;23048.277
782.698;11569.814;  -10.865;23438.555
783.267;11209.629;   -9.335;23267.734
783.836;11135.685;  -11.045;22415.133
784.404;12091.055;  -13.865;20443.152
784.973;12786.546;  -13.095;19699.150
785.542;12870.343;  -11.575;19763.828
786.111;12661.191;   -9.705;20341.408
786.679;12177.229;  -12.105;20207.967
787.248;11877.729;  -12.455;19516.465
787.817;11701.876;  -11.535;18900.363
788.385;11428.088;   -9.765;17879.121
788.954;10917.086;  -14.005;17658.301
789.522;10231.890;  -11.955;17788.879
790.090;10534.779;  -10.135;18118.277
790.659;11120.520;  -10.975;18338.736
791.227;10823.127;  -13.375;18508.615
791.795;11248.324;  -12.375;17898.254
792.364;11577.071;  -10.725;17295.133
792.932;11856.297;   -9.715;16822.051
793.500;12083.305;  -12.675;17040.148
794.068;12256.460;  -13.495;17179.787
794.636;12394.879;  -10.885;16664.246
795.204;11740.087;  -11.045;16524.545
795.772;11692.202;  -13.175;17274.564
796.340;11237.428;  -12.445;17891.002
796.908;11027.190;   -9.735;17648.561
797.476;10928.371;   -9.815;17064.080
798.044;10561.797;  -13.985;16672.777
798.612; 9831.839;  -13.115;17023.996
799.180; 9432.566;  -10.185;16561.615
799.747; 9276.961;   -9.055;15962.773
800.315; 8968.561;  -12.385;15296.992
800.883; 8781.265;  -15.035;14801.771
801.450; 8964.163;  -10.365;14534.430
802.018; 9057.088;   -9.855;14173.248
802.585; 9075.938;  -11.905;14029.547
803.153; 9084.063;  -11.585;13836.846
803.720; 8929.324;   -9.095;13567.324
804.287; 8476.529;   -9.135;13360.622
804.855; 7987.077;  -11.604;13681.981
805.422; 7832.575;  -11.794;13536.560
805.989; 7907.728;  -10.734;13355.958
806.556; 8109.941;  -10.444;13747.896
807.124; 8371.731;  -12.764;13987.376
807.691; 8329.643;  -12.964;14038.674
808.258; 8158.036;  -11.134;14120.152
808.825; 7835.230;   -9.854;13860.111
809.392; 7909.272;  -10.504;13268.790
809.959; 7434.178;  -13.054;12680.389
810.526; 6972.079;   -8.294;12427.308
811.093; 6965.544;   -8.394;12030.105
811.659; 7583.411;  -12.304;11653.664
812.226; 8170.438;  -13.944;11637.183
812.793; 7934.315;  -10.484;11611.521
813.360; 7288.636;  -10.144;11885.181
813.926; 6961.574;  -11.684;12770.539
814.493; 6771.138;  -13.644;12677.638
815.060; 6404.644;   -9.724;11974.336
815.626; 6344.105;   -9.854;11594.715
816.193; 6687.844;  -13.254;11579.474
816.759; 6731.274;  -13.204;11666.972
817.325; 6772.949;   -9.434;11325.530
817.892; 7101.102;  -10.134;11105.369
818.458; 7521.904;  -13.474;10843.928
819.024; 7195.011;  -11.854;10714.406
819.591; 6875.322;  -10.244;10469.165
820.157; 6682.596;  -10.704;10235.523
820.723; 6196.999;  -12.324;10847.563
821.289; 5873.665;   -9.444;11040.980
821.855; 5782.067;   -8.374;10357.100
822.421; 5742.733;  -10.234; 9978.918
822.987; 5735.423;  -13.294; 9754.177
823.553; 5383.708;  -10.884;10065.755
824.119; 5169.034;   -8.884;10036.294
824.685; 5287.566;   -6.784;10029.192
825.251; 5424.142;  -12.004;10199.230
825.816; 5388.022;  -11.474; 9820.189
826.382; 5106.734;   -9.174; 9297.248
826.948; 5242.565;   -9.214; 9381.347
827.513; 5643.967;  -10.774; 9450.726
828.079; 5540.307;  -11.924; 9472.444
828.645; 4953.448;  -10.543; 9292.643
829.210; 4746.180;  -10.533; 9065.341
829.776; 4711.560;  -10.753; 9132.620
830.341; 4588.132;  -10.173; 9092.878
830.906; 4724.671;  -10.743; 9078.557
831.472; 5053.188;  -11.113; 8534.535
832.037; 4880.019;  -10.603; 8677.874
832.602; 4390.958;  -13.323; 8628.692
833.167; 4147.807;  -10.823; 8879.031
833.733; 4104.353;  -10.113; 9189.790
834.298; 4248.063;  -13.583; 9052.608
834.863; 4377.398;  -12.703; 8895.087
835.428; 4390.547;  -10.523; 8824.266
835.993; 4232.294;   -6.963; 8845.385
836.558; 4058.168;  -10.763; 8888.563
837.123; 4125.096;   -9.903; 8966.582
837.688; 4364.629;   -9.913; 8617.860
838.253; 4633.705;  -10.283; 8590.699
838.817; 4828.457;  -12.963; 8443.797
839.382; 4745.716;  -14.243; 8799.356
839.947; 4435.832;  -10.733; 8810.595
840.511; 4144.826;   -9.383; 8796.394
841.076; 3787.495;  -12.563; 8347.231
841.641; 3837.681;  -12.953; 8224.330
842.205; 3958.676;   -7.043; 8223.349
842.770; 3992.273;   -8.163; 8622.107
843.334; 4104.189;  -12.503; 8410.386
843.898; 4065.325;  -11.693; 8337.465
844.463; 4059.622;  -10.203; 8506.283
845.027; 3855.370;   -9.533; 8280.962
845.591; 3675.451;  -13.443; 8231.141
846.156; 3678.971;  -13.143; 7969.179
846.720; 3597.647;   -9.433; 7768.278
847.284; 3496.621;  -11.033; 7630.957
847.848; 3374.604;  -10.403; 7472.395
848.412; 3289.219;  -11.553; 7437.394
848.976; 3320.948;   -8.393; 7674.592
849.540; 3232.130;   -8.713; 7836.011
850.104; 3277.309;  -12.463; 7913.669
850.668; 3619.049;  -12.973; 7694.508
851.232; 3772.546;  -10.793; 7756.887
851.796; 3649.372;  -10.662; 7926.545
852.359; 3348.959;  -13.082; 7827.844
852.923; 3171.310;  -12.192; 7641.163
853.487; 3035.036;  -11.912; 7342.501
854.050; 3008.798;  -10.892; 7042.820
854.614; 3130.177;  -13.992; 7151.338
855.177; 3234.794;  -11.732; 7105.077
855.741; 3275.500;   -8.962; 6989.675
856.304; 3173.517;   -9.442; 6596.634
856.868; 3143.776;  -14.192; 6356.272
857.431; 3266.182;  -12.702; 6468.571
857.995; 3401.418;   -9.942; 6373.210
858.558; 3439.914;   -9.112; 6324.448
859.121; 3182.784;  -12.932; 6408.327
859.684; 3002.067;  -13.442; 6347.886
860.247; 3099.996;  -10.632; 6321.264
860.810; 3135.695;  -11.272; 6301.903
861.374; 2901.475;   -9.832; 6607.881
861.937; 2644.456;  -11.762; 6408.200
862.500; 2640.369;   -9.722; 6572.639
863.062; 2781.789;  -10.512; 6387.297
863.625; 2915.850;  -11.232; 6190.836
864.188; 3069.129;  -14.112; 5807.254
864.751; 3154.691;  -11.302; 5682.413
865.314; 3076.602;  -10.112; 5547.492
865.876; 2849.785;  -12.182; 5500.150
866.439; 2813.128;  -10.722; 5415.909
867.002; 2779.459;   -9.252; 5501.567
867.564; 2606.620;   -9.572; 5413.946
868.127; 2400.515;  -13.142; 5160.325
868.689; 2276.983;  -12.902; 5133.183
869.252; 2174.810;   -9.732; 5252.382
869.814; 2074.728;   -9.432; 5297.141
870.377; 2072.044;  -11.552; 5390.919
870.939; 2133.380;   -9.052; 5599.898
871.501; 2202.925;  -10.982; 5248.336
872.063; 2223.946;  -12.292; 4854.235
872.626; 2169.370;  -14.912; 4817.074
873.188; 2159.590;  -13.112; 4987.732
873.750; 2135.283;  -13.442; 4868.651
874.312; 2053.921;   -9.402; 4779.330
874.874; 1974.938;  -11.062; 4866.348
875.436; 1893.483;  -13.931; 4718.887
875.998; 1881.332;   -9.561; 4660.005
876.560; 1905.682;  -11.321; 4462.964
877.122; 1846.894;  -12.221; 4145.042
877.683; 1748.578;  -12.191; 4056.481
878.245; 1668.886;  -12.101; 3950.740
878.807; 1706.338;   -8.971; 4058.958
879.369; 1737.274;  -12.071; 3954.677
879.930; 1650.258;  -14.621; 3941.495
880.492; 1581.264;  -10.311; 4067.014
881.053; 1553.465;  -10.901; 3859.633
881.615; 1461.680;  -14.411; 3776.071
882.176; 1363.221;  -13.761; 3734.750
882.738; 1306.923;   -9.181; 3678.489
883.299; 1280.976;  -11.791; 3405.407
883.860; 1270.187;  -13.121; 3351.106
884.422; 1262.227;  -11.211; 3394.044
884.983; 1220.811;  -10.091; 3166.443
885.544; 1151.373;   -8.461; 3189.802
886.105; 1077.732;  -12.361; 3160.360
886.666; 1015.136;  -14.141; 3093.059
887.227;  956.981;  -11.361; 2941.957
887.788;  900.174;  -11.401; 2974.836
888.349;  834.610;  -13.791; 2721.214
888.910;  825.504;  -13.191; 2696.493
889.471;  831.863;   -9.881; 2560.172
890.032;  817.411;   -9.881; 2558.190
890.593;  789.586;  -10.371; 2567.669
891.153;  765.144;  -13.301; 2460.307
891.714;  719.040;  -11.431; 2372.046
892.275;  683.463;  -11.291; 2309.505
892.835;  650.602;  -11.471; 2382.543
893.396;  602.668;  -11.541; 2295.502
893.956;  545.231;  -11.181; 2162.420
894.517;  505.874;  -11.741; 2125.439
895.077;  497.384;  -11.671; 2086.978
895.638;  498.485;  -11.311; 2126.316
896.198;  473.668;   -9.831; 1838.275
896.758;  432.942;   -8.421; 1892.813
897.319;  402.327;  -12.351; 1792.232
897.879;  386.786;  -13.511; 1762.751
898.439;  363.111;  -12.001; 1661.149
898.999;  339.870;  -10.180; 1781.468
899.559;  328.515;  -12.030; 1703.347
900.119;  325.519;  -15.710; 1537.525
900.679;  319.881;   -8.900; 1638.384
901.239;  306.938;   -8.340; 1527.902
901.799;  297.773;  -13.910; 1456.441
902.359;  291.883;  -13.460; 1357.140
902.919;  285.067;  -11.490; 1331.118
903.479;  272.965;  -12.110; 1317.257
904.038;  253.713;  -11.720; 1262.595
904.598;  239.491;  -13.610; 1152.034
905.158;  235.699;  -11.040; 1240.893
905.717;  230.110;  -10.900; 1233.691
906.277;  219.251;  -15.080; 1217.330
906.836;  209.553;  -13.380; 1222.408
907.396;  201.461;  -10.780; 1193.047
907.955;  194.287;   -8.500; 1182.526
908.515;  188.867;  -12.760; 1099.364
909.074;  182.532;  -11.900; 1092.863
909.633;  177.358;   -8.950; 1069.121
910.192;  172.549;   -8.770; 1196.460
910.752;  167.850;  -12.390; 1029.960
911.311;  164.162;  -13.680; 1009.780
911.870;  160.091;  -12.370;  971.460
912.429;  162.457;  -10.900; 1094.080
912.988;  161.346;  -11.690; 1081.060
913.547;  157.134;  -13.240;  940.380
914.106;  152.859;  -11.990;  999.420
914.665;  149.464;   -9.990;  984.020
915.224;  147.692;  -12.880; 1035.760
915.782;  149.177;  -12.350;  922.560
916.341;  148.209;   -9.110; 1049.840
916.900;  143.829;   -9.270;  925.260
917.458;  140.644;  -13.240;  884.220
918.017;  142.238;  -13.550;  942.600
918.576;  141.059;  -12.320;  904.440
919.134;  139.477;  -11.490;  837.980
919.693;  137.780;  -13.670;  893.060
920.251;  135.193;  -15.470;  876.500
920.809;  135.603;  -11.290;  839.580
921.368;  134.548;  -10.210;  885.360
921.926;  133.275;  -12.140;  842.940
922.484;  132.703;  -13.080;  903.360
923.042;  131.220;  -11.720;  880.340
923.601;  134.656;   -7.480;  998.680
924.159;  133.797;  -11.570;  935.560
924.717;  130.642;  -13.840;  841.080
925.275;  130.175;  -10.640;  903.240
925.833;  128.634;  -11.540;  779.320
926.391;  131.029;  -12.960;  938.380
926.949;  128.379;  -14.130;  857.680
927.506;  130.047;  -11.750;  903.500
928.064;  129.455;  -10.250;  877.580
928.622;  128.506;  -13.030;  880.100
929.180;  127.808;  -13.400;  814.180
929.737;  129.042;  -10.700;  808.540
930.295;  132.704;  -10.070;  928.480
930.853;  133.931;  -11.960;  849.100
931.410;  135.278;  -13.120;  821.120
931.968;  134.157;  -10.770;  940.660
932.525;  133.841;  -10.680;  909.380
933.082;  134.389;  -13.130;  811.440
933.640;  135.763;  -13.210;  925.900
934.197;  134.251;  -11.060;  886.360
934.754;  134.315;   -9.580;  897.780
935.312;  138.285;  -14.000;  863.340
935.869;  141.540;  -10.710; 1012.980
936.426;  141.861;   -9.860;  872.800
936.983;  142.499;   -9.710;  889.020
937.540;  142.014;  -13.990;  838.280
938.097;  141.222;  -14.040;  940.120
938.654;  141.424;  -10.310;  898.860
939.211;  144.321;  -10.560;  952.480
939.768;  147.258;  -13.900;  915.420
940.324;  150.773;  -14.760;  904.200
940.881;  152.922;  -10.370;  878.500
941.438;  153.184;   -8.260; 1021.200
941.995;  149.340;  -12.540;  992.560
942.551;  146.281;  -14.670;  875.620
943.108;  147.172;  -10.450;  937.920
943.664;  148.703;  -10.750;  869.340
944.221;  151.302;  -11.550; 1088.140
944.777;  149.643;  -14.770;  869.680
945.334;  149.336;  -12.820;  884.840
945.890;  151.027;  -10.130;  946.480
946.446;  150.903;  -13.470;  947.020
947.003;  152.715;  -12.120;  964.940
947.559;  155.603;   -9.980; 1063.040
948.115;  155.116;   -9.080; 1026.540
948.671;  154.629;  -10.830;  967.300
949.227;  150.847;  -12.440;  859.560
949.783;  149.493;  -12.910;  858.900
950.339;  150.914;  -10.270;  991.000
950.895;  150.726;  -13.630; 1023.840
951.451;  150.272;  -15.100;  925.280
952.007;  148.525;  -11.330;  998.540
952.563;  148.984;  -10.580;  937.780
953.118;  147.434;  -13.440;  904.940
953.674;  146.425;  -12.710;  935.780
954.230;  146.542;  -10.350;  949.640
954.785;  144.608;   -9.190;  936.640
955.341;  142.791;  -11.200;  998.160
955.897;  140.618;  -16.560;  834.660
956.452;  143.176;  -12.570;  953.840
957.008;  142.964;   -7.970; 1083.640
957.563;  140.944;  -11.940; 1009.540
958.118;  135.154;  -13.450;  877.700
958.674;  135.573;  -12.030;  946.780
959.229;  136.674;   -9.410; 1013.980
959.784;  134.249;  -12.000;  832.400
960.339;  134.032;  -14.780; 1001.280
960.894;  130.563;   -9.860;  963.760
961.449;  125.945;   -9.970;  859.960
962.004;  126.286;  -10.900; 1212.840
962.559;  120.932;  -13.150;  860.140
963.114;  118.968;  -13.740;  742.480
963.669;  118.112;   -9.820;  915.500
964.224;  117.180;  -13.890;  874.340
964.779;  115.833;  -12.600;  828.420
965.334;  116.865;  -10.950; 1017.860
965.888;  116.155;  -11.170;  875.360
966.443;  118.915;  -12.540;  972.380
966.998;  118.697;  -15.780;  819.460
967.552;  117.827;   -9.760;  908.380
968.107;  114.937;   -9.060;  868.300
968.661;  115.633;  -11.950;  922.440
969.216;  115.814;  -12.800;  856.280
969.770;  116.301;  -11.210;  917.200
970.324;  114.881;  -11.610;  923.140
970.879;  111.634;  -11.370;  947.180
971.433;  108.447;  -12.540;  952.720
971.987;  104.226;  -11.320;  895.340
972.541;  100.474;  -10.720;  917.100
973.095;  100.976;   -9.680; 1009.460
973.649;   99.063;  -11.440;  809.480
974.203;   97.475;  -11.210;  829.040
974.757;   97.594;  -10.240;  855.220
975.311;   97.214;  -13.720;  872.600
975.865;   97.445;  -13.770;  881.820
976.419;   95.283;  -11.690;  857.400
976.973;   95.856;   -9.510;  849.620
977.526;   96.340;  -12.620;  949.920
978.080;   96.396;  -12.010;  796.780
978.634;   97.927;  -10.170;  921.320
979.187;   94.731;   -9.020;  905.400
979.741;   93.639;   -9.820; 1018.380
980.294;   88.671;  -14.870;  789.160
980.848;   86.467;  -12.380;  717.220
981.401;   88.180;  -10.350;  816.540
981.955;   90.491;  -13.720;  844.300
982.508;   89.907;  -11.490;  746.340
983.061;   88.913;  -10.000;  915.260
983.615;   85.831;  -11.480;  798.800
984.168;   82.788;  -13.220;  770.080
984.721;   83.237;  -13.960;  880.760
985.274;   81.526;  -10.870;  867.500
985.827;   80.008;   -9.790;  834.220
986.380;   78.266;  -13.120;  721.340
986.933;   77.013;  -12.450;  864.800
987.486;   75.928;  -10.210;  861.920
988.039;   74.345;   -8.430;  863.100
988.591;   73.622;  -10.520;  893.260
989.144;   71.007;  -14.860;  737.260
989.697;   69.564;  -13.080;  758.740
990.250;   70.058;  -10.150;  858.100
990.802;   69.006;  -13.430;  755.860
991.355;   70.224;  -12.750;  974.880
991.907;   68.040;  -12.040;  864.320
992.460;   65.857;  -11.330;  753.760
993.012;   64.365;  -13.610;  749.540
993.565;   63.446;  -13.460;  711.360
994.117;   65.783;   -9.360;  950.780
994.669;   62.071;  -11.300;  701.320
995.221;   60.346;  -13.540;  791.920
995.774;   58.713;  -13.430;  787.580
996.326;   57.704;  -12.520;  740.220
996.878;   57.819;  -10.950;  838.420
997.430;   55.220;  -14.300;  699.860
997.982;   54.029;  -13.760;  750.140
998.534;   53.430;  -11.530;  739.060
999.086;   52.116;  -10.310;  738.220
999.638;   50.843;  -12.530;  661.380
1000.190;   50.282;  -11.840;  699.320
1000.741;   50.818;  -10.260;  742.700
1001.293;   49.540;   -8.860;  686.020
1001.845;   48.942;  -13.700;  676.640
1002.396;   48.743;  -12.100;  743.400
1002.948;   48.376;  -12.760;  737.400
1003.500;   46.419;  -10.380;  723.780
1004.051;   47.731;  -11.900;  907.580
1004.603;   45.350;  -12.250;  791.820
1005.154;   42.264;  -13.210;  608.980
1005.705;   41.103;  -10.950;  723.960
1006.257;   40.607;  -13.880;  707.220
1006.808;   40.475;  -12.840;  685.460
1007.359;   39.819;  -10.570;  763.240
1007.910;   38.025;   -9.620;  646.640
1008.461;   38.710;  -13.630;  732.940
1009.013;   37.298;  -17.200;  588.340
1009.564;   38.824;  -10.200;  793.520
1010.115;   36.146;  -12.570;  597.040
1010.665;   35.340;  -15.150;  602.160
1011.216;   35.673;  -14.480;  667.920
1011.767;   35.847;  -11.340;  697.920
1012.318;   35.981;   -9.780;  736.980
1012.869;   34.499;  -12.380;  679.000
1013.419;   33.952;  -15.560;  603.120
1013.970;   35.181;  -11.010;  666.640
1014.521;   33.494;  -11.610;  620.620
1015.071;   34.049;  -13.450;  670.380
1015.622;   34.286;  -13.870;  635.460
1016.172;   33.151;  -11.610;  596.820
1016.723;   32.867;  -12.120;  614.380
1017.273;   31.910;  -13.620;  604.160
1017.823;   32.971;  -14.140;  650.340
1018.374;   31.808;  -12.800;  611.760
1018.924;   31.688;  -12.340;  716.880
1019.474;   32.035;  -11.410;  718.880
1020.024;   30.883;  -14.770;  657.580
1020.574;   31.726;   -9.780;  726.160
1021.124;   31.520;   -8.560;  673.580
1021.674;   29.690;  -15.190;  559.120
1022.224;   31.467;  -13.530;  708.940
1022.774;   31.179;  -13.280;  668.820
1023.324;   31.192;  -10.690;  753.520
1023.874;   32.488;  -10.240;  875.760
1024.423;   30.512;  -12.540;  613.700
1024.973;   29.743;  -10.010;  610.760
1025.523;   29.178;  -10.550;  620.960
1026.072;   28.759;  -13.560;  606.420
1026.622;   29.028;  -15.120;  675.740
1027.172;   29.696;  -11.260;  715.660
1027.721;   28.538;  -11.410;  601.220
1028.270;   28.642;  -13.530;  663.400
1028.820;   28.863;  -13.680;  638.080
1029.369;   27.929;  -13.520;  612.700
1029.918;   28.071;  -10.980;  649.840
1030.468;   27.798;  -13.530;  564.780
1031.017;   28.235;  -13.170;  634.800
1031.566;   26.621;  -12.200;  608.900
1032.115;   27.434;   -9.960;  694.500
1032.664;   25.707;  -13.210;  596.480
1033.213;   27.294;  -12.500;  735.420
1033.762;   27.088;  -11.910;  635.620
1034.311;   25.628;   -9.640;  677.220
1034.860;   26.968;  -13.310;  691.000
1035.408;   26.893;  -11.830;  722.720
1035.957;   26.874;  -12.000;  719.540
1036.506;   24.788;  -11.690;  530.800
1037.055;   27.046;  -10.990;  844.320
1037.603;   25.145;  -15.120;  664.000
1038.152;   24.026;  -12.450;  534.760
1038.700;   24.734;  -10.560;  585.740
1039.249;   24.125;  -11.080;  681.220
1039.797;   25.220;  -12.540;  633.360
1040.345;   25.219;  -11.920;  705.420
1040.894;   24.198;  -11.410;  625.300
1041.442;   24.444;  -14.320;  632.200
1041.990;   23.288;  -16.240;  559.160
1042.538;   22.454;  -11.680;  536.180
1043.087;   23.017;  -10.760;  570.860
1043.635;   23.783;  -11.850;  670.500
1044.183;   23.789;  -15.480;  586.400
1044.731;   22.745;  -11.770;  576.000
1045.279;   22.444;  -13.090;  674.920
1045.827;   24.541;  -12.440;  892.400
1046.374;   21.772;  -13.840;  515.420
1046.922;   21.383;  -13.220;  590.580
1047.470;   22.654;  -10.230;  691.300
1048.018;   22.035;  -14.590;  647.960
1048.565;   23.453;  -12.050;  708.600
1049.113;   21.522;  -11.650;  557.000
1049.660;   21.336;  -10.510;  629.660
1050.208;   21.269;  -13.310;  675.640
1050.755;   20.435;  -15.900;  606.580
1051.303;   21.755;  -11.430;  686.820
1051.850;   20.453;   -8.480;  635.120
1052.397;   18.974;  -15.010;  473.960
1052.945;   20.248;  -13.960;  617.760
1053.492;   21.779;  -13.150;  741.840
1054.039;   21.624;   -9.630;  720.180
1054.586;   19.983;  -13.680;  557.240
1055.133;   20.448;  -14.570;  693.140
1055.680;   20.604;  -13.820;  646.620
1056.227;   18.838;  -11.730;  542.780
1056.774;   21.005;  -12.480;  794.980
1057.321;   18.830;  -13.930;  523.260
1057.868;   19.859;  -11.690;  651.320
1058.415;   18.556;   -9.520;  651.980
1058.961;   18.792;  -13.160;  678.940
1059.508;   19.188;  -12.920;  643.820
1060.055;   19.562;  -11.920;  581.780
1060.601;   19.459;  -11.500;  624.300
1061.148;   18.375;  -14.330;  616.820
1061.694;   18.630;  -16.870;  592.580
1062.241;   18.609;  -10.330;  596.320
1062.787;   17.900;  -10.620;  663.140
1063.334;   19.690;  -10.110;  808.560
1063.880;   18.617;  -13.400;  668.360
1064.426;   18.968;  -10.680;  706.820
1064.972;   16.872;   -9.920;  601.340
1065.518;   16.713;  -10.980;  566.640
1066.065;   17.899;  -14.890;  624.460
1066.611;   17.266;  -12.870;  598.800
1067.157;   17.446;  -12.950;  641.860
1067.703;   17.549;  -13.540;  668.480
1068.249;   17.324;  -13.540;  605.220
1068.794;   17.616;  -12.600;  626.880
1069.340;   15.749;  -10.620;  578.960
1069.886;   16.956;  -12.830;  590.700
1070.432;   16.066;  -14.870;  541.720
1070.977;   15.873;  -11.980;  601.080
1071.523;   15.886;   -8.200;  573.060
1072.068;   16.123;  -12.330;  582.000
1072.614;   16.206;  -16.370;  527.760
1073.160;   16.532;  -11.100;  687.040
1073.705;   14.407;  -10.480;  572.520
1074.250;   14.651;  -14.520;  559.900
1074.796;   15.980;  -11.460;  655.160
1075.341;   16.093;  -11.950;  664.100
1075.886;   15.515;  -11.460;  594.240
1076.431;   15.353;  -13.770;  649.880
1076.976;   14.779;  -12.680;  639.220
1077.521;   14.531;  -13.170;  583.080
1078.067;   13.868;  -10.860;  579.400
1078.612;   14.467;  -13.920;  661.620
1079.156;   14.302;  -13.880;  601.540
1079.701;   14.771;  -13.120;  693.260
1080.246;   14.651;   -9.940;  696.300
1080.791;   14.125;  -14.740;  625.020
1081.336;   14.511;  -13.750;  659.320
1081.880;   14.481;  -13.400;  649.680
1082.425;   13.101;  -12.220;  573.480
1082.970;   14.525;  -11.610;  717.040
1083.514;   13.285;  -13.580;  597.000
1084.059;   12.750;  -12.810;  586.720
1084.603;   12.766;  -12.320;  565.840
1085.147;   13.127;  -13.190;  645.220
1085.692;   13.523;  -12.480;  716.800
1086.236;   12.738;  -13.020;  503.140
1086.780;   14.003;   -9.190;  751.440
1087.325;   13.075;  -12.480;  654.620
1087.869;   12.601;  -12.450;  610.700
1088.413;   13.776;  -12.240;  705.040
1088.957;   10.791;   -9.020;  543.400
1089.501;   13.183;  -10.320;  766.640
1090.045;   12.366;  -12.720;  726.480
1090.589;   11.393;  -13.690;  569.920
1091.133;   11.576;  -10.020;  673.340
1091.676;   11.452;  -12.330;  591.940
1092.220;   11.295;  -14.970;  600.920
1092.764;   11.638;  -12.430;  706.960
1093.307;   11.867;   -9.800;  673.780
1093.851;   10.631;  -14.970;  556.540
1094.395;   11.495;  -15.310;  683.140
1094.938;   10.989;  -10.370;  632.520
1095.482;   10.519;  -11.050;  559.800
1096.025;   11.380;  -11.840;  710.880
1096.568;   11.618;  -12.840;  779.280
1097.112;    9.485;  -14.700;  508.180
1097.655;   10.740;   -8.720;  603.000
1098.198;    9.627;  -13.610;  600.180
1098.741;    9.713;  -13.350;  612.860
1099.285;   10.847;  -11.230;  657.300
1099.828;    8.620;  -11.840;  439.400
1100.371;    9.772;  -10.840;  608.160
1100.914;   10.473;  -14.190;  682.660
1101.457;   10.273;  -11.240;  679.900
1101.999;    8.335;  -11.270;  584.680
1102.542;    9.483;  -11.480;  641.440
1103.085;    9.136;  -11.750;  658.500
1103.628;   10.149;  -11.400;  762.060
1104.170;    9.043;  -10.490;  588.280
1104.713;    9.027;  -10.600;  646.700
1105.256;    9.036;  -14.360;  557.440
1105.798;    8.053;  -13.210;  499.980
1106.341;   10.196;  -10.270;  728.900
1106.883;    8.001;  -12.200;  521.340
1107.425;    7.893;  -13.110;  668.180
1107.968;    9.028;  -12.840;  612.380
1108.510;    8.964;   -6.480;  684.960
1109.052;    6.685;  -13.940;  612.620
1109.594;    7.417;  -13.690;  554.440
1110.136;    7.986;  -11.880;  643.220
1110.679;    7.087;   -9.500;  633.080
1111.221;    8.130;  -14.160;  604.460
1111.763;    8.270;  -13.980;  559.220
1112.304;    6.610;  -13.880;  547.140
1112.846;    7.495;  -12.210;  666.240
1113.388;   10.488;  -11.390;  942.180
1113.930;    7.728;  -14.540;  694.200
1114.472;    6.303;  -12.640;  606.540
1115.013;    5.714;  -11.620;  551.280
1115.555;    6.181;  -13.640;  587.100
1116.097;    6.433;  -15.380;  579.480
1116.638;    7.040;  -12.640;  684.600
1117.180;    6.480;   -9.850;  667.740
1117.721;    6.635;  -13.690;  568.580
1118.262;    7.158;  -12.680;  677.960
1118.804;    7.596;  -12.530;  637.340
1119.345;    6.051;  -11.690;  578.400
1119.886;    6.855;  -13.380;  704.040
1120.427;    5.518;  -14.070;  589.020
1120.969;    5.307;  -13.500;  597.920
1121.510;    4.954;  -11.480;  563.060
1122.051;    6.405;  -12.830;  723.580
1122.592;    5.261;  -14.290;  655.420
1123.133;    4.860;  -12.400;  547.940
1123.673;    7.011;  -10.130;  706.480
1124.214;    5.236;  -12.930;  612.460
1124.755;    6.508;  -14.380;  639.460
1125.296;    5.623;  -14.000;  627.320
1125.836;    6.061;  -10.070;  691.500
1126.377;    4.169;  -12.640;  599.660
1126.918;    5.657;  -12.960;  614.980
1127.458;    4.340;  -13.350;  622.220
1127.999;    4.675;  -10.750;  656.980
1128.539;    5.477;  -12.350;  694.240
1129.079;    4.512;  -14.860;  632.720
1129.620;    4.689;  -13.840;  558.100
1130.160;    3.645;  -12.330;  539.480
1130.700;    4.167;  -14.530;  640.840
1131.240;    5.057;  -12.530;  643.700
1131.781;    4.566;  -14.450;  619.680
1132.321;    3.753;   -9.790;  599.120
1132.861;    2.829;  -14.860;  564.200
1133.401;    3.310;  -14.290;  593.940
1133.941;    3.920;  -11.750;  626.280
1134.481;    3.223;   -9.920;  597.580
1135.020;    3.137;  -12.290;  609.160
1135.560;    3.607;  -11.650;  674.940
1136.100;    3.282;  -16.270;  501.160
1136.640;    2.645;  -10.890;  510.480
1137.179;    2.747;  -14.180;  537.960
1137.719;    3.376;  -16.250;  605.400
1138.258;    3.270;  -14.230;  587.360
1138.798;    3.571;   -9.090;  663.780
1139.337;    2.232;  -15.130;  482.840
1139.877;    3.505;  -13.680;  642.360
1140.416;    4.741;  -11.320;  878.060
1140.955;    2.101;  -10.860;  535.380
1141.494;    2.611;  -12.920;  669.280
1142.034;    2.019;  -13.930;  583.520
1142.573;    4.070;  -11.440;  646.280
1143.112;    2.007;  -12.000;  553.480
1143.651;    2.212;  -13.670;  536.480
1144.190;    3.897;  -12.730;  691.640
1144.729;    2.483;  -14.560;  607.420
1145.267;    2.327;  -11.830;  584.900
1145.806;    2.684;  -12.230;  637.040
1146.345;    1.261;  -14.130;  635.020
1146.884;    1.828;  -11.590;  622.500
1147.422;    1.072;  -12.550;  533.060
1147.961;    2.782;  -11.180;  708.460
1148.500;    2.487;  -11.510;  669.720
1149.038;    2.639;  -11.640;  632.500
1149.577;    1.905;  -10.130;  698.640
1150.115;   -0.074;  -13.970;  452.280
1150.653;    1.551;  -14.520;  607.340
1151.192;    0.769;  -12.810;  552.920
1151.730;    1.220;   -9.100;  652.560
1152.268;    0.509;  -12.220;  589.520
1152.806;    0.982;  -14.140;  571.180
1153.344;    0.535;  -12.350;  577.640
1153.882;    0.927;   -8.980;  600.060
1154.421;   -0.354;  -15.190;  470.620
1154.958;    0.043;  -15.210;  595.240
1155.496;    2.144;  -12.850;  645.280
1156.034;    0.498;   -9.940;  721.880
1156.572;    1.887;  -13.570;  667.060
1157.110;   -0.548;  -14.590;  473.940
1157.647;    0.974;  -13.030;  676.960
1158.185;   -0.051;  -12.140;  564.320
1158.723;   -0.894;  -14.390;  509.200
1159.260;    0.077;  -14.090;  701.700
1159.798;    1.288;  -11.920;  658.160
1160.335;   -0.180;  -11.110;  631.820

