
Integration time [ms]:   3.276
Averaging Nr. [scans]: 1000
Smoothing Nr. [pixels]: 0
Data measured with spectrometer [name]: 7414430SP
Wave   ;Sample   ;Dark     ;Reference
[nm]   ;[counts] ;[counts] ;[counts] 

288.544;  158.502;    7.793;  793.890
289.143;  161.782;    7.462;  681.602
289.742;  162.059;    8.602;  828.814
290.341;  149.041;    1.321;  789.841
290.940;  139.306;   -0.709;  730.702
291.538;  140.608;    0.881;  881.108
292.137;  141.093;    0.122;  792.581
292.736;  142.993;   -1.929;  975.101
293.335;  139.247;   -8.229;  735.086
293.934;  140.807;   -5.279;  781.677
294.532;  140.883;   -1.369; 1031.958
295.131;  127.515;   -7.641;  834.394
295.730;  126.378;   -8.420;  809.588
296.328;  123.623;   -5.611;  783.442
296.927;  123.674;   -5.781;  779.652
297.525;  124.839;   -6.361;  781.236
298.124;  116.742;  -11.382;  654.009
298.722;  120.334;   -7.641;  761.933
299.321;  117.952;   -6.811;  708.597
299.919;  114.594;   -6.991;  751.918
300.518;  111.028;  -10.362;  689.338
301.116;  113.067;   -9.581;  691.381
301.715;  114.532;   -4.891;  730.222
302.313;  112.096;   -8.801;  704.943
302.911;  107.629;   -8.522;  733.830
303.509;  112.334;   -6.171;  925.627
304.108;  109.955;   -7.311;  760.383
304.706;  110.783;   -8.321;  801.664
305.304;  104.184;  -10.222;  796.707
305.902;  107.751;   -6.021;  784.484
306.500;  103.907;   -4.971;  728.200
307.098;  103.765;   -7.061;  746.560
307.696;  101.601;   -8.801;  780.432
308.294;  101.715;   -6.411;  731.359
308.892;  103.701;   -2.901;  759.769
309.490;   99.646;   -5.041;  712.161
310.088;   97.720;   -5.002;  788.444
310.686;  102.393;   -2.041;  821.749
311.284;   97.986;   -2.351;  766.040
311.882;   95.641;   -4.422;  731.225
312.480;   92.359;   -4.192;  697.167
313.078;   93.037;   -1.172;  808.331
313.675;   94.410;   -2.601;  691.600
314.273;   89.676;   -1.312;  797.837
314.871;   88.798;   -3.942;  589.829
315.468;   86.264;   -2.802;  652.090
316.066;   89.936;   -0.701;  694.427
316.664;   82.384;   -4.362;  656.351
317.261;   86.990;   -2.872;  910.128
317.859;   82.228;   -2.022;  768.735
318.456;   82.264;   -0.531;  830.096
319.054;   78.697;   -3.912;  787.828
319.651;   77.014;   -4.752;  759.928
320.249;   74.945;   -2.602;  810.188
320.846;   73.580;   -0.821;  714.286
321.443;   71.552;   -4.642;  832.135
322.041;   68.959;   -5.002;  812.315
322.638;   65.142;   -3.982;  701.456
323.235;   67.174;   -3.411;  665.683
323.833;   63.699;   -7.361;  740.354
324.430;   59.658;   -8.611;  615.900
325.027;   59.201;   -4.061;  876.855
325.624;   59.311;   -4.031;  644.532
326.221;   55.862;   -7.481;  689.717
326.818;   55.601;   -5.281;  818.332
327.415;   58.276;   -7.460;  748.828
328.012;   58.157;   -5.510;  690.585
328.609;   56.779;   -7.880;  731.389
329.206;   54.380;   -8.331;  778.621
329.803;   54.970;   -5.121;  737.841
330.400;   57.680;   -4.510;  704.260
330.997;   58.476;   -6.441;  817.147
331.594;   56.782;   -8.831;  788.185
332.191;   61.482;   -7.621;  728.722
332.787;   66.120;   -4.591;  844.463
333.384;   66.049;   -7.412;  763.093
333.981;   64.727;   -8.293;  815.687
334.578;   67.249;   -7.052;  708.378
335.174;   69.642;   -3.102;  731.469
335.771;   69.063;   -5.943;  836.456
336.367;   66.455;   -7.393;  710.631
336.964;   71.526;   -4.063;  793.266
337.561;   68.048;   -3.813;  731.112
338.157;   64.470;   -4.654;  911.916
338.754;   62.739;   -7.934;  796.589
339.350;   61.034;   -4.414;  722.493
339.946;   63.373;   -4.664;  773.135
340.543;   55.712;   -6.375;  846.136
341.139;   48.288;   -9.815;  720.836
341.735;   45.293;   -4.526;  772.593
342.332;   44.389;   -4.895;  691.472
342.928;   44.071;   -4.295;  795.394
343.524;   37.589;   -5.476;  761.684
344.120;   33.895;   -5.856;  738.562
344.716;   37.078;   -2.155;  723.717
345.313;   35.577;   -6.275;  795.342
345.909;   29.548;   -8.815;  627.336
346.505;   30.813;   -5.305;  740.247
347.101;   31.786;   -2.674;  827.864
347.697;   31.670;   -4.344;  785.398
348.293;   26.876;   -9.975;  627.244
348.889;   27.206;   -5.774;  745.914
349.485;   26.395;   -5.004;  688.205
350.081;   27.743;   -4.704;  772.592
350.676;   23.270;   -6.635;  691.606
351.272;   25.880;   -4.504;  809.530
351.868;   26.250;   -3.914;  780.497
352.464;   24.288;   -9.044;  723.932
353.059;   20.328;   -8.314;  646.017
353.655;   22.772;   -7.024;  777.063
354.251;   23.677;   -5.343;  759.845
354.846;   18.825;   -8.604;  740.646
355.442;   16.289;   -6.945;  753.071
356.038;   18.188;   -7.564;  751.708
356.633;   18.221;   -5.814;  728.594
357.229;   15.717;   -7.364;  724.757
357.824;   14.609;   -8.024;  703.600
358.420;   13.507;   -9.384;  679.726
359.015;   13.613;   -5.104;  695.357
359.610;   15.040;   -6.854;  763.920
360.206;    8.674;  -10.185;  603.240
360.801;   10.869;   -7.054;  646.503
361.396;   13.137;   -5.034;  725.975
361.992;    8.974;   -8.284;  668.220
362.587;    6.347;   -8.625;  670.160
363.182;    8.486;   -7.674;  689.631
363.777;    9.077;   -5.164;  738.242
364.372;    8.864;   -8.604;  737.314
364.967;    4.357;   -9.055;  680.744
365.563;    8.980;   -6.114;  815.567
366.158;    5.941;   -5.814;  685.161
366.753;    6.585;   -7.854;  649.263
367.348;    4.948;   -7.804;  746.056
367.942;    4.150;   -7.954;  697.298
368.537;    4.011;   -4.984;  754.245
369.132;    3.024;   -8.564;  703.428
369.727;   -0.656;   -8.855;  638.079
370.322;    0.746;   -6.245;  580.186
370.917;    0.263;   -6.425;  710.646
371.511;    3.505;   -6.294;  861.834
372.106;    0.524;   -7.685;  776.964
372.701;   -3.065;   -7.335;  585.988
373.296;    2.331;   -4.564;  863.135
373.890;   -2.818;  -10.235;  647.840
374.485;   -4.846;   -7.885;  691.199
375.079;   -0.490;   -7.324;  738.685
375.674;    0.881;   -3.494;  812.970
376.268;   -3.618;   -8.525;  691.759
376.863;   -9.539;  -10.086;  580.327
377.457;   -2.958;   -7.025;  662.490
378.052;   -5.158;   -3.585;  764.884
378.646;   -6.329;   -7.595;  741.167
379.240;   -6.730;   -8.335;  721.176
379.835;   -6.749;   -5.785;  636.978
380.429;   -7.963;   -4.335;  562.557
381.023;   -7.901;   -6.805;  779.205
381.617;  -10.015;   -9.195;  680.106
382.212;   -7.242;   -6.905;  685.303
382.806;   -6.305;   -3.745;  760.690
383.400;  -10.358;   -7.745;  672.281
383.994;  -11.128;   -9.765;  664.870
384.588;   -8.019;   -6.564;  697.701
385.182;   -6.012;   -5.344;  726.624
385.776;   -7.710;   -8.514;  706.875
386.370;  -11.232;   -9.555;  681.968
386.964;   -9.970;   -8.715;  684.155
387.558;   -8.273;   -6.174;  598.360
388.152;  -11.940;   -8.725;  681.959
388.745;  -10.017;   -7.965;  814.707
389.339;   -8.465;   -5.924;  747.642
389.933;   -7.407;   -5.524;  695.370
390.527;   -8.594;   -7.114;  859.029
391.120;  -14.915;  -10.725;  595.318
391.714;  -11.858;   -8.035;  711.633
392.308;   -8.988;   -3.574;  780.253
392.901;  -12.606;   -7.245;  642.460
393.495;  -14.478;   -9.285;  595.414
394.089;  -11.973;   -5.895;  760.452
394.682;  -13.260;   -4.295;  697.188
395.275;  -13.324;   -9.875;  719.927
395.869;  -14.677;   -8.485;  667.314
396.462;  -13.047;   -7.455;  616.609
397.056;   -9.068;   -5.424;  776.621
397.649;  -13.991;   -6.605;  731.575
398.242;  -11.259;   -8.224;  712.645
398.836;  -11.557;   -7.474;  766.408
399.429;  -11.553;   -7.094;  631.041
400.022;  -15.156;   -9.475;  665.902
400.615;  -12.528;   -7.145;  805.609
401.208;  -11.303;   -7.174;  691.451
401.802;  -13.051;   -5.515;  699.329
402.395;  -13.938;   -9.875;  683.502
402.988;  -15.600;   -8.845;  696.627
403.581;  -12.032;   -8.874;  646.878
404.174;   -8.752;   -5.324;  686.568
404.767;  -12.736;   -9.575;  638.583
405.360;  -15.404;  -10.965;  621.445
405.953;   -9.546;   -8.764;  759.034
406.545;   -9.663;   -7.514;  725.342
407.138;  -12.924;  -10.025;  618.350
407.731;  -12.317;  -10.034;  613.303
408.324;   -8.400;   -9.374;  660.554
408.917;   -9.410;   -6.534;  681.864
409.509;  -11.234;   -8.004;  740.396
410.102;  -13.384;   -9.875;  643.948
410.695;   -7.574;   -8.604;  665.758
411.287;   -7.728;   -6.794;  599.821
411.880;   -9.362;   -9.334;  585.421
412.472;  -12.100;  -10.254;  613.092
413.065;   -9.482;   -6.714;  629.408
413.657;   -6.919;   -7.234;  576.678
414.250;   -6.951;  -10.544;  646.681
414.842;   -9.410;   -9.744;  676.353
415.434;   -7.393;   -6.994;  570.463
416.027;   -2.736;   -5.893;  652.196
416.619;   -4.811;   -7.264;  713.400
417.211;   -5.350;  -10.374;  599.352
417.804;   -1.578;   -7.993;  628.499
418.396;   -5.954;   -7.234;  607.643
418.988;   -2.877;   -9.443;  659.238
419.580;   -6.984;  -10.724;  568.276
420.172;   -4.891;  -10.323;  536.196
420.764;   -0.708;   -8.793;  672.482
421.356;   -1.155;  -11.143;  636.898
421.948;   -3.050;   -8.293;  677.661
422.540;    2.677;   -7.893;  680.027
423.132;    1.889;   -7.082;  600.641
423.724;   -1.435;   -8.653;  561.267
424.316;    1.100;  -10.213;  621.345
424.908;    4.102;   -9.762;  591.517
425.500;    4.522;   -5.572;  647.978
426.092;    5.611;   -8.422;  648.268
426.683;    3.575;   -9.283;  684.836
427.275;    6.257;   -7.852;  641.471
427.867;    8.920;   -5.272;  668.948
428.458;    8.824;   -7.682;  732.344
429.050;    7.532;  -10.612;  680.749
429.642;    8.829;   -9.882;  743.124
430.233;   10.273;   -6.962;  569.356
430.825;   11.041;   -6.842;  724.809
431.416;    8.758;   -9.672;  698.241
432.008;   12.136;   -6.552;  651.723
432.599;   12.612;   -6.891;  656.073
433.190;   10.116;  -10.912;  637.670
433.782;    9.447;  -11.172;  590.395
434.373;   16.431;   -6.061;  884.765
434.964;   15.542;   -8.251;  602.920
435.556;   12.473;   -9.722;  634.537
436.147;   16.171;   -9.082;  758.490
436.738;   15.256;   -8.041;  701.099
437.329;   21.297;   -7.341;  721.723
437.920;   14.253;   -8.162;  666.688
438.511;   14.515;  -11.802;  564.526
439.103;   20.466;  -10.191;  623.998
439.694;   22.813;   -7.601;  681.583
440.285;   23.129;   -8.541;  764.432
440.876;   22.437;   -9.751;  845.738
441.466;   20.249;   -9.401;  575.162
442.057;   26.251;   -7.760;  665.814
442.648;   24.546;   -9.971;  746.255
443.239;   23.310;  -11.001;  620.477
443.830;   28.189;   -7.990;  704.958
444.421;   30.086;   -7.910;  655.474
445.011;   26.503;   -8.131;  693.619
445.602;   26.194;   -7.111;  743.126
446.193;   27.853;  -10.920;  488.117
446.783;   31.916;   -6.500;  640.397
447.374;   27.928;   -8.671;  692.759
447.964;   29.428;  -10.781;  713.770
448.555;   36.738;   -9.650;  822.742
449.145;   33.316;   -8.660;  662.853
449.736;   34.607;   -8.990;  803.179
450.326;   33.687;   -9.500;  713.626
450.917;   39.856;   -8.680;  675.324
451.507;   38.680;   -7.520;  600.661
452.097;   39.452;   -8.590;  746.267
452.688;   40.846;  -11.340;  742.160
453.278;   40.188;  -10.100;  566.840
453.868;   44.007;   -6.019;  793.550
454.458;   42.194;   -9.440;  651.141
455.048;   43.567;  -10.560;  711.783
455.639;   43.511;  -11.799;  567.096
456.229;   47.757;   -6.899;  710.694
456.819;   49.535;   -7.389;  751.158
457.409;   50.750;  -11.119;  773.993
457.999;   52.834;   -9.289;  737.505
458.589;   53.060;   -6.139;  686.606
459.179;   53.303;   -8.729;  717.658
459.769;   50.464;   -9.789;  627.099
460.358;   55.739;  -10.259;  797.262
460.948;   54.704;   -7.299;  689.503
461.538;   56.968;  -10.289;  660.677
462.128;   55.088;  -11.269;  664.934
462.717;   61.468;   -9.368;  710.326
463.307;   64.922;   -7.908;  705.846
463.897;   60.543;   -9.599;  656.942
464.486;   60.221;   -9.769;  837.128
465.076;   64.790;   -8.048;  733.776
465.666;   68.125;   -9.358;  652.900
466.255;   65.647;   -7.919;  785.651
466.845;   64.772;  -11.689;  666.749
467.434;   67.510;   -7.818;  725.873
468.023;   68.988;   -7.678;  658.357
468.613;   66.560;  -10.939;  713.946
469.202;   70.997;  -10.118;  646.507
469.791;   75.093;   -9.108;  737.811
470.381;   77.382;   -6.058;  742.813
470.970;   76.827;  -10.428;  711.099
471.559;   76.509;  -10.268;  733.291
472.148;   78.831;   -8.448;  675.737
472.738;   82.356;   -6.917;  765.466
473.327;   82.048;  -11.978;  637.529
473.916;   81.552;  -11.888;  737.446
474.505;   85.987;   -9.437;  751.703
475.094;   89.013;   -6.747;  806.570
475.683;   88.314;   -9.367;  797.699
476.272;   89.196;  -12.637;  730.632
476.861;   90.733;  -10.027;  706.754
477.449;   98.323;   -8.716;  728.487
478.038;   92.309;   -9.577;  692.513
478.627;   93.773;   -9.718;  714.852
479.216;   99.793;   -8.947;  769.441
479.805;  103.840;   -6.256;  783.375
480.393;  102.990;   -7.937; 1008.945
480.982;  101.510;   -7.717;  874.501
481.571;  109.069;   -9.266;  858.333
482.159;  108.735;   -7.636;  705.386
482.748;  108.729;   -9.667;  821.385
483.336;  113.707;  -10.376;  858.209
483.925;  114.389;   -7.147;  774.373
484.513;  121.437;   -7.996;  758.962
485.102;  118.299;  -10.027;  810.965
485.690;  127.957;  -10.446; 1011.050
486.278;  129.004;   -8.446;  979.329
486.867;  129.002;   -6.356;  809.662
487.455;  131.848;   -9.136;  898.229
488.043;  133.995;  -10.646;  748.361
488.631;  142.287;   -7.456; 1005.079
489.220;  146.147;   -6.636;  908.626
489.808;  146.277;  -11.036;  741.415
490.396;  154.680;  -10.246;  914.645
490.984;  161.618;   -8.556;  830.161
491.572;  173.629;   -5.886;  940.315
492.160;  181.079;   -9.486;  919.081
492.748;  194.744;  -10.976;  884.341
493.336;  216.688;   -8.776; 1019.693
493.924;  247.973;   -5.465;  958.077
494.512;  281.067;   -9.986; 1066.638
495.100;  330.570;  -10.636; 1103.280
495.687;  393.170;  -10.885; 1206.373
496.275;  449.721;   -8.126; 1150.796
496.863;  518.054;  -10.586; 1281.171
497.451;  635.346;  -11.926; 1386.805
498.038;  748.313;  -10.885; 1556.729
498.626;  846.370;   -6.315; 1741.407
499.214; 1007.696;   -7.326; 2016.609
499.801; 1228.818;  -11.906; 2220.633
500.389; 1484.063;  -10.466; 2312.494
500.976; 1733.149;   -5.236; 2744.849
501.564; 2158.916;   -8.936; 3148.565
502.151; 2637.345;  -13.176; 3515.999
502.738; 3159.752;  -10.646; 3971.274
503.326; 3570.125;   -9.525; 4403.796
503.913; 3869.098;  -10.856; 5161.749
504.500; 4363.692;  -11.586; 5986.420
505.088; 4700.162;  -10.336; 6381.201
505.675; 5166.917;   -6.355; 6925.547
506.262; 5635.920;   -9.046; 7619.060
506.849; 6137.448;  -10.416; 8733.969
507.436; 6597.983;  -10.305; 9790.121
508.023; 7053.230;   -5.496; 9985.472
508.610; 7961.537;   -7.856;10434.618
509.197; 9327.597;  -10.097;11198.435
509.784;10745.171;  -10.886;12391.194
510.371;12100.127;   -9.315;13603.713
510.958;12953.851;   -9.936;14426.586
511.545;13560.177;   -9.326;15243.775
512.132;14182.591;  -10.075;15945.876
512.719;14323.627;   -7.796;16340.369
513.305;15137.214;  -10.606;18011.766
513.892;16471.828;  -11.486;19754.971
514.479;18271.439;   -9.126;20967.805
515.066;19871.484;   -6.026;22299.793
515.652;20168.998;   -8.466;22908.660
516.239;21226.479;  -10.886;23798.875
516.825;23365.113;  -11.496;25567.275
517.412;25245.873;   -5.796;28154.959
517.998;27202.418;  -10.506;28344.111
518.585;26876.613;  -10.076;27134.219
519.171;25403.703;   -8.315;27268.576
519.758;26123.689;   -8.596;28964.129
520.344;27307.617;   -8.466;30664.494
520.930;29792.023;  -11.006;32550.605
521.516;30010.514;  -10.495;35422.895
522.103;28413.277;   -5.526;38280.004
522.689;28737.125;   -8.746;37835.117
523.275;29950.543;  -11.376;37288.613
523.861;30885.682;  -11.156;37281.395
524.447;31962.594;   -8.135;37846.949
525.033;30593.787;   -7.896;38321.949
525.619;30830.225;  -12.476;38579.285
526.205;34161.082;   -9.516;40622.875
526.791;36645.137;   -6.926;42258.836
527.377;39148.992;   -8.346;42966.902
527.963;41295.906;   -8.717;42018.949
528.549;40150.051;  -11.016;42476.828
529.135;40241.602;   -8.536;41854.852
529.721;39802.027;   -9.666;41237.711
530.306;37962.992;  -10.066;41259.445
530.892;37826.730;  -11.356;41506.047
531.478;37051.098;   -6.596;43559.613
532.063;37353.676;   -8.836;47695.563
532.649;41144.324;  -10.047;50808.324
533.235;42686.598;   -9.746;51787.500
533.820;41768.570;   -6.566;52145.035
534.406;40638.410;  -10.817;51133.488
534.991;43465.719;   -9.416;49996.805
535.576;44652.703;   -9.036;48882.852
536.162;44848.805;   -6.156;46942.285
536.747;45777.301;  -11.607;45711.746
537.333;45940.246;  -11.787;48510.180
537.918;45516.625;  -12.437;50439.891
538.503;46326.582;   -7.196;50863.711
539.088;44006.777;  -10.556;50906.922
539.673;42233.375;   -8.767;52621.965
540.259;42534.387;  -10.026;52368.094
540.844;42808.262;   -7.416;50879.109
541.429;39389.816;   -9.467;52077.777
542.014;36428.473;   -9.527;52716.695
542.599;37679.906;   -9.946;52363.281
543.184;43148.641;   -7.927;53187.137
543.769;46513.699;   -9.297;54697.605
544.354;46205.383;  -10.127;53913.914
544.938;45266.520;   -9.267;49680.164
545.523;47672.520;   -6.506;47386.277
546.108;51683.961;   -9.787;49151.949
546.693;51231.602;  -11.587;51384.637
547.278;50954.523;  -10.986;51853.254
547.862;47507.352;   -8.206;51173.750
548.447;44620.172;  -10.067;51691.395
549.031;45286.871;   -9.637;52456.703
549.616;46252.449;   -9.926;52714.516
550.201;45240.219;   -6.347;52414.598
550.785;44555.855;   -7.917;52355.059
551.370;45411.063;  -10.867;54589.453
551.954;46274.691;   -9.047;58267.348
552.538;47537.223;   -7.827;59062.176
553.123;47350.430;  -10.287;58115.285
553.707;43071.941;  -12.178;56556.285
554.291;44046.109;   -8.717;56201.668
554.876;47366.164;   -7.457;55335.762
555.460;48313.074;  -10.387;54155.703
556.044;49198.988;   -9.618;53721.484
556.628;48374.672;  -11.567;53731.016
557.212;46324.414;   -8.097;54312.531
557.796;47486.664;  -11.077;53797.773
558.380;45328.293;  -11.108;56145.984
558.964;44046.855;   -9.057;57277.930
559.548;44099.977;   -6.977;56459.641
560.132;43293.938;  -11.457;54434.543
560.716;42209.363;  -11.378;54800.617
561.300;43095.648;   -9.577;57606.945
561.884;45014.156;   -7.127;58972.445
562.467;45771.297;   -7.118;57327.570
563.051;45466.242;  -13.358;54962.434
563.635;43324.047;  -10.178;52594.473
564.219;42791.441;   -7.837;50610.410
564.802;42283.668;  -11.398;49551.180
565.386;43220.059;  -12.788;48370.953
565.969;43930.992;   -9.077;48178.871
566.553;44133.926;   -6.207;49957.305
567.136;41423.578;   -8.568;50369.594
567.720;40504.133;  -11.868;49492.004
568.303;40696.355;   -8.268;50616.352
568.887;39415.203;   -8.698;50727.148
569.470;39489.668;   -6.808;51698.379
570.053;38151.367;  -13.188;52122.078
570.637;36653.945;  -12.037;52536.438
571.220;35988.820;   -8.577;51186.098
571.803;36543.105;   -8.498;51032.762
572.386;39132.820;  -10.498;49609.887
572.969;40798.438;   -9.388;48285.926
573.552;37216.500;   -8.338;47624.285
574.135;35240.066;   -8.518;45498.641
574.718;32056.301;  -13.628;41970.434
575.301;31542.834;  -10.893;41447.137
575.884;31029.365;   -8.158;40923.836
576.467;35805.348;  -10.328;45267.723
577.050;34304.848;  -13.058;48175.543
577.633;33270.797;   -9.458;47729.328
578.216;34690.961;   -8.928;47579.793
578.799;35830.828;   -9.358;47820.996
579.381;35318.840;  -11.388;48115.551
579.964;32508.352;  -11.718;47333.766
580.547;32525.381;   -8.588;46668.969
581.129;34009.469;   -8.859;44466.141
581.712;34238.402;  -10.729;44164.922
582.294;35487.840;  -11.118;46477.855
582.877;33367.195;   -5.218;48244.254
583.459;33318.902;   -8.679;47437.895
584.042;35290.547;  -10.709;46943.219
584.624;37642.320;  -11.669;46792.227
585.206;36622.961;   -8.218;46557.250
585.789;35189.891;  -10.569;45793.773
586.371;35543.246;  -11.859;43836.391
586.953;33963.449;  -10.719;42972.492
587.536;35373.582;   -7.198;42487.211
588.118;36750.297;   -8.720;42086.414
588.700;36137.391;  -10.439;43389.930
589.282;36260.961;   -9.198;43646.039
589.864;35075.379;   -9.199;43438.109
590.446;32776.207;  -11.319;43151.926
591.028;32427.859;  -11.159;42781.867
591.610;32425.676;  -11.779;42839.098
592.192;29590.346;   -7.668;42820.402
592.774;30444.627;  -11.949;40724.277
593.356;31529.029;  -12.129;39874.789
593.937;29526.416;  -10.669;39980.648
594.519;30836.992;   -6.509;42069.633
595.101;32754.563;  -10.849;42976.031
595.683;31678.855;  -11.679;44084.441
596.264;31245.537;   -9.049;43478.797
596.846;33033.910;   -8.849;43803.672
597.427;33122.266;   -9.570;42986.934
598.009;34056.316;  -12.620;42832.219
598.591;33328.906;  -10.039;42580.086
599.172;32437.578;  -10.369;43061.805
599.753;30758.592;   -9.140;41691.469
600.335;30646.350;  -11.430;40692.520
600.916;31286.555;   -9.939;39982.422
601.498;30121.400;   -8.479;40318.617
602.079;28807.170;  -10.920;40670.609
602.660;30761.350;  -11.480;41450.898
603.241;32338.980;  -11.699;41137.738
603.823;32762.980;   -9.579;38868.797
604.404;32352.172;  -10.620;38182.785
604.985;31012.057;  -10.450;38078.047
605.566;30401.984;   -9.129;38056.633
606.147;30297.527;   -7.510;37020.418
606.728;31421.844;  -10.660;37883.359
607.309;32374.039;  -11.740;38748.273
607.890;31978.779;   -9.759;38850.230
608.471;30527.939;   -8.250;37457.918
609.051;30934.770;   -9.240;36066.457
609.632;29208.094;  -12.120;35991.074
610.213;27992.879;   -9.110;37402.641
610.794;29717.318;   -8.030;38383.363
611.374;32232.240;   -8.110;40562.387
611.955;32162.158;  -13.560;38533.727
612.536;29521.322;  -11.400;36951.789
613.116;28355.201;   -8.070;37197.891
613.697;30458.740;  -10.830;38411.125
614.277;31676.646;  -11.641;38673.938
614.858;31015.861;  -13.310;37075.863
615.438;29489.318;   -7.460;35092.906
616.019;27847.799;   -7.601;33666.301
616.599;28635.930;  -12.020;34189.023
617.179;30335.791;  -11.780;36952.047
617.760;32962.426;   -8.570;39582.574
618.340;33088.375;  -11.471;38943.977
618.920;31605.535;  -11.170;37594.156
619.500;33471.977;  -11.071;37866.938
620.080;33697.359;   -7.750;37869.043
620.660;31955.455;  -12.711;36868.617
621.241;30558.160;  -10.211;36352.309
621.821;29536.561;  -10.961;35459.520
622.401;28602.111;   -7.720;35207.414
622.980;29783.648;   -8.981;35980.422
623.560;30197.068;   -9.331;37351.328
624.140;28989.148;   -9.850;34388.582
624.720;26507.359;   -7.451;32368.764
625.300;24919.250;   -9.070;32638.629
625.880;28426.766;  -12.601;34599.035
626.459;30250.688;  -11.751;36831.738
627.039;30809.459;   -9.281;38299.098
627.619;32685.094;   -8.801;38289.574
628.198;32069.215;  -12.071;37220.695
628.778;30920.471;   -9.461;37632.563
629.357;31961.270;   -8.491;38003.012
629.937;32145.721;   -9.721;38402.039
630.516;32297.236;   -9.951;37868.801
631.096;32621.264;  -11.731;35760.410
631.675;33843.395;   -8.572;35225.219
632.254;33458.676;  -11.282;35130.289
632.834;32930.598;  -13.322;35794.570
633.413;32707.322;  -10.301;35788.922
633.992;31934.127;   -8.582;34532.863
634.571;33294.781;   -8.352;33590.113
635.151;33375.813;  -11.912;34943.863
635.730;32549.506;  -10.511;35352.523
636.309;34643.984;   -7.731;35366.605
636.888;32824.090;   -9.952;36165.637
637.467;31003.305;  -11.672;37515.902
638.046;30936.857;   -8.901;39288.695
638.625;31722.553;   -7.912;38279.699
639.204;32142.211;  -10.022;37741.598
639.782;30504.314;  -12.252;38364.551
640.361;28706.473;  -10.041;36740.621
640.940;27677.311;  -11.161;34950.082
641.519;28814.352;   -9.701;34137.398
642.097;30654.207;  -11.271;35654.258
642.676;32213.908;   -8.651;35637.957
643.255;33321.473;   -8.711;36567.074
643.833;30860.939;   -9.581;37809.434
644.412;28548.498;  -13.711;37337.293
644.990;30409.813;  -11.811;37018.531
645.569;33046.496;   -9.411;36518.469
646.147;32431.533;  -10.291;36186.430
646.726;31284.082;  -12.401;36267.688
647.304;31198.119;  -10.411;36647.625
647.882;30405.037;   -9.651;39286.742
648.461;31741.457;   -9.631;39157.703
649.039;35126.766;  -11.881;35412.883
649.617;35524.117;   -9.661;34744.918
650.195;33251.246;   -9.301;35403.098
650.773;32173.918;  -10.511;35053.797
651.352;31390.404;  -11.521;33756.816
651.930;28829.455;  -12.211;31868.773
652.508;25662.152;   -9.171;33121.551
653.086;26568.277;   -9.371;33564.793
653.663;32213.973;  -13.161;34054.668
654.241;35901.602;  -13.031;35693.309
654.819;36832.977;   -9.371;36422.906
655.397;36887.531;  -10.511;38213.484
655.975;33524.918;  -10.371;39507.625
656.553;30599.617;  -10.051;39498.223
657.130;29099.408;  -10.061;40395.480
657.708;27123.123;   -9.561;39242.020
658.286;24351.014;  -11.511;38920.020
658.863;26408.789;  -10.261;40202.898
659.441;30334.400;   -7.531;39677.938
660.018;32315.336;   -9.501;40413.355
660.596;31508.727;  -13.301;39931.414
661.173;31003.145;  -11.211;39604.531
661.750;32635.061;   -9.951;39700.070
662.328;31720.309;   -9.390;39292.809
662.905;30599.039;  -11.330;38235.648
663.482;28197.674;   -9.050;36212.305
664.060;25449.502;   -8.240;35944.945
664.637;26274.861;  -10.050;35170.785
665.214;29699.934;  -11.760;34197.523
665.791;30319.986;  -10.530;34549.520
666.368;29094.645;   -9.690;35118.578
666.945;30178.281;   -9.320;36019.418
667.522;30562.111;  -11.860;36048.438
668.099;31809.168;  -10.770;36243.914
668.676;31829.387;   -6.260;35958.875
669.253;34421.121;   -7.000;37384.730
669.830;35903.211;  -10.190;36779.629
670.407;32898.090;   -9.550;35231.289
670.984;33318.277;   -9.260;35544.270
671.560;30726.117;   -9.280;35466.867
672.137;26510.613;  -11.810;34280.863
672.714;28182.135;  -11.490;34632.863
673.290;31819.061;   -7.740;35135.422
673.867;31306.859;  -10.660;36114.480
674.443;31475.377;  -12.230;36152.859
675.020;31288.305;  -10.450;35327.238
675.596;30142.766;   -9.260;35795.176
676.173;29117.707;  -10.780;35430.355
676.749;28622.729;  -13.690;33549.516
677.326;28490.982;  -11.980;32210.012
677.902;27882.119;   -8.630;32068.871
678.478;29550.520;  -10.730;32583.891
679.054;30477.551;  -10.520;32088.928
679.631;29921.035;  -11.920;30978.848
680.207;29844.113;   -7.490;33160.887
680.783;31613.375;   -9.860;35570.363
681.359;33001.352;  -13.380;36125.184
681.935;33567.699;  -12.480;35240.922
682.511;32795.484;   -7.900;34429.961
683.087;31677.654;   -7.710;34463.680
683.663;31282.406;  -11.480;34648.898
684.239;30122.709;  -14.090;34546.457
684.815;29125.504;   -7.560;35586.375
685.390;29464.107;   -9.910;35821.895
685.966;30703.250;  -11.159;35085.871
686.542;32203.646;  -11.169;34198.230
687.118;33726.402;   -5.959;32847.707
687.693;32691.492;  -10.329;32794.027
688.269;33363.332;  -12.059;33072.367
688.844;33517.355;  -10.909;33141.664
689.420;30914.221;   -8.019;33965.742
689.995;29579.125;   -8.399;34655.523
690.571;31021.568;  -10.949;33576.742
691.146;30584.350;   -9.619;32657.219
691.722;29018.441;   -8.999;32526.979
692.297;28345.854;  -11.589;33014.617
692.872;28449.385;  -11.739;34012.254
693.448;31320.178;  -11.059;34237.434
694.023;31986.766;  -10.139;34142.672
694.598;29855.029;   -9.029;34132.031
695.173;30813.137;  -13.319;34205.250
695.748;31429.266;  -10.169;32882.488
696.323;29150.189;   -8.339;32864.906
696.898;27503.563;   -8.169;33170.004
697.473;28051.527;  -12.309;32432.984
698.048;28055.965;  -10.989;31649.303
698.623;26731.445;   -9.329;30778.141
699.198;27685.813;   -9.849;31140.119
699.773;28820.941;  -12.329;31764.299
700.348;30178.697;  -10.389;31780.816
700.922;30307.592;   -9.269;32046.375
701.497;31134.242;   -9.329;32603.574
702.072;32320.563;  -10.789;34799.871
702.646;31404.943;  -10.839;35793.172
703.221;30709.164;   -9.099;35201.590
703.795;32708.330;  -10.939;34764.527
704.370;30357.797;  -12.859;34307.367
704.944;28778.859;  -11.559;33509.887
705.519;29628.873;   -7.939;31388.584
706.093;31778.154;  -10.499;31340.104
706.668;34030.195;  -11.289;32630.281
707.242;33482.613;  -11.509;32728.779
707.816;31387.465;   -9.639;32947.238
708.390;30038.576;  -11.429;33277.855
708.965;29332.574;  -11.869;33834.336
709.539;30880.428;  -11.689;33709.273
710.113;31309.152;  -10.478;33044.313
710.687;30497.635;  -10.228;31953.992
711.261;29710.236;  -13.698;30505.949
711.835;30153.801;  -13.378;30262.369
712.409;29285.889;   -9.698;31254.447
712.983;28628.029;  -11.898;32754.986
713.557;31021.436;  -15.138;34018.824
714.131;29286.531;  -14.098;34579.625
714.704;28817.963;   -9.958;33890.262
715.278;30945.193;  -10.028;33531.102
715.852;29434.262;  -11.148;33601.660
716.425;28046.732;   -9.068;33515.117
716.999;26498.166;  -10.038;33185.555
717.573;26141.033;   -9.798;33905.996
718.146;25586.318;  -12.378;35199.293
718.720;26089.842;  -11.918;35060.551
719.293;26701.457;   -8.088;34973.230
719.867;29228.002;  -10.888;36394.449
720.440;31000.096;  -11.938;36663.008
721.013;31605.340;  -12.818;35102.426
721.587;29356.191;  -10.298;33985.266
722.160;27514.451;  -10.048;33524.965
722.733;26849.523;  -12.108;32987.043
723.306;27180.527;  -10.818;33066.301
723.880;28984.043;   -8.908;33399.500
724.453;28496.369;   -9.878;33468.297
725.026;28612.270;  -11.188;33816.637
725.599;31423.992;  -11.678;32797.996
726.172;30906.826;   -9.618;33187.434
726.745;28173.295;   -8.258;35136.613
727.318;27763.195;  -12.978;35751.730
727.891;27353.605;  -12.148;35890.430
728.463;26477.449;   -8.968;34822.090
729.036;26266.123;  -10.188;32895.086
729.609;26251.477;  -11.788;31823.225
730.182;24282.799;  -11.788;31445.283
730.754;22906.564;  -10.268;32373.223
731.327;23045.180;   -9.998;33676.820
731.900;24228.080;  -12.228;33417.000
732.472;24217.025;  -13.848;31978.498
733.045;23421.707;   -8.698;30368.777
733.617;22931.395;  -10.607;30574.215
734.190;24833.299;  -11.507;31280.975
734.762;25833.541;  -13.647;31674.412
735.334;27123.162;   -9.767;31247.291
735.907;27577.729;   -9.897;29876.211
736.479;27188.475;  -11.637;29808.488
737.051;28062.742;   -9.567;30233.547
737.623;27464.258;   -8.187;31469.086
738.195;26232.580;  -11.187;31784.225
738.768;25080.834;  -12.337;32120.523
739.340;23486.242;  -12.227;32094.342
739.912;22645.025;  -11.057;31312.680
740.484;22634.004;  -10.207;31946.238
741.056;22340.875;  -10.047;32984.059
741.628;23395.262;  -13.627;33897.715
742.199;24304.602;   -7.177;33213.016
742.771;26457.018;  -10.797;31369.113
743.343;27278.717;  -11.997;31865.473
743.915;26999.951;  -12.867;32388.631
744.487;24420.758;   -7.617;31079.568
745.058;21550.930;   -9.557;30570.107
745.630;22689.318;   -9.877;29970.127
746.201;24405.475;  -14.177;29186.766
746.773;24979.197;   -9.237;28805.723
747.344;23048.141;   -9.847;29591.223
747.916;21239.787;  -11.657;31412.201
748.487;22249.926;  -10.587;32194.898
749.059;23999.154;   -8.707;32533.719
749.630;24307.779;  -10.537;32158.518
750.201;23647.424;  -11.687;30855.395
750.773;22273.865;  -11.647;28622.555
751.344;21952.412;   -7.147;28405.732
751.915;24135.898;   -9.757;28461.551
752.486;25393.584;  -12.427;27842.850
753.057;24286.787;  -12.227;27845.008
753.628;24316.662;  -10.417;27728.107
754.199;23868.492;  -11.767;27381.086
754.770;23491.412;  -11.187;25882.203
755.341;22460.939;  -10.507;25886.184
755.912;20763.264;   -9.387;26050.861
756.483;19253.422;  -10.647;26798.779
757.054;19721.014;  -11.837;27048.238
757.625;19760.031;  -12.716;26294.838
758.195;19517.885;   -9.666;26142.076
758.766;19752.896;   -8.656;26392.234
759.337;19251.953;  -12.856;26334.594
759.907;19034.924;  -13.366;27579.652
760.478;18775.123;   -8.576;28352.770
761.048;19802.090;  -10.526;27325.088
761.619;19944.479;  -11.116;26460.428
762.189;18670.176;  -12.136;26029.826
762.760;18323.246;   -9.456;26430.145
763.330;18707.318;   -7.136;26670.902
763.900;18851.717;  -11.786;26603.021
764.471;18358.227;  -11.546;25542.740
765.041;17437.135;   -8.096;24358.459
765.611;16702.674;   -8.876;23991.297
766.181;16671.428;  -12.196;24470.236
766.751;16427.387;  -11.636;24845.975
767.321;17419.438;  -10.156;24533.633
767.891;16946.211;  -11.766;24916.492
768.461;17219.236;  -14.936;24776.771
769.031;18267.459;  -12.356;24757.988
769.601;18838.941;   -7.526;24181.088
770.171;18572.631;  -10.766;23670.387
770.741;17744.666;  -13.176;22960.045
771.311;17314.420;  -10.616;22917.523
771.880;17666.973;   -9.576;23562.941
772.450;17343.609;  -10.336;24216.500
773.020;16956.865;  -13.516;24140.398
773.589;17530.289;  -13.466;24414.857
774.159;17349.934;   -8.686;23858.717
774.729;16072.320;   -9.476;22942.135
775.298;14321.453;  -13.666;22324.033
775.867;13927.018;  -11.716;21140.313
776.437;14063.550;   -9.906;20838.092
777.006;13390.374;  -12.166;20599.510
777.576;12837.007;  -12.356;20508.809
778.145;12748.226;  -11.646;20732.947
778.714;13164.295;   -8.226;21062.465
779.283;14126.356;   -9.556;20949.664
779.853;14759.076;  -14.116;20508.623
780.422;14208.193;  -11.506;20649.082
780.991;13757.381;   -9.556;21527.520
781.560;13441.233;   -9.095;22632.658
782.129;13314.115;  -12.135;23048.277
782.698;13221.845;  -10.865;23438.555
783.267;12876.872;   -9.335;23267.734
783.836;12988.065;  -11.045;22415.133
784.404;13719.719;  -13.865;20443.152
784.973;13034.121;  -13.095;19699.150
785.542;11696.543;  -11.575;19763.828
786.111;11034.281;   -9.705;20341.408
786.679;11709.169;  -12.105;20207.967
787.248;11961.238;  -12.455;19516.465
787.817;11615.477;  -11.535;18900.363
788.385;11744.257;   -9.765;17879.121
788.954;11787.056;  -14.005;17658.301
789.522;11253.714;  -11.955;17788.879
790.090;11478.747;  -10.135;18118.277
790.659;12428.965;  -10.975;18338.736
791.227;12335.553;  -13.375;18508.615
791.795;11719.486;  -12.375;17898.254
792.364;11198.487;  -10.725;17295.133
792.932;11358.362;   -9.715;16822.051
793.500;11512.309;  -12.675;17040.148
794.068;11312.043;  -13.495;17179.787
794.636;10185.889;  -10.885;16664.246
795.204; 9160.897;  -11.045;16524.545
795.772; 9841.758;  -13.175;17274.564
796.340;11007.455;  -12.445;17891.002
796.908;10767.480;   -9.735;17648.561
797.476;11088.113;   -9.815;17064.080
798.044;11887.749;  -13.985;16672.777
798.612;11718.451;  -13.115;17023.996
799.180;10476.288;  -10.185;16561.615
799.747; 9447.162;   -9.055;15962.773
800.315; 8763.160;  -12.385;15296.992
800.883; 8998.596;  -15.035;14801.771
801.450; 9339.411;  -10.365;14534.430
802.018; 9480.667;   -9.855;14173.248
802.585; 9649.975;  -11.905;14029.547
803.153; 9218.865;  -11.585;13836.846
803.720; 8567.699;   -9.095;13567.324
804.287; 8630.816;   -9.135;13360.622
804.855; 8969.203;  -11.604;13681.981
805.422; 9114.575;  -11.794;13536.560
805.989; 8970.174;  -10.734;13355.958
806.556; 8519.950;  -10.444;13747.896
807.124; 8387.028;  -12.764;13987.376
807.691; 8971.467;  -12.964;14038.674
808.258; 9374.906;  -11.134;14120.152
808.825; 9557.460;   -9.854;13860.111
809.392; 9220.137;  -10.504;13268.790
809.959; 8727.360;  -13.054;12680.389
810.526; 8540.870;   -8.294;12427.308
811.093; 8245.103;   -8.394;12030.105
811.659; 7525.969;  -12.304;11653.664
812.226; 7298.514;  -13.944;11637.183
812.793; 7793.229;  -10.484;11611.521
813.360; 7928.033;  -10.144;11885.181
813.926; 7235.119;  -11.684;12770.539
814.493; 6620.051;  -13.644;12677.638
815.060; 6454.843;   -9.724;11974.336
815.626; 6757.481;   -9.854;11594.715
816.193; 6813.285;  -13.254;11579.474
816.759; 6819.602;  -13.204;11666.972
817.325; 6598.357;   -9.434;11325.530
817.892; 6284.947;  -10.134;11105.369
818.458; 6217.096;  -13.474;10843.928
819.024; 6198.589;  -11.854;10714.406
819.591; 6464.849;  -10.244;10469.165
820.157; 6560.528;  -10.704;10235.523
820.723; 6823.442;  -12.324;10847.563
821.289; 7254.637;   -9.444;11040.980
821.855; 7329.270;   -8.374;10357.100
822.421; 6951.159;  -10.234; 9978.918
822.987; 6693.572;  -13.294; 9754.177
823.553; 6525.084;  -10.884;10065.755
824.119; 6092.211;   -8.884;10036.294
824.685; 5912.864;   -6.784;10029.192
825.251; 5861.837;  -12.004;10199.230
825.816; 5970.935;  -11.474; 9820.189
826.382; 5745.527;   -9.174; 9297.248
826.948; 5445.375;   -9.214; 9381.347
827.513; 5207.388;  -10.774; 9450.726
828.079; 5162.860;  -11.924; 9472.444
828.645; 5257.066;  -10.543; 9292.643
829.210; 5452.912;  -10.533; 9065.341
829.776; 5468.436;  -10.753; 9132.620
830.341; 5376.705;  -10.173; 9092.878
830.906; 5468.886;  -10.743; 9078.557
831.472; 5355.310;  -11.113; 8534.535
832.037; 4872.248;  -10.603; 8677.874
832.602; 4793.180;  -13.323; 8628.692
833.167; 5173.171;  -10.823; 8879.031
833.733; 5154.523;  -10.113; 9189.790
834.298; 4878.208;  -13.583; 9052.608
834.863; 4741.404;  -12.703; 8895.087
835.428; 4618.896;  -10.523; 8824.266
835.993; 4554.732;   -6.963; 8845.385
836.558; 4632.586;  -10.763; 8888.563
837.123; 4750.443;   -9.903; 8966.582
837.688; 4595.395;   -9.913; 8617.860
838.253; 4455.079;  -10.283; 8590.699
838.817; 4608.428;  -12.963; 8443.797
839.382; 4781.963;  -14.243; 8799.356
839.947; 4645.106;  -10.733; 8810.595
840.511; 4724.247;   -9.383; 8796.394
841.076; 4775.006;  -12.563; 8347.231
841.641; 4589.301;  -12.953; 8224.330
842.205; 4293.844;   -7.043; 8223.349
842.770; 4229.504;   -8.163; 8622.107
843.334; 4276.603;  -12.503; 8410.386
843.898; 4260.452;  -11.693; 8337.465
844.463; 4158.393;  -10.203; 8506.283
845.027; 4066.458;   -9.533; 8280.962
845.591; 4109.254;  -13.443; 8231.141
846.156; 4023.483;  -13.143; 7969.179
846.720; 3817.415;   -9.433; 7768.278
847.284; 3519.020;  -11.033; 7630.957
847.848; 3371.090;  -10.403; 7472.395
848.412; 3405.730;  -11.553; 7437.394
848.976; 3607.127;   -8.393; 7674.592
849.540; 3665.706;   -8.713; 7836.011
850.104; 3641.325;  -12.463; 7913.669
850.668; 3764.710;  -12.973; 7694.508
851.232; 3788.461;  -10.793; 7756.887
851.796; 3693.581;  -10.662; 7926.545
852.359; 3724.800;  -13.082; 7827.844
852.923; 3472.480;  -12.192; 7641.163
853.487; 3373.790;  -11.912; 7342.501
854.050; 3547.278;  -10.892; 7042.820
854.614; 3544.591;  -13.992; 7151.338
855.177; 3418.130;  -11.732; 7105.077
855.741; 3336.784;   -8.962; 6989.675
856.304; 3230.489;   -9.442; 6596.634
856.868; 2979.610;  -14.192; 6356.272
857.431; 2756.853;  -12.702; 6468.571
857.995; 2793.882;   -9.942; 6373.210
858.558; 2835.718;   -9.112; 6324.448
859.121; 2655.398;  -12.932; 6408.327
859.684; 2601.046;  -13.442; 6347.886
860.247; 3030.578;  -10.632; 6321.264
860.810; 3369.868;  -11.272; 6301.903
861.374; 3369.271;   -9.832; 6607.881
861.937; 3334.136;  -11.762; 6408.200
862.500; 3202.660;   -9.722; 6572.639
863.062; 2890.343;  -10.512; 6387.297
863.625; 2768.315;  -11.232; 6190.836
864.188; 2762.569;  -14.112; 5807.254
864.751; 2770.083;  -11.302; 5682.413
865.314; 2895.231;  -10.112; 5547.492
865.876; 2938.647;  -12.182; 5500.150
866.439; 2862.163;  -10.722; 5415.909
867.002; 2713.245;   -9.252; 5501.567
867.564; 2609.318;   -9.572; 5413.946
868.127; 2477.048;  -13.142; 5160.325
868.689; 2187.421;  -12.902; 5133.183
869.252; 2060.333;   -9.732; 5252.382
869.814; 2082.014;   -9.432; 5297.141
870.377; 2187.708;  -11.552; 5390.919
870.939; 2173.076;   -9.052; 5599.898
871.501; 2098.617;  -10.982; 5248.336
872.063; 2127.802;  -12.292; 4854.235
872.626; 2119.977;  -14.912; 4817.074
873.188; 2126.872;  -13.112; 4987.732
873.750; 2118.119;  -13.442; 4868.651
874.312; 2269.819;   -9.402; 4779.330
874.874; 2574.899;  -11.062; 4866.348
875.436; 2560.269;  -13.931; 4718.887
875.998; 2157.344;   -9.561; 4660.005
876.560; 1768.551;  -11.321; 4462.964
877.122; 1446.400;  -12.221; 4145.042
877.683; 1113.592;  -12.191; 4056.481
878.245;  990.965;  -12.101; 3950.740
878.807; 1074.745;   -8.971; 4058.958
879.369; 1210.911;  -12.071; 3954.677
879.930; 1284.610;  -14.621; 3941.495
880.492; 1241.739;  -10.311; 4067.014
881.053; 1171.158;  -10.901; 3859.633
881.615; 1197.442;  -14.411; 3776.071
882.176; 1263.285;  -13.761; 3734.750
882.738; 1312.221;   -9.181; 3678.489
883.299; 1302.669;  -11.791; 3405.407
883.860; 1244.160;  -13.121; 3351.106
884.422; 1158.796;  -11.211; 3394.044
884.983; 1101.643;  -10.091; 3166.443
885.544; 1090.869;   -8.461; 3189.802
886.105; 1045.888;  -12.361; 3160.360
886.666;  979.700;  -14.141; 3093.059
887.227;  956.100;  -11.361; 2941.957
887.788;  973.983;  -11.401; 2974.836
888.349;  934.994;  -13.791; 2721.214
888.910;  845.270;  -13.191; 2696.493
889.471;  750.479;   -9.881; 2560.172
890.032;  681.982;   -9.881; 2558.190
890.593;  684.044;  -10.371; 2567.669
891.153;  685.776;  -13.301; 2460.307
891.714;  626.376;  -11.431; 2372.046
892.275;  578.520;  -11.291; 2309.505
892.835;  566.448;  -11.471; 2382.543
893.396;  555.250;  -11.541; 2295.502
893.956;  549.534;  -11.181; 2162.420
894.517;  535.090;  -11.741; 2125.439
895.077;  489.281;  -11.671; 2086.978
895.638;  440.486;  -11.311; 2126.316
896.198;  421.554;   -9.831; 1838.275
896.758;  421.428;   -8.421; 1892.813
897.319;  416.399;  -12.351; 1792.232
897.879;  399.321;  -13.511; 1762.751
898.439;  372.620;  -12.001; 1661.149
898.999;  354.025;  -10.180; 1781.468
899.559;  340.636;  -12.030; 1703.347
900.119;  333.193;  -15.710; 1537.525
900.679;  312.933;   -8.900; 1638.384
901.239;  286.099;   -8.340; 1527.902
901.799;  272.998;  -13.910; 1456.441
902.359;  263.024;  -13.460; 1357.140
902.919;  257.136;  -11.490; 1331.118
903.479;  255.228;  -12.110; 1317.257
904.038;  248.460;  -11.720; 1262.595
904.598;  232.607;  -13.610; 1152.034
905.158;  220.695;  -11.040; 1240.893
905.717;  214.649;  -10.900; 1233.691
906.277;  210.498;  -15.080; 1217.330
906.836;  206.697;  -13.380; 1222.408
907.396;  204.585;  -10.780; 1193.047
907.955;  198.304;   -8.500; 1182.526
908.515;  191.317;  -12.760; 1099.364
909.074;  186.640;  -11.900; 1092.863
909.633;  184.040;   -8.950; 1069.121
910.192;  181.315;   -8.770; 1196.460
910.752;  177.064;  -12.390; 1029.960
911.311;  173.465;  -13.680; 1009.780
911.870;  168.775;  -12.370;  971.460
912.429;  165.289;  -10.900; 1094.080
912.988;  162.980;  -11.690; 1081.060
913.547;  159.547;  -13.240;  940.380
914.106;  158.134;  -11.990;  999.420
914.665;  158.425;   -9.990;  984.020
915.224;  157.530;  -12.880; 1035.760
915.782;  155.292;  -12.350;  922.560
916.341;  153.072;   -9.110; 1049.840
916.900;  149.481;   -9.270;  925.260
917.458;  144.269;  -13.240;  884.220
918.017;  143.122;  -13.550;  942.600
918.576;  143.391;  -12.320;  904.440
919.134;  143.960;  -11.490;  837.980
919.693;  143.248;  -13.670;  893.060
920.251;  142.600;  -15.470;  876.500
920.809;  141.669;  -11.290;  839.580
921.368;  141.903;  -10.210;  885.360
921.926;  142.831;  -12.140;  842.940
922.484;  141.776;  -13.080;  903.360
923.042;  140.847;  -11.720;  880.340
923.601;  142.224;   -7.480;  998.680
924.159;  141.132;  -11.570;  935.560
924.717;  139.613;  -13.840;  841.080
925.275;  142.209;  -10.640;  903.240
925.833;  141.048;  -11.540;  779.320
926.391;  142.193;  -12.960;  938.380
926.949;  141.263;  -14.130;  857.680
927.506;  141.557;  -11.750;  903.500
928.064;  139.808;  -10.250;  877.580
928.622;  139.529;  -13.030;  880.100
929.180;  140.899;  -13.400;  814.180
929.737;  142.419;  -10.700;  808.540
930.295;  143.874;  -10.070;  928.480
930.853;  143.132;  -11.960;  849.100
931.410;  142.033;  -13.120;  821.120
931.968;  143.202;  -10.770;  940.660
932.525;  144.191;  -10.680;  909.380
933.082;  147.983;  -13.130;  811.440
933.640;  152.713;  -13.210;  925.900
934.197;  153.835;  -11.060;  886.360
934.754;  153.797;   -9.580;  897.780
935.312;  154.318;  -14.000;  863.340
935.869;  157.171;  -10.710; 1012.980
936.426;  155.518;   -9.860;  872.800
936.983;  155.028;   -9.710;  889.020
937.540;  153.089;  -13.990;  838.280
938.097;  152.500;  -14.040;  940.120
938.654;  155.620;  -10.310;  898.860
939.211;  155.682;  -10.560;  952.480
939.768;  154.691;  -13.900;  915.420
940.324;  155.957;  -14.760;  904.200
940.881;  160.072;  -10.370;  878.500
941.438;  166.408;   -8.260; 1021.200
941.995;  167.543;  -12.540;  992.560
942.551;  165.465;  -14.670;  875.620
943.108;  165.701;  -10.450;  937.920
943.664;  165.894;  -10.750;  869.340
944.221;  171.702;  -11.550; 1088.140
944.777;  174.003;  -14.770;  869.680
945.334;  172.936;  -12.820;  884.840
945.890;  170.969;  -10.130;  946.480
946.446;  168.198;  -13.470;  947.020
947.003;  169.128;  -12.120;  964.940
947.559;  169.365;   -9.980; 1063.040
948.115;  165.706;   -9.080; 1026.540
948.671;  163.347;  -10.830;  967.300
949.227;  160.312;  -12.440;  859.560
949.783;  159.872;  -12.910;  858.900
950.339;  162.834;  -10.270;  991.000
950.895;  162.762;  -13.630; 1023.840
951.451;  162.325;  -15.100;  925.280
952.007;  162.535;  -11.330;  998.540
952.563;  159.991;  -10.580;  937.780
953.118;  155.692;  -13.440;  904.940
953.674;  153.117;  -12.710;  935.780
954.230;  155.144;  -10.350;  949.640
954.785;  158.373;   -9.190;  936.640
955.341;  160.095;  -11.200;  998.160
955.897;  156.677;  -16.560;  834.660
956.452;  154.775;  -12.570;  953.840
957.008;  151.988;   -7.970; 1083.640
957.563;  151.302;  -11.940; 1009.540
958.118;  149.439;  -13.450;  877.700
958.674;  149.559;  -12.030;  946.780
959.229;  149.500;   -9.410; 1013.980
959.784;  147.528;  -12.000;  832.400
960.339;  144.586;  -14.780; 1001.280
960.894;  138.687;   -9.860;  963.760
961.449;  133.277;   -9.970;  859.960
962.004;  131.470;  -10.900; 1212.840
962.559;  125.721;  -13.150;  860.140
963.114;  123.306;  -13.740;  742.480
963.669;  126.431;   -9.820;  915.500
964.224;  124.713;  -13.890;  874.340
964.779;  125.245;  -12.600;  828.420
965.334;  124.971;  -10.950; 1017.860
965.888;  123.820;  -11.170;  875.360
966.443;  125.471;  -12.540;  972.380
966.998;  124.781;  -15.780;  819.460
967.552;  124.184;   -9.760;  908.380
968.107;  118.975;   -9.060;  868.300
968.661;  117.646;  -11.950;  922.440
969.216;  116.733;  -12.800;  856.280
969.770;  116.267;  -11.210;  917.200
970.324;  114.488;  -11.610;  923.140
970.879;  110.945;  -11.370;  947.180
971.433;  111.362;  -12.540;  952.720
971.987;  108.837;  -11.320;  895.340
972.541;  109.045;  -10.720;  917.100
973.095;  109.649;   -9.680; 1009.460
973.649;  108.749;  -11.440;  809.480
974.203;  108.564;  -11.210;  829.040
974.757;  108.556;  -10.240;  855.220
975.311;  109.085;  -13.720;  872.600
975.865;  109.425;  -13.770;  881.820
976.419;  107.910;  -11.690;  857.400
976.973;  107.611;   -9.510;  849.620
977.526;  108.218;  -12.620;  949.920
978.080;  104.241;  -12.010;  796.780
978.634;  102.878;  -10.170;  921.320
979.187;   99.644;   -9.020;  905.400
979.741;   99.066;   -9.820; 1018.380
980.294;   94.300;  -14.870;  789.160
980.848;   90.869;  -12.380;  717.220
981.401;   89.757;  -10.350;  816.540
981.955;   91.252;  -13.720;  844.300
982.508;   87.258;  -11.490;  746.340
983.061;   87.080;  -10.000;  915.260
983.615;   85.459;  -11.480;  798.800
984.168;   85.021;  -13.220;  770.080
984.721;   85.920;  -13.960;  880.760
985.274;   83.461;  -10.870;  867.500
985.827;   81.834;   -9.790;  834.220
986.380;   80.979;  -13.120;  721.340
986.933;   81.303;  -12.450;  864.800
987.486;   79.980;  -10.210;  861.920
988.039;   80.133;   -8.430;  863.100
988.591;   77.890;  -10.520;  893.260
989.144;   73.996;  -14.860;  737.260
989.697;   72.253;  -13.080;  758.740
990.250;   71.159;  -10.150;  858.100
990.802;   68.809;  -13.430;  755.860
991.355;   69.134;  -12.750;  974.880
991.907;   66.481;  -12.040;  864.320
992.460;   63.828;  -11.330;  753.760
993.012;   62.811;  -13.610;  749.540
993.565;   61.325;  -13.460;  711.360
994.117;   62.700;   -9.360;  950.780
994.669;   60.893;  -11.300;  701.320
995.221;   60.067;  -13.540;  791.920
995.774;   59.343;  -13.430;  787.580
996.326;   57.971;  -12.520;  740.220
996.878;   58.144;  -10.950;  838.420
997.430;   56.682;  -14.300;  699.860
997.982;   55.487;  -13.760;  750.140
998.534;   54.357;  -11.530;  739.060
999.086;   53.384;  -10.310;  738.220
999.638;   52.030;  -12.530;  661.380
1000.190;   51.144;  -11.840;  699.320
1000.741;   50.287;  -10.260;  742.700
1001.293;   50.438;   -8.860;  686.020
1001.845;   50.146;  -13.700;  676.640
1002.396;   50.601;  -12.100;  743.400
1002.948;   49.215;  -12.760;  737.400
1003.500;   48.393;  -10.380;  723.780
1004.051;   48.370;  -11.900;  907.580
1004.603;   47.157;  -12.250;  791.820
1005.154;   43.577;  -13.210;  608.980
1005.705;   43.908;  -10.950;  723.960
1006.257;   43.028;  -13.880;  707.220
1006.808;   42.350;  -12.840;  685.460
1007.359;   41.402;  -10.570;  763.240
1007.910;   40.455;   -9.620;  646.640
1008.461;   40.140;  -13.630;  732.940
1009.013;   39.059;  -17.200;  588.340
1009.564;   40.823;  -10.200;  793.520
1010.115;   38.908;  -12.570;  597.040
1010.665;   38.387;  -15.150;  602.160
1011.216;   38.668;  -14.480;  667.920
1011.767;   37.793;  -11.340;  697.920
1012.318;   37.879;   -9.780;  736.980
1012.869;   37.395;  -12.380;  679.000
1013.419;   37.008;  -15.560;  603.120
1013.970;   36.090;  -11.010;  666.640
1014.521;   35.698;  -11.610;  620.620
1015.071;   36.411;  -13.450;  670.380
1015.622;   35.441;  -13.870;  635.460
1016.172;   34.915;  -11.610;  596.820
1016.723;   34.110;  -12.120;  614.380
1017.273;   34.418;  -13.620;  604.160
1017.823;   35.066;  -14.140;  650.340
1018.374;   34.443;  -12.800;  611.760
1018.924;   33.949;  -12.340;  716.880
1019.474;   34.986;  -11.410;  718.880
1020.024;   33.063;  -14.770;  657.580
1020.574;   33.178;   -9.780;  726.160
1021.124;   33.547;   -8.560;  673.580
1021.674;   31.668;  -15.190;  559.120
1022.224;   33.204;  -13.530;  708.940
1022.774;   32.212;  -13.280;  668.820
1023.324;   33.187;  -10.690;  753.520
1023.874;   33.925;  -10.240;  875.760
1024.423;   31.708;  -12.540;  613.700
1024.973;   31.341;  -10.010;  610.760
1025.523;   30.893;  -10.550;  620.960
1026.072;   30.659;  -13.560;  606.420
1026.622;   30.289;  -15.120;  675.740
1027.172;   31.239;  -11.260;  715.660
1027.721;   29.847;  -11.410;  601.220
1028.270;   30.507;  -13.530;  663.400
1028.820;   30.671;  -13.680;  638.080
1029.369;   29.901;  -13.520;  612.700
1029.918;   29.235;  -10.980;  649.840
1030.468;   29.699;  -13.530;  564.780
1031.017;   31.051;  -13.170;  634.800
1031.566;   28.830;  -12.200;  608.900
1032.115;   29.324;   -9.960;  694.500
1032.664;   28.245;  -13.210;  596.480
1033.213;   30.045;  -12.500;  735.420
1033.762;   28.157;  -11.910;  635.620
1034.311;   27.530;   -9.640;  677.220
1034.860;   28.169;  -13.310;  691.000
1035.408;   27.499;  -11.830;  722.720
1035.957;   28.379;  -12.000;  719.540
1036.506;   26.558;  -11.690;  530.800
1037.055;   28.986;  -10.990;  844.320
1037.603;   26.954;  -15.120;  664.000
1038.152;   25.701;  -12.450;  534.760
1038.700;   26.402;  -10.560;  585.740
1039.249;   26.206;  -11.080;  681.220
1039.797;   26.614;  -12.540;  633.360
1040.345;   26.596;  -11.920;  705.420
1040.894;   25.554;  -11.410;  625.300
1041.442;   25.492;  -14.320;  632.200
1041.990;   24.782;  -16.240;  559.160
1042.538;   23.674;  -11.680;  536.180
1043.087;   24.552;  -10.760;  570.860
1043.635;   26.423;  -11.850;  670.500
1044.183;   24.649;  -15.480;  586.400
1044.731;   24.248;  -11.770;  576.000
1045.279;   23.905;  -13.090;  674.920
1045.827;   25.841;  -12.440;  892.400
1046.374;   23.247;  -13.840;  515.420
1046.922;   23.002;  -13.220;  590.580
1047.470;   23.900;  -10.230;  691.300
1048.018;   24.005;  -14.590;  647.960
1048.565;   24.737;  -12.050;  708.600
1049.113;   22.985;  -11.650;  557.000
1049.660;   23.301;  -10.510;  629.660
1050.208;   23.539;  -13.310;  675.640
1050.755;   22.736;  -15.900;  606.580
1051.303;   23.346;  -11.430;  686.820
1051.850;   22.833;   -8.480;  635.120
1052.397;   20.586;  -15.010;  473.960
1052.945;   21.612;  -13.960;  617.760
1053.492;   22.630;  -13.150;  741.840
1054.039;   23.072;   -9.630;  720.180
1054.586;   21.998;  -13.680;  557.240
1055.133;   22.474;  -14.570;  693.140
1055.680;   22.041;  -13.820;  646.620
1056.227;   21.269;  -11.730;  542.780
1056.774;   22.644;  -12.480;  794.980
1057.321;   20.442;  -13.930;  523.260
1057.868;   20.704;  -11.690;  651.320
1058.415;   19.925;   -9.520;  651.980
1058.961;   21.177;  -13.160;  678.940
1059.508;   20.465;  -12.920;  643.820
1060.055;   19.930;  -11.920;  581.780
1060.601;   20.861;  -11.500;  624.300
1061.148;   20.271;  -14.330;  616.820
1061.694;   19.830;  -16.870;  592.580
1062.241;   19.594;  -10.330;  596.320
1062.787;   20.619;  -10.620;  663.140
1063.334;   22.017;  -10.110;  808.560
1063.880;   19.706;  -13.400;  668.360
1064.426;   19.758;  -10.680;  706.820
1064.972;   18.552;   -9.920;  601.340
1065.518;   18.099;  -10.980;  566.640
1066.065;   19.682;  -14.890;  624.460
1066.611;   18.058;  -12.870;  598.800
1067.157;   18.976;  -12.950;  641.860
1067.703;   18.763;  -13.540;  668.480
1068.249;   18.675;  -13.540;  605.220
1068.794;   17.678;  -12.600;  626.880
1069.340;   17.443;  -10.620;  578.960
1069.886;   18.257;  -12.830;  590.700
1070.432;   17.307;  -14.870;  541.720
1070.977;   16.437;  -11.980;  601.080
1071.523;   17.537;   -8.200;  573.060
1072.068;   17.249;  -12.330;  582.000
1072.614;   16.936;  -16.370;  527.760
1073.160;   17.616;  -11.100;  687.040
1073.705;   16.542;  -10.480;  572.520
1074.250;   17.063;  -14.520;  559.900
1074.796;   17.852;  -11.460;  655.160
1075.341;   17.763;  -11.950;  664.100
1075.886;   16.538;  -11.460;  594.240
1076.431;   16.401;  -13.770;  649.880
1076.976;   16.325;  -12.680;  639.220
1077.521;   15.297;  -13.170;  583.080
1078.067;   14.902;  -10.860;  579.400
1078.612;   15.864;  -13.920;  661.620
1079.156;   15.837;  -13.880;  601.540
1079.701;   15.323;  -13.120;  693.260
1080.246;   16.137;   -9.940;  696.300
1080.791;   15.478;  -14.740;  625.020
1081.336;   15.758;  -13.750;  659.320
1081.880;   15.682;  -13.400;  649.680
1082.425;   14.489;  -12.220;  573.480
1082.970;   16.450;  -11.610;  717.040
1083.514;   15.048;  -13.580;  597.000
1084.059;   13.948;  -12.810;  586.720
1084.603;   13.051;  -12.320;  565.840
1085.147;   14.375;  -13.190;  645.220
1085.692;   15.317;  -12.480;  716.800
1086.236;   13.601;  -13.020;  503.140
1086.780;   15.300;   -9.190;  751.440
1087.325;   14.945;  -12.480;  654.620
1087.869;   14.537;  -12.450;  610.700
1088.413;   14.573;  -12.240;  705.040
1088.957;   12.340;   -9.020;  543.400
1089.501;   14.841;  -10.320;  766.640
1090.045;   14.245;  -12.720;  726.480
1090.589;   11.647;  -13.690;  569.920
1091.133;   13.360;  -10.020;  673.340
1091.676;   13.523;  -12.330;  591.940
1092.220;   12.429;  -14.970;  600.920
1092.764;   13.551;  -12.430;  706.960
1093.307;   13.555;   -9.800;  673.780
1093.851;   11.995;  -14.970;  556.540
1094.395;   13.623;  -15.310;  683.140
1094.938;   12.024;  -10.370;  632.520
1095.482;   12.022;  -11.050;  559.800
1096.025;   13.065;  -11.840;  710.880
1096.568;   13.643;  -12.840;  779.280
1097.112;   10.063;  -14.700;  508.180
1097.655;   11.971;   -8.720;  603.000
1098.198;   10.338;  -13.610;  600.180
1098.741;   11.613;  -13.350;  612.860
1099.285;   11.522;  -11.230;  657.300
1099.828;   10.028;  -11.840;  439.400
1100.371;   12.027;  -10.840;  608.160
1100.914;   11.297;  -14.190;  682.660
1101.457;   11.562;  -11.240;  679.900
1101.999;    9.678;  -11.270;  584.680
1102.542;   10.965;  -11.480;  641.440
1103.085;   10.521;  -11.750;  658.500
1103.628;   11.456;  -11.400;  762.060
1104.170;   10.396;  -10.490;  588.280
1104.713;   10.881;  -10.600;  646.700
1105.256;   10.276;  -14.360;  557.440
1105.798;    8.498;  -13.210;  499.980
1106.341;   11.238;  -10.270;  728.900
1106.883;    9.283;  -12.200;  521.340
1107.425;   10.521;  -13.110;  668.180
1107.968;    9.158;  -12.840;  612.380
1108.510;   10.995;   -6.480;  684.960
1109.052;    8.571;  -13.940;  612.620
1109.594;    8.522;  -13.690;  554.440
1110.136;    9.345;  -11.880;  643.220
1110.679;    8.646;   -9.500;  633.080
1111.221;    9.569;  -14.160;  604.460
1111.763;    8.642;  -13.980;  559.220
1112.304;    8.914;  -13.880;  547.140
1112.846;    8.417;  -12.210;  666.240
1113.388;   11.470;  -11.390;  942.180
1113.930;    8.963;  -14.540;  694.200
1114.472;    8.424;  -12.640;  606.540
1115.013;    7.341;  -11.620;  551.280
1115.555;    6.694;  -13.640;  587.100
1116.097;    6.939;  -15.380;  579.480
1116.638;    7.478;  -12.640;  684.600
1117.180;    8.524;   -9.850;  667.740
1117.721;    7.538;  -13.690;  568.580
1118.262;    8.575;  -12.680;  677.960
1118.804;    8.345;  -12.530;  637.340
1119.345;    6.877;  -11.690;  578.400
1119.886;    7.862;  -13.380;  704.040
1120.427;    7.506;  -14.070;  589.020
1120.969;    6.786;  -13.500;  597.920
1121.510;    5.924;  -11.480;  563.060
1122.051;    6.504;  -12.830;  723.580
1122.592;    6.513;  -14.290;  655.420
1123.133;    4.945;  -12.400;  547.940
1123.673;    7.861;  -10.130;  706.480
1124.214;    6.378;  -12.930;  612.460
1124.755;    6.976;  -14.380;  639.460
1125.296;    5.778;  -14.000;  627.320
1125.836;    7.133;  -10.070;  691.500
1126.377;    6.013;  -12.640;  599.660
1126.918;    6.667;  -12.960;  614.980
1127.458;    5.045;  -13.350;  622.220
1127.999;    6.491;  -10.750;  656.980
1128.539;    6.363;  -12.350;  694.240
1129.079;    5.460;  -14.860;  632.720
1129.620;    4.551;  -13.840;  558.100
1130.160;    4.103;  -12.330;  539.480
1130.700;    5.531;  -14.530;  640.840
1131.240;    5.815;  -12.530;  643.700
1131.781;    5.619;  -14.450;  619.680
1132.321;    5.459;   -9.790;  599.120
1132.861;    4.493;  -14.860;  564.200
1133.401;    4.094;  -14.290;  593.940
1133.941;    4.984;  -11.750;  626.280
1134.481;    4.077;   -9.920;  597.580
1135.020;    3.903;  -12.290;  609.160
1135.560;    5.019;  -11.650;  674.940
1136.100;    3.103;  -16.270;  501.160
1136.640;    3.951;  -10.890;  510.480
1137.179;    3.837;  -14.180;  537.960
1137.719;    4.633;  -16.250;  605.400
1138.258;    4.325;  -14.230;  587.360
1138.798;    4.217;   -9.090;  663.780
1139.337;    3.276;  -15.130;  482.840
1139.877;    4.618;  -13.680;  642.360
1140.416;    5.678;  -11.320;  878.060
1140.955;    2.815;  -10.860;  535.380
1141.494;    4.182;  -12.920;  669.280
1142.034;    2.790;  -13.930;  583.520
1142.573;    4.033;  -11.440;  646.280
1143.112;    2.570;  -12.000;  553.480
1143.651;    3.100;  -13.670;  536.480
1144.190;    4.738;  -12.730;  691.640
1144.729;    3.198;  -14.560;  607.420
1145.267;    3.039;  -11.830;  584.900
1145.806;    4.061;  -12.230;  637.040
1146.345;    3.310;  -14.130;  635.020
1146.884;    2.377;  -11.590;  622.500
1147.422;    1.933;  -12.550;  533.060
1147.961;    3.750;  -11.180;  708.460
1148.500;    3.432;  -11.510;  669.720
1149.038;    2.742;  -11.640;  632.500
1149.577;    2.814;  -10.130;  698.640
1150.115;    0.620;  -13.970;  452.280
1150.653;    2.634;  -14.520;  607.340
1151.192;    2.803;  -12.810;  552.920
1151.730;    2.227;   -9.100;  652.560
1152.268;    1.761;  -12.220;  589.520
1152.806;    2.029;  -14.140;  571.180
1153.344;    0.532;  -12.350;  577.640
1153.882;    1.282;   -8.980;  600.060
1154.421;   -0.252;  -15.190;  470.620
1154.958;    1.262;  -15.210;  595.240
1155.496;    2.478;  -12.850;  645.280
1156.034;    2.125;   -9.940;  721.880
1156.572;    3.082;  -13.570;  667.060
1157.110;    0.893;  -14.590;  473.940
1157.647;    1.731;  -13.030;  676.960
1158.185;   -0.002;  -12.140;  564.320
1158.723;    0.040;  -14.390;  509.200
1159.260;    0.818;  -14.090;  701.700
1159.798;    2.234;  -11.920;  658.160
1160.335;    1.149;  -11.110;  631.820

