
Integration time [ms]:   3.882
Averaging Nr. [scans]: 1000
Smoothing Nr. [pixels]: 0
Data measured with spectrometer [name]: 7414430SP
Wave   ;Sample   ;Dark     ;Reference
[nm]   ;[counts] ;[counts] ;[counts] 

288.544;  139.969;    7.153;  793.890
289.143;  143.207;    8.402;  681.602
289.742;  145.016;    7.062;  828.814
290.341;  131.024;    0.191;  789.841
290.940;  121.575;    0.321;  730.702
291.538;  123.075;    3.811;  881.108
292.137;  121.149;   -3.438;  792.581
292.736;  124.523;   -2.809;  975.101
293.335;  121.390;   -5.239;  735.086
293.934;  122.794;   -4.939;  781.677
294.532;  122.355;   -2.199; 1031.958
295.131;  108.797;   -6.831;  834.394
295.730;  107.767;   -6.620;  809.588
296.328;  105.682;   -6.471;  783.442
296.927;  105.492;   -6.571;  779.652
297.525;  106.772;   -7.391;  781.236
298.124;   96.805;   -9.402;  654.009
298.722;  101.525;   -5.781;  761.933
299.321;   99.464;   -6.351;  708.597
299.919;   98.171;   -8.661;  751.918
300.518;   95.033;  -11.922;  689.338
301.116;   95.065;   -6.941;  691.381
301.715;   95.874;   -5.471;  730.222
302.313;   94.535;   -8.361;  704.943
302.911;   90.828;   -9.082;  733.830
303.509;   95.707;   -4.571;  925.627
304.108;   92.885;   -7.111;  760.383
304.706;   93.147;   -7.681;  801.664
305.304;   88.475;   -9.162;  796.707
305.902;   92.940;   -6.761;  784.484
306.500;   88.363;   -6.921;  728.200
307.098;   86.437;   -6.491;  746.560
307.696;   84.631;   -6.941;  780.432
308.294;   85.370;   -6.301;  731.359
308.892;   87.506;   -4.771;  759.769
309.490;   83.130;   -5.141;  712.161
310.088;   82.384;   -2.912;  788.444
310.686;   86.728;   -0.421;  821.749
311.284;   82.126;   -3.461;  766.040
311.882;   79.726;   -6.282;  731.225
312.480;   77.349;   -3.632;  697.167
313.078;   78.876;   -2.112;  808.331
313.675;   79.431;   -1.931;  691.600
314.273;   74.503;   -1.442;  797.837
314.871;   74.211;   -3.002;  589.829
315.468;   71.578;   -2.252;  652.090
316.066;   75.232;   -1.091;  694.427
316.664;   67.549;   -4.512;  656.351
317.261;   72.491;   -0.062;  910.128
317.859;   68.229;   -0.952;  768.735
318.456;   69.230;    0.719;  830.096
319.054;   64.828;   -4.002;  787.828
319.651;   64.327;   -4.972;  759.928
320.249;   63.036;   -1.162;  810.188
320.846;   61.192;   -2.651;  714.286
321.443;   58.216;   -3.832;  832.135
322.041;   55.590;   -4.312;  812.315
322.638;   53.392;   -3.872;  701.456
323.235;   55.286;   -4.361;  665.683
323.833;   53.309;   -4.821;  740.354
324.430;   47.679;   -6.971;  615.900
325.027;   49.252;   -4.361;  876.855
325.624;   50.045;   -5.581;  644.532
326.221;   46.539;   -6.601;  689.717
326.818;   45.846;   -7.301;  818.332
327.415;   49.481;   -6.180;  748.828
328.012;   48.336;   -5.920;  690.585
328.609;   45.306;   -8.390;  731.389
329.206;   44.371;   -6.121;  778.621
329.803;   43.554;   -5.241;  737.841
330.400;   46.723;   -7.420;  704.260
330.997;   46.826;   -5.931;  817.147
331.594;   45.048;   -5.641;  788.185
332.191;   50.838;   -6.451;  728.722
332.787;   53.455;   -4.651;  844.463
333.384;   51.390;   -5.472;  763.093
333.981;   49.767;   -6.303;  815.687
334.578;   53.179;   -5.892;  708.378
335.174;   54.967;   -4.102;  731.469
335.771;   52.661;   -8.053;  836.456
336.367;   50.384;   -7.363;  710.631
336.964;   54.805;   -6.243;  793.266
337.561;   54.122;   -5.653;  731.112
338.157;   49.041;   -7.074;  911.916
338.754;   46.683;   -5.474;  796.589
339.350;   45.124;   -5.624;  722.493
339.946;   48.321;   -5.054;  773.135
340.543;   39.785;   -6.695;  846.136
341.139;   33.744;   -6.215;  720.836
341.735;   32.550;   -5.746;  772.593
342.332;   31.577;   -7.335;  691.472
342.928;   32.783;   -4.835;  795.394
343.524;   26.026;   -4.586;  761.684
344.120;   23.575;   -3.946;  738.562
344.716;   26.308;   -4.835;  723.717
345.313;   23.763;   -5.325;  795.342
345.909;   19.779;   -6.535;  627.336
346.505;   20.984;   -4.725;  740.247
347.101;   20.420;   -4.164;  827.864
347.697;   22.184;   -5.274;  785.398
348.293;   16.187;   -7.145;  627.244
348.889;   17.227;   -4.364;  745.914
349.485;   17.051;   -6.404;  688.205
350.081;   18.078;   -7.534;  772.592
350.676;   12.474;   -6.995;  691.606
351.272;   17.750;   -3.544;  809.530
351.868;   17.439;   -5.324;  780.497
352.464;   14.791;   -7.204;  723.932
353.059;   10.219;   -6.894;  646.017
353.655;   14.443;   -3.754;  777.063
354.251;   15.592;   -6.143;  759.845
354.846;    9.476;   -9.464;  740.646
355.442;    7.829;   -7.555;  753.071
356.038;    9.678;   -5.474;  751.708
356.633;    9.995;   -5.914;  728.594
357.229;    7.098;   -8.944;  724.757
357.824;    6.188;   -6.794;  703.600
358.420;    5.005;   -5.754;  679.726
359.015;    5.374;   -5.664;  695.357
359.610;    7.379;   -8.004;  763.920
360.206;    0.378;   -8.815;  603.240
360.801;    4.027;   -8.834;  646.503
361.396;    6.293;   -6.274;  725.975
361.992;    1.562;   -8.574;  668.220
362.587;   -1.708;   -9.265;  670.160
363.182;    0.747;   -5.484;  689.631
363.777;    1.446;   -5.164;  738.242
364.372;    1.030;   -6.954;  737.314
364.967;   -2.135;   -7.065;  680.744
365.563;    1.983;   -5.684;  815.567
366.158;   -0.603;   -6.484;  685.161
366.753;   -0.600;   -8.004;  649.263
367.348;   -2.022;  -10.114;  746.056
367.942;   -2.192;   -7.764;  697.298
368.537;   -3.141;   -4.554;  754.245
369.132;   -2.982;   -7.664;  703.428
369.727;   -6.500;   -8.905;  638.079
370.322;   -5.219;   -4.945;  580.186
370.917;   -5.519;   -7.095;  710.646
371.511;   -3.048;   -6.574;  861.834
372.106;   -6.374;   -6.515;  776.964
372.701;  -10.184;   -8.225;  585.988
373.296;   -3.066;   -4.494;  863.135
373.890;   -7.970;   -7.965;  647.840
374.485;  -10.447;   -9.745;  691.199
375.079;   -6.348;   -5.554;  738.685
375.674;   -4.573;   -4.724;  812.970
376.268;  -10.015;   -8.365;  691.759
376.863;  -15.139;   -8.126;  580.327
377.457;   -9.199;   -6.045;  662.490
378.052;  -10.444;   -6.835;  764.884
378.646;  -11.704;   -9.375;  741.167
379.240;  -11.640;   -6.185;  721.176
379.835;  -11.759;   -6.135;  636.978
380.429;  -13.467;   -8.365;  562.557
381.023;  -13.302;   -7.935;  779.205
381.617;  -15.684;   -8.325;  680.106
382.212;  -12.154;   -7.405;  685.303
382.806;  -11.334;   -4.155;  760.690
383.400;  -15.109;   -8.945;  672.281
383.994;  -16.780;   -8.365;  664.870
384.588;  -12.403;   -7.824;  697.701
385.182;   -9.783;   -7.984;  726.624
385.776;  -12.162;  -10.404;  706.875
386.370;  -15.904;   -7.335;  681.968
386.964;  -14.733;   -7.485;  684.155
387.558;  -13.681;   -8.174;  598.360
388.152;  -16.319;  -10.415;  681.959
388.745;  -13.070;   -9.595;  814.707
389.339;  -12.824;   -6.454;  747.642
389.933;  -12.306;   -5.804;  695.370
390.527;  -11.526;   -6.854;  859.029
391.120;  -18.793;   -7.665;  595.318
391.714;  -16.338;   -7.245;  711.633
392.308;  -12.298;   -4.514;  780.253
392.901;  -16.905;   -7.935;  642.460
393.495;  -18.775;   -8.585;  595.414
394.089;  -16.821;   -5.245;  760.452
394.682;  -16.481;   -6.305;  697.188
395.275;  -17.202;   -9.335;  719.927
395.869;  -18.392;   -7.375;  667.314
396.462;  -17.057;   -7.055;  616.609
397.056;  -12.702;   -5.434;  776.621
397.649;  -17.657;   -9.525;  731.575
398.242;  -15.430;   -7.574;  712.645
398.836;  -14.004;   -5.134;  766.408
399.429;  -15.221;   -6.544;  631.041
400.022;  -18.908;   -9.215;  665.902
400.615;  -15.769;   -8.105;  805.609
401.208;  -14.535;   -7.614;  691.451
401.802;  -16.423;   -8.085;  699.329
402.395;  -18.110;   -9.575;  683.502
402.988;  -19.083;   -9.285;  696.627
403.581;  -15.737;   -7.514;  646.878
404.174;  -13.215;   -6.404;  686.568
404.767;  -16.420;   -8.775;  638.583
405.360;  -18.473;   -7.415;  621.445
405.953;  -13.271;   -5.624;  759.034
406.545;  -12.458;   -6.474;  725.342
407.138;  -16.861;   -8.445;  618.350
407.731;  -15.311;  -10.044;  613.303
408.324;  -11.841;   -8.484;  660.554
408.917;  -13.224;   -7.624;  681.864
409.509;  -14.729;   -8.304;  740.396
410.102;  -16.333;   -8.495;  643.948
410.695;  -10.604;   -7.824;  665.758
411.287;  -10.629;   -7.754;  599.821
411.880;  -13.100;   -9.294;  585.421
412.472;  -16.490;   -8.814;  613.092
413.065;  -13.133;   -6.674;  629.408
413.657;  -10.733;   -9.664;  576.678
414.250;  -11.080;  -10.264;  646.681
414.842;  -12.761;   -8.664;  676.353
415.434;  -10.369;   -8.584;  570.463
416.027;   -5.798;   -9.423;  652.196
416.619;   -7.529;  -10.764;  713.400
417.211;   -8.738;   -7.404;  599.352
417.804;   -5.113;   -7.383;  628.499
418.396;   -8.877;   -8.334;  607.643
418.988;   -6.591;   -9.633;  659.238
419.580;  -10.682;  -10.554;  568.276
420.172;   -8.368;   -8.683;  536.196
420.764;   -3.928;   -9.713;  672.482
421.356;   -5.258;  -11.303;  636.898
421.948;   -5.895;   -8.453;  677.661
422.540;   -0.650;   -5.793;  680.027
423.132;   -2.557;   -7.162;  600.641
423.724;   -5.369;   -7.933;  561.267
424.316;   -2.494;   -9.083;  621.345
424.908;    0.424;   -8.392;  591.517
425.500;    1.182;   -8.062;  647.978
426.092;    1.975;   -9.692;  648.268
426.683;    0.640;   -8.223;  684.836
427.275;    3.191;   -8.602;  641.471
427.867;    4.891;   -8.382;  668.948
428.458;    4.790;  -10.472;  732.344
429.050;    3.850;   -9.112;  680.749
429.642;    6.465;   -7.752;  743.124
430.233;    6.642;   -8.832;  569.356
430.825;    8.046;   -8.292;  724.809
431.416;    5.141;   -7.522;  698.241
432.008;    9.185;   -9.262;  651.723
432.599;    9.275;   -6.441;  656.073
433.190;    6.638;   -9.222;  637.670
433.782;    5.944;  -11.832;  590.395
434.373;   13.563;   -7.121;  884.765
434.964;   11.667;   -9.141;  602.920
435.556;    8.968;   -9.332;  634.537
436.147;   12.628;   -8.892;  758.490
436.738;   12.033;   -8.151;  701.099
437.329;   18.064;   -8.281;  721.723
437.920;    9.983;   -9.062;  666.688
438.511;   10.748;  -11.182;  564.526
439.103;   16.957;   -7.461;  623.998
439.694;   18.594;   -8.541;  681.583
440.285;   20.328;   -7.351;  764.432
440.876;   18.597;   -8.201;  845.738
441.466;   17.066;  -10.381;  575.162
442.057;   22.811;   -7.620;  665.814
442.648;   20.250;   -8.461;  746.255
443.239;   19.562;   -8.991;  620.477
443.830;   24.631;   -7.910;  704.958
444.421;   25.983;   -7.340;  655.474
445.011;   22.432;   -8.981;  693.619
445.602;   21.967;   -9.341;  743.126
446.193;   23.884;  -11.390;  488.117
446.783;   28.413;  -11.240;  640.397
447.374;   23.554;   -8.471;  692.759
447.964;   25.153;   -8.471;  713.770
448.555;   33.131;   -6.590;  822.742
449.145;   29.268;   -8.200;  662.853
449.736;   30.147;  -11.040;  803.179
450.326;   30.012;   -9.640;  713.626
450.917;   35.034;   -9.480;  675.324
451.507;   33.712;   -8.020;  600.661
452.097;   34.605;  -10.210;  746.267
452.688;   36.403;   -7.810;  742.160
453.278;   34.969;   -9.360;  566.840
453.868;   39.499;   -8.669;  793.550
454.458;   37.658;  -10.950;  651.141
455.048;   38.222;  -10.200;  711.783
455.639;   39.615;   -9.369;  567.096
456.229;   42.523;   -7.739;  710.694
456.819;   44.892;   -8.939;  751.158
457.409;   44.870;   -7.169;  773.993
457.999;   47.594;   -7.779;  737.505
458.589;   47.833;   -7.039;  686.606
459.179;   47.032;   -9.019;  717.658
459.769;   45.925;   -8.909;  627.099
460.358;   50.087;   -8.659;  797.262
460.948;   50.716;   -8.209;  689.503
461.538;   52.419;   -9.879;  660.677
462.128;   50.293;   -9.379;  664.934
462.717;   57.118;   -9.158;  710.326
463.307;   59.253;   -8.638;  705.846
463.897;   55.562;   -8.869;  656.942
464.486;   55.134;   -7.409;  837.128
465.076;   58.640;   -9.618;  733.776
465.666;   62.703;   -7.578;  652.900
466.255;   59.880;   -9.369;  785.651
466.845;   58.734;  -10.049;  666.749
467.434;   61.813;   -8.168;  725.873
468.023;   63.193;   -9.188;  658.357
468.613;   60.380;   -9.849;  713.946
469.202;   64.675;  -12.958;  646.507
469.791;   69.699;   -9.488;  737.811
470.381;   70.784;   -6.468;  742.813
470.970;   69.788;  -10.248;  711.099
471.559;   70.518;  -11.428;  733.291
472.148;   73.447;   -9.738;  675.737
472.738;   76.125;   -7.877;  765.466
473.327;   74.864;  -11.868;  637.529
473.916;   75.096;   -8.578;  737.446
474.505;   78.665;  -11.137;  751.703
475.094;   81.657;   -9.407;  806.570
475.683;   82.267;   -9.977;  797.699
476.272;   82.393;  -10.807;  730.632
476.861;   84.733;  -11.017;  706.754
477.449;   91.244;  -10.316;  728.487
478.038;   85.871;  -10.187;  692.513
478.627;   86.970;  -12.458;  714.852
479.216;   93.278;  -10.127;  769.441
479.805;   96.457;   -6.256;  783.375
480.393;   95.876;   -8.737; 1008.945
480.982;   95.117;   -9.087;  874.501
481.571;  100.713;   -7.806;  858.333
482.159;  100.938;  -10.596;  705.386
482.748;  100.411;  -11.507;  821.385
483.336;  105.299;   -8.366;  858.209
483.925;  105.741;   -7.497;  774.373
484.513;  111.654;   -8.326;  758.962
485.102;  107.989;  -10.277;  810.965
485.690;  117.549;   -8.256; 1011.050
486.278;  118.546;   -7.146;  979.329
486.867;  118.669;   -7.986;  809.662
487.455;  121.122;   -9.926;  898.229
488.043;  121.509;  -10.026;  748.361
488.631;  130.368;   -7.226; 1005.079
489.220;  133.782;   -8.696;  908.626
489.808;  134.201;  -12.276;  741.415
490.396;  140.884;   -9.386;  914.645
490.984;  145.474;   -8.506;  830.161
491.572;  154.978;   -8.226;  940.315
492.160;  160.302;   -9.836;  919.081
492.748;  170.504;  -10.316;  884.341
493.336;  187.804;   -7.146; 1019.693
493.924;  208.564;   -7.965;  958.077
494.512;  231.907;  -10.316; 1066.638
495.100;  264.363;  -10.186; 1103.280
495.687;  310.791;   -7.805; 1206.373
496.275;  368.258;   -9.686; 1150.796
496.863;  438.995;  -11.566; 1281.171
497.451;  526.429;  -11.406; 1386.805
498.038;  644.845;   -8.235; 1556.729
498.626;  748.501;   -7.485; 1741.407
499.214;  895.165;   -8.646; 2016.609
499.801; 1115.324;   -9.936; 2220.633
500.389; 1289.038;   -8.056; 2312.494
500.976; 1447.098;   -6.166; 2744.849
501.564; 1630.587;   -9.126; 3148.565
502.151; 1912.090;  -12.456; 3515.999
502.738; 2297.010;  -10.056; 3971.274
503.326; 2676.360;  -10.605; 4403.796
503.913; 2991.706;  -10.576; 5161.749
504.500; 3452.133;   -9.056; 5986.420
505.088; 3887.393;  -10.136; 6381.201
505.675; 4595.947;   -9.075; 6925.547
506.262; 5099.750;  -11.346; 7619.060
506.849; 5696.382;   -9.376; 8733.969
507.436; 6223.380;   -7.365; 9790.121
508.023; 6564.175;   -8.686; 9985.472
508.610; 6991.420;   -8.846;10434.618
509.197; 7880.294;   -9.077;11198.435
509.784; 9009.585;  -10.246;12391.194
510.371; 9469.963;   -9.825;13603.713
510.958;10207.590;  -10.896;14426.586
511.545;10924.541;   -9.006;15243.775
512.132;11653.286;   -8.765;15945.876
512.719;12640.222;   -8.286;16340.369
513.305;14560.321;   -9.256;18011.766
513.892;16669.174;  -11.106;19754.971
514.479;18240.168;   -8.576;20967.805
515.066;19393.564;   -9.046;22299.793
515.652;19851.061;  -10.676;22908.660
516.239;21275.717;  -10.166;23798.875
516.825;21796.852;  -11.266;25567.275
517.412;21532.453;   -7.446;28154.959
517.998;21950.098;  -10.916;28344.111
518.585;21375.277;   -9.166;27134.219
519.171;21238.771;  -10.135;27268.576
519.758;22834.607;   -8.806;28964.129
520.344;25733.885;   -6.716;30664.494
520.930;27250.570;  -10.166;32550.605
521.516;27621.846;   -9.615;35422.895
522.103;28863.514;   -8.656;38280.004
522.689;31136.270;   -9.646;37835.117
523.275;31869.461;  -10.786;37288.613
523.861;32666.527;   -9.266;37281.395
524.447;32590.553;   -8.285;37846.949
525.033;32641.244;   -9.426;38321.949
525.619;32118.387;   -9.836;38579.285
526.205;32890.117;   -8.136;40622.875
526.791;34152.516;   -9.986;42258.836
527.377;35943.488;   -8.236;42966.902
527.963;34569.117;  -12.117;42018.949
528.549;32974.891;   -8.376;42476.828
529.135;34222.523;   -8.696;41854.852
529.721;35979.504;   -9.686;41237.711
530.306;38059.730;   -8.616;41259.445
530.892;40976.234;   -9.396;41506.047
531.478;41651.672;   -9.926;43559.613
532.063;43027.180;  -10.236;47695.563
532.649;45309.871;   -8.257;50808.324
533.235;46628.992;  -11.476;51787.500
533.820;45327.645;   -8.156;52145.035
534.406;43842.664;  -12.257;51133.488
534.991;42106.258;   -8.686;49996.805
535.576;40038.746;   -9.426;48882.852
536.162;39851.426;   -8.436;46942.285
536.747;38708.477;  -10.957;45711.746
537.333;38235.324;  -13.147;48510.180
537.918;40964.996;   -9.027;50439.891
538.503;42003.520;   -8.256;50863.711
539.088;45373.484;  -10.576;50906.922
539.673;47372.801;  -10.907;52621.965
540.259;47507.730;   -9.126;52368.094
540.844;44469.695;   -9.026;50879.109
541.429;46020.254;   -9.597;52077.777
542.014;50023.758;  -11.447;52716.695
542.599;51020.914;   -9.236;52363.281
543.184;49464.523;  -12.267;53187.137
543.769;50840.871;  -10.367;54697.605
544.354;50778.867;  -10.887;53913.914
544.938;44500.719;  -11.687;49680.164
545.523;39966.516;   -8.286;47386.277
546.108;41548.539;   -9.317;49151.949
546.693;43583.992;  -10.187;51384.637
547.278;42703.449;   -9.926;51853.254
547.862;42109.535;   -9.196;51173.750
548.447;41472.473;   -9.657;51691.395
549.031;41684.047;   -9.127;52456.703
549.616;45155.957;  -10.836;52714.516
550.201;48536.848;   -8.507;52414.598
550.785;48807.902;  -10.537;52355.059
551.370;48644.016;  -11.727;54589.453
551.954;48765.781;   -9.457;58267.348
552.538;48106.094;   -8.147;59062.176
553.123;46733.055;   -9.397;58115.285
553.707;44627.945;   -9.558;56556.285
554.291;45376.000;   -9.417;56201.668
554.876;45489.738;   -7.627;55335.762
555.460;43721.055;  -10.457;54155.703
556.044;41841.012;  -10.078;53721.484
556.628;42527.227;   -9.407;53731.016
557.212;42619.141;   -7.957;54312.531
557.796;42625.176;  -11.327;53797.773
558.380;47036.492;  -10.868;56145.984
558.964;47622.586;   -9.637;57277.930
559.548;45746.535;   -8.807;56459.641
560.132;46477.258;  -10.187;54434.543
560.716;45614.652;   -9.868;54800.617
561.300;46405.012;  -10.217;57606.945
561.884;47015.234;   -4.947;58972.445
562.467;46310.184;   -9.588;57327.570
563.051;44586.023;  -11.138;54962.434
563.635;42679.715;   -9.358;52594.473
564.219;42150.645;   -9.797;50610.410
564.802;42311.891;   -9.918;49551.180
565.386;40036.852;  -10.838;48370.953
565.969;38842.137;   -8.037;48178.871
566.553;37481.469;   -5.667;49957.305
567.136;35376.586;   -8.258;50369.594
567.720;34328.074;  -11.278;49492.004
568.303;37739.254;   -9.028;50616.352
568.887;39218.320;   -7.508;50727.148
569.470;38931.355;  -11.068;51698.379
570.053;39065.055;  -10.028;52122.078
570.637;37522.570;  -11.077;52536.438
571.220;37181.547;   -8.747;51186.098
571.803;39030.676;   -8.868;51032.762
572.386;41063.523;  -10.608;49609.887
572.969;40722.914;  -10.548;48285.926
573.552;38429.355;   -7.898;47624.285
574.135;39446.734;   -9.918;45498.641
574.718;35891.754;  -10.328;41970.434
575.301;33048.102;   -9.548;41447.137
575.884;30204.449;   -8.768;40923.836
576.467;33245.715;   -9.858;45267.723
577.050;33511.590;  -11.018;48175.543
577.633;34549.516;  -10.048;47729.328
578.216;33918.422;  -10.268;47579.793
578.799;31364.701;  -11.808;47820.996
579.381;31300.482;   -7.338;48115.551
579.964;33878.785;   -9.728;47333.766
580.547;35138.555;   -8.928;46668.969
581.129;36306.273;   -9.149;44466.141
581.712;36641.703;  -11.359;44164.922
582.294;34125.168;  -10.738;46477.855
582.877;32968.598;   -8.788;48244.254
583.459;33613.039;   -9.859;47437.895
584.042;35796.094;   -9.649;46943.219
584.624;35461.621;  -10.529;46792.227
585.206;34104.945;  -10.298;46557.250
585.789;33694.836;  -11.029;45793.773
586.371;31935.996;   -9.359;43836.391
586.953;31183.000;   -8.799;42972.492
587.536;30757.266;   -8.928;42487.211
588.118;30788.223;   -9.180;42086.414
588.700;30272.635;  -10.519;43389.930
589.282;29243.246;   -8.098;43646.039
589.864;29162.006;   -8.139;43438.109
590.446;31025.102;  -10.509;43151.926
591.028;31791.771;  -11.119;42781.867
591.610;33250.375;  -10.019;42839.098
592.192;32961.660;   -8.838;42820.402
592.774;29934.213;  -11.549;40724.277
593.356;27119.104;  -11.609;39874.789
593.937;26321.625;  -10.019;39980.648
594.519;28512.242;   -7.839;42069.633
595.101;31066.215;  -10.779;42976.031
595.683;32180.285;  -10.049;44084.441
596.264;31658.096;   -9.969;43478.797
596.846;31237.117;   -9.699;43803.672
597.427;30129.146;  -10.970;42986.934
598.009;29444.670;  -13.090;42832.219
598.591;28645.967;   -9.509;42580.086
599.172;28618.346;   -9.019;43061.805
599.753;28179.322;  -13.310;41691.469
600.335;27469.797;  -11.010;40692.520
600.916;26751.668;  -10.309;39982.422
601.498;27153.693;   -8.209;40318.617
602.079;28358.748;  -11.440;40670.609
602.660;30868.674;   -8.690;41450.898
603.241;32421.963;  -12.759;41137.738
603.823;31234.336;  -10.409;38868.797
604.404;30702.436;  -11.790;38182.785
604.985;32490.887;  -10.280;38078.047
605.566;33948.719;   -8.059;38056.633
606.147;31294.764;   -8.960;37020.418
606.728;29127.439;  -10.710;37883.359
607.309;28489.088;  -12.760;38748.273
607.890;27099.355;   -9.959;38850.230
608.471;27332.541;   -9.780;37457.918
609.051;29129.416;   -8.940;36066.457
609.632;30143.895;  -12.070;35991.074
610.213;29937.799;   -9.610;37402.641
610.794;29785.486;   -8.750;38383.363
611.374;30316.369;  -11.100;40562.387
611.955;30806.156;  -12.200;38533.727
612.536;30942.658;  -10.410;36951.789
613.116;30103.975;  -10.010;37197.891
613.697;28476.795;  -10.480;38411.125
614.277;28290.143;  -12.751;38673.938
614.858;27491.021;  -11.600;37075.863
615.438;27643.852;   -8.190;35092.906
616.019;26401.129;   -8.941;33666.301
616.599;28253.447;  -13.540;34189.023
617.179;30967.693;  -10.890;36952.047
617.760;30067.477;   -7.610;39582.574
618.340;28209.584;  -14.441;38943.977
618.920;27909.623;   -9.180;37594.156
619.500;30269.760;  -11.881;37866.938
620.080;31980.244;   -9.870;37869.043
620.660;30738.398;  -13.211;36868.617
621.241;29456.584;  -11.921;36352.309
621.821;28880.760;  -10.271;35459.520
622.401;29665.680;   -8.200;35207.414
622.980;31212.785;  -11.141;35980.422
623.560;30856.049;  -14.321;37351.328
624.140;29317.307;   -9.360;34388.582
624.720;25282.305;   -7.481;32368.764
625.300;23014.176;  -12.730;32638.629
625.880;26960.422;  -11.441;34599.035
626.459;30406.867;  -10.971;36831.738
627.039;33824.328;   -9.011;38299.098
627.619;34185.637;   -8.521;38289.574
628.198;32553.469;   -9.861;37220.695
628.778;31509.176;   -8.841;37632.563
629.357;31556.443;   -9.891;38003.012
629.937;31570.518;  -11.871;38402.039
630.516;31160.564;  -10.641;37868.801
631.096;33390.809;  -11.391;35760.410
631.675;34887.770;   -6.622;35225.219
632.254;32031.500;  -13.002;35130.289
632.834;30921.213;  -11.622;35794.570
633.413;32115.332;   -8.321;35788.922
633.992;30230.498;   -7.732;34532.863
634.571;30223.199;  -10.992;33590.113
635.151;29788.775;  -10.422;34943.863
635.730;30461.730;  -11.511;35352.523
636.309;30240.111;   -7.901;35366.605
636.888;29435.785;  -11.452;36165.637
637.467;28689.146;  -10.672;37515.902
638.046;29483.984;   -9.301;39288.695
638.625;30926.545;  -11.452;38279.699
639.204;31622.982;  -12.262;37741.598
639.782;32001.754;  -11.892;38364.551
640.361;30486.820;  -11.411;36740.621
640.940;25591.244;  -11.501;34950.082
641.519;27807.795;  -10.921;34137.398
642.097;31444.260;  -10.101;35654.258
642.676;29972.764;  -10.821;35637.957
643.255;31239.279;   -8.631;36567.074
643.833;33750.410;  -11.411;37809.434
644.412;36222.715;  -12.021;37337.293
644.990;36314.180;  -12.271;37018.531
645.569;35087.695;   -9.741;36518.469
646.147;32712.990;   -9.051;36186.430
646.726;32714.770;  -13.861;36267.688
647.304;32881.172;   -9.461;36647.625
647.882;32677.080;  -13.171;39286.742
648.461;33036.480;  -11.911;39157.703
649.039;31791.605;   -9.541;35412.883
649.617;31281.684;   -8.901;34744.918
650.195;29151.438;   -8.591;35403.098
650.773;28623.498;  -13.031;35053.797
651.352;27912.059;  -12.211;33756.816
651.930;25601.719;  -11.361;31868.773
652.508;22449.309;   -8.601;33121.551
653.086;25081.414;   -9.991;33564.793
653.663;29417.760;  -11.931;34054.668
654.241;32028.590;  -10.821;35693.309
654.819;33546.723;   -9.341;36422.906
655.397;31177.543;  -10.851;38213.484
655.975;29883.750;  -11.461;39507.625
656.553;29936.010;   -8.841;39498.223
657.130;29360.854;  -10.371;40395.480
657.708;30067.881;  -11.071;39242.020
658.286;29505.648;  -11.141;38920.020
658.863;30599.695;  -10.861;40202.898
659.441;34955.512;  -11.181;39677.938
660.018;35198.473;  -10.851;40413.355
660.596;34612.016;  -12.571;39931.414
661.173;35091.461;  -12.141;39604.531
661.750;34921.270;  -11.571;39700.070
662.328;32358.693;  -10.780;39292.809
662.905;29927.939;  -10.750;38235.648
663.482;27070.689;  -11.320;36212.305
664.060;26260.902;  -10.160;35944.945
664.637;30768.160;  -13.120;35170.785
665.214;32646.738;  -11.500;34197.523
665.791;30883.400;  -12.430;34549.520
666.368;28633.938;   -9.840;35118.578
666.945;27915.926;  -11.290;36019.418
667.522;28545.092;  -13.540;36048.438
668.099;29056.965;  -10.250;36243.914
668.676;27893.371;  -11.270;35958.875
669.253;26758.650;   -8.210;37384.730
669.830;26150.258;   -9.710;36779.629
670.407;25775.568;   -9.700;35231.289
670.984;26467.004;   -9.190;35544.270
671.560;25704.770;   -9.560;35466.867
672.137;25511.836;  -11.820;34280.863
672.714;28424.508;  -12.460;34632.863
673.290;32664.000;  -10.940;35135.422
673.867;32995.313;  -10.510;36114.480
674.443;30005.689;  -12.110;36152.859
675.020;31240.135;  -11.760;35327.238
675.596;32010.250;   -9.380;35795.176
676.173;30864.232;  -11.120;35430.355
676.749;29660.631;  -13.390;33549.516
677.326;28779.242;  -12.600;32210.012
677.902;27774.363;  -10.830;32068.871
678.478;27792.609;  -12.400;32583.891
679.054;29563.689;   -8.610;32088.928
679.631;29692.369;  -11.640;30978.848
680.207;29727.613;   -8.140;33160.887
680.783;30574.797;  -12.300;35570.363
681.359;29458.014;  -10.910;36125.184
681.935;29697.156;  -11.040;35240.922
682.511;30456.420;  -11.130;34429.961
683.087;30719.906;  -11.080;34463.680
683.663;32947.738;  -10.530;34648.898
684.239;32557.338;  -12.120;34546.457
684.815;30016.203;   -8.870;35586.375
685.390;29304.928;   -8.940;35821.895
685.966;29380.367;  -12.109;35085.871
686.542;28384.521;  -13.539;34198.230
687.118;28092.680;  -10.379;32847.707
687.693;28280.912;  -10.189;32794.027
688.269;27094.979;  -12.939;33072.367
688.844;26222.830;   -8.679;33141.664
689.420;27236.965;  -10.919;33965.742
689.995;27705.594;   -7.489;34655.523
690.571;27299.379;  -12.199;33576.742
691.146;27619.086;   -8.979;32657.219
691.722;29102.117;   -9.119;32526.979
692.297;27341.551;  -10.519;33014.617
692.872;26619.229;  -10.629;34012.254
693.448;27040.357;  -12.119;34237.434
694.023;27532.080;   -8.219;34142.672
694.598;25728.488;  -13.209;34132.031
695.173;25026.166;  -11.879;34205.250
695.748;25795.428;  -12.039;32882.488
696.323;25590.965;  -11.779;32864.906
696.898;26469.566;  -10.219;33170.004
697.473;27569.164;  -13.639;32432.984
698.048;27958.383;  -11.239;31649.303
698.623;29903.328;  -10.859;30778.141
699.198;31543.563;  -13.379;31140.119
699.773;32363.115;  -13.409;31764.299
700.348;33033.094;  -12.329;31780.816
700.922;33474.555;   -8.749;32046.375
701.497;33691.195;  -12.449;32603.574
702.072;32232.912;   -8.879;34799.871
702.646;29925.367;  -10.719;35793.172
703.221;28570.154;   -8.469;35201.590
703.795;28364.158;  -11.389;34764.527
704.370;28095.379;  -12.499;34307.367
704.944;27966.795;  -11.449;33509.887
705.519;27313.939;  -10.659;31388.584
706.093;26742.133;  -12.909;31340.104
706.668;27267.678;  -13.509;32630.281
707.242;26866.549;  -10.049;32728.779
707.816;24816.697;  -10.629;32947.238
708.390;24211.887;  -11.829;33277.855
708.965;24695.543;  -11.159;33834.336
709.539;25558.412;  -11.069;33709.273
710.113;24878.025;  -10.908;33044.313
710.687;23312.555;   -9.488;31953.992
711.261;23548.068;  -13.068;30505.949
711.835;26490.342;  -12.748;30262.369
712.409;27255.469;  -10.678;31254.447
712.983;26001.840;  -11.658;32754.986
713.557;26395.494;  -13.718;34018.824
714.131;26988.480;  -13.388;34579.625
714.704;27674.029;   -9.818;33890.262
715.278;28661.477;  -11.818;33531.102
715.852;29733.418;  -11.328;33601.660
716.425;30239.492;   -9.118;33515.117
716.999;30384.576;  -10.188;33185.555
717.573;30352.324;   -9.808;33905.996
718.146;32789.090;  -11.478;35199.293
718.720;32670.545;  -10.998;35060.551
719.293;30913.803;   -9.508;34973.230
719.867;30492.445;  -12.138;36394.449
720.440;29281.209;  -11.288;36663.008
721.013;31899.391;  -11.428;35102.426
721.587;33538.801;  -11.698;33985.266
722.160;34555.703;  -11.608;33524.965
722.733;33038.070;  -11.428;32987.043
723.306;31649.730;  -12.518;33066.301
723.880;31565.939;   -7.408;33399.500
724.453;30482.324;  -11.048;33468.297
725.026;29011.908;  -11.678;33816.637
725.599;27786.734;  -10.978;32797.996
726.172;26898.898;   -8.838;33187.434
726.745;27848.549;  -11.438;35136.613
727.318;28671.398;   -9.828;35751.730
727.891;27345.350;  -10.868;35890.430
728.463;25573.764;  -11.348;34822.090
729.036;24063.713;  -11.608;32895.086
729.609;24015.555;  -14.738;31823.225
730.182;25240.400;   -8.448;31445.283
730.754;26474.145;  -11.228;32373.223
731.327;26776.758;  -12.018;33676.820
731.900;28584.760;  -13.748;33417.000
732.472;28610.270;  -10.928;31978.498
733.045;26909.660;   -9.478;30368.777
733.617;25158.803;  -12.967;30574.215
734.190;24299.342;  -11.707;31280.975
734.762;23273.984;  -11.067;31674.412
735.334;22712.012;  -10.587;31247.291
735.907;21764.271;  -11.947;29876.211
736.479;22279.582;  -11.667;29808.488
737.051;24934.520;  -10.187;30233.547
737.623;27496.123;   -6.887;31469.086
738.195;30552.436;  -12.117;31784.225
738.768;32347.430;  -14.077;32120.523
739.340;31244.586;  -12.207;32094.342
739.912;27735.107;   -8.977;31312.680
740.484;25804.852;  -11.017;31946.238
741.056;26675.855;  -13.517;32984.059
741.628;28649.227;  -11.507;33897.715
742.199;29052.445;   -7.597;33213.016
742.771;29872.377;  -12.227;31369.113
743.343;29201.639;  -12.427;31865.473
743.915;27505.699;   -9.827;32388.631
744.487;26541.029;  -10.007;31079.568
745.058;24867.820;  -11.887;30570.107
745.630;24079.201;  -10.787;29970.127
746.201;23486.949;  -10.887;29186.766
746.773;23539.789;   -9.707;28805.723
747.344;24373.346;  -11.137;29591.223
747.916;24585.688;  -11.887;31412.201
748.487;24054.668;   -9.707;32194.898
749.059;23423.262;  -10.027;32533.719
749.630;23225.055;  -11.787;32158.518
750.201;22274.688;  -12.767;30855.395
750.773;21946.635;  -11.497;28622.555
751.344;22637.605;   -9.937;28405.732
751.915;23073.174;  -11.567;28461.551
752.486;22459.441;  -13.267;27842.850
753.057;20460.494;  -10.627;27845.008
753.628;19051.568;  -11.657;27728.107
754.199;21233.303;  -12.097;27381.086
754.770;22809.535;  -11.447;25882.203
755.341;22775.211;  -11.997;25886.184
755.912;20695.398;  -10.207;26050.861
756.483;18985.561;  -10.937;26798.779
757.054;18868.121;  -11.527;27048.238
757.625;19118.107;  -12.886;26294.838
758.195;19507.789;  -11.226;26142.076
758.766;19552.637;  -12.366;26392.234
759.337;18428.674;  -11.946;26334.594
759.907;18438.502;  -13.856;27579.652
760.478;19289.424;   -9.606;28352.770
761.048;19339.990;  -11.606;27325.088
761.619;19588.000;  -11.036;26460.428
762.189;19053.369;  -12.206;26029.826
762.760;20385.621;   -9.666;26430.145
763.330;21224.826;   -9.796;26670.902
763.900;19280.750;  -10.896;26603.021
764.471;17645.523;  -11.726;25542.740
765.041;18044.887;   -9.656;24358.459
765.611;18984.596;  -11.276;23991.297
766.181;18807.574;  -12.116;24470.236
766.751;18221.459;  -12.376;24845.975
767.321;18186.957;  -11.626;24533.633
767.891;18451.334;  -10.426;24916.492
768.461;17318.742;  -13.456;24776.771
769.031;15341.165;  -11.616;24757.988
769.601;15228.169;  -11.356;24181.088
770.171;15557.604;  -11.586;23670.387
770.741;16015.714;  -12.696;22960.045
771.311;16109.429;  -10.226;22917.523
771.880;15824.871;  -11.146;23562.941
772.450;16461.547;  -11.716;24216.500
773.020;16690.172;  -13.226;24140.398
773.589;16436.143;  -12.586;24414.857
774.159;16231.488;  -10.246;23858.717
774.729;15791.958;  -11.586;22942.135
775.298;14920.717;  -15.926;22324.033
775.867;14938.123;  -10.426;21140.313
776.437;14799.612;  -11.416;20838.092
777.006;13377.852;  -12.766;20599.510
777.576;13436.641;  -13.666;20508.809
778.145;13918.046;  -10.066;20732.947
778.714;13554.771;  -10.276;21062.465
779.283;13885.913;  -12.086;20949.664
779.853;15267.813;  -14.016;20508.623
780.422;15675.488;  -12.376;20649.082
780.991;14578.979;   -9.246;21527.520
781.560;13660.563;   -9.775;22632.658
782.129;13406.676;  -12.495;23048.277
782.698;13119.686;  -11.775;23438.555
783.267;13378.976;  -10.065;23267.734
783.836;13995.004;  -12.455;22415.133
784.404;14772.471;  -13.385;20443.152
784.973;15588.412;  -11.045;19699.150
785.542;15182.730;   -9.505;19763.828
786.111;14118.288;   -9.385;20341.408
786.679;13890.391;  -13.475;20207.967
787.248;13911.227;  -11.245;19516.465
787.817;12074.232;  -12.485;18900.363
788.385;10285.997;  -11.165;17879.121
788.954;10824.088;  -11.755;17658.301
789.522;11605.107;   -9.625;17788.879
790.090;11390.200;   -9.665;18118.277
790.659;11098.377;   -9.295;18338.736
791.227;12176.361;  -12.175;18508.615
791.795;13618.735;  -12.145;17898.254
792.364;13509.532;  -11.575;17295.133
792.932;12134.076;  -11.085;16822.051
793.500;10963.202;  -11.345;17040.148
794.068;10898.071;  -12.565;17179.787
794.636;12016.488;  -12.105;16664.246
795.204;12588.176;  -11.995;16524.545
795.772;11952.177;  -12.615;17274.564
796.340;11518.413;  -12.425;17891.002
796.908;11271.007;  -11.455;17648.561
797.476;10596.376;  -12.165;17064.080
798.044;10219.824;  -15.795;16672.777
798.612;10436.609;  -10.985;17023.996
799.180;11172.570;  -12.055;16561.615
799.747;11489.373;  -12.525;15962.773
800.315;10360.280;  -14.765;15296.992
800.883; 9143.672;  -12.435;14801.771
801.450; 9036.808;  -11.295;14534.430
802.018; 9494.710;  -11.185;14173.248
802.585; 9474.888;  -11.625;14029.547
803.153; 8484.513;  -10.665;13836.846
803.720; 8021.257;  -10.275;13567.324
804.287; 7906.427;  -12.865;13360.622
804.855; 8147.438;  -12.324;13681.981
805.422; 8475.452;  -11.574;13536.560
805.989; 8296.849;  -11.004;13355.958
806.556; 8475.654;  -12.214;13747.896
807.124; 8882.666;  -13.304;13987.376
807.691; 8577.768;  -12.034;14038.674
808.258; 7904.166;  -11.014;14120.152
808.825; 7780.760;  -11.804;13860.111
809.392; 7705.508;  -11.544;13268.790
809.959; 7577.002;  -14.954;12680.389
810.526; 7874.509;  -10.214;12427.308
811.093; 8322.491;  -10.754;12030.105
811.659; 8017.979;  -12.194;11653.664
812.226; 6898.812;   -9.194;11637.183
812.793; 6570.564;   -9.644;11611.521
813.360; 7380.636;  -11.544;11885.181
813.926; 8232.752;  -12.814;12770.539
814.493; 8167.109;  -11.524;12677.638
815.060; 7853.701;  -12.254;11974.336
815.626; 7413.398;  -12.114;11594.715
816.193; 7088.659;  -11.994;11579.474
816.759; 6965.903;  -11.464;11666.972
817.325; 6648.462;  -10.444;11325.530
817.892; 6320.370;  -11.124;11105.369
818.458; 6170.804;  -11.864;10843.928
819.024; 6452.144;  -10.634;10714.406
819.591; 6552.784;  -10.554;10469.165
820.157; 6810.783;  -13.334;10235.523
820.723; 7102.741;  -13.044;10847.563
821.289; 7271.151;   -9.664;11040.980
821.855; 7473.228;  -10.994;10357.100
822.421; 7515.630;  -11.784; 9978.918
822.987; 7486.305;  -12.554; 9754.177
823.553; 7853.197;  -12.554;10065.755
824.119; 7705.387;   -8.544;10036.294
824.685; 6750.648;  -12.144;10029.192
825.251; 6158.240;  -12.754;10199.230
825.816; 5696.243;  -11.354; 9820.189
826.382; 5413.146;  -11.004; 9297.248
826.948; 5425.905;  -11.004; 9381.347
827.513; 5321.478;  -12.474; 9450.726
828.079; 5303.379;  -13.084; 9472.444
828.645; 5490.676;  -10.813; 9292.643
829.210; 5291.642;  -11.593; 9065.341
829.776; 5201.976;  -12.633; 9132.620
830.341; 5206.295;  -10.473; 9092.878
830.906; 5023.166;   -8.763; 9078.557
831.472; 4759.886;  -13.453; 8534.535
832.037; 4166.065;  -12.173; 8677.874
832.602; 3941.083;  -14.093; 8628.692
833.167; 4208.786;  -13.593; 8879.031
833.733; 4739.694;  -10.793; 9189.790
834.298; 5116.528;  -14.783; 9052.608
834.863; 4725.870;  -11.023; 8895.087
835.428; 4486.438;  -11.113; 8824.266
835.993; 4936.469;   -9.983; 8845.385
836.558; 5182.477;  -13.003; 8888.563
837.123; 4988.046;  -10.733; 8966.582
837.688; 4584.212;   -9.683; 8617.860
838.253; 4409.463;  -12.253; 8590.699
838.817; 4411.678;  -11.643; 8443.797
839.382; 4367.227;  -11.953; 8799.356
839.947; 4447.565;  -11.443; 8810.595
840.511; 4784.120;  -10.843; 8796.394
841.076; 5036.542;  -13.533; 8347.231
841.641; 4838.242;  -11.743; 8224.330
842.205; 4287.337;  -10.013; 8223.349
842.770; 3970.485;  -11.023; 8622.107
843.334; 4068.729;  -14.273; 8410.386
843.898; 4480.999;  -11.323; 8337.465
844.463; 4879.715;  -10.263; 8506.283
845.027; 5062.535;  -10.353; 8280.962
845.591; 5004.982;  -12.163; 8231.141
846.156; 4849.504;  -12.263; 7969.179
846.720; 4837.472;  -11.553; 7768.278
847.284; 4622.995;  -12.393; 7630.957
847.848; 3827.978;  -12.623; 7472.395
848.412; 3226.625;  -11.863; 7437.394
848.976; 3166.194;  -10.203; 7674.592
849.540; 3365.483;  -10.603; 7836.011
850.104; 3564.602;  -12.423; 7913.669
850.668; 3576.742;  -14.613; 7694.508
851.232; 3592.956;  -12.873; 7756.887
851.796; 3818.843;  -14.192; 7926.545
852.359; 4011.002;  -13.652; 7827.844
852.923; 3930.923;  -11.402; 7641.163
853.487; 3608.194;  -12.022; 7342.501
854.050; 3434.173;  -15.202; 7042.820
854.614; 3460.729;  -14.592; 7151.338
855.177; 3450.593;  -12.572; 7105.077
855.741; 3467.303;   -9.932; 6989.675
856.304; 3412.039;  -12.192; 6596.634
856.868; 3296.547;  -13.462; 6356.272
857.431; 3282.466;  -11.542; 6468.571
857.995; 3364.121;  -12.062; 6373.210
858.558; 3180.219;  -11.142; 6324.448
859.121; 3037.178;  -11.742; 6408.327
859.684; 3081.930;  -10.332; 6347.886
860.247; 3183.272;  -11.962; 6321.264
860.810; 3245.123;  -12.332; 6301.903
861.374; 3127.207;  -10.292; 6607.881
861.937; 2951.441;  -12.062; 6408.200
862.500; 2973.846;  -11.702; 6572.639
863.062; 3113.841;  -13.852; 6387.297
863.625; 3183.917;  -12.972; 6190.836
864.188; 3145.013;  -10.292; 5807.254
864.751; 3083.078;  -12.382; 5682.413
865.314; 2873.750;  -13.232; 5547.492
865.876; 2558.898;  -12.772; 5500.150
866.439; 2309.864;  -11.952; 5415.909
867.002; 2365.302;   -9.332; 5501.567
867.564; 2700.877;  -11.712; 5413.946
868.127; 2872.782;  -12.012; 5160.325
868.689; 2540.507;  -11.882; 5133.183
869.252; 2168.307;  -11.572; 5252.382
869.814; 2061.827;  -10.692; 5297.141
870.377; 2115.972;  -12.392; 5390.919
870.939; 2185.258;  -10.582; 5599.898
871.501; 2227.145;  -12.782; 5248.336
872.063; 2259.824;  -15.612; 4854.235
872.626; 2324.016;  -13.922; 4817.074
873.188; 2303.141;  -13.832; 4987.732
873.750; 2242.791;  -10.962; 4868.651
874.312; 2293.659;  -11.022; 4779.330
874.874; 2348.988;  -13.152; 4866.348
875.436; 2273.561;  -13.401; 4718.887
875.998; 2161.866;   -8.891; 4660.005
876.560; 2069.379;  -12.591; 4462.964
877.122; 2008.737;  -14.531; 4145.042
877.683; 1967.889;  -10.781; 4056.481
878.245; 1864.464;  -14.281; 3950.740
878.807; 1801.879;  -10.311; 4058.958
879.369; 1752.337;  -13.201; 3954.677
879.930; 1715.307;  -12.061; 3941.495
880.492; 1714.862;   -9.181; 4067.014
881.053; 1731.427;  -12.051; 3859.633
881.615; 1688.433;  -11.501; 3776.071
882.176; 1583.208;  -12.221; 3734.750
882.738; 1470.855;   -8.931; 3678.489
883.299; 1405.621;  -13.571; 3405.407
883.860; 1420.679;  -12.331; 3351.106
884.422; 1367.167;  -10.201; 3394.044
884.983; 1230.515;  -12.521; 3166.443
885.544; 1103.755;  -12.291; 3189.802
886.105; 1046.687;  -12.991; 3160.360
886.666; 1033.979;  -12.901; 3093.059
887.227; 1023.491;  -12.061; 2941.957
887.788;  992.121;  -11.641; 2974.836
888.349;  940.728;  -14.691; 2721.214
888.910;  893.308;   -9.681; 2696.493
889.471;  887.208;   -9.971; 2560.172
890.032;  899.073;  -13.151; 2558.190
890.593;  876.806;  -12.051; 2567.669
891.153;  835.025;  -12.841; 2460.307
891.714;  802.101;  -13.561; 2372.046
892.275;  770.831;  -12.401; 2309.505
892.835;  732.715;  -13.191; 2382.543
893.396;  694.196;  -12.551; 2295.502
893.956;  672.735;  -11.981; 2162.420
894.517;  654.841;  -12.221; 2125.439
895.077;  617.656;  -12.021; 2086.978
895.638;  554.986;  -10.891; 2126.316
896.198;  498.911;  -13.171; 1838.275
896.758;  462.792;  -11.891; 1892.813
897.319;  435.511;  -12.491; 1792.232
897.879;  419.097;  -12.401; 1762.751
898.439;  389.936;  -13.431; 1661.149
898.999;  372.738;  -11.340; 1781.468
899.559;  363.776;  -13.930; 1703.347
900.119;  344.393;  -13.730; 1537.525
900.679;  325.310;   -9.210; 1638.384
901.239;  309.340;  -10.860; 1527.902
901.799;  289.687;  -11.450; 1456.441
902.359;  271.281;  -13.800; 1357.140
902.919;  265.073;  -12.130; 1331.118
903.479;  266.254;  -12.650; 1317.257
904.038;  259.783;  -16.110; 1262.595
904.598;  245.870;  -13.690; 1152.034
905.158;  232.384;  -10.290; 1240.893
905.717;  225.665;  -10.670; 1233.691
906.277;  223.979;  -14.040; 1217.330
906.836;  224.581;  -13.510; 1222.408
907.396;  219.231;  -11.530; 1193.047
907.955;  207.637;  -13.190; 1182.526
908.515;  195.486;  -12.950; 1099.364
909.074;  187.242;  -12.390; 1092.863
909.633;  182.704;  -10.340; 1069.121
910.192;  180.613;  -11.170; 1196.460
910.752;  175.488;  -14.200; 1029.960
911.311;  169.858;  -13.810; 1009.780
911.870;  167.194;  -12.750;  971.460
912.429;  166.614;  -12.380; 1094.080
912.988;  163.167;  -11.930; 1081.060
913.547;  158.737;  -10.990;  940.380
914.106;  155.897;  -11.200;  999.420
914.665;  152.776;  -13.150;  984.020
915.224;  149.736;  -13.310; 1035.760
915.782;  148.670;  -13.340;  922.560
916.341;  148.837;  -10.710; 1049.840
916.900;  145.776;  -12.980;  925.260
917.458;  143.761;  -13.060;  884.220
918.017;  142.589;  -10.900;  942.600
918.576;  141.475;  -11.630;  904.440
919.134;  141.418;  -12.860;  837.980
919.693;  141.435;  -15.160;  893.060
920.251;  141.085;  -13.470;  876.500
920.809;  140.730;  -13.700;  839.580
921.368;  141.680;  -13.420;  885.360
921.926;  141.508;  -14.710;  842.940
922.484;  142.472;  -12.560;  903.360
923.042;  140.785;  -11.930;  880.340
923.601;  141.602;  -10.270;  998.680
924.159;  140.301;  -12.960;  935.560
924.717;  139.514;  -13.040;  841.080
925.275;  142.229;  -12.560;  903.240
925.833;  143.471;  -13.040;  779.320
926.391;  144.249;  -13.360;  938.380
926.949;  143.105;  -13.940;  857.680
927.506;  144.767;   -9.400;  903.500
928.064;  144.383;  -10.940;  877.580
928.622;  143.869;  -13.180;  880.100
929.180;  143.718;  -12.730;  814.180
929.737;  144.739;  -12.840;  808.540
930.295;  149.110;  -11.810;  928.480
930.853;  151.919;  -13.650;  849.100
931.410;  154.181;  -13.580;  821.120
931.968;  156.430;  -12.020;  940.660
932.525;  157.130;  -13.320;  909.380
933.082;  157.874;  -13.800;  811.440
933.640;  163.309;  -11.380;  925.900
934.197;  166.789;  -11.480;  886.360
934.754;  169.860;  -13.220;  897.780
935.312;  169.257;  -14.950;  863.340
935.869;  165.974;  -10.940; 1012.980
936.426;  161.463;  -12.100;  872.800
936.983;  161.015;  -12.930;  889.020
937.540;  161.957;  -14.250;  838.280
938.097;  167.664;  -12.600;  940.120
938.654;  173.685;  -11.260;  898.860
939.211;  177.880;  -13.020;  952.480
939.768;  180.286;  -15.760;  915.420
940.324;  182.644;  -13.920;  904.200
940.881;  177.386;  -11.620;  878.500
941.438;  175.131;   -9.870; 1021.200
941.995;  172.084;  -13.920;  992.560
942.551;  170.663;  -12.830;  875.620
943.108;  172.577;  -11.980;  937.920
943.664;  176.616;  -13.740;  869.340
944.221;  183.138;  -12.670; 1088.140
944.777;  181.537;  -13.250;  869.680
945.334;  179.349;  -13.000;  884.840
945.890;  179.869;  -13.020;  946.480
946.446;  178.825;  -13.880;  947.020
947.003;  181.172;  -12.660;  964.940
947.559;  182.888;   -8.730; 1063.040
948.115;  182.519;  -11.960; 1026.540
948.671;  182.937;  -12.360;  967.300
949.227;  182.720;  -12.700;  859.560
949.783;  179.289;  -13.450;  858.900
950.339;  169.145;  -10.620;  991.000
950.895;  153.316;  -14.770; 1023.840
951.451;  137.223;  -13.650;  925.280
952.007;  126.850;  -11.180;  998.540
952.563;  120.547;  -11.680;  937.780
953.118;  122.668;  -13.280;  904.940
953.674;  127.913;  -12.510;  935.780
954.230;  134.478;  -12.220;  949.640
954.785;  136.037;  -12.190;  936.640
955.341;  133.506;  -12.270;  998.160
955.897;  129.818;  -14.900;  834.660
956.452;  130.849;  -12.520;  953.840
957.008;  133.326;   -9.410; 1083.640
957.563;  131.119;  -11.280; 1009.540
958.118;  129.977;  -13.470;  877.700
958.674;  132.828;  -12.190;  946.780
959.229;  135.239;  -12.760; 1013.980
959.784;  139.497;  -15.710;  832.400
960.339;  146.478;  -12.540; 1001.280
960.894;  147.925;  -11.680;  963.760
961.449;  144.404;  -11.410;  859.960
962.004;  142.708;  -10.430; 1212.840
962.559;  137.286;  -14.040;  860.140
963.114;  135.848;  -14.270;  742.480
963.669;  136.918;  -11.320;  915.500
964.224;  135.031;  -14.620;  874.340
964.779;  133.135;  -14.150;  828.420
965.334;  134.147;  -10.850; 1017.860
965.888;  133.149;  -14.530;  875.360
966.443;  134.209;  -13.520;  972.380
966.998;  130.757;  -13.370;  819.460
967.552;  127.273;   -9.960;  908.380
968.107;  123.566;  -12.360;  868.300
968.661;  123.922;  -12.270;  922.440
969.216;  123.996;  -12.140;  856.280
969.770;  124.603;  -11.860;  917.200
970.324;  123.492;  -12.170;  923.140
970.879;  122.472;  -14.160;  947.180
971.433;  120.094;  -12.940;  952.720
971.987;  117.354;  -10.180;  895.340
972.541;  116.730;  -12.130;  917.100
973.095;  116.888;  -14.980; 1009.460
973.649;  114.445;  -14.480;  809.480
974.203;  116.844;  -13.530;  829.040
974.757;  117.987;  -12.060;  855.220
975.311;  116.688;  -13.240;  872.600
975.865;  113.714;  -12.550;  881.820
976.419;  111.881;  -13.180;  857.400
976.973;  111.693;  -14.100;  849.620
977.526;  110.627;  -13.330;  949.920
978.080;  107.352;  -15.390;  796.780
978.634;  107.312;  -11.670;  921.320
979.187;  104.728;  -10.640;  905.400
979.741;  104.600;  -13.330; 1018.380
980.294;   99.787;  -14.480;  789.160
980.848;   99.211;  -13.420;  717.220
981.401;   97.451;  -12.360;  816.540
981.955;   95.561;  -12.480;  844.300
982.508;   92.130;  -14.000;  746.340
983.061;   91.104;  -10.440;  915.260
983.615;   88.099;  -14.340;  798.800
984.168;   84.834;  -14.950;  770.080
984.721;   85.430;  -13.270;  880.760
985.274;   84.048;  -12.240;  867.500
985.827;   80.247;  -12.720;  834.220
986.380;   76.376;  -14.920;  721.340
986.933;   76.113;  -12.860;  864.800
987.486;   75.321;  -10.440;  861.920
988.039;   75.488;  -11.820;  863.100
988.591;   73.386;  -13.760;  893.260
989.144;   71.397;  -14.080;  737.260
989.697;   72.331;  -13.440;  758.740
990.250;   73.783;  -12.050;  858.100
990.802;   71.427;  -14.550;  755.860
991.355;   71.991;  -10.770;  974.880
991.907;   69.793;  -11.710;  864.320
992.460;   67.595;  -12.650;  753.760
993.012;   66.433;  -13.860;  749.540
993.565;   63.523;  -14.310;  711.360
994.117;   64.340;   -9.920;  950.780
994.669;   60.985;  -13.420;  701.320
995.221;   59.911;  -14.200;  791.920
995.774;   59.628;  -13.400;  787.580
996.326;   58.078;  -11.850;  740.220
996.878;   58.816;  -12.230;  838.420
997.430;   55.697;  -14.260;  699.860
997.982;   56.113;  -11.430;  750.140
998.534;   56.094;  -11.590;  739.060
999.086;   54.809;  -11.960;  738.220
999.638;   53.524;  -13.640;  661.380
1000.190;   53.444;  -13.660;  699.320
1000.741;   52.699;   -9.980;  742.700
1001.293;   52.584;  -11.860;  686.020
1001.845;   51.029;  -14.280;  676.640
1002.396;   51.761;  -12.270;  743.400
1002.948;   50.676;  -13.670;  737.400
1003.500;   49.314;  -12.010;  723.780
1004.051;   50.995;  -11.890;  907.580
1004.603;   49.282;  -11.220;  791.820
1005.154;   45.556;  -13.210;  608.980
1005.705;   44.805;  -11.850;  723.960
1006.257;   44.721;  -13.670;  707.220
1006.808;   43.266;  -12.060;  685.460
1007.359;   43.830;  -10.250;  763.240
1007.910;   41.346;  -13.440;  646.640
1008.461;   41.343;  -13.170;  732.940
1009.013;   39.993;  -14.590;  588.340
1009.564;   41.257;  -12.100;  793.520
1010.115;   39.289;  -14.000;  597.040
1010.665;   39.868;  -15.020;  602.160
1011.216;   39.240;  -12.560;  667.920
1011.767;   38.839;  -11.330;  697.920
1012.318;   39.484;  -11.450;  736.980
1012.869;   38.030;  -11.000;  679.000
1013.419;   37.766;  -11.760;  603.120
1013.970;   37.899;  -11.800;  666.640
1014.521;   37.112;  -14.750;  620.620
1015.071;   37.322;  -14.430;  670.380
1015.622;   36.547;  -14.170;  635.460
1016.172;   35.892;  -11.700;  596.820
1016.723;   36.074;  -13.230;  614.380
1017.273;   35.582;  -16.120;  604.160
1017.823;   36.496;  -13.360;  650.340
1018.374;   35.237;  -13.710;  611.760
1018.924;   34.986;  -11.050;  716.880
1019.474;   35.297;  -14.120;  718.880
1020.024;   32.951;  -12.990;  657.580
1020.574;   34.683;  -12.010;  726.160
1021.124;   34.745;  -12.080;  673.580
1021.674;   32.315;  -15.860;  559.120
1022.224;   34.234;  -11.710;  708.940
1022.774;   33.571;  -13.030;  668.820
1023.324;   34.173;  -11.000;  753.520
1023.874;   35.386;  -13.270;  875.760
1024.423;   32.652;  -14.570;  613.700
1024.973;   32.154;  -12.620;  610.760
1025.523;   32.103;  -12.630;  620.960
1026.072;   31.697;  -14.110;  606.420
1026.622;   30.844;  -15.390;  675.740
1027.172;   32.488;   -9.090;  715.660
1027.721;   30.654;  -12.250;  601.220
1028.270;   31.380;  -15.590;  663.400
1028.820;   30.808;  -13.840;  638.080
1029.369;   30.731;  -13.170;  612.700
1029.918;   30.858;  -14.080;  649.840
1030.468;   30.411;  -13.860;  564.780
1031.017;   30.888;  -12.970;  634.800
1031.566;   29.169;  -12.320;  608.900
1032.115;   30.760;  -13.140;  694.500
1032.664;   28.137;  -14.560;  596.480
1033.213;   30.156;  -11.620;  735.420
1033.762;   28.868;  -13.190;  635.620
1034.311;   28.769;  -13.460;  677.220
1034.860;   29.124;  -15.770;  691.000
1035.408;   29.230;  -13.100;  722.720
1035.957;   29.040;  -12.880;  719.540
1036.506;   27.231;  -13.640;  530.800
1037.055;   29.787;  -12.420;  844.320
1037.603;   28.529;  -13.740;  664.000
1038.152;   26.345;  -13.840;  534.760
1038.700;   27.328;  -10.770;  585.740
1039.249;   27.189;  -13.520;  681.220
1039.797;   27.271;  -13.060;  633.360
1040.345;   26.950;  -11.760;  705.420
1040.894;   26.334;  -10.790;  625.300
1041.442;   26.675;  -15.420;  632.200
1041.990;   24.804;  -14.550;  559.160
1042.538;   24.937;  -15.620;  536.180
1043.087;   25.569;  -14.940;  570.860
1043.635;   26.493;  -12.100;  670.500
1044.183;   25.155;  -13.200;  586.400
1044.731;   25.025;  -11.630;  576.000
1045.279;   24.683;  -14.200;  674.920
1045.827;   26.912;  -12.510;  892.400
1046.374;   23.778;  -14.960;  515.420
1046.922;   22.874;  -11.850;  590.580
1047.470;   25.230;  -13.770;  691.300
1048.018;   24.311;  -15.380;  647.960
1048.565;   24.813;  -14.010;  708.600
1049.113;   23.083;  -14.620;  557.000
1049.660;   23.317;  -14.940;  629.660
1050.208;   23.974;  -14.540;  675.640
1050.755;   22.867;  -13.710;  606.580
1051.303;   23.980;  -11.880;  686.820
1051.850;   23.146;  -12.160;  635.120
1052.397;   21.336;  -15.110;  473.960
1052.945;   21.557;  -14.770;  617.760
1053.492;   23.388;  -12.320;  741.840
1054.039;   23.782;  -13.290;  720.180
1054.586;   21.901;  -15.210;  557.240
1055.133;   22.514;  -12.920;  693.140
1055.680;   22.493;  -12.610;  646.620
1056.227;   21.038;  -12.620;  542.780
1056.774;   23.988;  -13.010;  794.980
1057.321;   21.166;  -16.180;  523.260
1057.868;   21.955;  -11.230;  651.320
1058.415;   21.199;  -10.890;  651.980
1058.961;   21.701;  -12.530;  678.940
1059.508;   20.708;  -14.120;  643.820
1060.055;   20.279;  -13.340;  581.780
1060.601;   21.129;  -12.920;  624.300
1061.148;   20.267;  -14.430;  616.820
1061.694;   20.448;  -14.140;  592.580
1062.241;   20.789;  -12.550;  596.320
1062.787;   21.138;  -13.370;  663.140
1063.334;   22.299;  -12.260;  808.560
1063.880;   20.152;  -10.800;  668.360
1064.426;   20.471;   -9.920;  706.820
1064.972;   19.653;  -12.970;  601.340
1065.518;   17.902;  -14.440;  566.640
1066.065;   19.336;  -12.680;  624.460
1066.611;   18.498;  -13.520;  598.800
1067.157;   19.438;  -11.100;  641.860
1067.703;   19.025;  -14.100;  668.480
1068.249;   18.847;  -13.750;  605.220
1068.794;   18.478;  -11.070;  626.880
1069.340;   17.805;  -13.210;  578.960
1069.886;   18.503;  -14.850;  590.700
1070.432;   16.977;  -14.580;  541.720
1070.977;   17.277;  -12.930;  601.080
1071.523;   16.953;  -11.970;  573.060
1072.068;   17.374;  -13.730;  582.000
1072.614;   16.800;  -14.550;  527.760
1073.160;   17.989;  -13.690;  687.040
1073.705;   16.755;  -14.780;  572.520
1074.250;   16.694;  -15.430;  559.900
1074.796;   17.345;  -11.620;  655.160
1075.341;   17.577;  -11.580;  664.100
1075.886;   17.205;  -13.190;  594.240
1076.431;   16.723;  -13.630;  649.880
1076.976;   16.476;  -11.670;  639.220
1077.521;   16.194;  -11.600;  583.080
1078.067;   15.273;  -13.920;  579.400
1078.612;   16.181;  -12.910;  661.620
1079.156;   16.274;  -15.340;  601.540
1079.701;   16.843;  -12.560;  693.260
1080.246;   16.747;  -12.490;  696.300
1080.791;   15.640;  -14.550;  625.020
1081.336;   15.838;  -15.210;  659.320
1081.880;   16.352;  -11.280;  649.680
1082.425;   15.241;  -12.830;  573.480
1082.970;   16.290;  -11.680;  717.040
1083.514;   14.714;  -15.500;  597.000
1084.059;   14.413;  -11.770;  586.720
1084.603;   14.469;  -13.480;  565.840
1085.147;   15.132;  -13.940;  645.220
1085.692;   15.953;  -13.170;  716.800
1086.236;   12.648;  -15.740;  503.140
1086.780;   16.194;  -10.750;  751.440
1087.325;   14.990;  -14.900;  654.620
1087.869;   14.461;  -15.160;  610.700
1088.413;   14.652;  -11.030;  705.040
1088.957;   13.601;  -15.210;  543.400
1089.501;   14.897;  -12.310;  766.640
1090.045;   14.352;  -12.790;  726.480
1090.589;   12.055;  -14.040;  569.920
1091.133;   13.886;  -12.800;  673.340
1091.676;   13.276;  -13.600;  591.940
1092.220;   13.006;  -12.960;  600.920
1092.764;   13.840;  -10.830;  706.960
1093.307;   13.039;  -12.390;  673.780
1093.851;   11.901;  -15.850;  556.540
1094.395;   13.317;  -12.980;  683.140
1094.938;   12.636;  -13.670;  632.520
1095.482;   12.456;  -12.740;  559.800
1096.025;   13.328;  -13.340;  710.880
1096.568;   13.549;  -10.500;  779.280
1097.112;    9.938;  -13.500;  508.180
1097.655;   12.504;  -13.060;  603.000
1098.198;   10.439;  -13.240;  600.180
1098.741;   10.894;  -15.490;  612.860
1099.285;   12.277;  -13.410;  657.300
1099.828;    9.529;  -15.640;  439.400
1100.371;   11.580;  -13.980;  608.160
1100.914;   11.591;  -13.990;  682.660
1101.457;   12.346;  -15.030;  679.900
1101.999;   10.642;  -12.480;  584.680
1102.542;   11.360;  -12.410;  641.440
1103.085;    9.525;  -14.730;  658.500
1103.628;   11.742;  -12.190;  762.060
1104.170;   10.487;  -12.360;  588.280
1104.713;   10.338;  -13.350;  646.700
1105.256;    9.741;  -14.930;  557.440
1105.798;    9.313;  -15.150;  499.980
1106.341;   11.825;  -13.230;  728.900
1106.883;    9.887;  -14.680;  521.340
1107.425;   10.959;  -14.810;  668.180
1107.968;    9.739;  -12.940;  612.380
1108.510;   11.147;  -10.550;  684.960
1109.052;    8.364;  -15.640;  612.620
1109.594;    9.050;  -14.440;  554.440
1110.136;    9.602;  -11.380;  643.220
1110.679;    8.822;  -13.090;  633.080
1111.221;    9.219;  -14.230;  604.460
1111.763;    7.976;  -14.260;  559.220
1112.304;    8.588;  -14.510;  547.140
1112.846;    8.690;  -14.700;  666.240
1113.388;   12.341;  -12.270;  942.180
1113.930;    8.742;  -13.340;  694.200
1114.472;    8.817;  -12.560;  606.540
1115.013;    6.991;  -14.280;  551.280
1115.555;    7.372;  -14.010;  587.100
1116.097;    7.231;  -14.730;  579.480
1116.638;    8.079;  -12.160;  684.600
1117.180;    8.689;  -14.320;  667.740
1117.721;    8.144;  -15.730;  568.580
1118.262;    8.533;  -13.480;  677.960
1118.804;    8.478;  -11.530;  637.340
1119.345;    7.000;  -13.540;  578.400
1119.886;    8.642;  -14.470;  704.040
1120.427;    6.066;  -13.030;  589.020
1120.969;    6.861;  -13.150;  597.920
1121.510;    5.477;  -13.940;  563.060
1122.051;    7.245;  -12.310;  723.580
1122.592;    6.046;  -13.870;  655.420
1123.133;    5.481;  -12.890;  547.940
1123.673;    7.234;  -13.300;  706.480
1124.214;    6.402;  -14.000;  612.460
1124.755;    7.259;  -13.210;  639.460
1125.296;    6.435;  -13.450;  627.320
1125.836;    8.126;  -12.610;  691.500
1126.377;    5.809;  -15.840;  599.660
1126.918;    6.654;  -11.830;  614.980
1127.458;    5.630;  -11.830;  622.220
1127.999;    6.288;  -11.490;  656.980
1128.539;    5.768;  -12.900;  694.240
1129.079;    5.635;  -14.910;  632.720
1129.620;    5.187;  -12.920;  558.100
1130.160;    4.160;  -14.640;  539.480
1130.700;    5.553;  -13.270;  640.840
1131.240;    6.150;  -14.110;  643.700
1131.781;    5.241;  -13.130;  619.680
1132.321;    5.278;  -15.220;  599.120
1132.861;    3.535;  -15.670;  564.200
1133.401;    4.061;  -13.970;  593.940
1133.941;    5.575;  -13.740;  626.280
1134.481;    4.595;  -13.200;  597.580
1135.020;    4.134;  -14.830;  609.160
1135.560;    5.169;  -14.590;  674.940
1136.100;    3.796;  -13.730;  501.160
1136.640;    3.398;  -15.240;  510.480
1137.179;    3.055;  -14.710;  537.960
1137.719;    3.750;  -14.090;  605.400
1138.258;    4.208;  -12.470;  587.360
1138.798;    4.743;  -12.580;  663.780
1139.337;    2.928;  -16.480;  482.840
1139.877;    4.061;  -13.970;  642.360
1140.416;    6.352;   -9.870;  878.060
1140.955;    3.457;  -14.860;  535.380
1141.494;    4.109;  -14.530;  669.280
1142.034;    2.654;  -13.940;  583.520
1142.573;    4.308;  -11.160;  646.280
1143.112;    2.707;  -15.050;  553.480
1143.651;    2.551;  -15.390;  536.480
1144.190;    4.333;  -12.990;  691.640
1144.729;    3.261;  -12.220;  607.420
1145.267;    3.100;  -14.020;  584.900
1145.806;    4.409;  -12.740;  637.040
1146.345;    2.826;  -14.810;  635.020
1146.884;    2.891;  -12.920;  622.500
1147.422;    2.456;  -13.930;  533.060
1147.961;    4.129;  -11.830;  708.460
1148.500;    2.630;  -12.710;  669.720
1149.038;    3.680;  -14.420;  632.500
1149.577;    2.954;  -13.920;  698.640
1150.115;    1.206;  -17.050;  452.280
1150.653;    2.014;  -14.890;  607.340
1151.192;    2.490;  -15.270;  552.920
1151.730;    2.785;  -13.160;  652.560
1152.268;    1.465;  -15.430;  589.520
1152.806;    2.021;  -15.880;  571.180
1153.344;    0.950;  -13.240;  577.640
1153.882;    1.968;  -13.010;  600.060
1154.421;    1.311;  -16.180;  470.620
1154.958;    1.084;  -13.880;  595.240
1155.496;    2.267;  -13.590;  645.280
1156.034;    2.519;  -11.910;  721.880
1156.572;    2.988;  -12.010;  667.060
1157.110;    0.015;  -16.250;  473.940
1157.647;    2.056;  -15.230;  676.960
1158.185;    0.585;  -13.770;  564.320
1158.723;    0.329;  -15.300;  509.200
1159.260;    1.221;  -13.130;  701.700
1159.798;    2.385;  -11.300;  658.160
1160.335;    0.755;  -13.210;  631.820

