
Integration time [ms]:   3.882
Averaging Nr. [scans]: 1000
Smoothing Nr. [pixels]: 0
Data measured with spectrometer [name]: 7414430SP
Wave   ;Sample   ;Dark     ;Reference
[nm]   ;[counts] ;[counts] ;[counts] 

288.544;  141.633;    7.153;  793.890
289.143;  144.820;    8.402;  681.602
289.742;  145.138;    7.062;  828.814
290.341;  131.831;    0.191;  789.841
290.940;  122.348;    0.321;  730.702
291.538;  123.957;    3.811;  881.108
292.137;  121.857;   -3.438;  792.581
292.736;  124.969;   -2.809;  975.101
293.335;  121.256;   -5.239;  735.086
293.934;  123.050;   -4.939;  781.677
294.532;  123.030;   -2.199; 1031.958
295.131;  109.107;   -6.831;  834.394
295.730;  108.335;   -6.620;  809.588
296.328;  106.347;   -6.471;  783.442
296.927;  106.250;   -6.571;  779.652
297.525;  107.777;   -7.391;  781.236
298.124;   97.658;   -9.402;  654.009
298.722;  103.535;   -5.781;  761.933
299.321;  101.410;   -6.351;  708.597
299.919;   98.549;   -8.661;  751.918
300.518;   94.475;  -11.922;  689.338
301.116;   96.308;   -6.941;  691.381
301.715;   96.863;   -5.471;  730.222
302.313;   95.072;   -8.361;  704.943
302.911;   91.696;   -9.082;  733.830
303.509;   97.092;   -4.571;  925.627
304.108;   94.895;   -7.111;  760.383
304.706;   93.489;   -7.681;  801.664
305.304;   87.526;   -9.162;  796.707
305.902;   94.103;   -6.761;  784.484
306.500;   89.568;   -6.921;  728.200
307.098;   87.285;   -6.491;  746.560
307.696;   85.728;   -6.941;  780.432
308.294;   86.708;   -6.301;  731.359
308.892;   87.808;   -4.771;  759.769
309.490;   84.454;   -5.141;  712.161
310.088;   83.168;   -2.912;  788.444
310.686;   87.495;   -0.421;  821.749
311.284;   83.214;   -3.461;  766.040
311.882;   81.204;   -6.282;  731.225
312.480;   77.955;   -3.632;  697.167
313.078;   79.987;   -2.112;  808.331
313.675;   79.972;   -1.931;  691.600
314.273;   75.297;   -1.442;  797.837
314.871;   75.117;   -3.002;  589.829
315.468;   73.487;   -2.252;  652.090
316.066;   76.458;   -1.091;  694.427
316.664;   68.301;   -4.512;  656.351
317.261;   73.626;   -0.062;  910.128
317.859;   69.525;   -0.952;  768.735
318.456;   70.366;    0.719;  830.096
319.054;   64.460;   -4.002;  787.828
319.651;   64.723;   -4.972;  759.928
320.249;   63.763;   -1.162;  810.188
320.846;   62.483;   -2.651;  714.286
321.443;   59.514;   -3.832;  832.135
322.041;   56.867;   -4.312;  812.315
322.638;   55.305;   -3.872;  701.456
323.235;   55.946;   -4.361;  665.683
323.833;   53.680;   -4.821;  740.354
324.430;   49.230;   -6.971;  615.900
325.027;   50.303;   -4.361;  876.855
325.624;   50.896;   -5.581;  644.532
326.221;   47.738;   -6.601;  689.717
326.818;   47.163;   -7.301;  818.332
327.415;   50.673;   -6.180;  748.828
328.012;   49.421;   -5.920;  690.585
328.609;   47.325;   -8.390;  731.389
329.206;   45.811;   -6.121;  778.621
329.803;   45.600;   -5.241;  737.841
330.400;   47.920;   -7.420;  704.260
330.997;   48.052;   -5.931;  817.147
331.594;   46.009;   -5.641;  788.185
332.191;   52.176;   -6.451;  728.722
332.787;   55.174;   -4.651;  844.463
333.384;   53.055;   -5.472;  763.093
333.981;   51.169;   -6.303;  815.687
334.578;   53.824;   -5.892;  708.378
335.174;   56.221;   -4.102;  731.469
335.771;   53.923;   -8.053;  836.456
336.367;   51.663;   -7.363;  710.631
336.964;   57.084;   -6.243;  793.266
337.561;   55.517;   -5.653;  731.112
338.157;   50.288;   -7.074;  911.916
338.754;   47.416;   -5.474;  796.589
339.350;   46.266;   -5.624;  722.493
339.946;   49.475;   -5.054;  773.135
340.543;   41.320;   -6.695;  846.136
341.139;   35.930;   -6.215;  720.836
341.735;   33.874;   -5.746;  772.593
342.332;   33.941;   -7.335;  691.472
342.928;   33.373;   -4.835;  795.394
343.524;   27.337;   -4.586;  761.684
344.120;   25.003;   -3.946;  738.562
344.716;   28.012;   -4.835;  723.717
345.313;   25.915;   -5.325;  795.342
345.909;   20.652;   -6.535;  627.336
346.505;   23.673;   -4.725;  740.247
347.101;   23.806;   -4.164;  827.864
347.697;   22.999;   -5.274;  785.398
348.293;   17.540;   -7.145;  627.244
348.889;   19.421;   -4.364;  745.914
349.485;   19.088;   -6.404;  688.205
350.081;   19.017;   -7.534;  772.592
350.676;   14.856;   -6.995;  691.606
351.272;   19.763;   -3.544;  809.530
351.868;   19.535;   -5.324;  780.497
352.464;   16.834;   -7.204;  723.932
353.059;   12.719;   -6.894;  646.017
353.655;   16.237;   -3.754;  777.063
354.251;   17.026;   -6.143;  759.845
354.846;   10.933;   -9.464;  740.646
355.442;    9.447;   -7.555;  753.071
356.038;   11.071;   -5.474;  751.708
356.633;   12.204;   -5.914;  728.594
357.229;    9.444;   -8.944;  724.757
357.824;    8.362;   -6.794;  703.600
358.420;    7.330;   -5.754;  679.726
359.015;    8.756;   -5.664;  695.357
359.610;    8.757;   -8.004;  763.920
360.206;    2.780;   -8.815;  603.240
360.801;    6.350;   -8.834;  646.503
361.396;    8.727;   -6.274;  725.975
361.992;    2.930;   -8.574;  668.220
362.587;    1.199;   -9.265;  670.160
363.182;    3.258;   -5.484;  689.631
363.777;    4.393;   -5.164;  738.242
364.372;    4.275;   -6.954;  737.314
364.967;   -0.193;   -7.065;  680.744
365.563;    4.245;   -5.684;  815.567
366.158;    1.698;   -6.484;  685.161
366.753;    1.358;   -8.004;  649.263
367.348;    0.830;  -10.114;  746.056
367.942;    0.533;   -7.764;  697.298
368.537;    0.262;   -4.554;  754.245
369.132;   -0.468;   -7.664;  703.428
369.727;   -4.435;   -8.905;  638.079
370.322;   -3.377;   -4.945;  580.186
370.917;   -3.290;   -7.095;  710.646
371.511;   -0.224;   -6.574;  861.834
372.106;   -3.963;   -6.515;  776.964
372.701;   -7.428;   -8.225;  585.988
373.296;   -0.007;   -4.494;  863.135
373.890;   -6.292;   -7.965;  647.840
374.485;   -7.730;   -9.745;  691.199
375.079;   -4.564;   -5.554;  738.685
375.674;   -2.205;   -4.724;  812.970
376.268;   -7.572;   -8.365;  691.759
376.863;  -12.928;   -8.126;  580.327
377.457;   -6.207;   -6.045;  662.490
378.052;   -7.242;   -6.835;  764.884
378.646;   -9.634;   -9.375;  741.167
379.240;   -9.084;   -6.185;  721.176
379.835;   -8.365;   -6.135;  636.978
380.429;   -9.778;   -8.365;  562.557
381.023;  -10.467;   -7.935;  779.205
381.617;  -12.686;   -8.325;  680.106
382.212;   -8.994;   -7.405;  685.303
382.806;   -7.992;   -4.155;  760.690
383.400;  -12.135;   -8.945;  672.281
383.994;  -13.371;   -8.365;  664.870
384.588;   -9.354;   -7.824;  697.701
385.182;   -7.890;   -7.984;  726.624
385.776;   -9.566;  -10.404;  706.875
386.370;  -12.940;   -7.335;  681.968
386.964;  -12.014;   -7.485;  684.155
387.558;   -8.948;   -8.174;  598.360
388.152;  -12.334;  -10.415;  681.959
388.745;  -10.684;   -9.595;  814.707
389.339;   -9.264;   -6.454;  747.642
389.933;   -8.094;   -5.804;  695.370
390.527;  -10.015;   -6.854;  859.029
391.120;  -16.320;   -7.665;  595.318
391.714;  -13.143;   -7.245;  711.633
392.308;   -9.325;   -4.514;  780.253
392.901;  -13.931;   -7.935;  642.460
393.495;  -15.101;   -8.585;  595.414
394.089;  -12.942;   -5.245;  760.452
394.682;  -13.422;   -6.305;  697.188
395.275;  -13.328;   -9.335;  719.927
395.869;  -15.626;   -7.375;  667.314
396.462;  -13.383;   -7.055;  616.609
397.056;   -9.773;   -5.434;  776.621
397.649;  -14.419;   -9.525;  731.575
398.242;  -11.938;   -7.574;  712.645
398.836;  -10.336;   -5.134;  766.408
399.429;  -11.829;   -6.544;  631.041
400.022;  -15.245;   -9.215;  665.902
400.615;  -12.300;   -8.105;  805.609
401.208;  -10.674;   -7.614;  691.451
401.802;  -12.811;   -8.085;  699.329
402.395;  -14.576;   -9.575;  683.502
402.988;  -15.873;   -9.285;  696.627
403.581;  -12.263;   -7.514;  646.878
404.174;   -9.739;   -6.404;  686.568
404.767;  -12.713;   -8.775;  638.583
405.360;  -15.132;   -7.415;  621.445
405.953;   -8.930;   -5.624;  759.034
406.545;   -9.065;   -6.474;  725.342
407.138;  -13.697;   -8.445;  618.350
407.731;  -11.604;  -10.044;  613.303
408.324;   -8.292;   -8.484;  660.554
408.917;   -8.781;   -7.624;  681.864
409.509;  -11.704;   -8.304;  740.396
410.102;  -13.559;   -8.495;  643.948
410.695;   -6.962;   -7.824;  665.758
411.287;   -7.211;   -7.754;  599.821
411.880;   -9.537;   -9.294;  585.421
412.472;  -11.922;   -8.814;  613.092
413.065;   -9.080;   -6.674;  629.408
413.657;   -7.138;   -9.664;  576.678
414.250;   -7.590;  -10.264;  646.681
414.842;   -9.196;   -8.664;  676.353
415.434;   -5.958;   -8.584;  570.463
416.027;   -2.392;   -9.423;  652.196
416.619;   -4.629;  -10.764;  713.400
417.211;   -5.663;   -7.404;  599.352
417.804;   -1.417;   -7.383;  628.499
418.396;   -4.891;   -8.334;  607.643
418.988;   -2.810;   -9.633;  659.238
419.580;   -5.968;  -10.554;  568.276
420.172;   -3.726;   -8.683;  536.196
420.764;    1.112;   -9.713;  672.482
421.356;   -1.938;  -11.303;  636.898
421.948;   -1.538;   -8.453;  677.661
422.540;    3.459;   -5.793;  680.027
423.132;    3.407;   -7.162;  600.641
423.724;   -0.793;   -7.933;  561.267
424.316;    1.054;   -9.083;  621.345
424.908;    4.979;   -8.392;  591.517
425.500;    6.724;   -8.062;  647.978
426.092;    6.155;   -9.692;  648.268
426.683;    4.190;   -8.223;  684.836
427.275;    7.935;   -8.602;  641.471
427.867;    9.599;   -8.382;  668.948
428.458;    9.701;  -10.472;  732.344
429.050;    7.841;   -9.112;  680.749
429.642;   10.111;   -7.752;  743.124
430.233;   10.788;   -8.832;  569.356
430.825;   12.587;   -8.292;  724.809
431.416;    9.170;   -7.522;  698.241
432.008;   13.638;   -9.262;  651.723
432.599;   14.537;   -6.441;  656.073
433.190;   11.401;   -9.222;  637.670
433.782;    9.421;  -11.832;  590.395
434.373;   18.574;   -7.121;  884.765
434.964;   16.608;   -9.141;  602.920
435.556;   13.736;   -9.332;  634.537
436.147;   17.321;   -8.892;  758.490
436.738;   16.991;   -8.151;  701.099
437.329;   22.560;   -8.281;  721.723
437.920;   15.259;   -9.062;  666.688
438.511;   14.581;  -11.182;  564.526
439.103;   21.566;   -7.461;  623.998
439.694;   24.515;   -8.541;  681.583
440.285;   24.328;   -7.351;  764.432
440.876;   22.671;   -8.201;  845.738
441.466;   21.956;  -10.381;  575.162
442.057;   27.601;   -7.620;  665.814
442.648;   25.974;   -8.461;  746.255
443.239;   23.982;   -8.991;  620.477
443.830;   29.635;   -7.910;  704.958
444.421;   31.322;   -7.340;  655.474
445.011;   27.709;   -8.981;  693.619
445.602;   27.456;   -9.341;  743.126
446.193;   29.307;  -11.390;  488.117
446.783;   34.479;  -11.240;  640.397
447.374;   29.525;   -8.471;  692.759
447.964;   28.921;   -8.471;  713.770
448.555;   37.949;   -6.590;  822.742
449.145;   35.131;   -8.200;  662.853
449.736;   36.304;  -11.040;  803.179
450.326;   35.311;   -9.640;  713.626
450.917;   40.686;   -9.480;  675.324
451.507;   40.786;   -8.020;  600.661
452.097;   40.134;  -10.210;  746.267
452.688;   41.514;   -7.810;  742.160
453.278;   40.845;   -9.360;  566.840
453.868;   45.791;   -8.669;  793.550
454.458;   43.798;  -10.950;  651.141
455.048;   44.127;  -10.200;  711.783
455.639;   45.126;   -9.369;  567.096
456.229;   48.914;   -7.739;  710.694
456.819;   50.509;   -8.939;  751.158
457.409;   50.405;   -7.169;  773.993
457.999;   53.755;   -7.779;  737.505
458.589;   53.998;   -7.039;  686.606
459.179;   53.358;   -9.019;  717.658
459.769;   51.795;   -8.909;  627.099
460.358;   57.033;   -8.659;  797.262
460.948;   56.921;   -8.209;  689.503
461.538;   58.040;   -9.879;  660.677
462.128;   56.549;   -9.379;  664.934
462.717;   62.916;   -9.158;  710.326
463.307;   66.729;   -8.638;  705.846
463.897;   61.349;   -8.869;  656.942
464.486;   61.219;   -7.409;  837.128
465.076;   65.649;   -9.618;  733.776
465.666;   69.432;   -7.578;  652.900
466.255;   66.952;   -9.369;  785.651
466.845;   65.500;  -10.049;  666.749
467.434;   69.696;   -8.168;  725.873
468.023;   71.180;   -9.188;  658.357
468.613;   67.071;   -9.849;  713.946
469.202;   72.157;  -12.958;  646.507
469.791;   76.778;   -9.488;  737.811
470.381;   78.847;   -6.468;  742.813
470.970;   77.813;  -10.248;  711.099
471.559;   78.037;  -11.428;  733.291
472.148;   81.323;   -9.738;  675.737
472.738;   83.953;   -7.877;  765.466
473.327;   82.274;  -11.868;  637.529
473.916;   82.617;   -8.578;  737.446
474.505;   86.688;  -11.137;  751.703
475.094;   89.631;   -9.407;  806.570
475.683;   88.993;   -9.977;  797.699
476.272;   89.863;  -10.807;  730.632
476.861;   93.247;  -11.017;  706.754
477.449;   98.995;  -10.316;  728.487
478.038;   93.699;  -10.187;  692.513
478.627;   95.069;  -12.458;  714.852
479.216;  102.663;  -10.127;  769.441
479.805;  104.588;   -6.256;  783.375
480.393;  104.293;   -8.737; 1008.945
480.982;  103.319;   -9.087;  874.501
481.571;  110.016;   -7.806;  858.333
482.159;  110.196;  -10.596;  705.386
482.748;  108.803;  -11.507;  821.385
483.336;  114.837;   -8.366;  858.209
483.925;  114.936;   -7.497;  774.373
484.513;  121.890;   -8.326;  758.962
485.102;  118.997;  -10.277;  810.965
485.690;  127.645;   -8.256; 1011.050
486.278;  128.817;   -7.146;  979.329
486.867;  129.202;   -7.986;  809.662
487.455;  131.250;   -9.926;  898.229
488.043;  132.524;  -10.026;  748.361
488.631;  141.870;   -7.226; 1005.079
489.220;  145.210;   -8.696;  908.626
489.808;  144.878;  -12.276;  741.415
490.396;  152.764;   -9.386;  914.645
490.984;  158.883;   -8.506;  830.161
491.572;  169.065;   -8.226;  940.315
492.160;  174.476;   -9.836;  919.081
492.748;  185.224;  -10.316;  884.341
493.336;  205.336;   -7.146; 1019.693
493.924;  227.986;   -7.965;  958.077
494.512;  254.344;  -10.316; 1066.638
495.100;  289.283;  -10.186; 1103.280
495.687;  341.569;   -7.805; 1206.373
496.275;  405.431;   -9.686; 1150.796
496.863;  484.629;  -11.566; 1281.171
497.451;  580.822;  -11.406; 1386.805
498.038;  712.364;   -8.235; 1556.729
498.626;  828.532;   -7.485; 1741.407
499.214;  988.239;   -8.646; 2016.609
499.801; 1231.775;   -9.936; 2220.633
500.389; 1427.787;   -8.056; 2312.494
500.976; 1606.230;   -6.166; 2744.849
501.564; 1809.169;   -9.126; 3148.565
502.151; 2121.543;  -12.456; 3515.999
502.738; 2547.385;  -10.056; 3971.274
503.326; 2962.960;  -10.605; 4403.796
503.913; 3314.490;  -10.576; 5161.749
504.500; 3823.099;   -9.056; 5986.420
505.088; 4312.431;  -10.136; 6381.201
505.675; 5088.862;   -9.075; 6925.547
506.262; 5634.054;  -11.346; 7619.060
506.849; 6294.573;   -9.376; 8733.969
507.436; 6874.135;   -7.365; 9790.121
508.023; 7248.569;   -8.686; 9985.472
508.610; 7715.213;   -8.846;10434.618
509.197; 8697.308;   -9.077;11198.435
509.784; 9937.608;  -10.246;12391.194
510.371;10438.128;   -9.825;13603.713
510.958;11234.683;  -10.896;14426.586
511.545;12009.612;   -9.006;15243.775
512.132;12821.583;   -8.765;15945.876
512.719;13927.119;   -8.286;16340.369
513.305;16041.322;   -9.256;18011.766
513.892;18352.631;  -11.106;19754.971
514.479;20072.852;   -8.576;20967.805
515.066;21324.939;   -9.046;22299.793
515.652;21836.635;  -10.676;22908.660
516.239;23398.516;  -10.166;23798.875
516.825;23935.412;  -11.266;25567.275
517.412;23595.529;   -7.446;28154.959
517.998;24012.908;  -10.916;28344.111
518.585;23395.318;   -9.166;27134.219
519.171;23260.715;  -10.135;27268.576
519.758;25000.381;   -8.806;28964.129
520.344;28146.691;   -6.716;30664.494
520.930;29800.061;  -10.166;32550.605
521.516;30208.393;   -9.615;35422.895
522.103;31576.146;   -8.656;38280.004
522.689;34063.520;   -9.646;37835.117
523.275;34855.020;  -10.786;37288.613
523.861;35703.273;   -9.266;37281.395
524.447;35588.527;   -8.285;37846.949
525.033;35640.891;   -9.426;38321.949
525.619;35018.074;   -9.836;38579.285
526.205;35807.703;   -8.136;40622.875
526.791;37152.871;   -9.986;42258.836
527.377;39124.707;   -8.236;42966.902
527.963;37672.281;  -12.117;42018.949
528.549;35914.164;   -8.376;42476.828
529.135;37261.676;   -8.696;41854.852
529.721;39169.699;   -9.686;41237.711
530.306;41382.195;   -8.616;41259.445
530.892;44534.371;   -9.396;41506.047
531.478;45284.535;   -9.926;43559.613
532.063;46777.031;  -10.236;47695.563
532.649;49184.895;   -8.257;50808.324
533.235;50566.277;  -11.476;51787.500
533.820;49116.688;   -8.156;52145.035
534.406;47471.789;  -12.257;51133.488
534.991;45593.801;   -8.686;49996.805
535.576;43330.586;   -9.426;48882.852
536.162;43095.133;   -8.436;46942.285
536.747;41853.469;  -10.957;45711.746
537.333;41338.586;  -13.147;48510.180
537.918;44207.117;   -9.027;50439.891
538.503;45269.254;   -8.256;50863.711
539.088;48890.301;  -10.576;50906.922
539.673;51043.152;  -10.907;52621.965
540.259;51206.074;   -9.126;52368.094
540.844;47918.734;   -9.026;50879.109
541.429;49560.719;   -9.597;52077.777
542.014;53837.250;  -11.447;52716.695
542.599;54894.297;   -9.236;52363.281
543.184;53248.676;  -12.267;53187.137
543.769;54743.902;  -10.367;54697.605
544.354;54714.707;  -10.887;53913.914
544.938;47942.273;  -11.687;49680.164
545.523;43030.957;   -8.286;47386.277
546.108;44706.551;   -9.317;49151.949
546.693;46881.004;  -10.187;51384.637
547.278;45885.828;   -9.926;51853.254
547.862;45209.250;   -9.196;51173.750
548.447;44489.605;   -9.657;51691.395
549.031;44702.137;   -9.127;52456.703
549.616;48398.211;  -10.836;52714.516
550.201;51969.211;   -8.507;52414.598
550.785;52233.363;  -10.537;52355.059
551.370;52100.621;  -11.727;54589.453
551.954;52240.375;   -9.457;58267.348
552.538;51461.527;   -8.147;59062.176
553.123;49988.898;   -9.397;58115.285
553.707;47799.234;   -9.558;56556.285
554.291;48565.203;   -9.417;56201.668
554.876;48628.074;   -7.627;55335.762
555.460;46756.102;  -10.457;54155.703
556.044;44784.879;  -10.078;53721.484
556.628;45564.035;   -9.407;53731.016
557.212;45640.805;   -7.957;54312.531
557.796;45588.379;  -11.327;53797.773
558.380;50257.402;  -10.868;56145.984
558.964;50898.539;   -9.637;57277.930
559.548;48932.523;   -8.807;56459.641
560.132;49739.004;  -10.187;54434.543
560.716;48855.801;   -9.868;54800.617
561.300;49701.539;  -10.217;57606.945
561.884;50330.777;   -4.947;58972.445
562.467;49593.504;   -9.588;57327.570
563.051;47851.977;  -11.138;54962.434
563.635;45904.078;   -9.358;52594.473
564.219;45450.219;   -9.797;50610.410
564.802;45814.715;   -9.918;49551.180
565.386;43669.543;  -10.838;48370.953
565.969;42889.098;   -8.037;48178.871
566.553;42324.672;   -5.667;49957.305
567.136;41230.465;   -8.258;50369.594
567.720;40499.652;  -11.278;49492.004
568.303;43058.766;   -9.028;50616.352
568.887;42870.836;   -7.508;50727.148
569.470;41367.977;  -11.068;51698.379
570.053;41058.820;  -10.028;52122.078
570.637;39377.238;  -11.077;52536.438
571.220;39016.574;   -8.747;51186.098
571.803;40941.738;   -8.868;51032.762
572.386;43106.891;  -10.608;49609.887
572.969;42786.449;  -10.548;48285.926
573.552;40397.488;   -7.898;47624.285
574.135;41499.395;   -9.918;45498.641
574.718;37703.895;  -10.328;41970.434
575.301;34727.645;   -9.548;41447.137
575.884;31751.393;   -8.768;40923.836
576.467;34926.703;   -9.858;45267.723
577.050;35186.484;  -11.018;48175.543
577.633;36259.063;  -10.048;47729.328
578.216;35581.609;  -10.268;47579.793
578.799;32885.680;  -11.808;47820.996
579.381;32799.992;   -7.338;48115.551
579.964;35541.691;   -9.728;47333.766
580.547;36851.887;   -8.928;46668.969
581.129;38122.277;   -9.149;44466.141
581.712;38517.602;  -11.359;44164.922
582.294;35879.855;  -10.738;46477.855
582.877;34611.977;   -8.788;48244.254
583.459;35274.406;   -9.859;47437.895
584.042;37545.012;   -9.649;46943.219
584.624;37165.805;  -10.529;46792.227
585.206;35752.117;  -10.298;46557.250
585.789;35305.707;  -11.029;45793.773
586.371;33451.195;   -9.359;43836.391
586.953;32661.928;   -8.799;42972.492
587.536;32213.455;   -8.928;42487.211
588.118;32227.646;   -9.180;42086.414
588.700;31695.711;  -10.519;43389.930
589.282;30623.645;   -8.098;43646.039
589.864;30555.889;   -8.139;43438.109
590.446;32543.980;  -10.509;43151.926
591.028;33340.836;  -11.119;42781.867
591.610;34843.770;  -10.019;42839.098
592.192;34599.066;   -8.838;42820.402
592.774;31404.350;  -11.549;40724.277
593.356;28466.371;  -11.609;39874.789
593.937;27696.260;  -10.019;39980.648
594.519;30009.260;   -7.839;42069.633
595.101;32677.469;  -10.779;42976.031
595.683;33923.090;  -10.049;44084.441
596.264;33474.391;   -9.969;43478.797
596.846;33091.125;   -9.699;43803.672
597.427;31994.814;  -10.970;42986.934
598.009;31437.434;  -13.090;42832.219
598.591;30850.600;   -9.509;42580.086
599.172;31358.781;   -9.019;43061.805
599.753;32060.166;  -13.310;41691.469
600.335;32787.520;  -11.010;40692.520
600.916;32308.127;  -10.309;39982.422
601.498;31218.453;   -8.209;40318.617
602.079;30720.480;  -11.440;40670.609
602.660;32411.529;   -8.690;41450.898
603.241;33659.125;  -12.759;41137.738
603.823;32248.070;  -10.409;38868.797
604.404;31616.361;  -11.790;38182.785
604.985;33409.297;  -10.280;38078.047
605.566;34856.555;   -8.059;38056.633
606.147;32121.807;   -8.960;37020.418
606.728;29906.801;  -10.710;37883.359
607.309;29284.104;  -12.760;38748.273
607.890;27867.439;   -9.959;38850.230
608.471;28119.471;   -9.780;37457.918
609.051;29952.188;   -8.940;36066.457
609.632;30993.688;  -12.070;35991.074
610.213;30763.529;   -9.610;37402.641
610.794;30617.771;   -8.750;38383.363
611.374;31155.910;  -11.100;40562.387
611.955;31638.295;  -12.200;38533.727
612.536;31818.805;  -10.410;36951.789
613.116;30963.404;  -10.010;37197.891
613.697;29277.150;  -10.480;38411.125
614.277;29096.717;  -12.751;38673.938
614.858;28215.443;  -11.600;37075.863
615.438;28316.494;   -8.190;35092.906
616.019;27076.451;   -8.941;33666.301
616.599;29016.188;  -13.540;34189.023
617.179;31807.242;  -10.890;36952.047
617.760;30882.137;   -7.610;39582.574
618.340;28933.961;  -14.441;38943.977
618.920;28597.217;   -9.180;37594.156
619.500;31026.533;  -11.881;37866.938
620.080;32827.828;   -9.870;37869.043
620.660;31562.926;  -13.211;36868.617
621.241;30228.621;  -11.921;36352.309
621.821;29631.236;  -10.271;35459.520
622.401;30434.059;   -8.200;35207.414
622.980;31963.572;  -11.141;35980.422
623.560;31546.105;  -14.321;37351.328
624.140;29931.980;   -9.360;34388.582
624.720;25828.473;   -7.481;32368.764
625.300;23542.049;  -12.730;32638.629
625.880;27576.428;  -11.441;34599.035
626.459;31053.121;  -10.971;36831.738
627.039;34511.563;   -9.011;38299.098
627.619;34931.383;   -8.521;38289.574
628.198;33267.719;   -9.861;37220.695
628.778;32176.107;   -8.841;37632.563
629.357;32204.588;   -9.891;38003.012
629.937;32217.002;  -11.871;38402.039
630.516;31785.986;  -10.641;37868.801
631.096;34071.219;  -11.391;35760.410
631.675;35621.723;   -6.622;35225.219
632.254;32697.453;  -13.002;35130.289
632.834;31578.168;  -11.622;35794.570
633.413;32749.777;   -8.321;35788.922
633.992;30772.783;   -7.732;34532.863
634.571;30728.504;  -10.992;33590.113
635.151;30296.775;  -10.422;34943.863
635.730;30988.164;  -11.511;35352.523
636.309;30756.846;   -7.901;35366.605
636.888;29914.861;  -11.452;36165.637
637.467;29126.150;  -10.672;37515.902
638.046;29926.254;   -9.301;39288.695
638.625;31397.189;  -11.452;38279.699
639.204;32099.598;  -12.262;37741.598
639.782;32491.240;  -11.892;38364.551
640.361;30982.475;  -11.411;36740.621
640.940;25999.990;  -11.501;34950.082
641.519;28247.494;  -10.921;34137.398
642.097;31953.865;  -10.101;35654.258
642.676;30422.307;  -10.821;35637.957
643.255;31687.883;   -8.631;36567.074
643.833;34252.047;  -11.411;37809.434
644.412;36780.035;  -12.021;37337.293
644.990;36894.234;  -12.271;37018.531
645.569;35644.762;   -9.741;36518.469
646.147;33216.711;   -9.051;36186.430
646.726;33247.480;  -13.861;36267.688
647.304;33411.602;   -9.461;36647.625
647.882;33135.113;  -13.171;39286.742
648.461;33447.660;  -11.911;39157.703
649.039;32180.906;   -9.541;35412.883
649.617;31631.662;   -8.901;34744.918
650.195;29509.018;   -8.591;35403.098
650.773;28967.271;  -13.031;35053.797
651.352;28227.016;  -12.211;33756.816
651.930;25897.264;  -11.361;31868.773
652.508;22750.145;   -8.601;33121.551
653.086;25409.297;   -9.991;33564.793
653.663;29794.068;  -11.931;34054.668
654.241;32409.775;  -10.821;35693.309
654.819;33930.039;   -9.341;36422.906
655.397;31481.627;  -10.851;38213.484
655.975;30153.104;  -11.461;39507.625
656.553;30213.959;   -8.841;39498.223
657.130;29627.600;  -10.371;40395.480
657.708;30370.482;  -11.071;39242.020
658.286;29792.543;  -11.141;38920.020
658.863;30857.947;  -10.861;40202.898
659.441;35275.688;  -11.181;39677.938
660.018;35513.402;  -10.851;40413.355
660.596;34922.129;  -12.571;39931.414
661.173;35355.715;  -12.141;39604.531
661.750;35177.617;  -11.571;39700.070
662.328;32568.504;  -10.780;39292.809
662.905;30103.098;  -10.750;38235.648
663.482;27194.820;  -11.320;36212.305
664.060;26399.154;  -10.160;35944.945
664.637;30931.922;  -13.120;35170.785
665.214;32819.051;  -11.500;34197.523
665.791;31072.697;  -12.430;34549.520
666.368;28832.479;   -9.840;35118.578
666.945;28107.826;  -11.290;36019.418
667.522;28734.279;  -13.540;36048.438
668.099;29238.160;  -10.250;36243.914
668.676;28064.232;  -11.270;35958.875
669.253;26872.645;   -8.210;37384.730
669.830;26247.260;   -9.710;36779.629
670.407;25864.213;   -9.700;35231.289
670.984;26544.445;   -9.190;35544.270
671.560;25771.938;   -9.560;35466.867
672.137;25580.955;  -11.820;34280.863
672.714;28510.723;  -12.460;34632.863
673.290;32794.480;  -10.940;35135.422
673.867;33179.691;  -10.510;36114.480
674.443;30161.789;  -12.110;36152.859
675.020;31330.422;  -11.760;35327.238
675.596;32081.713;   -9.380;35795.176
676.173;30952.074;  -11.120;35430.355
676.749;29786.738;  -13.390;33549.516
677.326;28925.434;  -12.600;32210.012
677.902;27921.656;  -10.830;32068.871
678.478;27954.576;  -12.400;32583.891
679.054;29710.322;   -8.610;32088.928
679.631;29742.902;  -11.640;30978.848
680.207;29721.629;   -8.140;33160.887
680.783;30571.668;  -12.300;35570.363
681.359;29511.617;  -10.910;36125.184
681.935;29802.975;  -11.040;35240.922
682.511;30568.826;  -11.130;34429.961
683.087;30810.678;  -11.080;34463.680
683.663;33024.051;  -10.530;34648.898
684.239;32637.994;  -12.120;34546.457
684.815;30077.035;   -8.870;35586.375
685.390;29321.139;   -8.940;35821.895
685.966;29357.482;  -12.109;35085.871
686.542;28324.863;  -13.539;34198.230
687.118;28052.262;  -10.379;32847.707
687.693;28234.379;  -10.189;32794.027
688.269;27055.592;  -12.939;33072.367
688.844;26189.580;   -8.679;33141.664
689.420;27205.494;  -10.919;33965.742
689.995;27678.426;   -7.489;34655.523
690.571;27244.770;  -12.199;33576.742
691.146;27531.561;   -8.979;32657.219
691.722;29009.021;   -9.119;32526.979
692.297;27265.691;  -10.519;33014.617
692.872;26567.018;  -10.629;34012.254
693.448;26984.555;  -12.119;34237.434
694.023;27446.266;   -8.219;34142.672
694.598;25641.990;  -13.209;34132.031
695.173;24951.617;  -11.879;34205.250
695.748;25704.076;  -12.039;32882.488
696.323;25507.172;  -11.779;32864.906
696.898;26408.322;  -10.219;33170.004
697.473;27502.490;  -13.639;32432.984
698.048;27851.771;  -11.239;31649.303
698.623;29774.035;  -10.859;30778.141
699.198;31387.000;  -13.379;31140.119
699.773;32192.516;  -13.409;31764.299
700.348;32836.145;  -12.329;31780.816
700.922;33285.445;   -8.749;32046.375
701.497;33515.785;  -12.449;32603.574
702.072;32087.025;   -8.879;34799.871
702.646;29815.078;  -10.719;35793.172
703.221;28424.883;   -8.469;35201.590
703.795;28146.986;  -11.389;34764.527
704.370;27863.174;  -12.499;34307.367
704.944;27763.100;  -11.449;33509.887
705.519;27115.910;  -10.659;31388.584
706.093;26552.504;  -12.909;31340.104
706.668;27074.027;  -13.509;32630.281
707.242;26656.355;  -10.049;32728.779
707.816;24605.391;  -10.629;32947.238
708.390;24014.609;  -11.829;33277.855
708.965;24521.033;  -11.159;33834.336
709.539;25365.477;  -11.069;33709.273
710.113;24661.555;  -10.908;33044.313
710.687;23115.695;   -9.488;31953.992
711.261;23349.688;  -13.068;30505.949
711.835;26251.650;  -12.748;30262.369
712.409;27015.879;  -10.678;31254.447
712.983;25783.031;  -11.658;32754.986
713.557;26173.641;  -13.718;34018.824
714.131;26745.545;  -13.388;34579.625
714.704;27414.006;   -9.818;33890.262
715.278;28382.959;  -11.818;33531.102
715.852;29433.016;  -11.328;33601.660
716.425;29915.240;   -9.118;33515.117
716.999;30042.660;  -10.188;33185.555
717.573;30037.188;   -9.808;33905.996
718.146;32489.209;  -11.478;35199.293
718.720;32336.730;  -10.998;35060.551
719.293;30562.027;   -9.508;34973.230
719.867;30139.143;  -12.138;36394.449
720.440;28973.150;  -11.288;36663.008
721.013;31599.887;  -11.428;35102.426
721.587;33159.121;  -11.698;33985.266
722.160;34113.652;  -11.608;33524.965
722.733;32607.279;  -11.428;32987.043
723.306;31224.121;  -12.518;33066.301
723.880;31130.135;   -7.408;33399.500
724.453;30062.920;  -11.048;33468.297
725.026;28651.641;  -11.678;33816.637
725.599;27460.449;  -10.978;32797.996
726.172;26573.289;   -8.838;33187.434
726.745;27509.121;  -11.438;35136.613
727.318;28297.471;   -9.828;35751.730
727.891;26953.029;  -10.868;35890.430
728.463;25188.969;  -11.348;34822.090
729.036;23689.199;  -11.608;32895.086
729.609;23637.068;  -14.738;31823.225
730.182;24848.861;   -8.448;31445.283
730.754;26058.705;  -11.228;32373.223
731.327;26383.654;  -12.018;33676.820
731.900;28168.277;  -13.748;33417.000
732.472;28172.182;  -10.928;31978.498
733.045;26481.084;   -9.478;30368.777
733.617;24732.701;  -12.967;30574.215
734.190;23856.387;  -11.707;31280.975
734.762;22836.188;  -11.067;31674.412
735.334;22305.738;  -10.587;31247.291
735.907;21403.895;  -11.947;29876.211
736.479;21900.385;  -11.667;29808.488
737.051;24523.918;  -10.187;30233.547
737.623;27078.617;   -6.887;31469.086
738.195;30078.742;  -12.117;31784.225
738.768;31814.143;  -14.077;32120.523
739.340;30744.834;  -12.207;32094.342
739.912;27302.422;   -8.977;31312.680
740.484;25357.947;  -11.017;31946.238
741.056;26200.246;  -13.517;32984.059
741.628;28150.311;  -11.507;33897.715
742.199;28575.242;   -7.597;33213.016
742.771;29389.885;  -12.227;31369.113
743.343;28758.195;  -12.427;31865.473
743.915;27065.686;   -9.827;32388.631
744.487;26093.734;  -10.007;31079.568
745.058;24419.582;  -11.887;30570.107
745.630;23644.244;  -10.787;29970.127
746.201;23064.127;  -10.887;29186.766
746.773;23134.045;   -9.707;28805.723
747.344;23947.281;  -11.137;29591.223
747.916;24141.828;  -11.887;31412.201
748.487;23615.902;   -9.707;32194.898
749.059;22970.793;  -10.027;32533.719
749.630;22747.379;  -11.787;32158.518
750.201;21805.832;  -12.767;30855.395
750.773;21478.307;  -11.497;28622.555
751.344;22174.266;   -9.937;28405.732
751.915;22599.330;  -11.567;28461.551
752.486;22001.607;  -13.267;27842.850
753.057;20039.219;  -10.627;27845.008
753.628;18651.672;  -11.657;27728.107
754.199;20774.270;  -12.097;27381.086
754.770;22304.057;  -11.447;25882.203
755.341;22280.496;  -11.997;25886.184
755.912;20258.070;  -10.207;26050.861
756.483;18581.881;  -10.937;26798.779
757.054;18455.381;  -11.527;27048.238
757.625;18701.035;  -12.886;26294.838
758.195;19096.541;  -11.226;26142.076
758.766;19153.322;  -12.366;26392.234
759.337;18051.004;  -11.946;26334.594
759.907;18047.119;  -13.856;27579.652
760.478;18861.533;   -9.606;28352.770
761.048;18873.400;  -11.606;27325.088
761.619;19099.238;  -11.036;26460.428
762.189;18598.100;  -12.206;26029.826
762.760;19935.943;   -9.666;26430.145
763.330;20769.621;   -9.796;26670.902
763.900;18891.467;  -10.896;26603.021
764.471;17277.953;  -11.726;25542.740
765.041;17632.713;   -9.656;24358.459
765.611;18515.855;  -11.276;23991.297
766.181;18341.416;  -12.116;24470.236
766.751;17778.805;  -12.376;24845.975
767.321;17734.316;  -11.626;24533.633
767.891;18000.652;  -10.426;24916.492
768.461;16898.311;  -13.456;24776.771
769.031;14947.171;  -11.616;24757.988
769.601;14801.782;  -11.356;24181.088
770.171;15116.521;  -11.586;23670.387
770.741;15578.444;  -12.696;22960.045
771.311;15672.760;  -10.226;22917.523
771.880;15399.020;  -11.146;23562.941
772.450;16046.512;  -11.716;24216.500
773.020;16279.567;  -13.226;24140.398
773.589;16031.558;  -12.586;24414.857
774.159;15823.935;  -10.246;23858.717
774.729;15382.887;  -11.586;22942.135
775.298;14546.843;  -15.926;22324.033
775.867;14573.431;  -10.426;21140.313
776.437;14443.598;  -11.416;20838.092
777.006;13057.281;  -12.766;20599.510
777.576;13093.268;  -13.666;20508.809
778.145;13551.952;  -10.066;20732.947
778.714;13189.470;  -10.276;21062.465
779.283;13505.116;  -12.086;20949.664
779.853;14836.478;  -14.016;20508.623
780.422;15231.823;  -12.376;20649.082
780.991;14161.252;   -9.246;21527.520
781.560;13254.735;   -9.775;22632.658
782.129;13002.834;  -12.495;23048.277
782.698;12735.968;  -11.775;23438.555
783.267;13002.525;  -10.065;23267.734
783.836;13627.459;  -12.455;22415.133
784.404;14400.508;  -13.385;20443.152
784.973;15196.716;  -11.045;19699.150
785.542;14775.729;   -9.505;19763.828
786.111;13714.012;   -9.385;20341.408
786.679;13482.641;  -13.475;20207.967
787.248;13543.559;  -11.245;19516.465
787.817;11811.039;  -12.485;18900.363
788.385;10148.227;  -11.165;17879.121
788.954;10751.002;  -11.755;17658.301
789.522;11522.766;   -9.625;17788.879
790.090;11219.351;   -9.665;18118.277
790.659;10832.066;   -9.295;18338.736
791.227;11819.560;  -12.175;18508.615
791.795;13203.213;  -12.145;17898.254
792.364;13100.359;  -11.575;17295.133
792.932;11776.529;  -11.085;16822.051
793.500;10641.195;  -11.345;17040.148
794.068;10572.159;  -12.565;17179.787
794.636;11636.560;  -12.105;16664.246
795.204;12182.278;  -11.995;16524.545
795.772;11569.666;  -12.615;17274.564
796.340;11140.915;  -12.425;17891.002
796.908;10910.546;  -11.455;17648.561
797.476;10263.825;  -12.165;17064.080
798.044; 9919.248;  -15.795;16672.777
798.612;10145.454;  -10.985;17023.996
799.180;10858.086;  -12.055;16561.615
799.747;11163.427;  -12.525;15962.773
800.315;10068.942;  -14.765;15296.992
800.883; 8866.143;  -12.435;14801.771
801.450; 8740.986;  -11.295;14534.430
802.018; 9171.631;  -11.185;14173.248
802.585; 9152.677;  -11.625;14029.547
803.153; 8191.705;  -10.665;13836.846
803.720; 7748.658;  -10.275;13567.324
804.287; 7649.606;  -12.865;13360.622
804.855; 7890.785;  -12.324;13681.981
805.422; 8206.141;  -11.574;13536.560
805.989; 8025.074;  -11.004;13355.958
806.556; 8207.619;  -12.214;13747.896
807.124; 8610.930;  -13.304;13987.376
807.691; 8318.411;  -12.034;14038.674
808.258; 7651.505;  -11.014;14120.152
808.825; 7523.111;  -11.804;13860.111
809.392; 7443.152;  -11.544;13268.790
809.959; 7322.108;  -14.954;12680.389
810.526; 7606.228;  -10.214;12427.308
811.093; 8038.500;  -10.754;12030.105
811.659; 7746.638;  -12.194;11653.664
812.226; 6671.240;   -9.194;11637.183
812.793; 6353.018;   -9.644;11611.521
813.360; 7131.460;  -11.544;11885.181
813.926; 7950.941;  -12.814;12770.539
814.493; 7894.492;  -11.524;12677.638
815.060; 7588.153;  -12.254;11974.336
815.626; 7158.078;  -12.114;11594.715
816.193; 6838.105;  -11.994;11579.474
816.759; 6721.939;  -11.464;11666.972
817.325; 6411.979;  -10.444;11325.530
817.892; 6098.299;  -11.124;11105.369
818.458; 5950.555;  -11.864;10843.928
819.024; 6216.289;  -10.634;10714.406
819.591; 6318.169;  -10.554;10469.165
820.157; 6560.179;  -13.334;10235.523
820.723; 6839.426;  -13.044;10847.563
821.289; 6997.827;   -9.664;11040.980
821.855; 7195.934;  -10.994;10357.100
822.421; 7239.812;  -11.784; 9978.918
822.987; 7206.503;  -12.554; 9754.177
823.553; 7564.454;  -12.554;10065.755
824.119; 7418.798;   -8.544;10036.294
824.685; 6497.392;  -12.144;10029.192
825.251; 5926.154;  -12.754;10199.230
825.816; 5478.153;  -11.354; 9820.189
826.382; 5205.168;  -11.004; 9297.248
826.948; 5218.909;  -11.004; 9381.347
827.513; 5123.744;  -12.474; 9450.726
828.079; 5106.829;  -13.084; 9472.444
828.645; 5285.581;  -10.813; 9292.643
829.210; 5091.529;  -11.593; 9065.341
829.776; 5011.228;  -12.633; 9132.620
830.341; 5012.681;  -10.473; 9092.878
830.906; 4836.223;   -8.763; 9078.557
831.472; 4586.283;  -13.453; 8534.535
832.037; 4014.526;  -12.173; 8677.874
832.602; 3799.594;  -14.093; 8628.692
833.167; 4054.512;  -13.593; 8879.031
833.733; 4567.886;  -10.793; 9189.790
834.298; 4926.982;  -14.783; 9052.608
834.863; 4549.608;  -11.023; 8895.087
835.428; 4321.227;  -11.113; 8824.266
835.993; 4747.186;   -9.983; 8845.385
836.558; 4979.764;  -13.003; 8888.563
837.123; 4792.361;  -10.733; 8966.582
837.688; 4401.369;   -9.683; 8617.860
838.253; 4229.514;  -12.253; 8590.699
838.817; 4233.031;  -11.643; 8443.797
839.382; 4188.658;  -11.953; 8799.356
839.947; 4265.561;  -11.443; 8810.595
840.511; 4597.025;  -10.843; 8796.394
841.076; 4843.669;  -13.533; 8347.231
841.641; 4658.200;  -11.743; 8224.330
842.205; 4121.598;  -10.013; 8223.349
842.770; 3811.165;  -11.023; 8622.107
843.334; 3905.575;  -14.273; 8410.386
843.898; 4297.389;  -11.323; 8337.465
844.463; 4676.737;  -10.263; 8506.283
845.027; 4848.979;  -10.353; 8280.962
845.591; 4792.416;  -12.163; 8231.141
846.156; 4646.581;  -12.263; 7969.179
846.720; 4626.291;  -11.553; 7768.278
847.284; 4419.636;  -12.393; 7630.957
847.848; 3663.785;  -12.623; 7472.395
848.412; 3090.552;  -11.863; 7437.394
848.976; 3032.218;  -10.203; 7674.592
849.540; 3223.427;  -10.603; 7836.011
850.104; 3411.962;  -12.423; 7913.669
850.668; 3425.086;  -14.613; 7694.508
851.232; 3440.833;  -12.873; 7756.887
851.796; 3655.659;  -14.192; 7926.545
852.359; 3837.075;  -13.652; 7827.844
852.923; 3759.025;  -11.402; 7641.163
853.487; 3450.054;  -12.022; 7342.501
854.050; 3289.198;  -15.202; 7042.820
854.614; 3311.270;  -14.592; 7151.338
855.177; 3299.691;  -12.572; 7105.077
855.741; 3320.799;   -9.932; 6989.675
856.304; 3269.683;  -12.192; 6596.634
856.868; 3154.261;  -13.462; 6356.272
857.431; 3144.516;  -11.542; 6468.571
857.995; 3224.300;  -12.062; 6373.210
858.558; 3046.078;  -11.142; 6324.448
859.121; 2907.568;  -11.742; 6408.327
859.684; 2948.148;  -10.332; 6347.886
860.247; 3041.024;  -11.962; 6321.264
860.810; 3095.424;  -12.332; 6301.903
861.374; 2981.867;  -10.292; 6607.881
861.937; 2814.191;  -12.062; 6408.200
862.500; 2833.645;  -11.702; 6572.639
863.062; 2974.742;  -13.852; 6387.297
863.625; 3042.912;  -12.972; 6190.836
864.188; 2999.029;  -10.292; 5807.254
864.751; 2941.709;  -12.382; 5682.413
865.314; 2741.573;  -13.232; 5547.492
865.876; 2442.636;  -12.772; 5500.150
866.439; 2205.729;  -11.952; 5415.909
867.002; 2261.352;   -9.332; 5501.567
867.564; 2580.503;  -11.712; 5413.946
868.127; 2743.851;  -12.012; 5160.325
868.689; 2429.688;  -11.882; 5133.183
869.252; 2078.701;  -11.572; 5252.382
869.814; 1984.160;  -10.692; 5297.141
870.377; 2040.349;  -12.392; 5390.919
870.939; 2110.125;  -10.582; 5599.898
871.501; 2153.330;  -12.782; 5248.336
872.063; 2184.212;  -15.612; 4854.235
872.626; 2239.998;  -13.922; 4817.074
873.188; 2215.911;  -13.832; 4987.732
873.750; 2151.362;  -10.962; 4868.651
874.312; 2194.257;  -11.022; 4779.330
874.874; 2244.332;  -13.152; 4866.348
875.436; 2174.287;  -13.401; 4718.887
875.998; 2071.379;   -8.891; 4660.005
876.560; 1982.677;  -12.591; 4462.964
877.122; 1923.510;  -14.531; 4145.042
877.683; 1881.886;  -10.781; 4056.481
878.245; 1784.639;  -14.281; 3950.740
878.807; 1720.842;  -10.311; 4058.958
879.369; 1673.269;  -13.201; 3954.677
879.930; 1639.291;  -12.061; 3941.495
880.492; 1635.824;   -9.181; 4067.014
881.053; 1650.443;  -12.051; 3859.633
881.615; 1608.397;  -11.501; 3776.071
882.176; 1509.319;  -12.221; 3734.750
882.738; 1403.827;   -8.931; 3678.489
883.299; 1341.354;  -13.571; 3405.407
883.860; 1356.464;  -12.331; 3351.106
884.422; 1305.319;  -10.201; 3394.044
884.983; 1175.488;  -12.521; 3166.443
885.544; 1053.806;  -12.291; 3189.802
886.105;  998.794;  -12.991; 3160.360
886.666;  987.127;  -12.901; 3093.059
887.227;  976.573;  -12.061; 2941.957
887.788;  946.529;  -11.641; 2974.836
888.349;  896.744;  -14.691; 2721.214
888.910;  852.492;   -9.681; 2696.493
889.471;  846.838;   -9.971; 2560.172
890.032;  858.211;  -13.151; 2558.190
890.593;  837.016;  -12.051; 2567.669
891.153;  796.724;  -12.841; 2460.307
891.714;  766.008;  -13.561; 2372.046
892.275;  735.690;  -12.401; 2309.505
892.835;  699.691;  -13.191; 2382.543
893.396;  662.727;  -12.551; 2295.502
893.956;  642.176;  -11.981; 2162.420
894.517;  624.813;  -12.221; 2125.439
895.077;  589.650;  -12.021; 2086.978
895.638;  531.935;  -10.891; 2126.316
896.198;  477.887;  -13.171; 1838.275
896.758;  442.055;  -11.891; 1892.813
897.319;  416.515;  -12.491; 1792.232
897.879;  401.174;  -12.401; 1762.751
898.439;  376.029;  -13.431; 1661.149
898.999;  356.683;  -11.340; 1781.468
899.559;  347.962;  -13.930; 1703.347
900.119;  329.827;  -13.730; 1537.525
900.679;  312.288;   -9.210; 1638.384
901.239;  297.836;  -10.860; 1527.902
901.799;  278.555;  -11.450; 1456.441
902.359;  260.755;  -13.800; 1357.140
902.919;  254.290;  -12.130; 1331.118
903.479;  256.353;  -12.650; 1317.257
904.038;  249.384;  -16.110; 1262.595
904.598;  235.979;  -13.690; 1152.034
905.158;  223.964;  -10.290; 1240.893
905.717;  217.322;  -10.670; 1233.691
906.277;  215.550;  -14.040; 1217.330
906.836;  216.290;  -13.510; 1222.408
907.396;  211.774;  -11.530; 1193.047
907.955;  200.865;  -13.190; 1182.526
908.515;  188.905;  -12.950; 1099.364
909.074;  180.792;  -12.390; 1092.863
909.633;  176.648;  -10.340; 1069.121
910.192;  174.983;  -11.170; 1196.460
910.752;  169.236;  -14.200; 1029.960
911.311;  165.074;  -13.810; 1009.780
911.870;  162.432;  -12.750;  971.460
912.429;  161.904;  -12.380; 1094.080
912.988;  158.483;  -11.930; 1081.060
913.547;  152.763;  -10.990;  940.380
914.106;  150.756;  -11.200;  999.420
914.665;  147.217;  -13.150;  984.020
915.224;  146.328;  -13.310; 1035.760
915.782;  144.134;  -13.340;  922.560
916.341;  144.479;  -10.710; 1049.840
916.900;  141.539;  -12.980;  925.260
917.458;  139.976;  -13.060;  884.220
918.017;  137.456;  -10.900;  942.600
918.576;  137.551;  -11.630;  904.440
919.134;  137.184;  -12.860;  837.980
919.693;  137.312;  -15.160;  893.060
920.251;  136.825;  -13.470;  876.500
920.809;  136.153;  -13.700;  839.580
921.368;  136.913;  -13.420;  885.360
921.926;  137.345;  -14.710;  842.940
922.484;  136.884;  -12.560;  903.360
923.042;  136.242;  -11.930;  880.340
923.601;  137.601;  -10.270;  998.680
924.159;  135.744;  -12.960;  935.560
924.717;  135.019;  -13.040;  841.080
925.275;  137.988;  -12.560;  903.240
925.833;  138.198;  -13.040;  779.320
926.391;  139.127;  -13.360;  938.380
926.949;  137.761;  -13.940;  857.680
927.506;  139.958;   -9.400;  903.500
928.064;  139.323;  -10.940;  877.580
928.622;  137.447;  -13.180;  880.100
929.180;  138.300;  -12.730;  814.180
929.737;  139.773;  -12.840;  808.540
930.295;  143.080;  -11.810;  928.480
930.853;  146.485;  -13.650;  849.100
931.410;  147.871;  -13.580;  821.120
931.968;  149.523;  -12.020;  940.660
932.525;  150.291;  -13.320;  909.380
933.082;  151.518;  -13.800;  811.440
933.640;  155.822;  -11.380;  925.900
934.197;  159.293;  -11.480;  886.360
934.754;  162.492;  -13.220;  897.780
935.312;  160.804;  -14.950;  863.340
935.869;  158.381;  -10.940; 1012.980
936.426;  154.533;  -12.100;  872.800
936.983;  154.270;  -12.930;  889.020
937.540;  154.462;  -14.250;  838.280
938.097;  158.485;  -12.600;  940.120
938.654;  164.897;  -11.260;  898.860
939.211;  168.778;  -13.020;  952.480
939.768;  169.893;  -15.760;  915.420
940.324;  171.417;  -13.920;  904.200
940.881;  167.693;  -11.620;  878.500
941.438;  164.355;   -9.870; 1021.200
941.995;  161.777;  -13.920;  992.560
942.551;  159.998;  -12.830;  875.620
943.108;  162.144;  -11.980;  937.920
943.664;  165.645;  -13.740;  869.340
944.221;  170.452;  -12.670; 1088.140
944.777;  168.849;  -13.250;  869.680
945.334;  167.144;  -13.000;  884.840
945.890;  167.906;  -13.020;  946.480
946.446;  167.607;  -13.880;  947.020
947.003;  170.433;  -12.660;  964.940
947.559;  171.179;   -8.730; 1063.040
948.115;  167.297;  -11.960; 1026.540
948.671;  163.936;  -12.360;  967.300
949.227;  161.251;  -12.700;  859.560
949.783;  157.794;  -13.450;  858.900
950.339;  156.363;  -10.620;  991.000
950.895;  153.464;  -14.770; 1023.840
951.451;  150.061;  -13.650;  925.280
952.007;  151.523;  -11.180;  998.540
952.563;  150.787;  -11.680;  937.780
953.118;  149.368;  -13.280;  904.940
953.674;  151.727;  -12.510;  935.780
954.230;  151.987;  -12.220;  949.640
954.785;  147.688;  -12.190;  936.640
955.341;  142.132;  -12.270;  998.160
955.897;  136.329;  -14.900;  834.660
956.452;  137.361;  -12.520;  953.840
957.008;  137.360;   -9.410; 1083.640
957.563;  135.152;  -11.280; 1009.540
958.118;  132.749;  -13.470;  877.700
958.674;  134.413;  -12.190;  946.780
959.229;  136.446;  -12.760; 1013.980
959.784;  141.148;  -15.710;  832.400
960.339;  147.475;  -12.540; 1001.280
960.894;  148.620;  -11.680;  963.760
961.449;  143.451;  -11.410;  859.960
962.004;  142.794;  -10.430; 1212.840
962.559;  136.954;  -14.040;  860.140
963.114;  134.238;  -14.270;  742.480
963.669;  135.638;  -11.320;  915.500
964.224;  133.783;  -14.620;  874.340
964.779;  131.516;  -14.150;  828.420
965.334;  132.562;  -10.850; 1017.860
965.888;  131.411;  -14.530;  875.360
966.443;  131.975;  -13.520;  972.380
966.998;  128.149;  -13.370;  819.460
967.552;  125.768;   -9.960;  908.380
968.107;  121.273;  -12.360;  868.300
968.661;  122.128;  -12.270;  922.440
969.216;  121.199;  -12.140;  856.280
969.770;  122.276;  -11.860;  917.200
970.324;  122.027;  -12.170;  923.140
970.879;  119.314;  -14.160;  947.180
971.433;  117.813;  -12.940;  952.720
971.987;  114.708;  -10.180;  895.340
972.541;  114.189;  -12.130;  917.100
973.095;  114.135;  -14.980; 1009.460
973.649;  112.214;  -14.480;  809.480
974.203;  113.896;  -13.530;  829.040
974.757;  115.309;  -12.060;  855.220
975.311;  113.426;  -13.240;  872.600
975.865;  110.247;  -12.550;  881.820
976.419;  109.262;  -13.180;  857.400
976.973;  108.105;  -14.100;  849.620
977.526;  107.353;  -13.330;  949.920
978.080;  103.957;  -15.390;  796.780
978.634;  104.566;  -11.670;  921.320
979.187;  102.340;  -10.640;  905.400
979.741;  100.854;  -13.330; 1018.380
980.294;   97.745;  -14.480;  789.160
980.848;   96.100;  -13.420;  717.220
981.401;   94.910;  -12.360;  816.540
981.955;   92.562;  -12.480;  844.300
982.508;   89.202;  -14.000;  746.340
983.061;   89.142;  -10.440;  915.260
983.615;   85.572;  -14.340;  798.800
984.168;   82.288;  -14.950;  770.080
984.721;   82.642;  -13.270;  880.760
985.274;   81.059;  -12.240;  867.500
985.827;   78.775;  -12.720;  834.220
986.380;   73.862;  -14.920;  721.340
986.933;   74.353;  -12.860;  864.800
987.486;   73.821;  -10.440;  861.920
988.039;   72.762;  -11.820;  863.100
988.591;   71.098;  -13.760;  893.260
989.144;   69.304;  -14.080;  737.260
989.697;   70.493;  -13.440;  758.740
990.250;   71.100;  -12.050;  858.100
990.802;   69.504;  -14.550;  755.860
991.355;   70.364;  -10.770;  974.880
991.907;   67.906;  -11.710;  864.320
992.460;   65.448;  -12.650;  753.760
993.012;   63.041;  -13.860;  749.540
993.565;   61.563;  -14.310;  711.360
994.117;   62.070;   -9.920;  950.780
994.669;   58.983;  -13.420;  701.320
995.221;   57.595;  -14.200;  791.920
995.774;   57.827;  -13.400;  787.580
996.326;   57.113;  -11.850;  740.220
996.878;   56.619;  -12.230;  838.420
997.430;   54.292;  -14.260;  699.860
997.982;   53.354;  -11.430;  750.140
998.534;   54.787;  -11.590;  739.060
999.086;   53.245;  -11.960;  738.220
999.638;   51.451;  -13.640;  661.380
1000.190;   51.333;  -13.660;  699.320
1000.741;   51.418;   -9.980;  742.700
1001.293;   50.786;  -11.860;  686.020
1001.845;   49.272;  -14.280;  676.640
1002.396;   49.529;  -12.270;  743.400
1002.948;   49.645;  -13.670;  737.400
1003.500;   48.524;  -12.010;  723.780
1004.051;   48.877;  -11.890;  907.580
1004.603;   47.237;  -11.220;  791.820
1005.154;   44.398;  -13.210;  608.980
1005.705;   43.094;  -11.850;  723.960
1006.257;   42.833;  -13.670;  707.220
1006.808;   42.033;  -12.060;  685.460
1007.359;   42.575;  -10.250;  763.240
1007.910;   40.798;  -13.440;  646.640
1008.461;   39.543;  -13.170;  732.940
1009.013;   38.379;  -14.590;  588.340
1009.564;   40.720;  -12.100;  793.520
1010.115;   37.610;  -14.000;  597.040
1010.665;   37.715;  -15.020;  602.160
1011.216;   38.144;  -12.560;  667.920
1011.767;   37.356;  -11.330;  697.920
1012.318;   37.987;  -11.450;  736.980
1012.869;   35.602;  -11.000;  679.000
1013.419;   35.514;  -11.760;  603.120
1013.970;   36.898;  -11.800;  666.640
1014.521;   35.534;  -14.750;  620.620
1015.071;   36.012;  -14.430;  670.380
1015.622;   35.559;  -14.170;  635.460
1016.172;   35.811;  -11.700;  596.820
1016.723;   34.575;  -13.230;  614.380
1017.273;   34.225;  -16.120;  604.160
1017.823;   34.566;  -13.360;  650.340
1018.374;   34.025;  -13.710;  611.760
1018.924;   34.232;  -11.050;  716.880
1019.474;   34.454;  -14.120;  718.880
1020.024;   32.612;  -12.990;  657.580
1020.574;   34.057;  -12.010;  726.160
1021.124;   34.189;  -12.080;  673.580
1021.674;   31.745;  -15.860;  559.120
1022.224;   32.984;  -11.710;  708.940
1022.774;   33.045;  -13.030;  668.820
1023.324;   33.247;  -11.000;  753.520
1023.874;   34.535;  -13.270;  875.760
1024.423;   31.523;  -14.570;  613.700
1024.973;   31.725;  -12.620;  610.760
1025.523;   30.797;  -12.630;  620.960
1026.072;   29.854;  -14.110;  606.420
1026.622;   30.067;  -15.390;  675.740
1027.172;   31.545;   -9.090;  715.660
1027.721;   30.060;  -12.250;  601.220
1028.270;   29.786;  -15.590;  663.400
1028.820;   29.792;  -13.840;  638.080
1029.369;   29.981;  -13.170;  612.700
1029.918;   30.098;  -14.080;  649.840
1030.468;   28.661;  -13.860;  564.780
1031.017;   29.192;  -12.970;  634.800
1031.566;   28.759;  -12.320;  608.900
1032.115;   29.584;  -13.140;  694.500
1032.664;   26.728;  -14.560;  596.480
1033.213;   28.618;  -11.620;  735.420
1033.762;   28.444;  -13.190;  635.620
1034.311;   28.370;  -13.460;  677.220
1034.860;   27.829;  -15.770;  691.000
1035.408;   27.689;  -13.100;  722.720
1035.957;   28.584;  -12.880;  719.540
1036.506;   26.095;  -13.640;  530.800
1037.055;   28.599;  -12.420;  844.320
1037.603;   27.125;  -13.740;  664.000
1038.152;   25.504;  -13.840;  534.760
1038.700;   25.797;  -10.770;  585.740
1039.249;   25.881;  -13.520;  681.220
1039.797;   25.673;  -13.060;  633.360
1040.345;   26.514;  -11.760;  705.420
1040.894;   25.588;  -10.790;  625.300
1041.442;   24.572;  -15.420;  632.200
1041.990;   24.989;  -14.550;  559.160
1042.538;   23.588;  -15.620;  536.180
1043.087;   24.494;  -14.940;  570.860
1043.635;   25.504;  -12.100;  670.500
1044.183;   24.466;  -13.200;  586.400
1044.731;   25.053;  -11.630;  576.000
1045.279;   23.834;  -14.200;  674.920
1045.827;   25.989;  -12.510;  892.400
1046.374;   22.333;  -14.960;  515.420
1046.922;   22.732;  -11.850;  590.580
1047.470;   24.490;  -13.770;  691.300
1048.018;   24.237;  -15.380;  647.960
1048.565;   23.919;  -14.010;  708.600
1049.113;   22.553;  -14.620;  557.000
1049.660;   22.744;  -14.940;  629.660
1050.208;   22.544;  -14.540;  675.640
1050.755;   21.673;  -13.710;  606.580
1051.303;   23.309;  -11.880;  686.820
1051.850;   22.616;  -12.160;  635.120
1052.397;   19.812;  -15.110;  473.960
1052.945;   21.086;  -14.770;  617.760
1053.492;   23.372;  -12.320;  741.840
1054.039;   22.760;  -13.290;  720.180
1054.586;   20.261;  -15.210;  557.240
1055.133;   20.929;  -12.920;  693.140
1055.680;   22.014;  -12.610;  646.620
1056.227;   20.861;  -12.620;  542.780
1056.774;   22.878;  -13.010;  794.980
1057.321;   19.869;  -16.180;  523.260
1057.868;   20.282;  -11.230;  651.320
1058.415;   21.001;  -10.890;  651.980
1058.961;   21.011;  -12.530;  678.940
1059.508;   20.590;  -14.120;  643.820
1060.055;   20.529;  -13.340;  581.780
1060.601;   20.296;  -12.920;  624.300
1061.148;   19.776;  -14.430;  616.820
1061.694;   19.002;  -14.140;  592.580
1062.241;   19.518;  -12.550;  596.320
1062.787;   20.185;  -13.370;  663.140
1063.334;   21.246;  -12.260;  808.560
1063.880;   19.765;  -10.800;  668.360
1064.426;   19.874;   -9.920;  706.820
1064.972;   19.230;  -12.970;  601.340
1065.518;   16.871;  -14.440;  566.640
1066.065;   18.515;  -12.680;  624.460
1066.611;   18.072;  -13.520;  598.800
1067.157;   18.424;  -11.100;  641.860
1067.703;   17.927;  -14.100;  668.480
1068.249;   18.221;  -13.750;  605.220
1068.794;   18.904;  -11.070;  626.880
1069.340;   17.136;  -13.210;  578.960
1069.886;   17.776;  -14.850;  590.700
1070.432;   16.568;  -14.580;  541.720
1070.977;   17.511;  -12.930;  601.080
1071.523;   16.797;  -11.970;  573.060
1072.068;   16.045;  -13.730;  582.000
1072.614;   16.798;  -14.550;  527.760
1073.160;   17.887;  -13.690;  687.040
1073.705;   16.596;  -14.780;  572.520
1074.250;   16.173;  -15.430;  559.900
1074.796;   17.280;  -11.620;  655.160
1075.341;   17.135;  -11.580;  664.100
1075.886;   16.768;  -13.190;  594.240
1076.431;   16.066;  -13.630;  649.880
1076.976;   15.525;  -11.670;  639.220
1077.521;   15.499;  -11.600;  583.080
1078.067;   15.228;  -13.920;  579.400
1078.612;   15.219;  -12.910;  661.620
1079.156;   14.480;  -15.340;  601.540
1079.701;   15.455;  -12.560;  693.260
1080.246;   16.224;  -12.490;  696.300
1080.791;   14.945;  -14.550;  625.020
1081.336;   15.724;  -15.210;  659.320
1081.880;   15.526;  -11.280;  649.680
1082.425;   14.715;  -12.830;  573.480
1082.970;   16.164;  -11.680;  717.040
1083.514;   14.552;  -15.500;  597.000
1084.059;   13.810;  -11.770;  586.720
1084.603;   13.848;  -13.480;  565.840
1085.147;   13.433;  -13.940;  645.220
1085.692;   14.258;  -13.170;  716.800
1086.236;   12.682;  -15.740;  503.140
1086.780;   15.034;  -10.750;  751.440
1087.325;   13.806;  -14.900;  654.620
1087.869;   14.062;  -15.160;  610.700
1088.413;   15.223;  -11.030;  705.040
1088.957;   13.085;  -15.210;  543.400
1089.501;   14.724;  -12.310;  766.640
1090.045;   13.875;  -12.790;  726.480
1090.589;   11.539;  -14.040;  569.920
1091.133;   13.772;  -12.800;  673.340
1091.676;   12.842;  -13.600;  591.940
1092.220;   11.914;  -12.960;  600.920
1092.764;   13.722;  -10.830;  706.960
1093.307;   13.314;  -12.390;  673.780
1093.851;   11.195;  -15.850;  556.540
1094.395;   12.801;  -12.980;  683.140
1094.938;   11.857;  -13.670;  632.520
1095.482;   12.177;  -12.740;  559.800
1096.025;   12.578;  -13.340;  710.880
1096.568;   12.773;  -10.500;  779.280
1097.112;    8.878;  -13.500;  508.180
1097.655;   12.019;  -13.060;  603.000
1098.198;    9.995;  -13.240;  600.180
1098.741;   10.438;  -15.490;  612.860
1099.285;   11.407;  -13.410;  657.300
1099.828;    9.741;  -15.640;  439.400
1100.371;   10.382;  -13.980;  608.160
1100.914;   10.450;  -13.990;  682.660
1101.457;   11.755;  -15.030;  679.900
1101.999;    9.809;  -12.480;  584.680
1102.542;   10.593;  -12.410;  641.440
1103.085;   10.087;  -14.730;  658.500
1103.628;   11.278;  -12.190;  762.060
1104.170;    8.928;  -12.360;  588.280
1104.713;    9.673;  -13.350;  646.700
1105.256;    9.247;  -14.930;  557.440
1105.798;    8.256;  -15.150;  499.980
1106.341;   11.064;  -13.230;  728.900
1106.883;    9.244;  -14.680;  521.340
1107.425;    9.421;  -14.810;  668.180
1107.968;    8.734;  -12.940;  612.380
1108.510;    9.833;  -10.550;  684.960
1109.052;    8.682;  -15.640;  612.620
1109.594;    8.244;  -14.440;  554.440
1110.136;    9.671;  -11.380;  643.220
1110.679;    7.945;  -13.090;  633.080
1111.221;    8.093;  -14.230;  604.460
1111.763;    7.687;  -14.260;  559.220
1112.304;    8.057;  -14.510;  547.140
1112.846;    9.028;  -14.700;  666.240
1113.388;   10.725;  -12.270;  942.180
1113.930;    8.234;  -13.340;  694.200
1114.472;    8.434;  -12.560;  606.540
1115.013;    6.943;  -14.280;  551.280
1115.555;    6.746;  -14.010;  587.100
1116.097;    6.006;  -14.730;  579.480
1116.638;    7.761;  -12.160;  684.600
1117.180;    7.856;  -14.320;  667.740
1117.721;    6.319;  -15.730;  568.580
1118.262;    7.744;  -13.480;  677.960
1118.804;    8.040;  -11.530;  637.340
1119.345;    7.280;  -13.540;  578.400
1119.886;    8.077;  -14.470;  704.040
1120.427;    5.934;  -13.030;  589.020
1120.969;    6.250;  -13.150;  597.920
1121.510;    5.731;  -13.940;  563.060
1122.051;    6.389;  -12.310;  723.580
1122.592;    5.230;  -13.870;  655.420
1123.133;    5.434;  -12.890;  547.940
1123.673;    6.889;  -13.300;  706.480
1124.214;    6.105;  -14.000;  612.460
1124.755;    6.354;  -13.210;  639.460
1125.296;    6.603;  -13.450;  627.320
1125.836;    7.496;  -12.610;  691.500
1126.377;    4.655;  -15.840;  599.660
1126.918;    6.213;  -11.830;  614.980
1127.458;    4.741;  -11.830;  622.220
1127.999;    6.689;  -11.490;  656.980
1128.539;    5.571;  -12.900;  694.240
1129.079;    4.903;  -14.910;  632.720
1129.620;    4.528;  -12.920;  558.100
1130.160;    4.342;  -14.640;  539.480
1130.700;    6.173;  -13.270;  640.840
1131.240;    4.948;  -14.110;  643.700
1131.781;    4.898;  -13.130;  619.680
1132.321;    4.371;  -15.220;  599.120
1132.861;    3.669;  -15.670;  564.200
1133.401;    3.609;  -13.970;  593.940
1133.941;    4.600;  -13.740;  626.280
1134.481;    4.105;  -13.200;  597.580
1135.020;    3.620;  -14.830;  609.160
1135.560;    4.167;  -14.590;  674.940
1136.100;    2.776;  -13.730;  501.160
1136.640;    2.779;  -15.240;  510.480
1137.179;    3.017;  -14.710;  537.960
1137.719;    3.732;  -14.090;  605.400
1138.258;    3.696;  -12.470;  587.360
1138.798;    4.771;  -12.580;  663.780
1139.337;    2.548;  -16.480;  482.840
1139.877;    4.079;  -13.970;  642.360
1140.416;    5.959;   -9.870;  878.060
1140.955;    2.587;  -14.860;  535.380
1141.494;    2.754;  -14.530;  669.280
1142.034;    2.718;  -13.940;  583.520
1142.573;    3.857;  -11.160;  646.280
1143.112;    2.593;  -15.050;  553.480
1143.651;    2.283;  -15.390;  536.480
1144.190;    3.171;  -12.990;  691.640
1144.729;    3.630;  -12.220;  607.420
1145.267;    2.706;  -14.020;  584.900
1145.806;    3.474;  -12.740;  637.040
1146.345;    2.051;  -14.810;  635.020
1146.884;    2.514;  -12.920;  622.500
1147.422;    1.974;  -13.930;  533.060
1147.961;    3.806;  -11.830;  708.460
1148.500;    2.970;  -12.710;  669.720
1149.038;    3.211;  -14.420;  632.500
1149.577;    2.709;  -13.920;  698.640
1150.115;    0.060;  -17.050;  452.280
1150.653;    1.557;  -14.890;  607.340
1151.192;    1.595;  -15.270;  552.920
1151.730;    2.016;  -13.160;  652.560
1152.268;    1.425;  -15.430;  589.520
1152.806;    1.326;  -15.880;  571.180
1153.344;    0.510;  -13.240;  577.640
1153.882;    1.574;  -13.010;  600.060
1154.421;   -0.047;  -16.180;  470.620
1154.958;    0.314;  -13.880;  595.240
1155.496;    1.960;  -13.590;  645.280
1156.034;    1.809;  -11.910;  721.880
1156.572;    2.202;  -12.010;  667.060
1157.110;   -0.018;  -16.250;  473.940
1157.647;    1.892;  -15.230;  676.960
1158.185;   -0.220;  -13.770;  564.320
1158.723;   -0.007;  -15.300;  509.200
1159.260;    1.581;  -13.130;  701.700
1159.798;    2.232;  -11.300;  658.160
1160.335;    1.009;  -13.210;  631.820

