
Integration time [ms]:   3.276
Averaging Nr. [scans]: 1000
Smoothing Nr. [pixels]: 0
Data measured with spectrometer [name]: 7414430SP
Wave   ;Sample   ;Dark     ;Reference
[nm]   ;[counts] ;[counts] ;[counts] 

288.544;  152.020;    7.793;  793.890
289.143;  156.279;    7.462;  681.602
289.742;  155.404;    8.602;  828.814
290.341;  142.262;    1.321;  789.841
290.940;  131.206;   -0.709;  730.702
291.538;  131.676;    0.881;  881.108
292.137;  130.485;    0.122;  792.581
292.736;  135.630;   -1.929;  975.101
293.335;  133.056;   -8.229;  735.086
293.934;  132.543;   -5.279;  781.677
294.532;  130.893;   -1.369; 1031.958
295.131;  117.145;   -7.641;  834.394
295.730;  118.566;   -8.420;  809.588
296.328;  116.453;   -5.611;  783.442
296.927;  116.515;   -5.781;  779.652
297.525;  117.769;   -6.361;  781.236
298.124;  108.861;  -11.382;  654.009
298.722;  111.815;   -7.641;  761.933
299.321;  109.789;   -6.811;  708.597
299.919;  108.364;   -6.991;  751.918
300.518;  105.606;  -10.362;  689.338
301.116;  106.829;   -9.581;  691.381
301.715;  106.043;   -4.891;  730.222
302.313;  104.801;   -8.801;  704.943
302.911;  101.660;   -8.522;  733.830
303.509;  106.566;   -6.171;  925.627
304.108;  102.957;   -7.311;  760.383
304.706;  102.293;   -8.321;  801.664
305.304;   97.470;  -10.222;  796.707
305.902;  102.434;   -6.021;  784.484
306.500;   97.949;   -4.971;  728.200
307.098;   97.157;   -7.061;  746.560
307.696;   95.693;   -8.801;  780.432
308.294;   95.289;   -6.411;  731.359
308.892;   96.496;   -2.901;  759.769
309.490;   93.757;   -5.041;  712.161
310.088;   92.026;   -5.002;  788.444
310.686;   96.466;   -2.041;  821.749
311.284;   90.928;   -2.351;  766.040
311.882;   89.419;   -4.422;  731.225
312.480;   86.944;   -4.192;  697.167
313.078;   87.607;   -1.172;  808.331
313.675;   87.307;   -2.601;  691.600
314.273;   84.198;   -1.312;  797.837
314.871;   84.063;   -3.942;  589.829
315.468;   81.324;   -2.802;  652.090
316.066;   83.366;   -0.701;  694.427
316.664;   76.649;   -4.362;  656.351
317.261;   81.691;   -2.872;  910.128
317.859;   76.026;   -2.022;  768.735
318.456;   76.253;   -0.531;  830.096
319.054;   73.186;   -3.912;  787.828
319.651;   72.028;   -4.752;  759.928
320.249;   69.750;   -2.602;  810.188
320.846;   67.350;   -0.821;  714.286
321.443;   65.345;   -4.642;  832.135
322.041;   63.146;   -5.002;  812.315
322.638;   59.597;   -3.982;  701.456
323.235;   61.152;   -3.411;  665.683
323.833;   58.124;   -7.361;  740.354
324.430;   54.853;   -8.611;  615.900
325.027;   55.354;   -4.061;  876.855
325.624;   53.683;   -4.031;  644.532
326.221;   52.372;   -7.481;  689.717
326.818;   51.868;   -5.281;  818.332
327.415;   54.403;   -7.460;  748.828
328.012;   53.352;   -5.510;  690.585
328.609;   52.971;   -7.880;  731.389
329.206;   51.535;   -8.331;  778.621
329.803;   50.431;   -5.121;  737.841
330.400;   52.579;   -4.510;  704.260
330.997;   54.749;   -6.441;  817.147
331.594;   53.908;   -8.831;  788.185
332.191;   58.903;   -7.621;  728.722
332.787;   60.568;   -4.591;  844.463
333.384;   60.149;   -7.412;  763.093
333.981;   59.618;   -8.293;  815.687
334.578;   62.477;   -7.052;  708.378
335.174;   64.412;   -3.102;  731.469
335.771;   63.649;   -5.943;  836.456
336.367;   61.199;   -7.393;  710.631
336.964;   64.433;   -4.063;  793.266
337.561;   62.012;   -3.813;  731.112
338.157;   57.846;   -4.654;  911.916
338.754;   56.809;   -7.934;  796.589
339.350;   53.898;   -4.414;  722.493
339.946;   55.516;   -4.664;  773.135
340.543;   47.239;   -6.375;  846.136
341.139;   42.438;   -9.815;  720.836
341.735;   39.789;   -4.526;  772.593
342.332;   37.919;   -4.895;  691.472
342.928;   39.605;   -4.295;  795.394
343.524;   33.973;   -5.476;  761.684
344.120;   30.503;   -5.856;  738.562
344.716;   32.530;   -2.155;  723.717
345.313;   30.653;   -6.275;  795.342
345.909;   25.505;   -8.815;  627.336
346.505;   27.777;   -5.305;  740.247
347.101;   27.253;   -2.674;  827.864
347.697;   28.396;   -4.344;  785.398
348.293;   23.185;   -9.975;  627.244
348.889;   23.043;   -5.774;  745.914
349.485;   21.833;   -5.004;  688.205
350.081;   23.159;   -4.704;  772.592
350.676;   18.623;   -6.635;  691.606
351.272;   23.151;   -4.504;  809.530
351.868;   21.633;   -3.914;  780.497
352.464;   19.237;   -9.044;  723.932
353.059;   15.499;   -8.314;  646.017
353.655;   19.780;   -7.024;  777.063
354.251;   19.733;   -5.343;  759.845
354.846;   15.209;   -8.604;  740.646
355.442;   13.430;   -6.945;  753.071
356.038;   14.812;   -7.564;  751.708
356.633;   14.890;   -5.814;  728.594
357.229;   12.497;   -7.364;  724.757
357.824;   11.300;   -8.024;  703.600
358.420;   10.204;   -9.384;  679.726
359.015;    9.885;   -5.104;  695.357
359.610;   11.652;   -6.854;  763.920
360.206;    5.954;  -10.185;  603.240
360.801;    8.763;   -7.054;  646.503
361.396;   10.389;   -5.034;  725.975
361.992;    5.727;   -8.284;  668.220
362.587;    3.604;   -8.625;  670.160
363.182;    5.628;   -7.674;  689.631
363.777;    5.061;   -5.164;  738.242
364.372;    5.609;   -8.604;  737.314
364.967;    2.277;   -9.055;  680.744
365.563;    6.940;   -6.114;  815.567
366.158;    2.614;   -5.814;  685.161
366.753;    3.781;   -7.854;  649.263
367.348;    2.425;   -7.804;  746.056
367.942;    1.993;   -7.954;  697.298
368.537;    0.889;   -4.984;  754.245
369.132;    0.997;   -8.564;  703.428
369.727;   -2.774;   -8.855;  638.079
370.322;   -0.913;   -6.245;  580.186
370.917;   -2.073;   -6.425;  710.646
371.511;    0.669;   -6.294;  861.834
372.106;   -2.109;   -7.685;  776.964
372.701;   -5.053;   -7.335;  585.988
373.296;   -0.273;   -4.564;  863.135
373.890;   -4.695;  -10.235;  647.840
374.485;   -7.196;   -7.885;  691.199
375.079;   -2.679;   -7.324;  738.685
375.674;   -2.050;   -3.494;  812.970
376.268;   -6.131;   -8.525;  691.759
376.863;  -10.853;  -10.086;  580.327
377.457;   -5.867;   -7.025;  662.490
378.052;   -7.943;   -3.585;  764.884
378.646;   -8.065;   -7.595;  741.167
379.240;   -7.482;   -8.335;  721.176
379.835;   -7.148;   -5.785;  636.978
380.429;  -10.022;   -4.335;  562.557
381.023;   -9.445;   -6.805;  779.205
381.617;  -11.634;   -9.195;  680.106
382.212;   -8.218;   -6.905;  685.303
382.806;   -8.342;   -3.745;  760.690
383.400;  -11.856;   -7.745;  672.281
383.994;  -12.454;   -9.765;  664.870
384.588;   -9.341;   -6.564;  697.701
385.182;   -7.582;   -5.344;  726.624
385.776;   -9.730;   -8.514;  706.875
386.370;  -11.303;   -9.555;  681.968
386.964;  -11.528;   -8.715;  684.155
387.558;  -10.335;   -6.174;  598.360
388.152;  -13.159;   -8.725;  681.959
388.745;  -10.683;   -7.965;  814.707
389.339;   -9.187;   -5.924;  747.642
389.933;   -8.750;   -5.524;  695.370
390.527;   -9.637;   -7.114;  859.029
391.120;  -14.999;  -10.725;  595.318
391.714;  -12.861;   -8.035;  711.633
392.308;   -9.448;   -3.574;  780.253
392.901;  -13.771;   -7.245;  642.460
393.495;  -15.114;   -9.285;  595.414
394.089;  -13.055;   -5.895;  760.452
394.682;  -13.695;   -4.295;  697.188
395.275;  -14.070;   -9.875;  719.927
395.869;  -15.085;   -8.485;  667.314
396.462;  -13.587;   -7.455;  616.609
397.056;  -10.469;   -5.424;  776.621
397.649;  -14.532;   -6.605;  731.575
398.242;  -12.680;   -8.224;  712.645
398.836;  -11.271;   -7.474;  766.408
399.429;  -12.091;   -7.094;  631.041
400.022;  -16.609;   -9.475;  665.902
400.615;  -13.491;   -7.145;  805.609
401.208;  -11.959;   -7.174;  691.451
401.802;  -14.172;   -5.515;  699.329
402.395;  -15.027;   -9.875;  683.502
402.988;  -15.933;   -8.845;  696.627
403.581;  -12.185;   -8.874;  646.878
404.174;  -11.115;   -5.324;  686.568
404.767;  -13.700;   -9.575;  638.583
405.360;  -15.693;  -10.965;  621.445
405.953;  -10.498;   -8.764;  759.034
406.545;  -11.232;   -7.514;  725.342
407.138;  -14.443;  -10.025;  618.350
407.731;  -13.117;  -10.034;  613.303
408.324;   -8.748;   -9.374;  660.554
408.917;  -10.881;   -6.534;  681.864
409.509;  -12.030;   -8.004;  740.396
410.102;  -13.376;   -9.875;  643.948
410.695;   -7.400;   -8.604;  665.758
411.287;   -9.274;   -6.794;  599.821
411.880;  -10.449;   -9.334;  585.421
412.472;  -12.472;  -10.254;  613.092
413.065;   -9.598;   -6.714;  629.408
413.657;   -8.805;   -7.234;  576.678
414.250;   -7.871;  -10.544;  646.681
414.842;   -9.668;   -9.744;  676.353
415.434;   -8.269;   -6.994;  570.463
416.027;   -3.997;   -5.893;  652.196
416.619;   -5.740;   -7.264;  713.400
417.211;   -5.220;  -10.374;  599.352
417.804;   -2.136;   -7.993;  628.499
418.396;   -6.314;   -7.234;  607.643
418.988;   -3.916;   -9.443;  659.238
419.580;   -7.292;  -10.724;  568.276
420.172;   -5.125;  -10.323;  536.196
420.764;   -1.852;   -8.793;  672.482
421.356;   -2.972;  -11.143;  636.898
421.948;   -2.909;   -8.293;  677.661
422.540;    1.284;   -7.893;  680.027
423.132;    1.106;   -7.082;  600.641
423.724;   -2.460;   -8.653;  561.267
424.316;   -0.164;  -10.213;  621.345
424.908;    3.913;   -9.762;  591.517
425.500;    3.625;   -5.572;  647.978
426.092;    4.072;   -8.422;  648.268
426.683;    3.936;   -9.283;  684.836
427.275;    6.556;   -7.852;  641.471
427.867;    7.720;   -5.272;  668.948
428.458;    8.564;   -7.682;  732.344
429.050;    7.489;  -10.612;  680.749
429.642;    9.208;   -9.882;  743.124
430.233;    9.467;   -6.962;  569.356
430.825;    9.995;   -6.842;  724.809
431.416;    8.997;   -9.672;  698.241
432.008;   12.339;   -6.552;  651.723
432.599;   12.144;   -6.891;  656.073
433.190;    9.073;  -10.912;  637.670
433.782;    9.224;  -11.172;  590.395
434.373;   15.840;   -6.061;  884.765
434.964;   14.138;   -8.251;  602.920
435.556;   11.800;   -9.722;  634.537
436.147;   15.907;   -9.082;  758.490
436.738;   15.877;   -8.041;  701.099
437.329;   20.894;   -7.341;  721.723
437.920;   13.486;   -8.162;  666.688
438.511;   14.664;  -11.802;  564.526
439.103;   20.049;  -10.191;  623.998
439.694;   21.409;   -7.601;  681.583
440.285;   21.933;   -8.541;  764.432
440.876;   20.816;   -9.751;  845.738
441.466;   20.485;   -9.401;  575.162
442.057;   25.479;   -7.760;  665.814
442.648;   24.724;   -9.971;  746.255
443.239;   23.802;  -11.001;  620.477
443.830;   27.888;   -7.990;  704.958
444.421;   28.796;   -7.910;  655.474
445.011;   25.606;   -8.131;  693.619
445.602;   25.725;   -7.111;  743.126
446.193;   27.140;  -10.920;  488.117
446.783;   31.222;   -6.500;  640.397
447.374;   27.065;   -8.671;  692.759
447.964;   28.307;  -10.781;  713.770
448.555;   36.499;   -9.650;  822.742
449.145;   33.224;   -8.660;  662.853
449.736;   33.602;   -8.990;  803.179
450.326;   34.561;   -9.500;  713.626
450.917;   38.416;   -8.680;  675.324
451.507;   37.680;   -7.520;  600.661
452.097;   38.864;   -8.590;  746.267
452.688;   40.482;  -11.340;  742.160
453.278;   39.655;  -10.100;  566.840
453.868;   43.671;   -6.019;  793.550
454.458;   41.987;   -9.440;  651.141
455.048;   41.603;  -10.560;  711.783
455.639;   43.960;  -11.799;  567.096
456.229;   46.147;   -6.899;  710.694
456.819;   48.831;   -7.389;  751.158
457.409;   49.679;  -11.119;  773.993
457.999;   52.243;   -9.289;  737.505
458.589;   51.764;   -6.139;  686.606
459.179;   51.592;   -8.729;  717.658
459.769;   50.337;   -9.789;  627.099
460.358;   54.313;  -10.259;  797.262
460.948;   53.986;   -7.299;  689.503
461.538;   56.491;  -10.289;  660.677
462.128;   54.572;  -11.269;  664.934
462.717;   61.225;   -9.368;  710.326
463.307;   63.907;   -7.908;  705.846
463.897;   59.282;   -9.599;  656.942
464.486;   59.250;   -9.769;  837.128
465.076;   64.162;   -8.048;  733.776
465.666;   66.285;   -9.358;  652.900
466.255;   65.079;   -7.919;  785.651
466.845;   64.135;  -11.689;  666.749
467.434;   67.621;   -7.818;  725.873
468.023;   67.597;   -7.678;  658.357
468.613;   65.753;  -10.939;  713.946
469.202;   70.013;  -10.118;  646.507
469.791;   74.164;   -9.108;  737.811
470.381;   75.525;   -6.058;  742.813
470.970;   75.267;  -10.428;  711.099
471.559;   76.090;  -10.268;  733.291
472.148;   78.830;   -8.448;  675.737
472.738;   80.807;   -6.917;  765.466
473.327;   81.163;  -11.978;  637.529
473.916;   80.117;  -11.888;  737.446
474.505;   84.162;   -9.437;  751.703
475.094;   87.743;   -6.747;  806.570
475.683;   86.514;   -9.367;  797.699
476.272;   88.776;  -12.637;  730.632
476.861;   91.450;  -10.027;  706.754
477.449;   96.918;   -8.716;  728.487
478.038;   91.519;   -9.577;  692.513
478.627;   93.709;   -9.718;  714.852
479.216;   99.843;   -8.947;  769.441
479.805;  101.671;   -6.256;  783.375
480.393;  102.437;   -7.937; 1008.945
480.982;  101.752;   -7.717;  874.501
481.571;  107.280;   -9.266;  858.333
482.159;  107.994;   -7.636;  705.386
482.748;  107.354;   -9.667;  821.385
483.336;  112.653;  -10.376;  858.209
483.925;  113.189;   -7.147;  774.373
484.513;  119.753;   -7.996;  758.962
485.102;  116.257;  -10.027;  810.965
485.690;  125.545;  -10.446; 1011.050
486.278;  127.212;   -8.446;  979.329
486.867;  127.322;   -6.356;  809.662
487.455;  129.476;   -9.136;  898.229
488.043;  130.804;  -10.646;  748.361
488.631;  140.017;   -7.456; 1005.079
489.220;  143.537;   -6.636;  908.626
489.808;  143.684;  -11.036;  741.415
490.396;  152.321;  -10.246;  914.645
490.984;  158.195;   -8.556;  830.161
491.572;  168.058;   -5.886;  940.315
492.160;  173.740;   -9.486;  919.081
492.748;  185.780;  -10.976;  884.341
493.336;  208.161;   -8.776; 1019.693
493.924;  234.871;   -5.465;  958.077
494.512;  262.209;   -9.986; 1066.638
495.100;  300.484;  -10.636; 1103.280
495.687;  357.176;  -10.885; 1206.373
496.275;  418.617;   -8.126; 1150.796
496.863;  489.077;  -10.586; 1281.171
497.451;  590.791;  -11.926; 1386.805
498.038;  724.787;  -10.885; 1556.729
498.626;  831.032;   -6.315; 1741.407
499.214;  980.691;   -7.326; 2016.609
499.801; 1185.050;  -11.906; 2220.633
500.389; 1412.369;  -10.466; 2312.494
500.976; 1721.731;   -5.236; 2744.849
501.564; 2141.718;   -8.936; 3148.565
502.151; 2508.528;  -13.176; 3515.999
502.738; 2947.076;  -10.646; 3971.274
503.326; 3335.080;   -9.525; 4403.796
503.913; 3755.171;  -10.856; 5161.749
504.500; 4140.566;  -11.586; 5986.420
505.088; 4517.494;  -10.336; 6381.201
505.675; 5035.698;   -6.355; 6925.547
506.262; 5725.164;   -9.046; 7619.060
506.849; 6462.382;  -10.416; 8733.969
507.436; 7018.191;  -10.305; 9790.121
508.023; 7588.569;   -5.496; 9985.472
508.610; 7775.077;   -7.856;10434.618
509.197; 8366.536;  -10.097;11198.435
509.784; 9675.998;  -10.886;12391.194
510.371;10803.372;   -9.315;13603.713
510.958;11524.211;   -9.936;14426.586
511.545;12219.879;   -9.326;15243.775
512.132;13120.078;  -10.075;15945.876
512.719;13795.289;   -7.796;16340.369
513.305;14983.051;  -10.606;18011.766
513.892;15796.240;  -11.486;19754.971
514.479;16911.641;   -9.126;20967.805
515.066;18084.289;   -6.026;22299.793
515.652;19510.586;   -8.466;22908.660
516.239;20897.086;  -10.886;23798.875
516.825;21929.641;  -11.496;25567.275
517.412;23160.006;   -5.796;28154.959
517.998;23827.254;  -10.506;28344.111
518.585;23546.182;  -10.076;27134.219
519.171;23949.703;   -8.315;27268.576
519.758;26069.145;   -8.596;28964.129
520.344;27984.287;   -8.466;30664.494
520.930;27493.029;  -11.006;32550.605
521.516;28885.252;  -10.495;35422.895
522.103;30933.186;   -5.526;38280.004
522.689;31657.688;   -8.746;37835.117
523.275;30816.063;  -11.376;37288.613
523.861;31947.557;  -11.156;37281.395
524.447;33612.422;   -8.135;37846.949
525.033;33425.371;   -7.896;38321.949
525.619;33703.375;  -12.476;38579.285
526.205;34910.684;   -9.516;40622.875
526.791;37378.984;   -6.926;42258.836
527.377;36954.016;   -8.346;42966.902
527.963;37965.188;   -8.717;42018.949
528.549;37059.379;  -11.016;42476.828
529.135;35530.168;   -8.536;41854.852
529.721;33781.434;   -9.666;41237.711
530.306;31476.922;  -10.066;41259.445
530.892;29957.617;  -11.356;41506.047
531.478;31902.705;   -6.596;43559.613
532.063;37180.309;   -8.836;47695.563
532.649;39297.020;  -10.047;50808.324
533.235;40368.047;   -9.746;51787.500
533.820;40988.117;   -6.566;52145.035
534.406;41239.195;  -10.817;51133.488
534.991;39540.738;   -9.416;49996.805
535.576;35684.172;   -9.036;48882.852
536.162;33010.684;   -6.156;46942.285
536.747;32983.863;  -11.607;45711.746
537.333;38661.813;  -11.787;48510.180
537.918;45673.785;  -12.437;50439.891
538.503;48554.980;   -7.196;50863.711
539.088;47403.582;  -10.556;50906.922
539.673;48367.074;   -8.767;52621.965
540.259;48831.402;  -10.026;52368.094
540.844;45681.457;   -7.416;50879.109
541.429;46814.773;   -9.467;52077.777
542.014;49199.922;   -9.527;52716.695
542.599;48541.340;   -9.946;52363.281
543.184;45146.551;   -7.927;53187.137
543.769;46215.781;   -9.297;54697.605
544.354;46479.191;  -10.127;53913.914
544.938;45013.730;   -9.267;49680.164
545.523;46592.297;   -6.506;47386.277
546.108;48970.914;   -9.787;49151.949
546.693;50988.133;  -11.587;51384.637
547.278;51395.914;  -10.986;51853.254
547.862;48023.355;   -8.206;51173.750
548.447;43259.070;  -10.067;51691.395
549.031;42760.824;   -9.637;52456.703
549.616;47723.469;   -9.926;52714.516
550.201;47142.488;   -6.347;52414.598
550.785;48254.027;   -7.917;52355.059
551.370;47766.395;  -10.867;54589.453
551.954;47805.734;   -9.047;58267.348
552.538;48570.398;   -7.827;59062.176
553.123;46816.586;  -10.287;58115.285
553.707;44978.996;  -12.178;56556.285
554.291;46493.270;   -8.717;56201.668
554.876;49162.379;   -7.457;55335.762
555.460;49173.422;  -10.387;54155.703
556.044;49334.203;   -9.618;53721.484
556.628;47167.824;  -11.567;53731.016
557.212;46046.020;   -8.097;54312.531
557.796;44844.309;  -11.077;53797.773
558.380;44670.418;  -11.108;56145.984
558.964;44920.059;   -9.057;57277.930
559.548;45545.121;   -6.977;56459.641
560.132;43737.066;  -11.457;54434.543
560.716;42763.988;  -11.378;54800.617
561.300;44366.469;   -9.577;57606.945
561.884;45406.813;   -7.127;58972.445
562.467;43426.676;   -7.118;57327.570
563.051;42160.410;  -13.358;54962.434
563.635;43241.730;  -10.178;52594.473
564.219;44462.926;   -7.837;50610.410
564.802;45215.105;  -11.398;49551.180
565.386;44668.137;  -12.788;48370.953
565.969;44155.367;   -9.077;48178.871
566.553;43517.898;   -6.207;49957.305
567.136;44127.238;   -8.568;50369.594
567.720;40450.039;  -11.868;49492.004
568.303;38562.801;   -8.268;50616.352
568.887;38514.660;   -8.698;50727.148
569.470;39039.867;   -6.808;51698.379
570.053;38141.203;  -13.188;52122.078
570.637;35674.938;  -12.037;52536.438
571.220;35166.086;   -8.577;51186.098
571.803;35860.461;   -8.498;51032.762
572.386;38434.063;  -10.498;49609.887
572.969;41039.559;   -9.388;48285.926
573.552;39259.523;   -8.338;47624.285
574.135;37943.512;   -8.518;45498.641
574.718;35188.777;  -13.628;41970.434
575.301;34179.730;  -10.893;41447.137
575.884;33170.680;   -8.158;40923.836
576.467;34469.941;  -10.328;45267.723
577.050;36357.699;  -13.058;48175.543
577.633;37502.922;   -9.458;47729.328
578.216;36566.988;   -8.928;47579.793
578.799;35649.664;   -9.358;47820.996
579.381;34367.613;  -11.388;48115.551
579.964;32544.084;  -11.718;47333.766
580.547;34447.785;   -8.588;46668.969
581.129;35327.621;   -8.859;44466.141
581.712;36110.512;  -10.729;44164.922
582.294;36597.359;  -11.118;46477.855
582.877;36756.629;   -5.218;48244.254
583.459;34796.859;   -8.679;47437.895
584.042;32561.424;  -10.709;46943.219
584.624;32787.195;  -11.669;46792.227
585.206;32759.629;   -8.218;46557.250
585.789;33494.512;  -10.569;45793.773
586.371;35839.137;  -11.859;43836.391
586.953;36280.402;  -10.719;42972.492
587.536;37138.723;   -7.198;42487.211
588.118;37159.719;   -8.720;42086.414
588.700;33549.977;  -10.439;43389.930
589.282;32678.508;   -9.198;43646.039
589.864;33800.125;   -9.199;43438.109
590.446;34968.480;  -11.319;43151.926
591.028;34366.188;  -11.159;42781.867
591.610;33173.617;  -11.779;42839.098
592.192;30912.277;   -7.668;42820.402
592.774;29652.516;  -11.949;40724.277
593.356;28766.748;  -12.129;39874.789
593.937;27995.666;  -10.669;39980.648
594.519;30528.125;   -6.509;42069.633
595.101;32461.947;  -10.849;42976.031
595.683;32445.592;  -11.679;44084.441
596.264;33313.543;   -9.049;43478.797
596.846;32593.168;   -8.849;43803.672
597.427;32118.037;   -9.570;42986.934
598.009;33155.117;  -12.620;42832.219
598.591;33441.656;  -10.039;42580.086
599.172;32976.988;  -10.369;43061.805
599.753;33119.367;   -9.140;41691.469
600.335;34486.066;  -11.430;40692.520
600.916;33000.855;   -9.939;39982.422
601.498;31110.523;   -8.479;40318.617
602.079;29588.920;  -10.920;40670.609
602.660;29604.385;  -11.480;41450.898
603.241;31200.859;  -11.699;41137.738
603.823;29608.342;   -9.579;38868.797
604.404;29430.387;  -10.620;38182.785
604.985;31036.313;  -10.450;38078.047
605.566;30624.967;   -9.129;38056.633
606.147;30666.449;   -7.510;37020.418
606.728;32350.572;  -10.660;37883.359
607.309;30933.439;  -11.740;38748.273
607.890;30521.701;   -9.759;38850.230
608.471;30189.963;   -8.250;37457.918
609.051;29638.301;   -9.240;36066.457
609.632;28481.057;  -12.120;35991.074
610.213;28908.402;   -9.110;37402.641
610.794;29685.902;   -8.030;38383.363
611.374;29783.248;   -8.110;40562.387
611.955;30371.549;  -13.560;38533.727
612.536;31541.553;  -11.400;36951.789
613.116;31434.982;   -8.070;37197.891
613.697;31526.387;  -10.830;38411.125
614.277;29897.615;  -11.641;38673.938
614.858;30799.893;  -13.310;37075.863
615.438;30311.002;   -7.460;35092.906
616.019;27730.043;   -7.601;33666.301
616.599;27871.383;  -12.020;34189.023
617.179;29439.791;  -11.780;36952.047
617.760;30339.385;   -8.570;39582.574
618.340;31125.793;  -11.471;38943.977
618.920;32000.176;  -11.170;37594.156
619.500;32194.891;  -11.071;37866.938
620.080;31603.488;   -7.750;37869.043
620.660;32857.656;  -12.711;36868.617
621.241;34862.723;  -10.211;36352.309
621.821;35076.703;  -10.961;35459.520
622.401;33691.176;   -7.720;35207.414
622.980;32537.268;   -8.981;35980.422
623.560;31077.248;   -9.331;37351.328
624.140;30146.238;   -9.850;34388.582
624.720;25178.275;   -7.451;32368.764
625.300;21624.479;   -9.070;32638.629
625.880;24988.756;  -12.601;34599.035
626.459;29267.490;  -11.751;36831.738
627.039;32253.883;   -9.281;38299.098
627.619;32093.988;   -8.801;38289.574
628.198;30307.787;  -12.071;37220.695
628.778;29171.385;   -9.461;37632.563
629.357;29950.818;   -8.491;38003.012
629.937;30376.234;   -9.721;38402.039
630.516;29907.373;   -9.951;37868.801
631.096;29367.385;  -11.731;35760.410
631.675;32094.803;   -8.572;35225.219
632.254;37354.578;  -11.282;35130.289
632.834;36791.758;  -13.322;35794.570
633.413;35022.688;  -10.301;35788.922
633.992;32028.078;   -8.582;34532.863
634.571;32650.777;   -8.352;33590.113
635.151;34928.578;  -11.912;34943.863
635.730;33461.270;  -10.511;35352.523
636.309;30407.961;   -7.731;35366.605
636.888;28236.803;   -9.952;36165.637
637.467;28998.094;  -11.672;37515.902
638.046;30515.521;   -8.901;39288.695
638.625;33503.496;   -7.912;38279.699
639.204;33349.988;  -10.022;37741.598
639.782;32159.309;  -12.252;38364.551
640.361;27959.900;  -10.041;36740.621
640.940;25217.848;  -11.161;34950.082
641.519;25868.865;   -9.701;34137.398
642.097;28992.029;  -11.271;35654.258
642.676;31775.525;   -8.651;35637.957
643.255;32726.404;   -8.711;36567.074
643.833;31896.176;   -9.581;37809.434
644.412;32143.660;  -13.711;37337.293
644.990;31259.625;  -11.811;37018.531
645.569;31583.711;   -9.411;36518.469
646.147;31122.537;  -10.291;36186.430
646.726;30564.230;  -12.401;36267.688
647.304;31133.711;  -10.411;36647.625
647.882;32782.414;   -9.651;39286.742
648.461;34588.313;   -9.631;39157.703
649.039;32784.105;  -11.881;35412.883
649.617;31683.359;   -9.661;34744.918
650.195;31082.488;   -9.301;35403.098
650.773;29703.793;  -10.511;35053.797
651.352;27691.145;  -11.521;33756.816
651.930;25616.266;  -12.211;31868.773
652.508;23806.418;   -9.171;33121.551
653.086;27699.535;   -9.371;33564.793
653.663;30441.732;  -13.161;34054.668
654.241;29362.953;  -13.031;35693.309
654.819;30971.777;   -9.371;36422.906
655.397;30690.768;  -10.511;38213.484
655.975;30240.314;  -10.371;39507.625
656.553;29695.027;  -10.051;39498.223
657.130;28290.609;  -10.061;40395.480
657.708;27958.076;   -9.561;39242.020
658.286;28008.777;  -11.511;38920.020
658.863;28934.809;  -10.261;40202.898
659.441;32315.254;   -7.531;39677.938
660.018;32234.846;   -9.501;40413.355
660.596;30840.629;  -13.301;39931.414
661.173;32584.500;  -11.211;39604.531
661.750;33184.688;   -9.951;39700.070
662.328;32711.098;   -9.390;39292.809
662.905;31643.939;  -11.330;38235.648
663.482;26559.523;   -9.050;36212.305
664.060;24680.826;   -8.240;35944.945
664.637;27939.561;  -10.050;35170.785
665.214;29503.320;  -11.760;34197.523
665.791;30895.988;  -10.530;34549.520
666.368;29800.197;   -9.690;35118.578
666.945;30444.777;   -9.320;36019.418
667.522;31930.932;  -11.860;36048.438
668.099;31843.326;  -10.770;36243.914
668.676;30486.355;   -6.260;35958.875
669.253;28974.818;   -7.000;37384.730
669.830;29247.434;  -10.190;36779.629
670.407;29316.004;   -9.550;35231.289
670.984;29625.078;   -9.260;35544.270
671.560;30162.238;   -9.280;35466.867
672.137;29141.885;  -11.810;34280.863
672.714;30270.223;  -11.490;34632.863
673.290;31359.582;   -7.740;35135.422
673.867;31491.936;  -10.660;36114.480
674.443;30997.908;  -12.230;36152.859
675.020;28795.979;  -10.450;35327.238
675.596;30079.307;   -9.260;35795.176
676.173;30883.318;  -10.780;35430.355
676.749;30463.365;  -13.690;33549.516
677.326;30193.504;  -11.980;32210.012
677.902;30136.018;   -8.630;32068.871
678.478;29475.658;  -10.730;32583.891
679.054;28799.736;  -10.520;32088.928
679.631;29247.645;  -11.920;30978.848
680.207;30582.000;   -7.490;33160.887
680.783;31981.213;   -9.860;35570.363
681.359;31036.455;  -13.380;36125.184
681.935;30835.855;  -12.480;35240.922
682.511;30536.959;   -7.900;34429.961
683.087;30873.805;   -7.710;34463.680
683.663;30367.531;  -11.480;34648.898
684.239;28884.199;  -14.090;34546.457
684.815;28121.668;   -7.560;35586.375
685.390;28172.293;   -9.910;35821.895
685.966;28552.805;  -11.159;35085.871
686.542;31222.721;  -11.169;34198.230
687.118;33628.734;   -5.959;32847.707
687.693;33874.207;  -10.329;32794.027
688.269;33500.977;  -12.059;33072.367
688.844;31515.467;  -10.909;33141.664
689.420;29459.520;   -8.019;33965.742
689.995;27681.342;   -8.399;34655.523
690.571;26453.330;  -10.949;33576.742
691.146;26565.980;   -9.619;32657.219
691.722;26227.699;   -8.999;32526.979
692.297;26352.814;  -11.589;33014.617
692.872;27861.572;  -11.739;34012.254
693.448;27465.611;  -11.059;34237.434
694.023;26512.383;  -10.139;34142.672
694.598;28671.703;   -9.029;34132.031
695.173;29281.979;  -13.319;34205.250
695.748;28352.561;  -10.169;32882.488
696.323;27822.953;   -8.339;32864.906
696.898;27839.061;   -8.169;33170.004
697.473;28065.199;  -12.309;32432.984
698.048;27382.414;  -10.989;31649.303
698.623;27205.979;   -9.329;30778.141
699.198;28959.645;   -9.849;31140.119
699.773;30334.521;  -12.329;31764.299
700.348;29152.611;  -10.389;31780.816
700.922;28918.945;   -9.269;32046.375
701.497;29576.563;   -9.329;32603.574
702.072;29559.879;  -10.789;34799.871
702.646;28391.750;  -10.839;35793.172
703.221;26676.240;   -9.099;35201.590
703.795;28505.463;  -10.939;34764.527
704.370;28810.404;  -12.859;34307.367
704.944;29032.012;  -11.559;33509.887
705.519;29855.180;   -7.939;31388.584
706.093;31193.639;  -10.499;31340.104
706.668;31294.578;  -11.289;32630.281
707.242;30297.012;  -11.509;32728.779
707.816;29156.791;   -9.639;32947.238
708.390;27529.568;  -11.429;33277.855
708.965;28201.734;  -11.869;33834.336
709.539;28736.941;  -11.689;33709.273
710.113;28711.705;  -10.478;33044.313
710.687;27838.957;  -10.228;31953.992
711.261;26095.334;  -13.698;30505.949
711.835;26155.818;  -13.378;30262.369
712.409;26867.113;   -9.698;31254.447
712.983;28805.221;  -11.898;32754.986
713.557;29918.658;  -15.138;34018.824
714.131;29788.760;  -14.098;34579.625
714.704;28899.646;   -9.958;33890.262
715.278;26395.469;  -10.028;33531.102
715.852;25384.422;  -11.148;33601.660
716.425;26540.824;   -9.068;33515.117
716.999;27581.193;  -10.038;33185.555
717.573;28451.699;   -9.798;33905.996
718.146;29376.289;  -12.378;35199.293
718.720;29268.957;  -11.918;35060.551
719.293;29009.535;   -8.088;34973.230
719.867;31892.307;  -10.888;36394.449
720.440;31399.660;  -11.938;36663.008
721.013;29401.400;  -12.818;35102.426
721.587;27992.645;  -10.298;33985.266
722.160;26956.588;  -10.048;33524.965
722.733;26076.992;  -12.108;32987.043
723.306;26542.041;  -10.818;33066.301
723.880;28460.842;   -8.908;33399.500
724.453;30145.107;   -9.878;33468.297
725.026;29285.344;  -11.188;33816.637
725.599;26907.391;  -11.678;32797.996
726.172;27266.824;   -9.618;33187.434
726.745;28430.564;   -8.258;35136.613
727.318;29885.848;  -12.978;35751.730
727.891;30283.510;  -12.148;35890.430
728.463;29581.625;   -8.968;34822.090
729.036;28265.846;  -10.188;32895.086
729.609;28823.809;  -11.788;31823.225
730.182;25854.184;  -11.788;31445.283
730.754;23386.654;  -10.268;32373.223
731.327;23722.738;   -9.998;33676.820
731.900;24387.408;  -12.228;33417.000
732.472;25390.969;  -13.848;31978.498
733.045;26895.264;   -8.698;30368.777
733.617;26892.758;  -10.607;30574.215
734.190;27008.072;  -11.507;31280.975
734.762;24339.113;  -13.647;31674.412
735.334;22512.758;   -9.767;31247.291
735.907;23117.535;   -9.897;29876.211
736.479;23271.473;  -11.637;29808.488
737.051;22937.834;   -9.567;30233.547
737.623;23528.672;   -8.187;31469.086
738.195;24129.346;  -11.187;31784.225
738.768;26469.078;  -12.337;32120.523
739.340;26980.598;  -12.227;32094.342
739.912;25792.436;  -11.057;31312.680
740.484;24453.297;  -10.207;31946.238
741.056;23136.254;  -10.047;32984.059
741.628;24431.779;  -13.627;33897.715
742.199;26727.998;   -7.177;33213.016
742.771;25380.906;  -10.797;31369.113
743.343;23056.598;  -11.997;31865.473
743.915;22000.902;  -12.867;32388.631
744.487;21948.291;   -7.617;31079.568
745.058;21841.730;   -9.557;30570.107
745.630;22425.254;   -9.877;29970.127
746.201;23651.223;  -14.177;29186.766
746.773;24411.889;   -9.237;28805.723
747.344;24318.803;   -9.847;29591.223
747.916;22696.877;  -11.657;31412.201
748.487;22837.330;  -10.587;32194.898
749.059;24268.143;   -8.707;32533.719
749.630;25210.521;  -10.537;32158.518
750.201;24610.361;  -11.687;30855.395
750.773;22795.916;  -11.647;28622.555
751.344;22352.564;   -7.147;28405.732
751.915;23213.686;   -9.757;28461.551
752.486;23036.135;  -12.427;27842.850
753.057;20999.006;  -12.227;27845.008
753.628;19854.719;  -10.417;27728.107
754.199;20806.479;  -11.767;27381.086
754.770;21845.748;  -11.187;25882.203
755.341;21992.934;  -10.507;25886.184
755.912;22104.996;   -9.387;26050.861
756.483;21685.520;  -10.647;26798.779
757.054;19786.941;  -11.837;27048.238
757.625;18229.438;  -12.716;26294.838
758.195;18165.773;   -9.666;26142.076
758.766;18060.934;   -8.656;26392.234
759.337;18627.910;  -12.856;26334.594
759.907;20121.861;  -13.366;27579.652
760.478;20982.943;   -8.576;28352.770
761.048;20253.010;  -10.526;27325.088
761.619;19224.068;  -11.116;26460.428
762.189;19474.613;  -12.136;26029.826
762.760;20808.297;   -9.456;26430.145
763.330;21830.949;   -7.136;26670.902
763.900;21291.002;  -11.786;26603.021
764.471;18711.244;  -11.546;25542.740
765.041;17081.299;   -8.096;24358.459
765.611;16907.816;   -8.876;23991.297
766.181;17387.904;  -12.196;24470.236
766.751;18686.723;  -11.636;24845.975
767.321;18325.785;  -10.156;24533.633
767.891;15964.934;  -11.766;24916.492
768.461;15329.456;  -14.936;24776.771
769.031;15918.040;  -12.356;24757.988
769.601;17571.271;   -7.526;24181.088
770.171;17720.848;  -10.766;23670.387
770.741;17089.943;  -13.176;22960.045
771.311;17358.424;  -10.616;22917.523
771.880;17880.438;   -9.576;23562.941
772.450;17777.676;  -10.336;24216.500
773.020;17814.445;  -13.516;24140.398
773.589;16960.768;  -13.466;24414.857
774.159;16244.854;   -8.686;23858.717
774.729;15844.701;   -9.476;22942.135
775.298;15418.437;  -13.666;22324.033
775.867;14934.814;  -11.716;21140.313
776.437;14978.938;   -9.906;20838.092
777.006;14718.215;  -12.166;20599.510
777.576;14434.661;  -12.356;20508.809
778.145;14516.231;  -11.646;20732.947
778.714;14600.274;   -8.226;21062.465
779.283;14148.084;   -9.556;20949.664
779.853;13658.579;  -14.116;20508.623
780.422;14059.373;  -11.506;20649.082
780.991;13622.575;   -9.556;21527.520
781.560;12324.449;   -9.095;22632.658
782.129;12037.134;  -12.135;23048.277
782.698;11988.278;  -10.865;23438.555
783.267;11600.704;   -9.335;23267.734
783.836;11611.973;  -11.045;22415.133
784.404;12629.944;  -13.865;20443.152
784.973;13245.789;  -13.095;19699.150
785.542;13346.299;  -11.575;19763.828
786.111;13249.373;   -9.705;20341.408
786.679;12722.812;  -12.105;20207.967
787.248;12426.179;  -12.455;19516.465
787.817;12174.632;  -11.535;18900.363
788.385;11677.057;   -9.765;17879.121
788.954;11054.452;  -14.005;17658.301
789.522;10498.985;  -11.955;17788.879
790.090;10925.151;  -10.135;18118.277
790.659;11473.270;  -10.975;18338.736
791.227;11045.699;  -13.375;18508.615
791.795;11466.231;  -12.375;17898.254
792.364;11729.438;  -10.725;17295.133
792.932;11970.766;   -9.715;16822.051
793.500;12310.229;  -12.675;17040.148
794.068;12696.682;  -13.495;17179.787
794.636;12846.276;  -10.885;16664.246
795.204;12169.008;  -11.045;16524.545
795.772;12136.063;  -13.175;17274.564
796.340;11639.171;  -12.445;17891.002
796.908;11412.384;   -9.735;17648.561
797.476;11301.080;   -9.815;17064.080
798.044;10885.892;  -13.985;16672.777
798.612;10164.421;  -13.115;17023.996
799.180; 9760.065;  -10.185;16561.615
799.747; 9583.737;   -9.055;15962.773
800.315; 9293.795;  -12.385;15296.992
800.883; 9056.508;  -15.035;14801.771
801.450; 9214.790;  -10.365;14534.430
802.018; 9306.209;   -9.855;14173.248
802.585; 9310.042;  -11.905;14029.547
803.153; 9333.617;  -11.585;13836.846
803.720; 9202.138;   -9.095;13567.324
804.287; 8678.653;   -9.135;13360.622
804.855; 8198.064;  -11.604;13681.981
805.422; 8109.877;  -11.794;13536.560
805.989; 8164.384;  -10.734;13355.958
806.556; 8433.745;  -10.444;13747.896
807.124; 8779.938;  -12.764;13987.376
807.691; 8751.715;  -12.964;14038.674
808.258; 8488.642;  -11.134;14120.152
808.825; 8009.702;   -9.854;13860.111
809.392; 8096.938;  -10.504;13268.790
809.959; 7758.793;  -13.054;12680.389
810.526; 7327.684;   -8.294;12427.308
811.093; 7306.390;   -8.394;12030.105
811.659; 7828.478;  -12.304;11653.664
812.226; 8295.800;  -13.944;11637.183
812.793; 7969.042;  -10.484;11611.521
813.360; 7322.344;  -10.144;11885.181
813.926; 7007.244;  -11.684;12770.539
814.493; 6845.558;  -13.644;12677.638
815.060; 6508.323;   -9.724;11974.336
815.626; 6503.786;   -9.854;11594.715
816.193; 6878.919;  -13.254;11579.474
816.759; 6900.474;  -13.204;11666.972
817.325; 6963.594;   -9.434;11325.530
817.892; 7346.075;  -10.134;11105.369
818.458; 7769.096;  -13.474;10843.928
819.024; 7369.526;  -11.854;10714.406
819.591; 7081.743;  -10.244;10469.165
820.157; 6915.732;  -10.704;10235.523
820.723; 6450.544;  -12.324;10847.563
821.289; 6172.352;   -9.444;11040.980
821.855; 6066.814;   -8.374;10357.100
822.421; 5936.698;  -10.234; 9978.918
822.987; 5823.685;  -13.294; 9754.177
823.553; 5465.109;  -10.884;10065.755
824.119; 5315.300;   -8.884;10036.294
824.685; 5481.235;   -6.784;10029.192
825.251; 5613.507;  -12.004;10199.230
825.816; 5581.456;  -11.474; 9820.189
826.382; 5322.303;   -9.174; 9297.248
826.948; 5497.110;   -9.214; 9381.347
827.513; 5861.610;  -10.774; 9450.726
828.079; 5671.705;  -11.924; 9472.444
828.645; 5102.383;  -10.543; 9292.643
829.210; 4972.110;  -10.533; 9065.341
829.776; 4940.151;  -10.753; 9132.620
830.341; 4820.430;  -10.173; 9092.878
830.906; 4996.978;  -10.743; 9078.557
831.472; 5332.071;  -11.113; 8534.535
832.037; 5107.702;  -10.603; 8677.874
832.602; 4567.383;  -13.323; 8628.692
833.167; 4312.422;  -10.823; 8879.031
833.733; 4257.209;  -10.113; 9189.790
834.298; 4382.795;  -13.583; 9052.608
834.863; 4485.735;  -12.703; 8895.087
835.428; 4509.180;  -10.523; 8824.266
835.993; 4398.524;   -6.963; 8845.385
836.558; 4250.641;  -10.763; 8888.563
837.123; 4343.915;   -9.903; 8966.582
837.688; 4592.289;   -9.913; 8617.860
838.253; 4802.859;  -10.283; 8590.699
838.817; 4988.433;  -12.963; 8443.797
839.382; 4940.542;  -14.243; 8799.356
839.947; 4643.118;  -10.733; 8810.595
840.511; 4331.111;   -9.383; 8796.394
841.076; 3940.500;  -12.563; 8347.231
841.641; 3993.869;  -12.953; 8224.330
842.205; 4080.813;   -7.043; 8223.349
842.770; 4124.549;   -8.163; 8622.107
843.334; 4308.276;  -12.503; 8410.386
843.898; 4305.170;  -11.693; 8337.465
844.463; 4302.800;  -10.203; 8506.283
845.027; 4085.449;   -9.533; 8280.962
845.591; 3895.585;  -13.443; 8231.141
846.156; 3874.141;  -13.143; 7969.179
846.720; 3796.805;   -9.433; 7768.278
847.284; 3680.753;  -11.033; 7630.957
847.848; 3526.965;  -10.403; 7472.395
848.412; 3414.358;  -11.553; 7437.394
848.976; 3439.009;   -8.393; 7674.592
849.540; 3372.801;   -8.713; 7836.011
850.104; 3433.454;  -12.463; 7913.669
850.668; 3775.406;  -12.973; 7694.508
851.232; 3923.793;  -10.793; 7756.887
851.796; 3788.930;  -10.662; 7926.545
852.359; 3469.089;  -13.082; 7827.844
852.923; 3310.117;  -12.192; 7641.163
853.487; 3182.861;  -11.912; 7342.501
854.050; 3158.293;  -10.892; 7042.820
854.614; 3276.212;  -13.992; 7151.338
855.177; 3368.492;  -11.732; 7105.077
855.741; 3405.732;   -8.962; 6989.675
856.304; 3325.695;   -9.442; 6596.634
856.868; 3316.319;  -14.192; 6356.272
857.431; 3440.346;  -12.702; 6468.571
857.995; 3571.383;   -9.942; 6373.210
858.558; 3592.835;   -9.112; 6324.448
859.121; 3326.021;  -12.932; 6408.327
859.684; 3157.810;  -13.442; 6347.886
860.247; 3243.416;  -10.632; 6321.264
860.810; 3252.322;  -11.272; 6301.903
861.374; 3001.705;   -9.832; 6607.881
861.937; 2734.303;  -11.762; 6408.200
862.500; 2736.169;   -9.722; 6572.639
863.062; 2894.570;  -10.512; 6387.297
863.625; 3038.736;  -11.232; 6190.836
864.188; 3215.459;  -14.112; 5807.254
864.751; 3316.179;  -11.302; 5682.413
865.314; 3236.876;  -10.112; 5547.492
865.876; 3014.114;  -12.182; 5500.150
866.439; 2991.232;  -10.722; 5415.909
867.002; 2942.753;   -9.252; 5501.567
867.564; 2736.854;   -9.572; 5413.946
868.127; 2508.833;  -13.142; 5160.325
868.689; 2381.671;  -12.902; 5133.183
869.252; 2255.795;   -9.732; 5252.382
869.814; 2144.502;   -9.432; 5297.141
870.377; 2152.682;  -11.552; 5390.919
870.939; 2232.188;   -9.052; 5599.898
871.501; 2317.492;  -10.982; 5248.336
872.063; 2335.303;  -12.292; 4854.235
872.626; 2274.148;  -14.912; 4817.074
873.188; 2272.710;  -13.112; 4987.732
873.750; 2253.083;  -13.442; 4868.651
874.312; 2183.356;   -9.402; 4779.330
874.874; 2100.176;  -11.062; 4866.348
875.436; 2012.401;  -13.931; 4718.887
875.998; 2004.588;   -9.561; 4660.005
876.560; 2027.703;  -11.321; 4462.964
877.122; 1971.679;  -12.221; 4145.042
877.683; 1873.829;  -12.191; 4056.481
878.245; 1793.864;  -12.101; 3950.740
878.807; 1825.613;   -8.971; 4058.958
879.369; 1850.941;  -12.071; 3954.677
879.930; 1774.007;  -14.621; 3941.495
880.492; 1720.789;  -10.311; 4067.014
881.053; 1685.380;  -10.901; 3859.633
881.615; 1571.562;  -14.411; 3776.071
882.176; 1478.177;  -13.761; 3734.750
882.738; 1434.207;   -9.181; 3678.489
883.299; 1413.902;  -11.791; 3405.407
883.860; 1428.048;  -13.121; 3351.106
884.422; 1466.691;  -11.211; 3394.044
884.983; 1495.603;  -10.091; 3166.443
885.544; 1427.823;   -8.461; 3189.802
886.105; 1224.958;  -12.361; 3160.360
886.666;  945.791;  -14.141; 3093.059
887.227;  708.297;  -11.361; 2941.957
887.788;  586.076;  -11.401; 2974.836
888.349;  550.043;  -13.791; 2721.214
888.910;  576.502;  -13.191; 2696.493
889.471;  612.456;   -9.881; 2560.172
890.032;  629.610;   -9.881; 2558.190
890.593;  638.070;  -10.371; 2567.669
891.153;  644.408;  -13.301; 2460.307
891.714;  629.015;  -11.431; 2372.046
892.275;  613.948;  -11.291; 2309.505
892.835;  593.202;  -11.471; 2382.543
893.396;  554.120;  -11.541; 2295.502
893.956;  508.140;  -11.181; 2162.420
894.517;  477.486;  -11.741; 2125.439
895.077;  476.371;  -11.671; 2086.978
895.638;  481.495;  -11.311; 2126.316
896.198;  458.843;   -9.831; 1838.275
896.758;  421.634;   -8.421; 1892.813
897.319;  395.998;  -12.351; 1792.232
897.879;  384.264;  -13.511; 1762.751
898.439;  361.771;  -12.001; 1661.149
898.999;  336.453;  -10.180; 1781.468
899.559;  327.957;  -12.030; 1703.347
900.119;  325.198;  -15.710; 1537.525
900.679;  321.833;   -8.900; 1638.384
901.239;  308.695;   -8.340; 1527.902
901.799;  299.508;  -13.910; 1456.441
902.359;  294.882;  -13.460; 1357.140
902.919;  287.961;  -11.490; 1331.118
903.479;  275.992;  -12.110; 1317.257
904.038;  256.586;  -11.720; 1262.595
904.598;  243.433;  -13.610; 1152.034
905.158;  239.484;  -11.040; 1240.893
905.717;  232.172;  -10.900; 1233.691
906.277;  222.177;  -15.080; 1217.330
906.836;  211.174;  -13.380; 1222.408
907.396;  201.328;  -10.780; 1193.047
907.955;  192.770;   -8.500; 1182.526
908.515;  187.369;  -12.760; 1099.364
909.074;  183.010;  -11.900; 1092.863
909.633;  178.660;   -8.950; 1069.121
910.192;  174.501;   -8.770; 1196.460
910.752;  169.699;  -12.390; 1029.960
911.311;  166.442;  -13.680; 1009.780
911.870;  164.634;  -12.370;  971.460
912.429;  165.002;  -10.900; 1094.080
912.988;  163.658;  -11.690; 1081.060
913.547;  161.039;  -13.240;  940.380
914.106;  155.773;  -11.990;  999.420
914.665;  152.690;   -9.990;  984.020
915.224;  151.462;  -12.880; 1035.760
915.782;  151.864;  -12.350;  922.560
916.341;  152.035;   -9.110; 1049.840
916.900;  147.595;   -9.270;  925.260
917.458;  145.307;  -13.240;  884.220
918.017;  144.886;  -13.550;  942.600
918.576;  145.254;  -12.320;  904.440
919.134;  142.737;  -11.490;  837.980
919.693;  141.685;  -13.670;  893.060
920.251;  139.816;  -15.470;  876.500
920.809;  139.039;  -11.290;  839.580
921.368;  137.849;  -10.210;  885.360
921.926;  136.979;  -12.140;  842.940
922.484;  137.211;  -13.080;  903.360
923.042;  135.741;  -11.720;  880.340
923.601;  138.298;   -7.480;  998.680
924.159;  136.855;  -11.570;  935.560
924.717;  134.397;  -13.840;  841.080
925.275;  133.476;  -10.640;  903.240
925.833;  132.177;  -11.540;  779.320
926.391;  134.305;  -12.960;  938.380
926.949;  132.434;  -14.130;  857.680
927.506;  132.935;  -11.750;  903.500
928.064;  132.611;  -10.250;  877.580
928.622;  132.611;  -13.030;  880.100
929.180;  131.521;  -13.400;  814.180
929.737;  132.529;  -10.700;  808.540
930.295;  136.787;  -10.070;  928.480
930.853;  137.919;  -11.960;  849.100
931.410;  139.058;  -13.120;  821.120
931.968;  137.557;  -10.770;  940.660
932.525;  137.410;  -10.680;  909.380
933.082;  138.336;  -13.130;  811.440
933.640;  139.210;  -13.210;  925.900
934.197;  136.923;  -11.060;  886.360
934.754;  138.188;   -9.580;  897.780
935.312;  141.120;  -14.000;  863.340
935.869;  146.103;  -10.710; 1012.980
936.426;  145.924;   -9.860;  872.800
936.983;  146.850;   -9.710;  889.020
937.540;  146.028;  -13.990;  838.280
938.097;  145.298;  -14.040;  940.120
938.654;  145.422;  -10.310;  898.860
939.211;  147.736;  -10.560;  952.480
939.768;  151.586;  -13.900;  915.420
940.324;  155.320;  -14.760;  904.200
940.881;  156.439;  -10.370;  878.500
941.438;  157.272;   -8.260; 1021.200
941.995;  152.952;  -12.540;  992.560
942.551;  150.244;  -14.670;  875.620
943.108;  150.220;  -10.450;  937.920
943.664;  152.771;  -10.750;  869.340
944.221;  156.196;  -11.550; 1088.140
944.777;  154.313;  -14.770;  869.680
945.334;  153.518;  -12.820;  884.840
945.890;  155.479;  -10.130;  946.480
946.446;  156.205;  -13.470;  947.020
947.003;  158.326;  -12.120;  964.940
947.559;  160.410;   -9.980; 1063.040
948.115;  159.986;   -9.080; 1026.540
948.671;  157.898;  -10.830;  967.300
949.227;  156.524;  -12.440;  859.560
949.783;  154.229;  -12.910;  858.900
950.339;  155.740;  -10.270;  991.000
950.895;  156.320;  -13.630; 1023.840
951.451;  155.596;  -15.100;  925.280
952.007;  154.476;  -11.330;  998.540
952.563;  153.206;  -10.580;  937.780
953.118;  152.493;  -13.440;  904.940
953.674;  152.310;  -12.710;  935.780
954.230;  151.542;  -10.350;  949.640
954.785;  149.033;   -9.190;  936.640
955.341;  147.138;  -11.200;  998.160
955.897;  146.319;  -16.560;  834.660
956.452;  148.096;  -12.570;  953.840
957.008;  146.291;   -7.970; 1083.640
957.563;  144.771;  -11.940; 1009.540
958.118;  139.823;  -13.450;  877.700
958.674;  141.476;  -12.030;  946.780
959.229;  141.298;   -9.410; 1013.980
959.784;  139.273;  -12.000;  832.400
960.339;  139.135;  -14.780; 1001.280
960.894;  134.968;   -9.860;  963.760
961.449;  129.678;   -9.970;  859.960
962.004;  130.709;  -10.900; 1212.840
962.559;  125.886;  -13.150;  860.140
963.114;  122.706;  -13.740;  742.480
963.669;  122.721;   -9.820;  915.500
964.224;  120.432;  -13.890;  874.340
964.779;  119.976;  -12.600;  828.420
965.334;  120.857;  -10.950; 1017.860
965.888;  119.414;  -11.170;  875.360
966.443;  122.606;  -12.540;  972.380
966.998;  122.098;  -15.780;  819.460
967.552;  120.894;   -9.760;  908.380
968.107;  117.205;   -9.060;  868.300
968.661;  118.483;  -11.950;  922.440
969.216;  119.589;  -12.800;  856.280
969.770;  119.388;  -11.210;  917.200
970.324;  117.431;  -11.610;  923.140
970.879;  114.147;  -11.370;  947.180
971.433;  111.815;  -12.540;  952.720
971.987;  106.298;  -11.320;  895.340
972.541;  102.899;  -10.720;  917.100
973.095;  102.598;   -9.680; 1009.460
973.649;  101.211;  -11.440;  809.480
974.203;  101.098;  -11.210;  829.040
974.757;  100.036;  -10.240;  855.220
975.311;  101.022;  -13.720;  872.600
975.865;  100.370;  -13.770;  881.820
976.419;   99.400;  -11.690;  857.400
976.973;   98.420;   -9.510;  849.620
977.526;  100.820;  -12.620;  949.920
978.080;   99.480;  -12.010;  796.780
978.634;   99.632;  -10.170;  921.320
979.187;   97.971;   -9.020;  905.400
979.741;   95.930;   -9.820; 1018.380
980.294;   91.569;  -14.870;  789.160
980.848;   89.225;  -12.380;  717.220
981.401;   90.549;  -10.350;  816.540
981.955;   92.755;  -13.720;  844.300
982.508;   91.610;  -11.490;  746.340
983.061;   92.126;  -10.000;  915.260
983.615;   88.499;  -11.480;  798.800
984.168;   85.511;  -13.220;  770.080
984.721;   85.634;  -13.960;  880.760
985.274;   83.417;  -10.870;  867.500
985.827;   83.187;   -9.790;  834.220
986.380;   81.131;  -13.120;  721.340
986.933;   80.846;  -12.450;  864.800
987.486;   78.321;  -10.210;  861.920
988.039;   76.648;   -8.430;  863.100
988.591;   74.672;  -10.520;  893.260
989.144;   72.816;  -14.860;  737.260
989.697;   72.022;  -13.080;  758.740
990.250;   72.536;  -10.150;  858.100
990.802;   71.112;  -13.430;  755.860
991.355;   72.909;  -12.750;  974.880
991.907;   69.911;  -12.040;  864.320
992.460;   66.913;  -11.330;  753.760
993.012;   66.812;  -13.610;  749.540
993.565;   66.503;  -13.460;  711.360
994.117;   67.012;   -9.360;  950.780
994.669;   64.125;  -11.300;  701.320
995.221;   62.109;  -13.540;  791.920
995.774;   60.760;  -13.430;  787.580
996.326;   59.523;  -12.520;  740.220
996.878;   58.592;  -10.950;  838.420
997.430;   57.010;  -14.300;  699.860
997.982;   56.726;  -13.760;  750.140
998.534;   56.107;  -11.530;  739.060
999.086;   53.913;  -10.310;  738.220
999.638;   53.334;  -12.530;  661.380
1000.190;   52.945;  -11.840;  699.320
1000.741;   52.188;  -10.260;  742.700
1001.293;   51.223;   -8.860;  686.020
1001.845;   49.890;  -13.700;  676.640
1002.396;   50.744;  -12.100;  743.400
1002.948;   49.726;  -12.760;  737.400
1003.500;   48.557;  -10.380;  723.780
1004.051;   49.428;  -11.900;  907.580
1004.603;   47.837;  -12.250;  791.820
1005.154;   43.815;  -13.210;  608.980
1005.705;   41.521;  -10.950;  723.960
1006.257;   41.717;  -13.880;  707.220
1006.808;   42.083;  -12.840;  685.460
1007.359;   40.964;  -10.570;  763.240
1007.910;   40.098;   -9.620;  646.640
1008.461;   39.808;  -13.630;  732.940
1009.013;   39.543;  -17.200;  588.340
1009.564;   39.460;  -10.200;  793.520
1010.115;   37.779;  -12.570;  597.040
1010.665;   37.501;  -15.150;  602.160
1011.216;   38.351;  -14.480;  667.920
1011.767;   36.856;  -11.340;  697.920
1012.318;   36.492;   -9.780;  736.980
1012.869;   36.647;  -12.380;  679.000
1013.419;   35.925;  -15.560;  603.120
1013.970;   35.749;  -11.010;  666.640
1014.521;   35.074;  -11.610;  620.620
1015.071;   35.841;  -13.450;  670.380
1015.622;   34.735;  -13.870;  635.460
1016.172;   34.106;  -11.610;  596.820
1016.723;   33.485;  -12.120;  614.380
1017.273;   33.800;  -13.620;  604.160
1017.823;   34.327;  -14.140;  650.340
1018.374;   32.580;  -12.800;  611.760
1018.924;   32.278;  -12.340;  716.880
1019.474;   33.385;  -11.410;  718.880
1020.024;   32.287;  -14.770;  657.580
1020.574;   32.947;   -9.780;  726.160
1021.124;   32.207;   -8.560;  673.580
1021.674;   31.126;  -15.190;  559.120
1022.224;   33.475;  -13.530;  708.940
1022.774;   32.330;  -13.280;  668.820
1023.324;   32.231;  -10.690;  753.520
1023.874;   33.433;  -10.240;  875.760
1024.423;   31.783;  -12.540;  613.700
1024.973;   30.666;  -10.010;  610.760
1025.523;   28.987;  -10.550;  620.960
1026.072;   29.459;  -13.560;  606.420
1026.622;   30.465;  -15.120;  675.740
1027.172;   30.808;  -11.260;  715.660
1027.721;   28.842;  -11.410;  601.220
1028.270;   30.356;  -13.530;  663.400
1028.820;   30.504;  -13.680;  638.080
1029.369;   29.617;  -13.520;  612.700
1029.918;   29.147;  -10.980;  649.840
1030.468;   28.007;  -13.530;  564.780
1031.017;   28.904;  -13.170;  634.800
1031.566;   28.312;  -12.200;  608.900
1032.115;   28.289;   -9.960;  694.500
1032.664;   27.147;  -13.210;  596.480
1033.213;   29.028;  -12.500;  735.420
1033.762;   27.945;  -11.910;  635.620
1034.311;   27.898;   -9.640;  677.220
1034.860;   28.473;  -13.310;  691.000
1035.408;   27.775;  -11.830;  722.720
1035.957;   28.260;  -12.000;  719.540
1036.506;   24.919;  -11.690;  530.800
1037.055;   28.725;  -10.990;  844.320
1037.603;   26.468;  -15.120;  664.000
1038.152;   25.600;  -12.450;  534.760
1038.700;   25.811;  -10.560;  585.740
1039.249;   25.923;  -11.080;  681.220
1039.797;   26.137;  -12.540;  633.360
1040.345;   25.665;  -11.920;  705.420
1040.894;   24.546;  -11.410;  625.300
1041.442;   24.865;  -14.320;  632.200
1041.990;   24.797;  -16.240;  559.160
1042.538;   24.845;  -11.680;  536.180
1043.087;   23.767;  -10.760;  570.860
1043.635;   25.575;  -11.850;  670.500
1044.183;   24.016;  -15.480;  586.400
1044.731;   23.737;  -11.770;  576.000
1045.279;   23.468;  -13.090;  674.920
1045.827;   25.808;  -12.440;  892.400
1046.374;   22.717;  -13.840;  515.420
1046.922;   22.117;  -13.220;  590.580
1047.470;   23.576;  -10.230;  691.300
1048.018;   22.904;  -14.590;  647.960
1048.565;   24.086;  -12.050;  708.600
1049.113;   22.344;  -11.650;  557.000
1049.660;   21.742;  -10.510;  629.660
1050.208;   22.563;  -13.310;  675.640
1050.755;   21.660;  -15.900;  606.580
1051.303;   22.913;  -11.430;  686.820
1051.850;   21.065;   -8.480;  635.120
1052.397;   19.796;  -15.010;  473.960
1052.945;   20.765;  -13.960;  617.760
1053.492;   22.232;  -13.150;  741.840
1054.039;   21.570;   -9.630;  720.180
1054.586;   20.831;  -13.680;  557.240
1055.133;   21.908;  -14.570;  693.140
1055.680;   22.130;  -13.820;  646.620
1056.227;   20.335;  -11.730;  542.780
1056.774;   21.152;  -12.480;  794.980
1057.321;   20.051;  -13.930;  523.260
1057.868;   20.048;  -11.690;  651.320
1058.415;   20.094;   -9.520;  651.980
1058.961;   20.469;  -13.160;  678.940
1059.508;   20.650;  -12.920;  643.820
1060.055;   19.799;  -11.920;  581.780
1060.601;   20.019;  -11.500;  624.300
1061.148;   19.540;  -14.330;  616.820
1061.694;   19.296;  -16.870;  592.580
1062.241;   19.943;  -10.330;  596.320
1062.787;   18.652;  -10.620;  663.140
1063.334;   21.081;  -10.110;  808.560
1063.880;   18.770;  -13.400;  668.360
1064.426;   19.110;  -10.680;  706.820
1064.972;   17.892;   -9.920;  601.340
1065.518;   16.359;  -10.980;  566.640
1066.065;   19.000;  -14.890;  624.460
1066.611;   17.286;  -12.870;  598.800
1067.157;   17.824;  -12.950;  641.860
1067.703;   18.152;  -13.540;  668.480
1068.249;   17.788;  -13.540;  605.220
1068.794;   18.130;  -12.600;  626.880
1069.340;   15.861;  -10.620;  578.960
1069.886;   16.489;  -12.830;  590.700
1070.432;   16.534;  -14.870;  541.720
1070.977;   16.364;  -11.980;  601.080
1071.523;   16.788;   -8.200;  573.060
1072.068;   16.623;  -12.330;  582.000
1072.614;   16.940;  -16.370;  527.760
1073.160;   17.954;  -11.100;  687.040
1073.705;   16.003;  -10.480;  572.520
1074.250;   15.696;  -14.520;  559.900
1074.796;   17.032;  -11.460;  655.160
1075.341;   17.097;  -11.950;  664.100
1075.886;   15.611;  -11.460;  594.240
1076.431;   15.692;  -13.770;  649.880
1076.976;   16.297;  -12.680;  639.220
1077.521;   14.953;  -13.170;  583.080
1078.067;   14.446;  -10.860;  579.400
1078.612;   15.072;  -13.920;  661.620
1079.156;   15.673;  -13.880;  601.540
1079.701;   16.200;  -13.120;  693.260
1080.246;   15.356;   -9.940;  696.300
1080.791;   15.098;  -14.740;  625.020
1081.336;   15.529;  -13.750;  659.320
1081.880;   14.881;  -13.400;  649.680
1082.425;   13.916;  -12.220;  573.480
1082.970;   15.067;  -11.610;  717.040
1083.514;   13.663;  -13.580;  597.000
1084.059;   13.459;  -12.810;  586.720
1084.603;   12.754;  -12.320;  565.840
1085.147;   13.494;  -13.190;  645.220
1085.692;   15.414;  -12.480;  716.800
1086.236;   12.284;  -13.020;  503.140
1086.780;   14.886;   -9.190;  751.440
1087.325;   13.226;  -12.480;  654.620
1087.869;   13.563;  -12.450;  610.700
1088.413;   14.062;  -12.240;  705.040
1088.957;   11.622;   -9.020;  543.400
1089.501;   13.544;  -10.320;  766.640
1090.045;   13.026;  -12.720;  726.480
1090.589;   11.379;  -13.690;  569.920
1091.133;   11.674;  -10.020;  673.340
1091.676;   12.704;  -12.330;  591.940
1092.220;   12.120;  -14.970;  600.920
1092.764;   13.057;  -12.430;  706.960
1093.307;   12.045;   -9.800;  673.780
1093.851;   10.907;  -14.970;  556.540
1094.395;   12.264;  -15.310;  683.140
1094.938;   11.746;  -10.370;  632.520
1095.482;   10.934;  -11.050;  559.800
1096.025;   11.781;  -11.840;  710.880
1096.568;   12.843;  -12.840;  779.280
1097.112;   10.027;  -14.700;  508.180
1097.655;   11.425;   -8.720;  603.000
1098.198;   10.548;  -13.610;  600.180
1098.741;   10.488;  -13.350;  612.860
1099.285;   10.948;  -11.230;  657.300
1099.828;    8.563;  -11.840;  439.400
1100.371;    9.990;  -10.840;  608.160
1100.914;   10.410;  -14.190;  682.660
1101.457;   11.303;  -11.240;  679.900
1101.999;    8.562;  -11.270;  584.680
1102.542;    9.807;  -11.480;  641.440
1103.085;   10.074;  -11.750;  658.500
1103.628;   11.202;  -11.400;  762.060
1104.170;    8.827;  -10.490;  588.280
1104.713;   10.145;  -10.600;  646.700
1105.256;    9.849;  -14.360;  557.440
1105.798;    8.295;  -13.210;  499.980
1106.341;   10.125;  -10.270;  728.900
1106.883;    9.205;  -12.200;  521.340
1107.425;    9.279;  -13.110;  668.180
1107.968;    9.461;  -12.840;  612.380
1108.510;    8.493;   -6.480;  684.960
1109.052;    7.613;  -13.940;  612.620
1109.594;    8.876;  -13.690;  554.440
1110.136;    9.409;  -11.880;  643.220
1110.679;    7.761;   -9.500;  633.080
1111.221;    8.031;  -14.160;  604.460
1111.763;    8.121;  -13.980;  559.220
1112.304;    7.542;  -13.880;  547.140
1112.846;    7.966;  -12.210;  666.240
1113.388;   10.536;  -11.390;  942.180
1113.930;    8.182;  -14.540;  694.200
1114.472;    7.413;  -12.640;  606.540
1115.013;    6.387;  -11.620;  551.280
1115.555;    6.156;  -13.640;  587.100
1116.097;    6.726;  -15.380;  579.480
1116.638;    7.719;  -12.640;  684.600
1117.180;    6.641;   -9.850;  667.740
1117.721;    6.508;  -13.690;  568.580
1118.262;    7.750;  -12.680;  677.960
1118.804;    8.016;  -12.530;  637.340
1119.345;    5.946;  -11.690;  578.400
1119.886;    7.662;  -13.380;  704.040
1120.427;    6.280;  -14.070;  589.020
1120.969;    6.302;  -13.500;  597.920
1121.510;    5.153;  -11.480;  563.060
1122.051;    6.256;  -12.830;  723.580
1122.592;    6.560;  -14.290;  655.420
1123.133;    4.905;  -12.400;  547.940
1123.673;    6.346;  -10.130;  706.480
1124.214;    5.233;  -12.930;  612.460
1124.755;    6.449;  -14.380;  639.460
1125.296;    6.235;  -14.000;  627.320
1125.836;    5.960;  -10.070;  691.500
1126.377;    4.915;  -12.640;  599.660
1126.918;    6.559;  -12.960;  614.980
1127.458;    5.278;  -13.350;  622.220
1127.999;    5.583;  -10.750;  656.980
1128.539;    5.342;  -12.350;  694.240
1129.079;    4.969;  -14.860;  632.720
1129.620;    4.428;  -13.840;  558.100
1130.160;    4.103;  -12.330;  539.480
1130.700;    5.313;  -14.530;  640.840
1131.240;    6.058;  -12.530;  643.700
1131.781;    4.654;  -14.450;  619.680
1132.321;    4.712;   -9.790;  599.120
1132.861;    2.972;  -14.860;  564.200
1133.401;    4.875;  -14.290;  593.940
1133.941;    4.430;  -11.750;  626.280
1134.481;    3.120;   -9.920;  597.580
1135.020;    3.150;  -12.290;  609.160
1135.560;    4.598;  -11.650;  674.940
1136.100;    3.637;  -16.270;  501.160
1136.640;    2.770;  -10.890;  510.480
1137.179;    3.587;  -14.180;  537.960
1137.719;    4.055;  -16.250;  605.400
1138.258;    4.508;  -14.230;  587.360
1138.798;    3.444;   -9.090;  663.780
1139.337;    2.276;  -15.130;  482.840
1139.877;    3.666;  -13.680;  642.360
1140.416;    5.555;  -11.320;  878.060
1140.955;    1.923;  -10.860;  535.380
1141.494;    2.573;  -12.920;  669.280
1142.034;    3.199;  -13.930;  583.520
1142.573;    3.928;  -11.440;  646.280
1143.112;    2.044;  -12.000;  553.480
1143.651;    2.549;  -13.670;  536.480
1144.190;    3.389;  -12.730;  691.640
1144.729;    2.600;  -14.560;  607.420
1145.267;    2.463;  -11.830;  584.900
1145.806;    2.632;  -12.230;  637.040
1146.345;    2.134;  -14.130;  635.020
1146.884;    2.131;  -11.590;  622.500
1147.422;    1.722;  -12.550;  533.060
1147.961;    3.433;  -11.180;  708.460
1148.500;    3.122;  -11.510;  669.720
1149.038;    2.733;  -11.640;  632.500
1149.577;    2.732;  -10.130;  698.640
1150.115;    0.812;  -13.970;  452.280
1150.653;    2.873;  -14.520;  607.340
1151.192;    2.545;  -12.810;  552.920
1151.730;    1.386;   -9.100;  652.560
1152.268;    1.143;  -12.220;  589.520
1152.806;    1.419;  -14.140;  571.180
1153.344;    0.535;  -12.350;  577.640
1153.882;    0.814;   -8.980;  600.060
1154.421;   -0.571;  -15.190;  470.620
1154.958;    0.653;  -15.210;  595.240
1155.496;    1.916;  -12.850;  645.280
1156.034;    1.097;   -9.940;  721.880
1156.572;    2.362;  -13.570;  667.060
1157.110;    0.004;  -14.590;  473.940
1157.647;    1.629;  -13.030;  676.960
1158.185;   -0.592;  -12.140;  564.320
1158.723;   -0.270;  -14.390;  509.200
1159.260;    0.852;  -14.090;  701.700
1159.798;    1.669;  -11.920;  658.160
1160.335;    0.119;  -11.110;  631.820

