source
Integration time [ms]: 689.352
Averaging Nr. [scans]: 20
Smoothing Nr. [pixels]: 0
Data measured with spectrometer [name]: 7414430SP
Wave   ;Sample   ;Dark     ;Reference
[nm]   ;[counts] ;[counts] ;[counts] 

288.544; 1044.738;  865.551;    6.613
289.143;  881.986;  767.582;   14.216
289.742; 1121.178;  982.674;   11.816
290.341; 1066.618;  904.492;   -4.936
290.940;  968.321;  833.434;    0.852
291.538; 1192.637; 1048.915;    1.792
292.137; 1064.790;  911.022;    6.262
292.736; 1357.868; 1220.492;    8.164
293.335;  990.045;  856.602;   -6.418
293.934; 1052.063;  919.221;   -2.904
294.532; 1444.561; 1341.722;   -5.162
295.131; 1152.299; 1041.627;  -10.283
295.730; 1118.940; 1027.220;  -16.141
296.328; 1081.844;  969.771;  -14.740
296.927; 1061.551;  960.624;   -8.768
297.525; 1075.122;  980.601;  -15.255
298.124;  883.723;  764.574;  -22.063
298.722; 1040.440;  976.110;  -14.796
299.321;  973.214;  878.277;  -10.466
299.919; 1040.628;  940.485;  -10.979
300.518;  957.706;  830.954;  -12.077
301.116;  954.361;  835.225;  -13.509
301.715; 1009.333;  879.506;  -11.939
302.313;  974.408;  886.228;  -15.424
302.911; 1038.074;  938.017;  -19.833
303.509; 1327.856; 1231.175;   -3.567
304.108; 1080.308;  930.978;   -9.553
304.706; 1138.107; 1015.729;   -8.582
305.304; 1139.187; 1018.836;  -12.348
305.902; 1121.456; 1007.480;  -14.411
306.500; 1035.775;  936.487;   -7.194
307.098; 1071.313;  940.973;   -9.322
307.696; 1124.995; 1019.049;  -19.192
308.294; 1046.176;  968.986;   -9.736
308.892; 1091.942;  963.913;  -15.482
309.490; 1020.789;  899.695;  -14.107
310.088; 1144.377; 1045.125;  -15.862
310.686; 1190.531; 1060.648;  -10.781
311.284; 1117.490; 1007.944;  -14.878
311.882; 1061.114;  954.112;   -9.948
312.480; 1008.352;  881.542;  -15.503
313.078; 1188.235; 1092.033;  -17.262
313.675; 1006.375;  889.487;   -3.694
314.273; 1173.984; 1057.673;  -18.246
314.871;  856.500;  721.794;  -15.190
315.468;  950.974;  823.017;  -12.633
316.066; 1025.033;  913.645;   -5.765
316.664;  957.600;  861.739;  -14.317
317.261; 1346.736; 1225.587;   -8.677
317.859; 1141.171; 1062.715;  -11.804
318.456; 1232.354; 1141.511;   -3.107
319.054; 1156.662; 1048.308;   -3.062
319.651; 1116.535; 1007.337;   -6.706
320.249; 1201.635; 1094.337;   -5.206
320.846; 1053.635;  953.393;   -4.679
321.443; 1234.756; 1146.259;   -7.920
322.041; 1202.882; 1123.980;  -14.105
322.638; 1038.331;  945.482;   -6.263
323.235;  974.558;  897.228;   -7.424
323.833; 1096.091;  984.553;  -14.765
324.430;  912.501;  817.458;  -10.550
325.027; 1310.278; 1205.540;   -9.951
325.624;  955.525;  861.653;   -3.712
326.221; 1021.136;  897.808;   -9.368
326.818; 1227.330; 1074.343;   -5.637
327.415; 1103.288;  996.722;   -6.699
328.012; 1036.340;  871.275;   -5.713
328.609; 1094.064;  951.443;   -9.983
329.206; 1177.196;  998.519;   -7.154
329.803; 1102.834;  994.005;   -1.682
330.400; 1054.382;  885.312;   -2.741
330.997; 1223.317; 1048.690;   -4.339
331.594; 1189.424; 1015.128;  -10.278
332.191; 1100.771;  932.992;   -6.967
332.787; 1260.335; 1126.199;   -0.480
333.384; 1143.097;  951.741;  -10.333
333.981; 1234.108; 1052.481;  -19.900
334.578; 1064.335;  879.116;  -19.816
335.174; 1097.654;  915.234;  -15.844
335.771; 1256.567; 1071.832;  -12.670
336.367; 1070.886;  913.089;  -21.124
336.964; 1198.024; 1066.436;  -18.226
337.561; 1100.384;  921.341;  -13.311
338.157; 1374.663; 1225.199;  -19.006
338.754; 1194.919; 1063.498;  -19.418
339.350; 1077.328;  941.960;  -29.433
339.946; 1151.849;  987.742;  -16.622
340.543; 1255.982; 1098.096;  -16.744
341.139; 1067.449;  928.300;  -21.841
341.735; 1161.476; 1056.825;  -25.012
342.332; 1019.150;  855.854;  -19.156
342.928; 1183.848; 1027.106;  -20.443
343.524; 1133.733; 1051.179;  -14.397
344.120; 1084.747;  979.691;  -20.654
344.716; 1060.319;  948.083;   -5.730
345.313; 1167.653; 1060.266;  -10.929
345.909;  908.621;  786.831;  -19.843
346.505; 1090.924;  997.994;  -19.645
347.101; 1212.124; 1095.049;   -9.618
347.697; 1164.575; 1033.658;  -10.305
348.293;  914.724;  837.298;  -23.189
348.889; 1089.054; 1009.682;  -18.418
349.485;  994.833;  921.816;  -10.476
350.081; 1119.303; 1014.488;  -17.320
350.676; 1003.136;  880.758;  -21.088
351.272; 1181.203; 1102.294;  -12.821
351.868; 1126.384; 1029.231;  -13.165
352.464; 1054.477;  965.517;  -12.464
353.059;  939.876;  823.157;  -22.547
353.655; 1141.294; 1048.887;   -9.379
354.251; 1100.503; 1018.404;   -8.266
354.846; 1075.133;  989.566;  -17.705
355.442; 1081.270; 1016.692;   -9.317
356.038; 1078.918;  994.055;  -11.049
356.633; 1047.101;  987.740;  -10.006
357.229; 1037.288;  968.671;  -13.120
357.824; 1010.488;  917.616;  -15.647
358.420;  965.721;  895.301;  -19.204
359.015;  981.451;  912.435;  -12.263
359.610; 1096.222; 1008.661;  -16.421
360.206;  860.715;  781.836;  -20.074
360.801;  920.572;  837.356;  -13.277
361.396; 1036.199;  976.742;   -5.822
361.992;  944.788;  888.616;  -11.247
362.587;  951.803;  909.322;  -21.502
363.182;  974.994;  900.721;   -7.461
363.777; 1053.723; 1004.855;   -8.719
364.372; 1053.266;  981.196;  -14.590
364.967;  963.501;  910.269;  -15.145
365.563; 1172.981; 1121.818;   -7.192
366.158;  965.385;  919.619;   -5.662
366.753;  911.733;  858.622;   -8.378
367.348; 1056.778; 1018.655;  -14.990
367.942;  977.175;  945.658;   -6.005
368.537; 1060.460; 1028.036;  -11.504
369.132;  985.195;  942.275;  -10.576
369.727;  895.354;  870.571;  -12.573
370.322;  819.098;  766.272;  -11.560
370.917;  997.536;  942.758;  -10.388
371.511; 1230.867; 1197.445;   -9.161
372.106; 1107.951; 1077.269;  -10.245
372.701;  813.287;  795.201;  -10.158
373.296; 1223.265; 1207.947;   -4.719
373.890;  899.803;  890.322;  -11.802
374.485;  974.081;  961.791;  -13.500
375.079; 1047.222; 1043.550;   -6.276
375.674; 1155.369; 1118.249;   -0.447
376.268;  963.317;  898.335;   -6.916
376.863;  796.792;  795.891;  -14.483
377.457;  922.895;  938.220;   -6.903
378.052; 1080.540; 1078.004;   -9.844
378.646; 1047.650; 1039.965;  -12.601
379.240; 1017.433; 1013.345;  -14.715
379.835;  893.091;  868.613;  -12.331
380.429;  777.942;  800.112;   -9.074
381.023; 1102.265; 1112.726;   -1.729
381.617;  948.041;  960.447;  -13.714
382.212;  962.225;  972.548;   -7.060
382.806; 1072.845; 1058.220;   -2.303
383.400;  932.017;  940.529;   -0.815
383.994;  934.350;  935.909;   -4.429
384.588;  974.913;  983.088;   -6.261
385.182; 1027.808; 1032.094;    0.008
385.776; 1012.203;  950.432;   -3.247
386.370;  966.399;  972.715;   -1.030
386.964;  959.842;  957.167;   -1.346
387.558;  832.661;  852.396;   -2.020
388.152;  963.916;  970.086;   -5.345
388.745; 1163.273; 1150.745;   -2.774
389.339; 1058.774; 1057.104;    3.510
389.933;  961.192; 1009.028;    5.280
390.527; 1236.870; 1280.747;    2.610
391.120;  819.444;  847.805;   -7.914
391.714; 1004.457; 1009.679;   -1.903
392.308; 1109.491; 1155.724;    6.023
392.901;  908.115;  904.587;   -4.103
393.495;  831.421;  870.886;    3.284
394.089; 1086.808; 1142.177;    8.655
394.682; 1000.598; 1010.217;    2.312
395.275; 1027.261; 1052.230;   -7.402
395.869;  949.908; 1002.122;   -1.072
396.462;  874.896;  911.718;    6.454
397.056; 1113.498; 1171.383;    8.494
397.649; 1039.558; 1090.873;    1.599
398.242; 1022.323; 1035.800;    3.153
398.836; 1091.144; 1153.026;   11.395
399.429;  883.337;  935.117;   14.695
400.022;  941.066;  993.030;    3.627
400.615; 1164.647; 1169.968;    8.383
401.208;  980.767; 1012.750;   13.295
401.802; 1001.109; 1067.482;    6.211
402.395;  979.016;  986.030;    7.227
402.988;  991.339; 1056.699;    2.700
403.581;  919.615;  958.642;   11.225
404.174;  983.717;  980.805;   18.922
404.767;  907.176;  966.797;   14.169
405.360;  883.877;  906.240;    8.999
405.953; 1088.178; 1151.711;   13.138
406.545; 1043.297; 1073.884;   13.937
407.138;  874.833;  888.705;   10.869
407.731;  872.887;  913.062;   12.768
408.324;  936.074;  994.519;   22.921
408.917;  975.808; 1031.094;   15.308
409.509; 1070.178; 1097.905;   12.239
410.102;  917.149;  983.466;   13.741
410.695;  954.271;  985.218;   20.249
411.287;  851.520;  907.913;   21.793
411.880;  836.358;  876.399;   22.965
412.472;  867.381;  864.957;   15.082
413.065;  910.306;  965.540;   23.423
413.657;  822.733;  854.732;   21.077
414.250;  925.994;  949.942;   12.349
414.842;  974.152; 1021.989;   20.423
415.434;  815.418;  833.165;   19.906
416.027;  930.004;  953.069;   26.574
416.619; 1022.506; 1055.706;   15.705
417.211;  851.312;  874.811;   17.791
417.804;  901.626;  928.544;   30.244
418.396;  874.717;  914.916;   24.177
418.988;  951.506;  964.512;   24.904
419.580;  806.735;  850.729;   20.692
420.172;  773.882;  798.538;   22.275
420.764;  978.300;  996.518;   26.773
421.356;  929.478;  963.292;   25.731
421.948;  968.267; 1015.722;   24.876
422.540;  984.556; 1021.982;   30.042
423.132;  857.835;  866.812;   32.728
423.724;  799.061;  849.672;   21.317
424.316;  892.298;  893.714;   29.359
424.908;  867.160;  874.644;   28.798
425.500;  946.297;  957.631;   30.512
426.092;  938.078;  945.513;   26.741
426.683; 1010.839; 1011.363;   27.029
427.275;  937.212;  939.253;   32.611
427.867;  960.713; 1002.807;   33.796
428.458; 1061.903; 1093.846;   34.453
429.050;  989.715; 1039.500;   34.255
429.642; 1079.253; 1076.096;   39.082
430.233;  804.669;  829.217;   41.138
430.825; 1060.999; 1099.545;   31.581
431.416; 1019.308; 1036.592;   35.755
432.008;  938.639;  935.639;   40.566
432.599;  946.432;  904.036;   46.322
433.190;  918.264;  908.001;   46.897
433.782;  849.948;  878.935;   41.069
434.373; 1291.248; 1305.156;   48.778
434.964;  869.763;  877.973;   50.078
435.556;  907.857;  938.453;   52.381
436.147; 1103.810; 1108.561;   38.251
436.738; 1012.153; 1015.206;   47.237
437.329; 1050.020; 1072.742;   61.304
437.920;  959.339;  961.529;   48.611
438.511;  812.977;  828.069;   44.910
439.103;  906.174;  868.293;   62.404
439.694;  980.619; 1011.493;   63.075
440.285; 1098.340; 1086.359;   61.033
440.876; 1232.340; 1255.999;   57.249
441.466;  828.198;  810.212;   61.306
442.057;  960.472;  953.656;   65.773
442.648; 1085.151; 1082.320;   65.676
443.239;  900.715;  888.527;   55.963
443.830; 1029.758; 1027.338;   69.631
444.421;  950.183;  926.672;   69.943
445.011;  990.899;  982.766;   72.791
445.602; 1073.508; 1050.172;   68.848
446.193;  691.083;  696.866;   80.044
446.783;  916.279;  901.425;   82.599
447.374;  995.661;  957.280;   77.419
447.964; 1025.517;  997.385;   72.605
448.555; 1195.863; 1183.110;   82.041
449.145;  959.935;  934.420;   76.230
449.736; 1172.245; 1153.325;   75.545
450.326; 1030.603; 1014.233;   67.945
450.917;  976.398;  936.599;   77.598
451.507;  868.126;  819.124;   68.027
452.097; 1075.737; 1058.278;   67.771
452.688; 1071.427; 1014.622;   62.884
453.278;  800.489;  721.137;   65.512
453.868; 1154.905; 1134.313;   71.796
454.458;  930.876;  893.373;   60.956
455.048; 1036.138;  964.832;   62.356
455.639;  823.676;  748.234;   58.782
456.229; 1023.026;  989.289;   65.209
456.819; 1084.873; 1018.237;   61.466
457.409; 1122.227; 1079.788;   59.967
457.999; 1073.503;  988.925;   58.093
458.589;  989.591;  918.161;   59.536
459.179; 1041.885;  973.751;   55.994
459.769;  902.486;  856.195;   43.624
460.358; 1154.855; 1085.479;   46.978
460.948; 1005.942;  919.715;   49.821
461.538;  958.220;  863.295;   54.678
462.128;  963.476;  863.289;   49.309
462.717; 1029.472;  928.264;   52.774
463.307; 1023.645;  933.044;   48.101
463.897;  960.417;  861.993;   45.606
464.486; 1225.880; 1156.841;   45.010
465.076; 1075.918;  969.602;   45.519
465.666;  949.223;  831.624;   50.058
466.255; 1160.660; 1030.390;   44.463
466.845;  981.974;  849.901;   41.206
467.434; 1079.807;  950.392;   44.847
468.023;  969.728;  863.369;   46.760
468.613; 1047.941;  948.161;   39.736
469.202;  958.497;  855.736;   46.461
469.791; 1091.378;  933.729;   47.944
470.381; 1100.965;  960.466;   47.529
470.970; 1059.537;  881.886;   43.773
471.559; 1107.806;  945.198;   41.646
472.148; 1007.224;  858.928;   37.914
472.738; 1146.417;  978.325;   48.071
473.327;  953.828;  791.784;   47.871
473.916; 1117.871;  942.765;   37.716
474.505; 1145.118;  944.879;   40.256
475.094; 1237.962;  997.580;   43.269
475.683; 1226.521; 1010.931;   36.499
476.272; 1130.251;  905.259;   44.542
476.861; 1111.108;  882.278;   42.297
477.449; 1145.969;  868.709;   46.878
478.038; 1107.938;  833.246;   35.156
478.627; 1155.339;  857.745;   42.514
479.216; 1275.114;  946.494;   43.937
479.805; 1306.453;  937.339;   51.393
480.393; 1692.226; 1309.147;   53.239
480.982; 1547.306; 1089.420;   38.955
481.571; 1598.278; 1037.116;   45.436
482.159; 1443.770;  847.958;   51.007
482.748; 1769.550;  972.176;   49.695
483.336; 2004.320; 1012.903;   48.280
483.925; 2067.007;  911.835;   47.166
484.513; 2299.169;  901.570;   55.404
485.102; 2678.488;  927.412;   54.238
485.690; 3403.153; 1254.449;   55.748
486.278; 3836.666; 1199.463;   55.934
486.867; 4103.796;  903.040;   57.106
487.455; 5062.681; 1071.168;   56.979
488.043; 5388.087;  802.273;   57.564
488.631; 6554.208; 1216.360;   57.432
489.220; 7342.090; 1054.796;   63.646
489.808; 8501.076;  770.368;   65.449
490.396;10283.369;  995.515;   61.977
490.984;11380.809;  856.554;   68.834
491.572;12276.011; 1030.413;   70.775
492.160;12847.087; 1006.273;   67.564
492.748;13966.524;  867.509;   66.808
493.336;16363.587; 1037.439;   79.747
493.924;19100.219;  841.930;   88.688
494.512;21936.049;  992.843;   84.120
495.100;23939.500; 1000.286;   86.250
495.687;25624.160; 1065.219;  103.074
496.275;27267.109;  851.914;  108.717
496.863;28480.367;  931.657;  107.035
497.451;28974.283;  887.971;  117.993
498.038;29666.023;  958.537;  120.116
498.626;31878.338;  912.048;  143.059
499.214;35028.617;  945.463;  153.434
499.801;36771.254;  934.394;  175.121
500.389;37109.598;  753.455;  185.617
500.976;37876.902; 1009.757;  215.789
501.564;38627.547;  960.486;  240.321
502.151;38618.914;  647.050;  267.007
502.738;38577.672;  868.426;  317.961
503.326;40002.480;  895.445;  361.216
503.913;41002.629;  919.728;  401.433
504.500;41691.211;  987.053;  446.492
505.088;44287.211;  807.804;  512.063
505.675;47693.750;  902.563;  586.387
506.262;50378.648;  915.037;  671.021
506.849;51386.227;  951.977;  759.062
507.436;51164.453; 1051.114;  849.788
508.023;49881.375;  938.481;  944.288
508.610;49101.359; 1018.859; 1020.690
509.197;49496.344;  976.572; 1089.052
509.784;51454.898;  944.148; 1133.776
510.371;53210.484;  737.999; 1165.501
510.958;54437.934;  957.473; 1251.735
511.545;53687.488; 1080.633; 1350.248
512.132;54667.883;  904.694; 1525.945
512.719;53984.328;  835.728; 1834.933
513.305;54316.605;  862.001; 1965.349
513.892;56617.207; 1072.641; 1963.265
514.479;57161.941;  952.796; 2046.446
515.066;58137.848; 1037.203; 2252.803
515.652;57617.895;  925.347; 2567.247
516.239;55964.637;  953.384; 2636.919
516.825;54309.859;  800.662; 2482.304
517.412;54527.070; 1213.626; 2427.031
517.998;51917.180;  906.171; 2540.463
518.585;48596.211;  899.050; 2609.007
519.171;48423.320;  948.930; 2842.088
519.758;47741.238;  821.744; 3090.703
520.344;50488.051; 1024.148; 3176.076
520.930;52311.309;  811.942; 3295.037
521.516;53781.848;  988.956; 3500.959
522.103;54197.117; 1067.570; 3736.704
522.689;54579.527;  898.313; 3971.022
523.275;54693.977; 1047.617; 4213.778
523.861;53038.336;  868.885; 4190.361
524.447;51325.047; 1062.009; 4070.602
525.033;51577.277; 1039.420; 4088.892
525.619;50181.086;  830.470; 4416.851
526.205;49069.289;  810.381; 4836.835
526.791;49368.422;  887.927; 4885.903
527.377;49667.648;  868.234; 4544.907
527.963;49811.445;  950.625; 4321.995
528.549;49365.008;  962.444; 4473.979
529.135;47246.551;  847.896; 4788.663
529.721;44203.465;  936.158; 4888.577
530.306;44809.207; 1231.444; 4775.779
530.892;45577.430;  857.224; 4793.906
531.478;48289.074;  848.174; 4956.948
532.063;49552.336;  830.024; 5136.936
532.649;50297.578; 1174.202; 5336.867
533.235;48860.000;  806.788; 5748.092
533.820;47365.371; 1024.678; 6456.875
534.406;45691.684;  872.110; 6590.167
534.991;45479.535;  830.221; 6179.622
535.576;43325.551;  890.145; 6098.691
536.162;41867.543; 1261.738; 6441.234
536.747;42236.402;  785.425; 6816.224
537.333;44337.840;  840.215; 6889.752
537.918;45719.934;  891.362; 7154.280
538.503;43905.555;  905.449; 7150.848
539.088;43312.984;  963.969; 7253.308
539.673;45785.574;  878.454; 7625.180
540.259;48382.039;  855.880; 8226.793
540.844;50973.078;  759.420; 8745.092
541.429;49985.492; 1121.766; 8762.553
542.014;48132.871;  778.737; 8871.497
542.599;46949.176;  970.509; 8886.008
543.184;45771.680;  825.504; 9079.139
543.769;46681.574;  859.648; 9076.182
544.354;45542.656;  891.281; 8354.081
544.938;43685.148;  968.428; 8236.809
545.523;41367.988; 1108.076; 8222.179
546.108;42493.211;  901.832; 8114.082
546.693;44062.047;  924.459; 8535.912
547.278;42519.832;  908.864; 9238.322
547.862;40408.605;  941.948; 9034.405
548.447;39854.344; 1008.265; 7795.011
549.031;39852.055;  856.115; 7485.099
549.616;40871.379;  928.061; 7626.308
550.201;42146.469;  900.795; 7627.909
550.785;44279.305; 1021.976; 7859.125
551.370;46738.609;  813.777; 7990.654
551.954;48198.898; 1030.121; 8196.468
552.538;47739.031;  982.808; 7959.495
553.123;46680.453;  848.619; 7964.826
553.707;48461.617;  887.073; 8515.957
554.291;49344.086; 1078.609; 8724.024
554.876;49984.980; 1036.449; 8524.211
555.460;47188.270;  884.879; 8704.456
556.044;44921.023;  897.070; 9141.473
556.628;43954.496;  944.013; 9250.197
557.212;42708.996; 1066.126; 9444.237
557.796;42529.961;  898.026; 9379.783
558.380;43412.309;  957.808; 9353.658
558.964;43480.820;  902.346; 9210.310
559.548;43815.418;  803.491; 8475.153
560.132;44221.969;  875.128; 7954.084
560.716;44520.848;  816.650; 7489.529
561.300;44055.512;  800.940; 7211.952
561.884;44108.305; 1005.367; 7141.313
562.467;43424.754;  992.506; 7155.386
563.051;43027.637;  922.440; 7323.158
563.635;42065.438;  867.745; 7709.114
564.219;40425.113;  923.328; 7678.855
564.802;40679.973; 1024.873; 7376.187
565.386;41789.641;  934.243; 7054.372
565.969;42102.297; 1071.819; 6589.196
566.553;41809.668; 1193.325; 6279.371
567.136;41096.277; 1061.926; 5967.930
567.720;40311.262;  926.054; 5660.703
568.303;41454.828;  949.480; 5648.615
568.887;43098.156;  965.810; 5618.443
569.470;42764.676;  971.815; 5411.875
570.053;39432.465;  999.356; 5149.274
570.637;37169.461;  870.472; 5122.798
571.220;36619.609; 1005.223; 4957.369
571.803;36841.563; 1192.051; 4933.018
572.386;38509.035;  888.529; 4840.973
572.969;40096.992;  885.047; 4592.886
573.552;41581.781;  918.781; 4348.387
574.135;40326.703;  817.537; 4002.290
574.718;36489.039;  832.437; 3654.773
575.301;36038.430;  857.021; 3502.288
575.884;35587.816;  881.605; 3349.803
576.467;38221.211; 1057.054; 3191.403
577.050;38809.938;  967.776; 3062.418
577.633;38491.527; 1134.033; 3214.200
578.216;39700.145;  896.435; 3284.889
578.799;42082.820;  910.101; 3189.777
579.381;43201.320; 1167.962; 3064.502
579.964;41204.020;  867.073; 2888.357
580.547;40491.246;  977.736; 2905.760
581.129;41490.891; 1111.770; 2966.849
581.712;42403.191;  988.466; 2887.292
582.294;43289.977;  919.120; 2771.631
582.877;42011.543; 1221.687; 2711.602
583.459;40276.297;  935.321; 2577.049
584.042;40341.844;  899.269; 2454.707
584.624;40820.078;  853.649; 2305.893
585.206;41683.484;  785.474; 2189.546
585.789;40025.707;  898.836; 2112.577
586.371;37707.426;  969.594; 2153.065
586.953;35889.398; 1021.626; 2197.806
587.536;34623.695; 1088.435; 2105.489
588.118;36082.816;  931.218; 1963.911
588.700;38621.602; 1111.122; 1843.179
589.282;39183.117; 1016.049; 1813.834
589.864;39647.609;  953.888; 1777.620
590.446;38309.367;  748.132; 1733.780
591.028;37113.730;  939.646; 1676.008
591.610;37511.320;  760.046; 1631.649
592.192;37972.391;  960.022; 1632.362
592.774;36890.484;  839.004; 1569.507
593.356;36518.191;  841.549; 1524.539
593.937;35330.000;  861.429; 1569.720
594.519;36519.836; 1040.862; 1569.049
595.101;37907.090;  805.801; 1545.452
595.683;39726.922;  851.431; 1607.568
596.264;40091.383;  929.810; 1615.506
596.846;40348.211;  905.082; 1667.622
597.427;40524.254;  909.258; 1670.469
598.009;40976.801;  866.402; 1640.312
598.591;40086.305; 1014.174; 1541.022
599.172;38438.320;  893.686; 1598.665
599.753;38433.270;  799.074; 1619.068
600.335;39530.590; 1122.137; 1548.612
600.916;40037.684;  941.392; 1607.510
601.498;40470.535; 1023.499; 1745.181
602.079;41094.281;  935.035; 1801.011
602.660;39410.352;  928.651; 1834.640
603.241;38334.898;  722.515; 1787.351
603.823;39631.773;  864.237; 1684.266
604.404;40201.734;  799.835; 1654.241
604.985;41180.398;  887.294; 1758.741
605.566;41049.836; 1046.305; 1697.679
606.147;40484.340;  925.134; 1526.728
606.728;41503.094;  836.633; 1484.086
607.309;40873.504;  871.452; 1421.070
607.890;39582.953;  855.064; 1369.867
608.471;38250.016;  851.664; 1277.826
609.051;38485.621;  962.351; 1180.416
609.632;39163.711;  833.892; 1075.816
610.213;40134.289;  945.137; 1053.313
610.794;42069.523;  914.570;  979.442
611.374;41187.613;  986.055;  917.414
611.955;40611.191;  787.275;  819.987
612.536;41053.883;  957.032;  752.627
613.116;40977.371;  890.517;  690.799
613.697;40866.703;  879.483;  674.974
614.277;39231.184;  836.060;  663.846
614.858;38094.285;  844.334;  665.898
615.438;38573.598;  952.045;  660.712
616.019;39046.082; 1122.257;  632.732
616.599;41068.828;  743.761;  551.759
617.179;43391.137;  820.278;  512.871
617.760;42779.879; 1246.730;  473.655
618.340;42207.414;  911.834;  440.004
618.920;42905.508; 1125.338;  429.731
619.500;41458.586;  871.057;  441.361
620.080;41109.844;  846.273;  425.202
620.660;41822.055;  850.262;  408.164
621.241;41330.066;  881.690;  387.161
621.821;40096.082;  921.811;  378.017
622.401;40361.148; 1047.378;  379.188
622.980;43117.121;  816.739;  350.019
623.560;43509.305;  895.427;  336.446
624.140;39984.820;  951.299;  336.473
624.720;38935.680;  969.758;  334.974
625.300;40676.813;  872.443;  325.717
625.880;41444.914;  906.831;  308.519
626.459;39594.660;  935.086;  307.117
627.039;39130.539;  772.306;  290.890
627.619;40665.180; 1199.288;  286.635
628.198;41594.590; 1076.553;  282.535
628.778;43001.930; 1015.758;  285.474
629.357;44065.090;  846.916;  284.103
629.937;43010.563;  879.973;  292.178
630.516;41917.961; 1141.724;  290.749
631.096;40804.004;  867.929;  285.489
631.675;41000.316; 1119.219;  287.022
632.254;40173.660;  880.308;  286.038
632.834;41323.758;  930.560;  276.451
633.413;41652.133; 1104.254;  279.447
633.992;41752.664; 1077.416;  264.508
634.571;42225.586; 1012.978;  271.010
635.151;42310.926;  806.125;  277.338
635.730;41791.258;  933.477;  289.305
636.309;41252.660;  997.671;  285.306
636.888;42300.617;  994.469;  254.051
637.467;42765.230;  756.873;  230.324
638.046;43151.930; 1090.540;  253.349
638.625;42486.402; 1107.456;  246.866
639.204;41267.184;  989.424;  240.825
639.782;41813.891;  940.221;  261.970
640.361;41739.555; 1094.706;  277.780
640.940;40386.770;  834.595;  270.101
641.519;40364.879; 1024.484;  248.622
642.097;40740.391; 1000.373;  239.843
642.676;40955.004;  944.261;  244.264
643.255;41854.516;  904.150;  234.985
643.833;43401.828; 1016.039;  244.406
644.412;44368.539;  846.928;  244.927
644.990;44112.750;  920.817;  249.948
645.569;44214.762; 1018.706;  249.569
646.147;44329.824; 1056.594;  243.290
646.726;44218.535;  978.483;  249.511
647.304;44147.750;  913.372;  228.032
647.882;44616.609;  782.261;  214.552
648.461;44211.723;  949.150;  214.973
649.039;42537.883; 1036.038;  223.394
649.617;40919.848; 1006.927;  261.415
650.195;40501.309;  954.816;  298.736
650.773;40147.621;  898.705;  309.557
651.352;39575.281;  748.594;  297.978
651.930;38611.945;  739.482;  289.399
652.508;38086.555; 1019.371;  285.620
653.086;36696.719; 1003.260;  272.241
653.663;38301.129;  843.149;  265.062
654.241;40069.492;  800.038;  286.083
654.819;40306.105;  820.926;  286.404
655.397;41481.914;  872.815;  291.825
655.975;43377.227;  922.704;  299.145
656.553;43663.938; 1102.593;  288.866
657.130;42501.852;  867.482;  304.087
657.708;42967.762;  969.370;  302.908
658.286;43202.477;  979.259;  294.629
658.863;42696.438;  964.148;  293.350
659.441;42070.449;  972.037;  318.671
660.018;43196.461;  948.926;  333.692
660.596;44818.074;  759.814;  335.013
661.173;45427.086;  876.703;  371.534
661.750;43973.547;  874.592;  365.155
662.328;42323.359;  990.481;  349.976
662.905;39741.922;  887.370;  332.997
663.482;39030.480;  912.258;  321.717
664.060;40219.594;  847.147;  314.438
664.637;40580.406; 1000.036;  306.259
665.214;41651.418;  939.925;  314.580
665.791;43575.430;  873.814;  334.501
666.368;44375.492;  884.703;  329.222
666.945;43353.254; 1005.591;  342.143
667.522;42689.617;  874.480;  370.964
668.099;43727.527;  918.369;  396.885
668.676;43816.988;  917.258;  391.706
669.253;42837.402; 1118.146;  369.627
669.830;41487.414; 1087.035;  360.348
670.407;41789.023;  906.924;  344.769
670.984;41415.738;  920.813;  322.890
671.560;40721.398; 1006.702;  316.910
672.137;39641.910;  872.591;  322.531
672.714;42218.324;  993.479;  318.552
673.290;44568.184;  975.368;  324.473
673.867;42527.898;  884.257;  340.594
674.443;41524.859;  837.146;  319.515
675.020;42624.371;  962.035;  286.336
675.596;42134.434;  927.923;  247.557
676.173;42042.246;  800.812;  227.778
676.749;44077.055;  709.701;  224.399
677.326;43445.816;  771.590;  230.520
677.902;44425.180;  866.479;  241.841
678.478;44723.691;  821.367;  239.762
679.054;44866.652; 1349.256;  248.583
679.631;43863.516;  948.145;  237.503
680.207;45217.379; 1137.034;  245.924
680.783;45237.141;  735.923;  224.845
681.359;46774.652;  865.811;  209.666
681.935;48699.813;  933.700;  191.687
682.511;49973.926;  974.589;  210.008
683.087;48689.785;  983.478;  213.329
683.663;46254.398;  868.367;  216.850
684.239;45698.762;  809.255;  229.471
684.815;46264.871; 1043.144;  248.792
685.390;48649.484; 1204.033;  231.813
685.966;47978.797;  923.922;  221.234
686.542;46349.809;  832.811;  214.255
687.118;46131.070;  940.699;  212.276
687.693;46043.531;  983.588;  233.096
688.269;46251.895;  888.477;  246.917
688.844;47099.957;  984.366;  236.938
689.420;47527.566;  916.255;  242.059
689.995;48179.980; 1124.144;  245.480
690.571;47718.543; 1110.032;  244.701
691.146;48988.453;  895.921;  251.922
691.722;48023.566; 1005.810;  284.743
692.297;47313.078;  909.699;  320.664
692.872;47521.340;  827.588;  313.885
693.448;46885.152;  788.476;  290.106
694.023;46195.813;  953.365;  304.327
694.598;46451.523;  942.254;  319.648
695.173;47573.289;  870.143;  323.169
695.748;46155.648;  765.032;  376.389
696.323;45454.609;  925.920;  397.610
696.898;44827.473; 1087.809;  430.231
697.473;44089.234;  726.698;  454.952
698.048;45469.348;  870.587;  478.973
698.623;48055.410;  781.476;  477.094
699.198;51340.422;  932.364;  496.915
699.773;52785.980;  845.253;  490.236
700.348;51809.645;  838.142;  519.957
700.922;52210.207;  938.031;  575.678
701.497;52407.617;  885.920;  621.399
702.072;51916.680;  984.808;  664.420
702.646;54341.141;  981.697;  690.541
703.221;55127.355;  959.586;  748.862
703.795;54985.367;  829.475;  774.282
704.370;53599.078;  667.364;  799.803
704.944;51860.539;  905.252;  875.824
705.519;50804.301;  977.141;  902.945
706.093;53186.012;  844.030;  889.266
706.668;54468.375; 1028.919;  903.487
707.242;52683.539;  967.808;  881.708
707.816;51027.801;  862.696;  892.329
708.390;49607.410;  908.585;  970.250
708.965;49429.672;  948.474;  984.671
709.539;50413.785;  898.363; 1026.092
710.113;51365.898;  914.252; 1067.913
710.687;52231.859;  975.141; 1166.434
711.261;51948.070;  818.029; 1190.854
711.835;50522.832;  805.918; 1197.275
712.409;49185.293;  790.807; 1308.096
712.983;49588.008;  754.696; 1461.617
713.557;51377.270;  741.585; 1611.838
714.131;52204.230;  870.473; 1554.359
714.704;53876.344;  838.362; 1520.780
715.278;55352.152;  947.251; 1575.101
715.852;53724.664;  985.140; 1689.822
716.425;51847.227; 1094.029; 1829.143
716.999;52337.891;  720.917; 2008.664
717.573;53973.453; 1020.806; 2000.485
718.146;55888.313; 1094.695; 1914.506
718.720;56300.625;  927.584; 1818.026
719.293;55178.938;  990.473; 1734.147
719.867;54075.949;  853.361; 1716.968
720.440;54124.609; 1043.250; 1918.589
721.013;54458.973;  894.139; 1975.410
721.587;54323.984;  757.028; 2073.331
722.160;54341.848; 1001.917; 2357.852
722.733;52590.059;  951.805; 2657.073
723.306;52470.469;  908.694; 2703.894
723.880;54220.184;  941.583; 2549.415
724.453;54517.246; 1061.472; 2414.336
725.026;52526.457;  833.361; 2298.557
725.599;50920.867;  962.249; 2168.778
726.172;52377.281; 1033.138; 2106.099
726.745;52396.691;  933.027; 2253.320
727.318;50914.004; 1016.916; 2404.740
727.891;49838.867;  950.805; 2680.161
728.463;49606.129;  953.693; 2838.882
729.036;49914.988;  852.582; 2755.103
729.609;49844.551;  826.471; 2731.824
730.182;50575.414;  980.360; 2855.645
730.754;51499.324;  667.249; 2946.866
731.327;52271.688;  959.138; 2840.187
731.900;51620.051;  778.026; 2647.608
732.472;50976.313;  910.915; 2473.929
733.045;50217.074;  875.804; 2445.750
733.617;49942.535;  775.693; 2511.771
734.190;51023.246;  951.582; 2581.592
734.762;51601.258;  912.470; 2710.813
735.334;50889.820;  941.359; 3005.733
735.907;50740.234;  931.248; 3154.954
736.479;51001.996; 1027.137; 3171.675
737.051;51289.156; 1001.026; 3217.496
737.623;51707.270; 1017.914; 3246.217
738.195;51689.180;  863.803; 2985.238
738.768;50291.043;  718.692; 2727.559
739.340;49158.652;  854.581; 2666.880
739.912;47958.766; 1011.470; 2769.601
740.484;46685.527;  980.358; 2731.422
741.056;45991.988;  899.247; 2963.043
741.628;46944.652;  778.136; 3361.364
742.199;47393.363; 1058.025; 3641.185
742.771;47639.977;  762.914; 3932.005
743.343;48562.738;  828.802; 4319.926
743.915;48775.648;  966.691; 4706.647
744.487;48766.063; 1007.580; 4874.968
745.058;47448.422;  973.469; 4616.589
745.630;45689.734;  996.358; 4253.410
746.201;45526.746;  835.246; 4056.131
746.773;45070.910;  988.135; 3772.952
747.344;44127.570;  874.024; 3642.473
747.916;43557.383;  926.913; 3752.294
748.487;43527.793;  956.802; 4106.215
749.059;44108.457;  797.690; 4457.835
749.630;45261.270;  840.579; 4366.457
750.201;44797.781;  887.468; 4600.078
750.773;43892.242;  829.357; 4658.499
751.344;43888.953;  914.246; 4609.319
751.915;43861.164;  891.134; 4526.440
752.486;44897.078;  816.023; 4536.061
753.057;47571.891;  909.912; 4383.282
753.628;48185.551;  840.801; 4296.503
754.199;46079.813;  860.690; 4383.224
754.770;44712.777;  969.578; 4653.545
755.341;44471.637;  987.467; 4831.666
755.912;43884.848;  894.356; 4831.387
756.483;43359.762;  928.245; 4735.808
757.054;42276.375;  866.134; 4685.029
757.625;42074.285;  774.023; 4994.250
758.195;43716.398;  772.911; 5051.471
758.766;43351.508;  926.800; 5317.792
759.337;42802.223;  729.689; 5646.512
759.907;43632.184;  788.578; 5404.133
760.478;45334.996;  886.467; 5090.954
761.048;46048.258;  985.355; 4871.175
761.619;45171.668;  946.244; 4589.396
762.189;43867.980;  908.133; 4171.317
762.760;43373.391; 1013.022; 3872.538
763.330;43271.805;  977.911; 3832.259
763.900;43352.617;  919.799; 4150.180
764.471;43910.629;  809.688; 4529.801
765.041;44020.789; 1042.577; 4715.922
765.611;45402.500;  977.466; 4681.442
766.181;47205.363;  903.355; 4717.063
766.751;47189.824;  902.243; 4710.285
767.321;46513.188;  761.132; 4450.305
767.891;46446.898;  934.021; 4274.126
768.461;46191.461;  918.910; 4215.047
769.031;45548.023;  895.799; 4173.068
769.601;43814.984; 1035.688; 4174.689
770.171;41987.898;  768.576; 4229.310
770.741;42139.309;  835.465; 4352.031
771.311;43264.922;  971.354; 4336.652
771.880;44088.133;  788.243; 4300.873
772.450;44782.195;  836.131; 4387.194
773.020;44709.906;  736.020; 4220.415
773.589;44491.168;  831.909; 4075.835
774.159;44239.129;  801.798; 4105.756
774.729;43616.742;  821.687; 4114.978
775.298;42170.703;  831.576; 3693.298
775.867;41346.215;  835.464; 3343.119
776.437;41504.328;  919.353; 3062.040
777.006;41294.238;  794.242; 2927.161
777.576;41241.703;  948.131; 3046.482
778.145;41483.715;  941.020; 3230.203
778.714;41466.676;  868.908; 3253.324
779.283;41333.488;  970.797; 3129.745
779.853;41469.848;  874.686; 2983.566
780.422;41258.512;  881.575; 2929.887
780.991;40889.922;  945.464; 2863.908
781.560;39839.336; 1057.352; 2948.029
782.129;39323.797;  916.241; 3074.149
782.698;39122.160; 1040.130; 2893.970
783.267;39377.723;  846.019; 2721.391
783.836;39520.582;  893.908; 2659.712
784.404;39128.996;  777.796; 2622.233
784.973;38237.656;  664.685; 2600.754
785.542;38773.969;  868.574; 2528.475
786.111;39229.031; 1057.463; 2404.396
786.679;39840.941;  951.352; 2365.717
787.248;39316.754;  747.240; 2498.438
787.817;39217.168;  861.129; 2645.659
788.385;39131.328; 1043.018; 2709.280
788.954;37577.238;  750.907; 2620.500
789.522;37670.203;  935.796; 2625.422
790.090;38635.863;  773.684; 2743.843
790.659;38879.375;  846.573; 2635.163
791.227;38123.836;  901.462; 2495.484
791.795;36864.898;  905.351; 2413.705
792.364;35749.863;  810.240; 2345.326
792.932;35667.375;  949.128; 2350.447
793.500;36112.285;  855.017; 2429.768
794.068;36284.047;  754.906; 2513.589
794.636;34440.359;  848.795; 2664.310
795.204;32695.221;  768.684; 2721.431
795.772;31577.184;  818.573; 2802.052
796.340;32539.494;  829.461; 2847.173
796.908;33266.559;  705.350; 2997.194
797.476;32828.367;  786.239; 3151.615
798.044;31878.730;  722.128; 3110.735
798.612;31715.191;  887.017; 2931.656
799.180;31558.955;  887.905; 2785.777
799.747;31101.266;  875.794; 2899.098
800.315;30086.428;  782.683; 2955.519
800.883;29791.789;  718.572; 2948.940
801.450;29553.201;  862.461; 2965.361
802.018;29692.863;  901.349; 3070.582
802.585;28839.477;  889.238; 3156.103
803.153;27952.088;  826.127; 3199.524
803.720;27621.699;  852.016; 3168.845
804.287;28052.412;  881.905; 3248.366
804.855;28488.174;  985.793; 3406.187
805.422;28256.936;  849.682; 3430.907
805.989;27716.396;  775.571; 3453.528
806.556;27706.609;  834.460; 3612.649
807.124;28898.422;  953.349; 3736.570
807.691;28726.684;  787.237; 3770.491
808.258;28203.096;  881.126; 3705.012
808.825;27844.207;  992.015; 3828.733
809.392;26561.418; 1015.904; 3986.754
809.959;25802.680;  912.793; 4410.075
810.526;25892.342; 1097.681; 4774.996
811.093;25755.055; 1006.570; 4754.217
811.659;25023.617;  874.459; 4661.238
812.226;25268.277;  854.348; 4672.559
812.793;25151.791;  888.237; 4822.979
813.360;25214.002;  881.125; 5189.800
813.926;25641.514;  909.014; 5310.622
814.493;24737.926;  734.903; 5414.542
815.060;24211.988;  702.792; 5548.963
815.626;24224.400;  759.681; 5452.284
816.193;24109.061;  900.570; 5339.305
816.759;23518.973;  798.458; 5544.426
817.325;24352.035;  739.347; 5706.547
817.892;24102.498;  989.236; 5623.468
818.458;23691.459;  893.125; 5586.689
819.024;23452.521; 1016.014; 5647.910
819.591;22946.982;  850.902; 5762.031
820.157;22709.195;  774.791; 6284.452
820.723;23111.707;  891.680; 6906.973
821.289;23584.818; 1325.569; 7086.894
821.855;23563.680;  939.458; 7054.915
822.421;22371.043;  838.346; 7112.035
822.987;21854.504;  764.235; 7256.156
823.553;21929.016;  839.124; 7538.077
824.119;22466.928;  980.013; 7594.298
824.685;22717.240; 1068.902; 7613.619
825.251;22240.152;  923.790; 7644.140
825.816;21747.014; 1076.679; 7720.261
826.382;20709.576;  968.568; 8014.282
826.948;20646.287;  980.457; 8281.503
827.513;20897.650;  835.346; 8289.624
828.079;21203.063;  806.234; 8587.045
828.645;21381.023;  983.123; 8821.865
829.210;21427.586;  789.012; 9054.486
829.776;21246.748;  908.901; 9054.607
830.341;20603.260;  943.790; 9415.628
830.906;20897.320;  981.678; 9932.449
831.472;20883.832;  805.567;10150.271
832.037;20631.346;  966.456; 9420.391
832.602;20080.406;  830.345; 8664.912
833.167;20095.770;  900.234; 8491.933
833.733;19702.031;  995.122; 8872.854
834.298;19312.492;  777.011; 9370.575
834.863;19664.555;  924.900; 9610.695
835.428;19182.416;  932.789; 9655.616
835.993;18579.678;  951.678; 9437.838
836.558;18368.141;  937.566; 9441.459
837.123;18499.502; 1148.455; 9600.979
837.688;18709.514;  906.344; 9798.301
838.253;18558.875;  924.233; 9902.921
838.817;18162.537;  871.122;10339.742
839.382;18255.049;  980.010;10548.363
839.947;18458.162;  899.899;10252.484
840.511;18273.723; 1052.788;10040.005
841.076;17717.885;  683.677;10099.926
841.641;17446.998;  932.566;10347.347
842.205;17616.260;  891.455;10817.368
842.770;17970.422; 1071.343;11435.289
843.334;17873.732;  875.232;12072.409
843.898;17883.195;  835.121;12635.431
844.463;17819.807; 1055.010;12537.252
845.027;17400.219;  860.899;12759.673
845.591;17334.480;  970.787;12821.993
846.156;17169.943;  822.676;12520.914
846.720;17515.354;  972.565;12390.436
847.284;17145.467;  910.454;12956.456
847.848;16402.879;  931.343;13240.177
848.412;16054.891;  906.231;13216.998
848.976;16866.102; 1048.120;13014.619
849.540;16647.613; 1129.009;12355.740
850.104;15954.776; 1043.898;12208.761
850.668;15500.388;  707.787;12106.882
851.232;15293.300;  733.675;11862.103
851.796;15712.812;  910.564;11700.523
852.359;15671.374; 1004.453;12375.944
852.923;15745.586;  994.342;13087.966
853.487;15365.447;  944.231;13297.187
854.050;14939.759;  611.119;13851.207
854.614;14988.271;  875.008;14854.229
855.177;14535.683;  943.897;15802.149
855.741;14190.895;  938.786;16603.570
856.304;13716.507;  955.675;16359.891
856.868;13288.769;  791.563;14365.512
857.431;12966.681;  889.452;13361.333
857.995;12873.293;  879.341;14130.554
858.558;13243.154;  899.230;14883.175
859.121;13533.166; 1003.119;15754.195
859.684;12955.528;  887.008;15995.017
860.247;12849.891;  909.896;15149.537
860.810;12801.103;  852.785;14640.358
861.374;12942.714; 1156.674;15551.079
861.937;12414.626;  772.563;16519.801
862.500;12554.088;  832.452;16796.521
863.062;12861.600;  818.340;16538.742
863.625;12990.012;  935.229;16716.764
864.188;12192.773;  835.118;17055.084
864.751;11467.636;  861.007;17197.705
865.314;11226.348;  904.896;17151.625
865.876;11053.310;  963.784;17783.547
866.439;11068.071;  960.673;19283.467
867.002;11161.283; 1154.562;20256.389
867.564;10775.646; 1029.451;20485.410
868.127;10552.857;  877.340;20789.730
868.689;10382.369;  928.228;21981.951
869.252;10480.730; 1005.117;23803.771
869.814;10124.543;  794.006;24974.094
870.377;10156.055;  904.895;24690.314
870.939;10457.166; 1264.784;23963.436
871.501;10049.878;  934.672;25167.156
872.063; 9603.440;  664.561;26995.477
872.626; 9327.952;  731.450;27443.098
873.188; 9362.564;  906.339;26718.418
873.750; 9078.826;  870.228;26558.840
874.312; 8665.888;  849.116;26701.561
874.874; 8801.649; 1076.005;27970.582
875.436; 8390.162;  945.894;29173.402
875.998; 8063.773; 1030.783;30376.623
876.560; 7806.985;  986.672;32507.344
877.122; 7377.047;  806.560;34833.066
877.683; 7414.659;  965.449;36458.285
878.245; 7472.171;  830.338;37248.207
878.807; 7585.883;  923.227;36758.027
879.369; 7339.195;  785.116;35223.551
879.930; 6984.507;  777.005;33824.969
880.492; 6824.569; 1017.893;34436.492
881.053; 6308.181;  804.782;37745.313
881.615; 6359.293;  838.671;41184.633
882.176; 6351.705;  871.560;42871.555
882.738; 6340.917;  973.449;41693.074
883.299; 5856.778;  694.337;40289.895
883.860; 5752.390;  725.226;39231.215
884.422; 5726.252;  954.115;38264.039
884.983; 5346.864;  773.004;37171.859
885.544; 5471.276;  945.893;35842.379
886.105; 5250.788;  883.781;34810.000
886.666; 5081.850;  851.670;34519.020
887.227; 4739.212;  731.559;33905.641
887.788; 4656.674;  905.448;34502.965
888.349; 4372.236;  759.337;34241.785
888.910; 4530.998;  932.225;33722.203
889.471; 4222.959;  914.114;32539.625
890.032; 3979.271;  902.003;31528.346
890.593; 3943.183;  940.892;32655.068
891.153; 3802.545;  855.781;33882.289
891.714; 3555.757;  712.669;33318.711
892.275; 3436.969;  749.558;31848.930
892.835; 3509.831; 1003.447;30339.752
893.396; 3349.043;  976.336;30074.973
893.956; 3091.555;  838.225;30338.393
894.517; 3026.217;  918.113;30864.113
895.077; 2909.428;  917.002;29766.734
895.638; 2985.090; 1067.891;26379.557
896.198; 2574.102;  789.780;24056.277
896.758; 2666.564;  958.669;22961.898
897.319; 2494.126;  874.557;21772.020
897.879; 2426.038;  874.446;20877.539
898.439; 2200.000;  741.335;19509.461
898.999; 2362.562;  928.224;17297.582
899.559; 2285.224;  917.113;14712.002
900.119; 2079.886;  789.002;12790.224
900.679; 2284.998; 1034.890;11586.744
901.239; 2118.010;  971.779;10776.465
901.799; 2024.521;  871.668; 9691.687
902.359; 1910.883;  773.557; 8725.907
902.919; 1829.545;  781.446; 8305.728
903.479; 1813.757;  780.334; 8172.649
904.038; 1739.969;  767.223; 7913.870
904.598; 1624.081;  671.112; 7262.291
905.158; 1743.193;  806.001; 6609.012
905.717; 1750.605;  857.890; 6236.133
906.277; 1744.317;  860.778; 5829.054
906.836; 1776.029;  910.667; 5396.674
907.396; 1764.040;  930.556; 4964.195
907.955; 1768.302;  971.445; 4528.917
908.515; 1645.764;  849.334; 4223.837
909.074; 1642.926;  863.222; 4023.958
909.633; 1628.138;  840.111; 4065.379
910.192; 1829.150; 1082.000; 4066.300
910.752; 1603.950;  810.000; 3971.600
911.311; 1570.850;  815.000; 3839.600
911.870; 1533.700;  798.000; 3684.500
912.429; 1708.500;  993.000; 3635.600
912.988; 1692.050;  974.000; 3689.800
913.547; 1493.600;  780.000; 3737.700
914.106; 1593.750;  872.000; 3740.300
914.665; 1582.500;  912.000; 3604.600
915.224; 1653.250;  959.000; 3358.700
915.782; 1504.450;  808.000; 3188.400
916.341; 1697.200; 1023.000; 3091.400
916.900; 1504.150;  879.000; 3044.800
917.458; 1473.150;  803.000; 2888.600
918.017; 1557.950;  874.000; 2818.900
918.576; 1505.950;  839.000; 2838.600
919.134; 1405.250;  742.000; 2880.100
919.693; 1499.550;  822.000; 2996.300
920.251; 1487.600;  802.000; 3183.100
920.809; 1435.050;  742.000; 3247.000
921.368; 1491.900;  820.000; 3156.600
921.926; 1440.950;  786.000; 2964.900
922.484; 1542.000;  874.000; 2846.300
923.042; 1504.350;  836.000; 2890.400
923.601; 1688.650; 1034.000; 2987.700
924.159; 1602.700;  937.000; 3049.800
924.717; 1460.900;  786.000; 3087.000
925.275; 1548.650;  852.000; 3093.400
925.833; 1368.250;  695.000; 3182.400
926.391; 1617.700;  936.000; 3397.900
926.949; 1500.000;  791.000; 3575.400
927.506; 1582.500;  886.000; 3713.400
928.064; 1539.850;  813.000; 3871.300
928.622; 1552.450;  826.000; 4092.800
929.180; 1460.950;  761.000; 4499.300
929.737; 1435.050;  726.000; 4813.200
930.295; 1633.500;  960.000; 5084.100
930.853; 1517.550;  761.000; 5185.000
931.410; 1477.750;  748.000; 5313.100
931.968; 1674.850;  945.000; 5339.600
932.525; 1621.900;  888.000; 5399.900
933.082; 1472.350;  717.000; 5457.500
933.640; 1640.800;  879.000; 5692.900
934.197; 1589.200;  781.000; 5821.200
934.754; 1595.200;  833.000; 5617.900
935.312; 1551.200;  777.000; 5512.400
935.869; 1784.350;  973.000; 5582.400
936.426; 1564.450;  766.000; 5650.100
936.983; 1590.400;  807.000; 5657.400
937.540; 1519.050;  715.000; 5564.300
938.097; 1681.300;  903.000; 5574.000
938.654; 1613.350;  811.000; 5665.900
939.211; 1701.000;  890.000; 5931.600
939.768; 1654.000;  860.000; 6153.600
940.324; 1629.400;  784.000; 6397.600
940.881; 1588.300;  792.000; 6454.200
941.438; 1805.500; 1026.000; 6206.900
941.995; 1753.650;  914.000; 6003.900
942.551; 1570.100;  767.000; 6228.300
943.108; 1675.650;  869.000; 6603.500
943.664; 1584.850;  779.000; 7188.100
944.221; 1911.200; 1068.000; 7579.900
944.777; 1570.100;  700.000; 7658.100
945.334; 1593.750;  736.000; 7670.400
945.890; 1686.500;  847.000; 7525.100
946.446; 1679.150;  840.000; 7261.500
947.003; 1714.300;  897.000; 6949.200
947.559; 1861.950; 1007.000; 6773.100
948.115; 1802.400; 1001.000; 6668.400
948.671; 1708.500;  850.000; 6488.400
949.227; 1556.050;  719.000; 6236.600
949.783; 1538.650;  687.000; 6008.900
950.339; 1731.500;  936.000; 5934.100
950.895; 1772.900;  933.000; 5933.500
951.451; 1638.300;  788.000; 6074.700
952.007; 1728.750;  886.000; 6066.400
952.563; 1641.300;  822.000; 5884.100
953.118; 1608.250;  791.000; 5733.800
953.674; 1668.150;  831.000; 5734.300
954.230; 1675.600;  851.000; 6039.700
954.785; 1650.850;  850.000; 6383.500
955.341; 1744.600;  918.000; 6568.200
955.897; 1509.950;  680.000; 6488.600
956.452; 1683.150;  878.000; 6239.200
957.008; 1902.100; 1108.000; 5954.600
957.563; 1767.250;  958.000; 5816.700
958.118; 1562.350;  782.000; 5828.200
958.674; 1668.600;  869.000; 5717.400
959.229; 1778.800;  996.000; 5506.800
959.784; 1504.700;  733.000; 5292.200
960.339; 1765.500;  996.000; 5101.900
960.894; 1725.750;  942.000; 5093.200
961.449; 1545.350;  789.000; 5227.900
962.004; 2090.400; 1299.000; 5349.300
962.559; 1556.250;  791.000; 5514.900
963.114; 1370.900;  591.000; 5717.300
963.669; 1625.100;  854.000; 5841.400
964.224; 1569.900;  787.000; 5805.900
964.779; 1503.850;  722.000; 5723.400
965.334; 1772.300; 1014.000; 5779.500
965.888; 1548.550;  796.000; 5948.500
966.443; 1693.350;  952.000; 6344.200
966.998; 1452.950;  712.000; 6666.300
967.552; 1596.600;  840.000; 6710.100
968.107; 1527.600;  774.000; 6593.500
968.661; 1603.150;  901.000; 6344.100
969.216; 1509.550;  759.000; 6062.400
969.770; 1582.450;  859.000; 5785.500
970.324; 1593.150;  877.000; 5426.800
970.879; 1632.950;  920.000; 5016.800
971.433; 1647.700;  955.000; 4904.500
971.987; 1557.600;  858.000; 4991.000
972.541; 1580.350;  912.000; 4978.500
973.095; 1719.600; 1043.000; 4832.000
973.649; 1407.600;  749.000; 4767.900
974.203; 1433.750;  762.000; 4881.200
974.757; 1459.250;  800.000; 4969.500
975.311; 1480.800;  811.000; 4953.000
975.865; 1490.050;  832.000; 4884.300
976.419; 1453.200;  789.000; 4739.800
976.973; 1438.500;  808.000; 4698.100
977.526; 1584.250;  949.000; 4631.100
978.080; 1341.400;  722.000; 4621.600
978.634; 1526.450;  911.000; 4650.200
979.187; 1489.500;  919.000; 4669.200
979.741; 1672.200; 1057.000; 4658.000
980.294; 1331.600;  751.000; 4579.100
980.848; 1227.750;  620.000; 4452.800
981.401; 1364.500;  806.000; 4271.900
981.955; 1411.000;  852.000; 4087.800
982.508; 1255.950;  689.000; 3973.900
983.061; 1529.250;  934.000; 3928.600
983.615; 1319.200;  789.000; 3851.200
984.168; 1269.200;  718.000; 3734.800
984.721; 1430.250;  865.000; 3628.300
985.274; 1407.250;  889.000; 3564.300
985.827; 1349.350;  854.000; 3558.100
986.380; 1179.750;  671.000; 3559.900
986.933; 1399.100;  902.000; 3688.700
987.486; 1378.050;  911.000; 3778.500
988.039; 1368.850;  899.000; 3559.900
988.591; 1422.200;  964.000; 3219.300
989.144; 1197.550;  690.000; 2902.900
989.697; 1223.950;  780.000; 2722.600
990.250; 1373.250;  890.000; 2618.000
990.802; 1223.300;  754.000; 2523.900
991.355; 1549.400; 1135.000; 2436.500
991.907; 1376.600;  960.000; 2412.200
992.460; 1203.800;  785.000; 2387.900
993.012; 1203.300;  794.000; 2365.800
993.565; 1137.050;  730.000; 2311.100
994.117; 1487.350; 1118.000; 2308.700
994.669; 1112.650;  736.000; 2249.300
995.221; 1250.100;  893.000; 2158.100
995.774; 1232.950;  864.000; 2085.600
996.326; 1166.500;  818.000; 2068.100
996.878; 1306.550; 1002.000; 1975.300
997.430; 1099.300;  769.000; 1929.500
997.982; 1179.900;  841.000; 1861.900
998.534; 1160.850;  847.000; 1830.200
999.086; 1146.100;  854.000; 1823.200
999.638; 1034.850;  696.000; 1815.000
1000.190; 1100.450;  749.000; 1796.600
1000.741; 1168.950;  843.000; 1738.800
1001.293; 1085.650;  792.000; 1666.200
1001.845; 1069.350;  746.000; 1566.500
1002.396; 1157.600;  851.000; 1471.900
1002.948; 1149.600;  865.000; 1398.000
1003.500; 1124.800;  846.000; 1356.500
1004.051; 1412.750; 1121.000; 1294.200
1004.603; 1218.650;  978.000; 1190.000
1005.154;  954.450;  708.000; 1063.900
1005.705; 1111.550;  889.000;  968.300
1006.257; 1085.400;  858.000;  889.800
1006.808; 1056.400;  811.000;  801.500
1007.359; 1186.000;  930.000;  716.400
1007.910;  998.450;  831.000;  639.100
1008.461; 1119.200;  919.000;  561.600
1009.013;  903.300;  722.000;  500.400
1009.564; 1207.200; 1032.000;  476.100
1010.115;  909.550;  714.000;  431.600
1010.665;  917.550;  740.000;  409.300
1011.216; 1021.150;  818.000;  399.700
1011.767; 1058.000;  860.000;  388.100
1012.318; 1107.650;  943.000;  381.400
1012.869; 1018.700;  876.000;  375.400
1013.419;  916.550;  729.000;  357.600
1013.970; 1019.450;  830.000;  358.300
1014.521;  932.500;  765.000;  344.100
1015.071; 1027.000;  880.000;  322.800
1015.622;  958.000;  793.000;  320.600
1016.172;  902.400;  751.000;  301.700
1016.723;  924.400;  798.000;  289.800
1017.273;  915.900;  747.000;  287.600
1017.823;  987.550;  809.000;  278.700
1018.374;  933.500;  753.000;  274.400
1018.924; 1080.500;  958.000;  283.200
1019.474; 1076.600;  926.000;  278.500
1020.024;  987.500;  828.000;  274.700
1020.574; 1088.350;  937.000;  272.700
1021.124; 1017.650;  877.000;  278.400
1021.674;  846.700;  694.000;  269.200
1022.224; 1068.500;  928.000;  267.800
1022.774; 1009.100;  883.000;  258.100
1023.324; 1135.600; 1011.000;  260.000
1023.874; 1325.700; 1179.000;  260.700
1024.423;  933.350;  782.000;  252.700
1024.973;  918.400;  763.000;  234.700
1025.523;  931.600;  792.000;  226.500
1026.072;  917.550;  772.000;  225.500
1026.622; 1012.550;  864.000;  210.100
1027.172; 1069.000;  940.000;  213.000
1027.721;  910.200;  774.000;  207.700
1028.270; 1008.650;  899.000;  205.400
1028.820;  965.550;  819.000;  201.000
1029.369;  921.550;  779.000;  201.000
1029.918;  970.700;  851.000;  198.400
1030.468;  846.750;  718.000;  199.200
1031.017;  962.150;  812.000;  192.600
1031.566;  910.900;  818.000;  197.400
1032.115; 1048.450;  904.000;  188.300
1032.664;  893.600;  754.000;  193.700
1033.213; 1098.800;  970.000;  191.900
1033.762;  963.450;  835.000;  184.500
1034.311; 1019.300;  848.000;  194.300
1034.860; 1036.300;  915.000;  192.300
1035.408; 1091.950;  944.000;  182.600
1035.957; 1075.850;  950.000;  173.900
1036.506;  797.900;  668.000;  185.200
1037.055; 1277.450; 1137.000;  182.500
1037.603; 1016.450;  878.000;  167.600
1038.152;  800.850;  671.000;  168.200
1038.700;  878.500;  758.000;  169.600
1039.249; 1022.750;  901.000;  164.300
1039.797;  951.200;  827.000;  169.600
1040.345; 1059.650;  914.000;  167.100
1040.894;  953.000;  826.000;  164.400
1041.442;  950.500;  844.000;  158.300
1041.990;  846.500;  697.000;  160.000
1042.538;  804.450;  652.000;  156.800
1043.087;  855.550;  742.000;  146.600
1043.635; 1017.850;  888.000;  162.400
1044.183;  881.450;  763.000;  156.300
1044.731;  861.600;  731.000;  158.100
1045.279; 1008.750;  901.000;  154.500
1045.827; 1350.550; 1218.000;  146.200
1046.374;  773.250;  647.000;  154.000
1046.922;  892.750;  752.000;  149.000
1047.470; 1038.050;  914.000;  154.900
1048.018;  984.700;  867.000;  148.400
1048.565; 1067.450;  954.000;  146.300
1049.113;  826.150;  748.000;  156.100
1049.660;  939.850;  841.000;  154.300
1050.208; 1012.000;  886.000;  149.400
1050.755;  914.600;  794.000;  157.500
1051.303; 1028.050;  894.000;  157.700
1051.850;  953.500;  805.000;  152.800
1052.397;  714.000;  617.000;  146.300
1052.945;  926.900;  778.000;  149.500
1053.492; 1110.350; 1006.000;  149.300
1054.039; 1078.700;  998.000;  163.100
1054.586;  840.400;  711.000;  150.400
1055.133; 1046.400;  931.000;  153.500
1055.680;  973.900;  856.000;  155.600
1056.227;  812.250;  698.000;  148.700
1056.774; 1181.900; 1076.000;  151.500
1057.321;  780.450;  660.000;  143.700
1057.868;  965.050;  816.000;  145.300
1058.415;  981.100;  857.000;  153.500
1058.961; 1005.150;  916.000;  149.900
1059.508;  965.150;  865.000;  147.300
1060.055;  872.200;  765.000;  151.000
1060.601;  927.550;  827.000;  148.700
1061.148;  941.250;  811.000;  153.800
1061.694;  894.400;  779.000;  150.500
1062.241;  893.300;  781.000;  149.100
1062.787;  989.600;  915.000;  153.000
1063.334; 1201.050; 1106.000;  153.200
1063.880; 1007.950;  902.000;  148.400
1064.426; 1063.850;  954.000;  149.200
1064.972;  891.900;  813.000;  156.400
1065.518;  842.800;  730.000;  144.700
1066.065;  942.950;  834.000;  139.400
1066.611;  899.550;  784.000;  139.300
1067.157;  953.200;  848.000;  138.400
1067.703; 1000.650;  927.000;  142.700
1068.249;  897.200;  800.000;  136.700
1068.794;  943.650;  834.000;  139.400
1069.340;  861.300;  761.000;  142.700
1069.886;  887.250;  799.000;  135.600
1070.432;  802.650;  712.000;  133.400
1070.977;  900.550;  797.000;  138.200
1071.523;  845.850;  768.000;  132.400
1072.068;  865.750;  761.000;  132.700
1072.614;  776.050;  670.000;  127.000
1073.160; 1035.950;  947.000;  131.300
1073.705;  860.850;  775.000;  135.700
1074.250;  843.900;  727.000;  133.000
1074.796;  985.700;  869.000;  138.000
1075.341;  998.700;  908.000;  137.300
1075.886;  878.900;  754.000;  134.300
1076.431;  976.900;  876.000;  138.200
1076.976;  965.900;  874.000;  132.200
1077.521;  872.700;  761.000;  138.900
1078.067;  872.650;  773.000;  128.600
1078.612;  998.900;  852.000;  138.900
1079.156;  894.250;  819.000;  128.900
1079.701; 1037.850;  956.000;  129.700
1080.246; 1036.000;  973.000;  128.600
1080.791;  944.300;  803.000;  122.600
1081.336;  996.400;  871.000;  122.000
1081.880;  978.700;  858.000;  123.900
1082.425;  858.750;  795.000;  120.600
1082.970; 1066.200;  977.000;  124.500
1083.514;  886.250;  786.000;  112.000
1084.059;  870.450;  776.000;  120.700
1084.603;  847.650;  766.000;  116.000
1085.147;  968.450;  894.000;  116.300
1085.692; 1084.150;  991.000;  108.200
1086.236;  756.400;  648.000;  114.600
1086.780; 1125.400; 1019.000;  118.900
1087.325;  978.900;  914.000;  120.400
1087.869;  914.950;  848.000;  110.500
1088.413; 1047.050;  976.000;  114.000
1088.957;  796.250;  747.000;  114.300
1089.501; 1144.150; 1058.000;  114.600
1090.045; 1089.800;  956.000;  114.200
1090.589;  848.550;  747.000;  105.500
1091.133; 1018.400;  923.000;  111.800
1091.676;  885.350;  788.000;  110.900
1092.220;  895.450;  812.000;  110.100
1092.764; 1057.900;  965.000;  108.100
1093.307; 1003.700;  910.000;  109.900
1093.851;  819.850;  758.000;  107.500
1094.395; 1026.100;  933.000;   96.200
1094.938;  944.850;  855.000;   99.300
1095.482;  828.900;  729.000;   97.700
1096.025; 1056.950;  970.000;   84.900
1096.568; 1162.500; 1054.000;   88.500
1097.112;  760.050;  645.000;   95.700
1097.655;  892.750;  818.000;   97.300
1098.198;  888.100;  831.000;   92.600
1098.741;  920.900;  840.000;   91.800
1099.285;  982.300;  860.000;   88.000
1099.828;  656.700;  557.000;   91.700
1100.371;  905.800;  818.000;   89.900
1100.914; 1016.900;  932.000;   91.500
1101.457; 1014.050;  951.000;   88.100
1101.999;  861.400;  765.000;   86.400
1102.542;  952.650;  893.000;   90.800
1103.085;  980.100;  880.000;   95.400
1103.628; 1140.100; 1057.000;   97.700
1104.170;  873.750;  802.000;   84.000
1104.713;  968.750;  899.000;   93.900
1105.256;  834.800;  771.000;   93.000
1105.798;  752.650;  655.000;   85.600
1106.341; 1091.350; 1001.000;   87.100
1106.883;  778.900;  692.000;   85.200
1107.425;  996.500;  914.000;   85.000
1107.968;  927.900;  874.000;   84.300
1108.510; 1027.400;  960.000;   88.200
1109.052;  919.800;  841.000;   86.600
1109.594;  824.350;  729.000;   79.400
1110.136;  957.050;  872.000;   81.700
1110.679;  941.700;  864.000;   75.500
1111.221;  907.700;  863.000;   88.500
1111.763;  818.850;  751.000;   87.700
1112.304;  814.650;  755.000;   89.700
1112.846;  993.050;  873.000;   81.900
1113.388; 1415.800; 1351.000;   86.400
1113.930; 1035.250;  950.000;   84.700
1114.472;  903.800;  832.000;   78.900
1115.013;  816.900;  786.000;   78.100
1115.555;  875.250;  817.000;   84.900
1116.097;  858.150;  794.000;   79.200
1116.638; 1016.400;  946.000;   83.700
1117.180; 1001.150;  931.000;   85.500
1117.721;  852.250;  784.000;   78.800
1118.262; 1017.350;  955.000;   77.400
1118.804;  945.550;  890.000;   81.400
1119.345;  864.200;  816.000;   77.800
1119.886; 1049.400;  974.000;   81.200
1120.427;  874.650;  785.000;   77.200
1120.969;  892.650;  830.000;   75.200
1121.510;  837.700;  766.000;   80.900
1122.051; 1078.500; 1013.000;   77.300
1122.592;  983.750;  900.000;   73.300
1123.133;  806.900;  775.000;   90.100
1123.673; 1062.550;  978.000;   75.000
1124.214;  914.600;  842.000;   80.600
1124.755;  951.800;  923.000;   78.000
1125.296;  925.600;  853.000;   77.500
1125.836; 1026.850; 1004.000;   80.400
1126.377;  893.000;  780.000;   75.600
1126.918;  910.050;  824.000;   78.900
1127.458;  936.050;  858.000;   78.000
1127.999;  983.800;  951.000;   76.100
1128.539; 1037.350;  993.000;   81.400
1129.079;  951.650;  855.000;   77.400
1129.620;  829.350;  775.000;   68.000
1130.160;  809.600;  740.000;   77.500
1130.700;  949.650;  888.000;   76.300
1131.240;  958.400;  929.000;   66.800
1131.781;  924.300;  828.000;   70.600
1132.321;  896.250;  854.000;   77.200
1132.861;  829.800;  791.000;   70.400
1133.401;  889.350;  785.000;   68.700
1133.941;  931.600;  865.000;   68.500
1134.481;  898.550;  835.000;   75.900
1135.020;  901.750;  832.000;   66.600
1135.560; 1008.600;  910.000;   68.100
1136.100;  745.200;  695.000;   64.900
1136.640;  758.750;  713.000;   72.500
1137.179;  792.800;  750.000;   69.700
1137.719;  899.200;  823.000;   68.400
1138.258;  875.350;  790.000;   67.000
1138.798;  982.200;  952.000;   69.600
1139.337;  711.450;  655.000;   64.000
1139.877;  962.150;  886.000;   64.500
1140.416; 1311.950; 1232.000;   74.900
1140.955;  790.150;  716.000;   67.200
1141.494; 1001.900;  941.000;   69.900
1142.034;  869.100;  792.000;   59.100
1142.573;  965.550;  894.000;   65.900
1143.112;  825.900;  775.000;   70.600
1143.651;  802.950;  761.000;   67.100
1144.190; 1032.950;  935.000;   56.700
1144.729;  890.350;  871.000;   61.800
1145.267;  869.800;  828.000;   62.500
1145.806;  942.000;  834.000;   68.500
1146.345;  957.700;  869.000;   58.300
1146.884;  936.150;  840.000;   63.100
1147.422;  789.950;  750.000;   54.800
1147.961; 1059.800; 1017.000;   67.600
1148.500; 1002.150;  940.000;   64.700
1149.038;  939.750;  925.000;   61.000
1149.577; 1045.850;  989.000;   65.100
1150.115;  668.450;  634.000;   58.100
1150.653;  901.550;  815.000;   60.500
1151.192;  823.500;  761.000;   56.600
1151.730;  971.150;  905.000;   62.300
1152.268;  876.800;  809.000;   55.500
1152.806;  850.650;  818.000;   58.200
1153.344;  859.000;  782.000;   55.000
1153.882;  895.500;  869.000;   64.200
1154.421;  698.450;  655.000;   60.300
1154.958;  890.850;  775.000;   58.100
1155.496;  964.000;  912.000;   55.800
1156.034; 1077.550;  996.000;   61.000
1156.572;  990.700;  965.000;   56.200
1157.110;  693.800;  656.000;   53.200
1157.647; 1024.500;  960.000;   57.400
1158.185;  842.100;  795.000;   55.500
1158.723;  759.900;  705.000;   58.000
1159.260; 1042.700;  961.000;   53.700
1159.798;  985.450;  913.000;   51.700
1160.335;  941.150;  909.000;   59.600

