
Integration time [ms]:   3.276
Averaging Nr. [scans]: 1000
Smoothing Nr. [pixels]: 0
Data measured with spectrometer [name]: 7414430SP
Wave   ;Sample   ;Dark     ;Reference
[nm]   ;[counts] ;[counts] ;[counts] 

288.544;  150.002;    7.793;  793.890
289.143;  153.541;    7.462;  681.602
289.742;  153.986;    8.602;  828.814
290.341;  139.478;    1.321;  789.841
290.940;  128.846;   -0.709;  730.702
291.538;  129.048;    0.881;  881.108
292.137;  129.835;    0.122;  792.581
292.736;  134.086;   -1.929;  975.101
293.335;  130.896;   -8.229;  735.086
293.934;  131.961;   -5.279;  781.677
294.532;  129.847;   -1.369; 1031.958
295.131;  115.905;   -7.641;  834.394
295.730;  115.503;   -8.420;  809.588
296.328;  114.416;   -5.611;  783.442
296.927;  116.005;   -5.781;  779.652
297.525;  116.377;   -6.361;  781.236
298.124;  106.810;  -11.382;  654.009
298.722;  110.922;   -7.641;  761.933
299.321;  108.600;   -6.811;  708.597
299.919;  106.347;   -6.991;  751.918
300.518;  103.460;  -10.362;  689.338
301.116;  104.879;   -9.581;  691.381
301.715;  104.950;   -4.891;  730.222
302.313;  103.610;   -8.801;  704.943
302.911;   98.937;   -8.522;  733.830
303.509;  104.501;   -6.171;  925.627
304.108;  102.871;   -7.311;  760.383
304.706;  101.642;   -8.321;  801.664
305.304;   96.058;  -10.222;  796.707
305.902;  100.203;   -6.021;  784.484
306.500;   97.080;   -4.971;  728.200
307.098;   95.845;   -7.061;  746.560
307.696;   92.907;   -8.801;  780.432
308.294;   94.052;   -6.411;  731.359
308.892;   96.120;   -2.901;  759.769
309.490;   92.285;   -5.041;  712.161
310.088;   91.026;   -5.002;  788.444
310.686;   94.460;   -2.041;  821.749
311.284;   90.555;   -2.351;  766.040
311.882;   89.042;   -4.422;  731.225
312.480;   84.766;   -4.192;  697.167
313.078;   85.914;   -1.172;  808.331
313.675;   87.353;   -2.601;  691.600
314.273;   82.320;   -1.312;  797.837
314.871;   82.229;   -3.942;  589.829
315.468;   79.306;   -2.802;  652.090
316.066;   82.511;   -0.701;  694.427
316.664;   75.894;   -4.362;  656.351
317.261;   79.699;   -2.872;  910.128
317.859;   74.446;   -2.022;  768.735
318.456;   75.462;   -0.531;  830.096
319.054;   70.811;   -3.912;  787.828
319.651;   69.873;   -4.752;  759.928
320.249;   68.686;   -2.602;  810.188
320.846;   66.820;   -0.821;  714.286
321.443;   64.665;   -4.642;  832.135
322.041;   61.116;   -5.002;  812.315
322.638;   58.592;   -3.982;  701.456
323.235;   60.498;   -3.411;  665.683
323.833;   57.630;   -7.361;  740.354
324.430;   52.893;   -8.611;  615.900
325.027;   53.812;   -4.061;  876.855
325.624;   54.292;   -4.031;  644.532
326.221;   51.292;   -7.481;  689.717
326.818;   50.100;   -5.281;  818.332
327.415;   53.416;   -7.460;  748.828
328.012;   53.249;   -5.510;  690.585
328.609;   51.898;   -7.880;  731.389
329.206;   49.896;   -8.331;  778.621
329.803;   49.735;   -5.121;  737.841
330.400;   53.267;   -4.510;  704.260
330.997;   53.993;   -6.441;  817.147
331.594;   52.662;   -8.831;  788.185
332.191;   57.622;   -7.621;  728.722
332.787;   60.648;   -4.591;  844.463
333.384;   59.311;   -7.412;  763.093
333.981;   57.287;   -8.293;  815.687
334.578;   60.360;   -7.052;  708.378
335.174;   63.720;   -3.102;  731.469
335.771;   62.578;   -5.943;  836.456
336.367;   60.334;   -7.393;  710.631
336.964;   63.329;   -4.063;  793.266
337.561;   61.649;   -3.813;  731.112
338.157;   57.290;   -4.654;  911.916
338.754;   54.899;   -7.934;  796.589
339.350;   53.451;   -4.414;  722.493
339.946;   55.388;   -4.664;  773.135
340.543;   47.005;   -6.375;  846.136
341.139;   41.838;   -9.815;  720.836
341.735;   38.611;   -4.526;  772.593
342.332;   38.138;   -4.895;  691.472
342.928;   37.689;   -4.295;  795.394
343.524;   32.251;   -5.476;  761.684
344.120;   28.197;   -5.856;  738.562
344.716;   32.311;   -2.155;  723.717
345.313;   29.955;   -6.275;  795.342
345.909;   24.685;   -8.815;  627.336
346.505;   26.462;   -5.305;  740.247
347.101;   26.942;   -2.674;  827.864
347.697;   27.406;   -4.344;  785.398
348.293;   21.838;   -9.975;  627.244
348.889;   22.753;   -5.774;  745.914
349.485;   21.961;   -5.004;  688.205
350.081;   22.759;   -4.704;  772.592
350.676;   17.404;   -6.635;  691.606
351.272;   22.375;   -4.504;  809.530
351.868;   21.406;   -3.914;  780.497
352.464;   18.485;   -9.044;  723.932
353.059;   14.805;   -8.314;  646.017
353.655;   19.110;   -7.024;  777.063
354.251;   19.933;   -5.343;  759.845
354.846;   14.114;   -8.604;  740.646
355.442;   11.723;   -6.945;  753.071
356.038;   14.041;   -7.564;  751.708
356.633;   14.766;   -5.814;  728.594
357.229;   11.570;   -7.364;  724.757
357.824;    9.735;   -8.024;  703.600
358.420;    8.816;   -9.384;  679.726
359.015;    9.936;   -5.104;  695.357
359.610;   11.024;   -6.854;  763.920
360.206;    4.842;  -10.185;  603.240
360.801;    7.383;   -7.054;  646.503
361.396;   10.126;   -5.034;  725.975
361.992;    5.593;   -8.284;  668.220
362.587;    2.548;   -8.625;  670.160
363.182;    5.176;   -7.674;  689.631
363.777;    5.954;   -5.164;  738.242
364.372;    5.305;   -8.604;  737.314
364.967;    1.122;   -9.055;  680.744
365.563;    6.098;   -6.114;  815.567
366.158;    3.214;   -5.814;  685.161
366.753;    3.189;   -7.854;  649.263
367.348;    1.151;   -7.804;  746.056
367.942;    0.502;   -7.954;  697.298
368.537;    0.484;   -4.984;  754.245
369.132;    1.120;   -8.564;  703.428
369.727;   -3.436;   -8.855;  638.079
370.322;   -2.226;   -6.245;  580.186
370.917;   -2.614;   -6.425;  710.646
371.511;    0.668;   -6.294;  861.834
372.106;   -3.189;   -7.685;  776.964
372.701;   -6.851;   -7.335;  585.988
373.296;   -0.578;   -4.564;  863.135
373.890;   -5.209;  -10.235;  647.840
374.485;   -7.674;   -7.885;  691.199
375.079;   -4.268;   -7.324;  738.685
375.674;   -2.096;   -3.494;  812.970
376.268;   -6.550;   -8.525;  691.759
376.863;  -11.722;  -10.086;  580.327
377.457;   -7.268;   -7.025;  662.490
378.052;   -7.637;   -3.585;  764.884
378.646;   -8.249;   -7.595;  741.167
379.240;   -9.431;   -8.335;  721.176
379.835;   -9.260;   -5.785;  636.978
380.429;   -9.976;   -4.335;  562.557
381.023;  -10.355;   -6.805;  779.205
381.617;  -12.750;   -9.195;  680.106
382.212;   -9.298;   -6.905;  685.303
382.806;   -8.380;   -3.745;  760.690
383.400;  -11.868;   -7.745;  672.281
383.994;  -13.506;   -9.765;  664.870
384.588;  -10.087;   -6.564;  697.701
385.182;   -8.442;   -5.344;  726.624
385.776;  -10.241;   -8.514;  706.875
386.370;  -13.594;   -9.555;  681.968
386.964;  -12.564;   -8.715;  684.155
387.558;   -9.768;   -6.174;  598.360
388.152;  -13.142;   -8.725;  681.959
388.745;  -11.866;   -7.965;  814.707
389.339;  -10.059;   -5.924;  747.642
389.933;   -9.660;   -5.524;  695.370
390.527;  -10.730;   -7.114;  859.029
391.120;  -16.399;  -10.725;  595.318
391.714;  -14.166;   -8.035;  711.633
392.308;  -10.595;   -3.574;  780.253
392.901;  -13.524;   -7.245;  642.460
393.495;  -16.505;   -9.285;  595.414
394.089;  -14.173;   -5.895;  760.452
394.682;  -13.749;   -4.295;  697.188
395.275;  -15.637;   -9.875;  719.927
395.869;  -16.428;   -8.485;  667.314
396.462;  -15.151;   -7.455;  616.609
397.056;  -11.238;   -5.424;  776.621
397.649;  -15.780;   -6.605;  731.575
398.242;  -13.458;   -8.224;  712.645
398.836;  -12.230;   -7.474;  766.408
399.429;  -13.383;   -7.094;  631.041
400.022;  -17.103;   -9.475;  665.902
400.615;  -14.434;   -7.145;  805.609
401.208;  -13.041;   -7.174;  691.451
401.802;  -15.131;   -5.515;  699.329
402.395;  -15.831;   -9.875;  683.502
402.988;  -16.904;   -8.845;  696.627
403.581;  -13.118;   -8.874;  646.878
404.174;  -11.847;   -5.324;  686.568
404.767;  -14.765;   -9.575;  638.583
405.360;  -16.834;  -10.965;  621.445
405.953;  -11.292;   -8.764;  759.034
406.545;  -10.815;   -7.514;  725.342
407.138;  -14.687;  -10.025;  618.350
407.731;  -13.610;  -10.034;  613.303
408.324;  -10.013;   -9.374;  660.554
408.917;  -10.391;   -6.534;  681.864
409.509;  -12.990;   -8.004;  740.396
410.102;  -14.698;   -9.875;  643.948
410.695;   -9.495;   -8.604;  665.758
411.287;   -9.281;   -6.794;  599.821
411.880;  -11.446;   -9.334;  585.421
412.472;  -13.592;  -10.254;  613.092
413.065;  -11.064;   -6.714;  629.408
413.657;   -8.832;   -7.234;  576.678
414.250;   -8.518;  -10.544;  646.681
414.842;  -11.020;   -9.744;  676.353
415.434;   -8.633;   -6.994;  570.463
416.027;   -4.119;   -5.893;  652.196
416.619;   -6.425;   -7.264;  713.400
417.211;   -7.407;  -10.374;  599.352
417.804;   -3.500;   -7.993;  628.499
418.396;   -6.977;   -7.234;  607.643
418.988;   -5.064;   -9.443;  659.238
419.580;   -9.014;  -10.724;  568.276
420.172;   -6.397;  -10.323;  536.196
420.764;   -2.158;   -8.793;  672.482
421.356;   -3.118;  -11.143;  636.898
421.948;   -4.124;   -8.293;  677.661
422.540;    0.568;   -7.893;  680.027
423.132;   -0.085;   -7.082;  600.641
423.724;   -3.069;   -8.653;  561.267
424.316;   -1.453;  -10.213;  621.345
424.908;    2.045;   -9.762;  591.517
425.500;    3.256;   -5.572;  647.978
426.092;    3.105;   -8.422;  648.268
426.683;    1.917;   -9.283;  684.836
427.275;    5.481;   -7.852;  641.471
427.867;    6.857;   -5.272;  668.948
428.458;    7.677;   -7.682;  732.344
429.050;    5.612;  -10.612;  680.749
429.642;    7.806;   -9.882;  743.124
430.233;    8.564;   -6.962;  569.356
430.825;    9.966;   -6.842;  724.809
431.416;    7.084;   -9.672;  698.241
432.008;   10.836;   -6.552;  651.723
432.599;   11.269;   -6.891;  656.073
433.190;    8.097;  -10.912;  637.670
433.782;    7.822;  -11.172;  590.395
434.373;   14.951;   -6.061;  884.765
434.964;   13.851;   -8.251;  602.920
435.556;   11.608;   -9.722;  634.537
436.147;   14.355;   -9.082;  758.490
436.738;   14.055;   -8.041;  701.099
437.329;   19.782;   -7.341;  721.723
437.920;   12.283;   -8.162;  666.688
438.511;   12.273;  -11.802;  564.526
439.103;   18.412;  -10.191;  623.998
439.694;   21.073;   -7.601;  681.583
440.285;   21.650;   -8.541;  764.432
440.876;   19.054;   -9.751;  845.738
441.466;   18.959;   -9.401;  575.162
442.057;   24.625;   -7.760;  665.814
442.648;   22.871;   -9.971;  746.255
443.239;   20.906;  -11.001;  620.477
443.830;   25.839;   -7.990;  704.958
444.421;   27.720;   -7.910;  655.474
445.011;   24.642;   -8.131;  693.619
445.602;   24.518;   -7.111;  743.126
446.193;   25.604;  -10.920;  488.117
446.783;   31.066;   -6.500;  640.397
447.374;   25.808;   -8.671;  692.759
447.964;   25.990;  -10.781;  713.770
448.555;   34.834;   -9.650;  822.742
449.145;   31.827;   -8.660;  662.853
449.736;   32.817;   -8.990;  803.179
450.326;   32.053;   -9.500;  713.626
450.917;   36.936;   -8.680;  675.324
451.507;   36.650;   -7.520;  600.661
452.097;   37.319;   -8.590;  746.267
452.688;   37.409;  -11.340;  742.160
453.278;   37.329;  -10.100;  566.840
453.868;   42.177;   -6.019;  793.550
454.458;   39.779;   -9.440;  651.141
455.048;   40.293;  -10.560;  711.783
455.639;   42.098;  -11.799;  567.096
456.229;   46.179;   -6.899;  710.694
456.819;   48.380;   -7.389;  751.158
457.409;   47.485;  -11.119;  773.993
457.999;   50.618;   -9.289;  737.505
458.589;   50.196;   -6.139;  686.606
459.179;   49.885;   -8.729;  717.658
459.769;   48.560;   -9.789;  627.099
460.358;   52.428;  -10.259;  797.262
460.948;   52.905;   -7.299;  689.503
461.538;   55.315;  -10.289;  660.677
462.128;   52.489;  -11.269;  664.934
462.717;   59.328;   -9.368;  710.326
463.307;   61.946;   -7.908;  705.846
463.897;   58.119;   -9.599;  656.942
464.486;   57.195;   -9.769;  837.128
465.076;   61.793;   -8.048;  733.776
465.666;   64.780;   -9.358;  652.900
466.255;   63.360;   -7.919;  785.651
466.845;   61.999;  -11.689;  666.749
467.434;   65.474;   -7.818;  725.873
468.023;   66.293;   -7.678;  658.357
468.613;   63.982;  -10.939;  713.946
469.202;   67.759;  -10.118;  646.507
469.791;   72.161;   -9.108;  737.811
470.381;   74.776;   -6.058;  742.813
470.970;   73.789;  -10.428;  711.099
471.559;   73.565;  -10.268;  733.291
472.148;   76.654;   -8.448;  675.737
472.738;   79.437;   -6.917;  765.466
473.327;   78.968;  -11.978;  637.529
473.916;   77.595;  -11.888;  737.446
474.505;   82.415;   -9.437;  751.703
475.094;   85.854;   -6.747;  806.570
475.683;   84.620;   -9.367;  797.699
476.272;   86.260;  -12.637;  730.632
476.861;   88.951;  -10.027;  706.754
477.449;   95.455;   -8.716;  728.487
478.038;   89.235;   -9.577;  692.513
478.627;   91.260;   -9.718;  714.852
479.216;   97.320;   -8.947;  769.441
479.805;  100.759;   -6.256;  783.375
480.393;  100.026;   -7.937; 1008.945
480.982;   98.999;   -7.717;  874.501
481.571;  105.342;   -9.266;  858.333
482.159;  106.670;   -7.636;  705.386
482.748;  105.519;   -9.667;  821.385
483.336;  110.234;  -10.376;  858.209
483.925;  111.289;   -7.147;  774.373
484.513;  117.800;   -7.996;  758.962
485.102;  114.087;  -10.027;  810.965
485.690;  122.754;  -10.446; 1011.050
486.278;  125.008;   -8.446;  979.329
486.867;  124.813;   -6.356;  809.662
487.455;  127.771;   -9.136;  898.229
488.043;  128.058;  -10.646;  748.361
488.631;  137.524;   -7.456; 1005.079
489.220;  141.222;   -6.636;  908.626
489.808;  140.544;  -11.036;  741.415
490.396;  148.919;  -10.246;  914.645
490.984;  154.546;   -8.556;  830.161
491.572;  164.334;   -5.886;  940.315
492.160;  170.187;   -9.486;  919.081
492.748;  181.876;  -10.976;  884.341
493.336;  203.853;   -8.776; 1019.693
493.924;  230.802;   -5.465;  958.077
494.512;  256.858;   -9.986; 1066.638
495.100;  293.922;  -10.636; 1103.280
495.687;  349.759;  -10.885; 1206.373
496.275;  411.847;   -8.126; 1150.796
496.863;  479.368;  -10.586; 1281.171
497.451;  580.235;  -11.926; 1386.805
498.038;  708.851;  -10.885; 1556.729
498.626;  813.793;   -6.315; 1741.407
499.214;  951.135;   -7.326; 2016.609
499.801; 1151.308;  -11.906; 2220.633
500.389; 1390.721;  -10.466; 2312.494
500.976; 1705.750;   -5.236; 2744.849
501.564; 2129.400;   -8.936; 3148.565
502.151; 2510.159;  -13.176; 3515.999
502.738; 2960.562;  -10.646; 3971.274
503.326; 3330.744;   -9.525; 4403.796
503.913; 3696.432;  -10.856; 5161.749
504.500; 4046.312;  -11.586; 5986.420
505.088; 4436.133;  -10.336; 6381.201
505.675; 4963.092;   -6.355; 6925.547
506.262; 5675.215;   -9.046; 7619.060
506.849; 6351.787;  -10.416; 8733.969
507.436; 6811.205;  -10.305; 9790.121
508.023; 7385.042;   -5.496; 9985.472
508.610; 7627.364;   -7.856;10434.618
509.197; 8262.153;  -10.097;11198.435
509.784; 9638.580;  -10.886;12391.194
510.371;10627.150;   -9.315;13603.713
510.958;11281.334;   -9.936;14426.586
511.545;12054.612;   -9.326;15243.775
512.132;13006.007;  -10.075;15945.876
512.719;13675.660;   -7.796;16340.369
513.305;14548.948;  -10.606;18011.766
513.892;15257.130;  -11.486;19754.971
514.479;16562.141;   -9.126;20967.805
515.066;17892.076;   -6.026;22299.793
515.652;19046.094;   -8.466;22908.660
516.239;20450.924;  -10.886;23798.875
516.825;21641.822;  -11.496;25567.275
517.412;22777.311;   -5.796;28154.959
517.998;23306.053;  -10.506;28344.111
518.585;23250.584;  -10.076;27134.219
519.171;23779.832;   -8.315;27268.576
519.758;25177.211;   -8.596;28964.129
520.344;26758.820;   -8.466;30664.494
520.930;26816.363;  -11.006;32550.605
521.516;28617.811;  -10.495;35422.895
522.103;30989.260;   -5.526;38280.004
522.689;31626.883;   -8.746;37835.117
523.275;30791.252;  -11.376;37288.613
523.861;31479.461;  -11.156;37281.395
524.447;32681.775;   -8.135;37846.949
525.033;32393.709;   -7.896;38321.949
525.619;32469.313;  -12.476;38579.285
526.205;34124.582;   -9.516;40622.875
526.791;36130.066;   -6.926;42258.836
527.377;36027.176;   -8.346;42966.902
527.963;37223.402;   -8.717;42018.949
528.549;34603.934;  -11.016;42476.828
529.135;31367.643;   -8.536;41854.852
529.721;29370.096;   -9.666;41237.711
530.306;30239.461;  -10.066;41259.445
530.892;32892.957;  -11.356;41506.047
531.478;35976.625;   -6.596;43559.613
532.063;39225.934;   -8.836;47695.563
532.649;39301.406;  -10.047;50808.324
533.235;40281.711;   -9.746;51787.500
533.820;41083.668;   -6.566;52145.035
534.406;42054.281;  -10.817;51133.488
534.991;41351.918;   -9.416;49996.805
535.576;39116.695;   -9.036;48882.852
536.162;37739.828;   -6.156;46942.285
536.747;35908.766;  -11.607;45711.746
537.333;36351.746;  -11.787;48510.180
537.918;37963.039;  -12.437;50439.891
538.503;40239.938;   -7.196;50863.711
539.088;42429.242;  -10.556;50906.922
539.673;45529.406;   -8.767;52621.965
540.259;46334.387;  -10.026;52368.094
540.844;43742.184;   -7.416;50879.109
541.429;44840.863;   -9.467;52077.777
542.014;47942.340;   -9.527;52716.695
542.599;47217.492;   -9.946;52363.281
543.184;45071.379;   -7.927;53187.137
543.769;46805.426;   -9.297;54697.605
544.354;45737.199;  -10.127;53913.914
544.938;44369.160;   -9.267;49680.164
545.523;46175.367;   -6.506;47386.277
546.108;48390.117;   -9.787;49151.949
546.693;50614.000;  -11.587;51384.637
547.278;50529.934;  -10.986;51853.254
547.862;47405.211;   -8.206;51173.750
548.447;42796.234;  -10.067;51691.395
549.031;42421.988;   -9.637;52456.703
549.616;47390.488;   -9.926;52714.516
550.201;46201.598;   -6.347;52414.598
550.785;47314.684;   -7.917;52355.059
551.370;46597.160;  -10.867;54589.453
551.954;46780.918;   -9.047;58267.348
552.538;47556.172;   -7.827;59062.176
553.123;46007.508;  -10.287;58115.285
553.707;44102.332;  -12.178;56556.285
554.291;45097.738;   -8.717;56201.668
554.876;46910.500;   -7.457;55335.762
555.460;47423.566;  -10.387;54155.703
556.044;48753.121;   -9.618;53721.484
556.628;47233.074;  -11.567;53731.016
557.212;45826.285;   -8.097;54312.531
557.796;44382.160;  -11.077;53797.773
558.380;43975.488;  -11.108;56145.984
558.964;44148.477;   -9.057;57277.930
559.548;45082.887;   -6.977;56459.641
560.132;43826.039;  -11.457;54434.543
560.716;42835.293;  -11.378;54800.617
561.300;44098.633;   -9.577;57606.945
561.884;45086.332;   -7.127;58972.445
562.467;43763.316;   -7.118;57327.570
563.051;42874.602;  -13.358;54962.434
563.635;43534.367;  -10.178;52594.473
564.219;43958.590;   -7.837;50610.410
564.802;44897.090;  -11.398;49551.180
565.386;45153.371;  -12.788;48370.953
565.969;44646.738;   -9.077;48178.871
566.553;44278.496;   -6.207;49957.305
567.136;44253.965;   -8.568;50369.594
567.720;40202.773;  -11.868;49492.004
568.303;38228.676;   -8.268;50616.352
568.887;38444.711;   -8.698;50727.148
569.470;38582.855;   -6.808;51698.379
570.053;37163.117;  -13.188;52122.078
570.637;35722.852;  -12.037;52536.438
571.220;35403.973;   -8.577;51186.098
571.803;35760.859;   -8.498;51032.762
572.386;38399.598;  -10.498;49609.887
572.969;40788.754;   -9.388;48285.926
573.552;38561.484;   -8.338;47624.285
574.135;37316.777;   -8.518;45498.641
574.718;34895.012;  -13.628;41970.434
575.301;33668.426;  -10.893;41447.137
575.884;32441.840;   -8.158;40923.836
576.467;33867.844;  -10.328;45267.723
577.050;36498.090;  -13.058;48175.543
577.633;37856.930;   -9.458;47729.328
578.216;36470.770;   -8.928;47579.793
578.799;35548.090;   -9.358;47820.996
579.381;34302.387;  -11.388;48115.551
579.964;32985.148;  -11.718;47333.766
580.547;34654.496;   -8.588;46668.969
581.129;35732.805;   -8.859;44466.141
581.712;36143.402;  -10.729;44164.922
582.294;36816.570;  -11.118;46477.855
582.877;36747.469;   -5.218;48244.254
583.459;34141.594;   -8.679;47437.895
584.042;32496.498;  -10.709;46943.219
584.624;33508.375;  -11.669;46792.227
585.206;32882.941;   -8.218;46557.250
585.789;33091.336;  -10.569;45793.773
586.371;35822.328;  -11.859;43836.391
586.953;36030.172;  -10.719;42972.492
587.536;37298.594;   -7.198;42487.211
588.118;36826.949;   -8.720;42086.414
588.700;33822.641;  -10.439;43389.930
589.282;33156.375;   -9.198;43646.039
589.864;33866.512;   -9.199;43438.109
590.446;34550.781;  -11.319;43151.926
591.028;34286.031;  -11.159;42781.867
591.610;33409.008;  -11.779;42839.098
592.192;31190.902;   -7.668;42820.402
592.774;29862.021;  -11.949;40724.277
593.356;28623.730;  -12.129;39874.789
593.937;27666.734;  -10.669;39980.648
594.519;29896.469;   -6.509;42069.633
595.101;32004.965;  -10.849;42976.031
595.683;31978.086;  -11.679;44084.441
596.264;33187.031;   -9.049;43478.797
596.846;32346.309;   -8.849;43803.672
597.427;32021.586;   -9.570;42986.934
598.009;33685.258;  -12.620;42832.219
598.591;33938.230;  -10.039;42580.086
599.172;32827.172;  -10.369;43061.805
599.753;32935.859;   -9.140;41691.469
600.335;34521.559;  -11.430;40692.520
600.916;33008.664;   -9.939;39982.422
601.498;30592.477;   -8.479;40318.617
602.079;29156.338;  -10.920;40670.609
602.660;29362.477;  -11.480;41450.898
603.241;30858.121;  -11.699;41137.738
603.823;29697.160;   -9.579;38868.797
604.404;29793.000;  -10.620;38182.785
604.985;31043.549;  -10.450;38078.047
605.566;30396.662;   -9.129;38056.633
606.147;30570.840;   -7.510;37020.418
606.728;32363.330;  -10.660;37883.359
607.309;31123.875;  -11.740;38748.273
607.890;30492.908;   -9.759;38850.230
608.471;30008.387;   -8.250;37457.918
609.051;29024.426;   -9.240;36066.457
609.632;28041.873;  -12.120;35991.074
610.213;29043.072;   -9.110;37402.641
610.794;29549.035;   -8.030;38383.363
611.374;28888.904;   -8.110;40562.387
611.955;29192.350;  -13.560;38533.727
612.536;30445.059;  -11.400;36951.789
613.116;30647.854;   -8.070;37197.891
613.697;30866.836;  -10.830;38411.125
614.277;29594.621;  -11.641;38673.938
614.858;30516.711;  -13.310;37075.863
615.438;29453.895;   -7.460;35092.906
616.019;26584.088;   -7.601;33666.301
616.599;27424.672;  -12.020;34189.023
617.179;29221.385;  -11.780;36952.047
617.760;30034.570;   -8.570;39582.574
618.340;31156.268;  -11.471;38943.977
618.920;32487.191;  -11.170;37594.156
619.500;32320.529;  -11.071;37866.938
620.080;31662.705;   -7.750;37869.043
620.660;32859.250;  -12.711;36868.617
621.241;34232.793;  -10.211;36352.309
621.821;34326.266;  -10.961;35459.520
622.401;33256.926;   -7.720;35207.414
622.980;32508.869;   -8.981;35980.422
623.560;31124.799;   -9.331;37351.328
624.140;30104.020;   -9.850;34388.582
624.720;24770.623;   -7.451;32368.764
625.300;21247.426;   -9.070;32638.629
625.880;24675.275;  -12.601;34599.035
626.459;28733.875;  -11.751;36831.738
627.039;31919.682;   -9.281;38299.098
627.619;31870.873;   -8.801;38289.574
628.198;30170.035;  -12.071;37220.695
628.778;29291.281;   -9.461;37632.563
629.357;30081.732;   -8.491;38003.012
629.937;30163.865;   -9.721;38402.039
630.516;29446.742;   -9.951;37868.801
631.096;28972.139;  -11.731;35760.410
631.675;32226.369;   -8.572;35225.219
632.254;37202.406;  -11.282;35130.289
632.834;36545.309;  -13.322;35794.570
633.413;34459.719;  -10.301;35788.922
633.992;31326.563;   -8.582;34532.863
634.571;32226.545;   -8.352;33590.113
635.151;35072.891;  -11.912;34943.863
635.730;33496.500;  -10.511;35352.523
636.309;30342.127;   -7.731;35366.605
636.888;28199.363;   -9.952;36165.637
637.467;29340.057;  -11.672;37515.902
638.046;30962.523;   -8.901;39288.695
638.625;34029.758;   -7.912;38279.699
639.204;33616.324;  -10.022;37741.598
639.782;32005.082;  -12.252;38364.551
640.361;28143.393;  -10.041;36740.621
640.940;25286.271;  -11.161;34950.082
641.519;25880.697;   -9.701;34137.398
642.097;29031.770;  -11.271;35654.258
642.676;31901.467;   -8.651;35637.957
643.255;32149.227;   -8.711;36567.074
643.833;31185.922;   -9.581;37809.434
644.412;31428.074;  -13.711;37337.293
644.990;30853.695;  -11.811;37018.531
645.569;31228.900;   -9.411;36518.469
646.147;29833.078;  -10.291;36186.430
646.726;28991.922;  -12.401;36267.688
647.304;29962.559;  -10.411;36647.625
647.882;32154.891;   -9.651;39286.742
648.461;34016.340;   -9.631;39157.703
649.039;32073.873;  -11.881;35412.883
649.617;31492.408;   -9.661;34744.918
650.195;31224.809;   -9.301;35403.098
650.773;29630.607;  -10.511;35053.797
651.352;27357.662;  -11.521;33756.816
651.930;25116.414;  -12.211;31868.773
652.508;23543.561;   -9.171;33121.551
653.086;27452.211;   -9.371;33564.793
653.663;30010.848;  -13.161;34054.668
654.241;29196.934;  -13.031;35693.309
654.819;31002.070;   -9.371;36422.906
655.397;31091.523;  -10.511;38213.484
655.975;30928.754;  -10.371;39507.625
656.553;30488.551;  -10.051;39498.223
657.130;28863.658;  -10.061;40395.480
657.708;28414.348;   -9.561;39242.020
658.286;28413.221;  -11.511;38920.020
658.863;29493.406;  -10.261;40202.898
659.441;32489.656;   -7.531;39677.938
660.018;31836.885;   -9.501;40413.355
660.596;30839.508;  -13.301;39931.414
661.173;32987.605;  -11.211;39604.531
661.750;33153.047;   -9.951;39700.070
662.328;32069.313;   -9.390;39292.809
662.905;30997.879;  -11.330;38235.648
663.482;26371.736;   -9.050;36212.305
664.060;24544.654;   -8.240;35944.945
664.637;27431.098;  -10.050;35170.785
665.214;29321.330;  -11.760;34197.523
665.791;30520.268;  -10.530;34549.520
666.368;29292.879;   -9.690;35118.578
666.945;30428.209;   -9.320;36019.418
667.522;31955.156;  -11.860;36048.438
668.099;31768.930;  -10.770;36243.914
668.676;30722.850;   -6.260;35958.875
669.253;29329.623;   -7.000;37384.730
669.830;30046.877;  -10.190;36779.629
670.407;29721.559;   -9.550;35231.289
670.984;29975.268;   -9.260;35544.270
671.560;30293.248;   -9.280;35466.867
672.137;29135.545;  -11.810;34280.863
672.714;29904.557;  -11.490;34632.863
673.290;30360.938;   -7.740;35135.422
673.867;30727.477;  -10.660;36114.480
674.443;30380.963;  -12.230;36152.859
675.020;28817.979;  -10.450;35327.238
675.596;30060.840;   -9.260;35795.176
676.173;30489.926;  -10.780;35430.355
676.749;30388.535;  -13.690;33549.516
677.326;30470.648;  -11.980;32210.012
677.902;30399.264;   -8.630;32068.871
678.478;29593.771;  -10.730;32583.891
679.054;29198.309;  -10.520;32088.928
679.631;29398.904;  -11.920;30978.848
680.207;30950.154;   -7.490;33160.887
680.783;32649.875;   -9.860;35570.363
681.359;31773.752;  -13.380;36125.184
681.935;31037.441;  -12.480;35240.922
682.511;29860.063;   -7.900;34429.961
683.087;29958.154;   -7.710;34463.680
683.663;29776.621;  -11.480;34648.898
684.239;28465.969;  -14.090;34546.457
684.815;28187.771;   -7.560;35586.375
685.390;28594.055;   -9.910;35821.895
685.966;29054.686;  -11.159;35085.871
686.542;31652.023;  -11.169;34198.230
687.118;33515.734;   -5.959;32847.707
687.693;33472.387;  -10.329;32794.027
688.269;33230.066;  -12.059;33072.367
688.844;31393.740;  -10.909;33141.664
689.420;29096.422;   -8.019;33965.742
689.995;26663.146;   -8.399;34655.523
690.571;25398.221;  -10.949;33576.742
691.146;26051.895;   -9.619;32657.219
691.722;25490.740;   -8.999;32526.979
692.297;25825.525;  -11.589;33014.617
692.872;27823.951;  -11.739;34012.254
693.448;27105.373;  -11.059;34237.434
694.023;26303.338;  -10.139;34142.672
694.598;28374.846;   -9.029;34132.031
695.173;28526.176;  -13.319;34205.250
695.748;27839.842;  -10.169;32882.488
696.323;27810.850;   -8.339;32864.906
696.898;28089.455;   -8.169;33170.004
697.473;27785.156;  -12.309;32432.984
698.048;27244.410;  -10.989;31649.303
698.623;27495.793;   -9.329;30778.141
699.198;29634.205;   -9.849;31140.119
699.773;30245.371;  -12.329;31764.299
700.348;28480.289;  -10.389;31780.816
700.922;28449.830;   -9.269;32046.375
701.497;29004.521;   -9.329;32603.574
702.072;29048.146;  -10.789;34799.871
702.646;27932.752;  -10.839;35793.172
703.221;26349.861;   -9.099;35201.590
703.795;28377.160;  -10.939;34764.527
704.370;28532.271;  -12.859;34307.367
704.944;29017.654;  -11.559;33509.887
705.519;29981.895;   -7.939;31388.584
706.093;31600.822;  -10.499;31340.104
706.668;31713.471;  -11.289;32630.281
707.242;30645.576;  -11.509;32728.779
707.816;29086.814;   -9.639;32947.238
708.390;27501.455;  -11.429;33277.855
708.965;28249.684;  -11.869;33834.336
709.539;28739.096;  -11.689;33709.273
710.113;29301.850;  -10.478;33044.313
710.687;28335.086;  -10.228;31953.992
711.261;26483.119;  -13.698;30505.949
711.835;26471.551;  -13.378;30262.369
712.409;27495.480;   -9.698;31254.447
712.983;29195.600;  -11.898;32754.986
713.557;29938.689;  -15.138;34018.824
714.131;29519.758;  -14.098;34579.625
714.704;28565.730;   -9.958;33890.262
715.278;26421.654;  -10.028;33531.102
715.852;25671.529;  -11.148;33601.660
716.425;26664.461;   -9.068;33515.117
716.999;27253.467;  -10.038;33185.555
717.573;28218.488;   -9.798;33905.996
718.146;29297.684;  -12.378;35199.293
718.720;29011.141;  -11.918;35060.551
719.293;28413.078;   -8.088;34973.230
719.867;31311.746;  -10.888;36394.449
720.440;30737.408;  -11.938;36663.008
721.013;28963.674;  -12.818;35102.426
721.587;27751.793;  -10.298;33985.266
722.160;27054.250;  -10.048;33524.965
722.733;26099.018;  -12.108;32987.043
723.306;26448.879;  -10.818;33066.301
723.880;28694.170;   -8.908;33399.500
724.453;30041.838;   -9.878;33468.297
725.026;28893.482;  -11.188;33816.637
725.599;26727.850;  -11.678;32797.996
726.172;27758.113;   -9.618;33187.434
726.745;28937.918;   -8.258;35136.613
727.318;30161.967;  -12.978;35751.730
727.891;30071.361;  -12.148;35890.430
728.463;29478.672;   -8.968;34822.090
729.036;28609.777;  -10.188;32895.086
729.609;29072.336;  -11.788;31823.225
730.182;26127.246;  -11.788;31445.283
730.754;23682.979;  -10.268;32373.223
731.327;23678.207;   -9.998;33676.820
731.900;24173.418;  -12.228;33417.000
732.472;25742.752;  -13.848;31978.498
733.045;27561.652;   -8.698;30368.777
733.617;27676.297;  -10.607;30574.215
734.190;27032.055;  -11.507;31280.975
734.762;23865.102;  -13.647;31674.412
735.334;22400.793;   -9.767;31247.291
735.907;23214.400;   -9.897;29876.211
736.479;23131.230;  -11.637;29808.488
737.051;22700.930;   -9.567;30233.547
737.623;23680.072;   -8.187;31469.086
738.195;24843.570;  -11.187;31784.225
738.768;27056.086;  -12.337;32120.523
739.340;26741.678;  -12.227;32094.342
739.912;25206.600;  -11.057;31312.680
740.484;23820.254;  -10.207;31946.238
741.056;23020.326;  -10.047;32984.059
741.628;24922.752;  -13.627;33897.715
742.199;27123.633;   -7.177;33213.016
742.771;25402.867;  -10.797;31369.113
743.343;23038.326;  -11.997;31865.473
743.915;22097.133;  -12.867;32388.631
744.487;22299.301;   -7.617;31079.568
745.058;22439.617;   -9.557;30570.107
745.630;22871.822;   -9.877;29970.127
746.201;23348.117;  -14.177;29186.766
746.773;23334.541;   -9.237;28805.723
747.344;23172.666;   -9.847;29591.223
747.916;22085.471;  -11.657;31412.201
748.487;22601.834;  -10.587;32194.898
749.059;23827.525;   -8.707;32533.719
749.630;24550.805;  -10.537;32158.518
750.201;23753.484;  -11.687;30855.395
750.773;22029.748;  -11.647;28622.555
751.344;22102.096;   -7.147;28405.732
751.915;23266.887;   -9.757;28461.551
752.486;22745.436;  -12.427;27842.850
753.057;20486.766;  -12.227;27845.008
753.628;19470.588;  -10.417;27728.107
754.199;20750.289;  -11.767;27381.086
754.770;21722.619;  -11.187;25882.203
755.341;21679.184;  -10.507;25886.184
755.912;21490.906;   -9.387;26050.861
756.483;20854.648;  -10.647;26798.779
757.054;19051.539;  -11.837;27048.238
757.625;17863.523;  -12.716;26294.838
758.195;17793.408;   -9.666;26142.076
758.766;17562.178;   -8.656;26392.234
759.337;18403.068;  -12.856;26334.594
759.907;20278.285;  -13.366;27579.652
760.478;21106.266;   -8.576;28352.770
761.048;20304.063;  -10.526;27325.088
761.619;19476.289;  -11.116;26460.428
762.189;19629.297;  -12.136;26029.826
762.760;20914.514;   -9.456;26430.145
763.330;21833.748;   -7.136;26670.902
763.900;21035.672;  -11.786;26603.021
764.471;18379.156;  -11.546;25542.740
765.041;17171.234;   -8.096;24358.459
765.611;17302.180;   -8.876;23991.297
766.181;17749.301;  -12.196;24470.236
766.751;18683.783;  -11.636;24845.975
767.321;18352.830;  -10.156;24533.633
767.891;16311.745;  -11.766;24916.492
768.461;15861.846;  -14.936;24776.771
769.031;16491.668;  -12.356;24757.988
769.601;17956.854;   -7.526;24181.088
770.171;17646.033;  -10.766;23670.387
770.741;17044.822;  -13.176;22960.045
771.311;17383.877;  -10.616;22917.523
771.880;17585.412;   -9.576;23562.941
772.450;17266.254;  -10.336;24216.500
773.020;17492.328;  -13.516;24140.398
773.589;16968.260;  -13.466;24414.857
774.159;16351.504;   -8.686;23858.717
774.729;15880.141;   -9.476;22942.135
775.298;15279.656;  -13.666;22324.033
775.867;14900.650;  -11.716;21140.313
776.437;14923.028;   -9.906;20838.092
777.006;14651.516;  -12.166;20599.510
777.576;14592.120;  -12.356;20508.809
778.145;14832.228;  -11.646;20732.947
778.714;14669.974;   -8.226;21062.465
779.283;13852.528;   -9.556;20949.664
779.853;13444.514;  -14.116;20508.623
780.422;13930.319;  -11.506;20649.082
780.991;13532.664;   -9.556;21527.520
781.560;12409.783;   -9.095;22632.658
782.129;12257.115;  -12.135;23048.277
782.698;12266.532;  -10.865;23438.555
783.267;11848.486;   -9.335;23267.734
783.836;11873.468;  -11.045;22415.133
784.404;12972.082;  -13.865;20443.152
784.973;13483.539;  -13.095;19699.150
785.542;13395.171;  -11.575;19763.828
786.111;13229.863;   -9.705;20341.408
786.679;12634.296;  -12.105;20207.967
787.248;12408.349;  -12.455;19516.465
787.817;12245.646;  -11.535;18900.363
788.385;11820.061;   -9.765;17879.121
788.954;11198.796;  -14.005;17658.301
789.522;10698.248;  -11.955;17788.879
790.090;11285.528;  -10.135;18118.277
790.659;11627.852;  -10.975;18338.736
791.227;11118.165;  -13.375;18508.615
791.795;11597.908;  -12.375;17898.254
792.364;11904.734;  -10.725;17295.133
792.932;12127.012;   -9.715;16822.051
793.500;12324.827;  -12.675;17040.148
794.068;12606.393;  -13.495;17179.787
794.636;12705.208;  -10.885;16664.246
795.204;12230.511;  -11.045;16524.545
795.772;12327.298;  -13.175;17274.564
796.340;11846.392;  -12.445;17891.002
796.908;11681.035;   -9.735;17648.561
797.476;11516.965;   -9.815;17064.080
798.044;11039.431;  -13.985;16672.777
798.612;10220.040;  -13.115;17023.996
799.180; 9842.837;  -10.185;16561.615
799.747; 9775.790;   -9.055;15962.773
800.315; 9519.057;  -12.385;15296.992
800.883; 9125.503;  -15.035;14801.771
801.450; 9066.123;  -10.365;14534.430
802.018; 9130.311;   -9.855;14173.248
802.585; 9317.433;  -11.905;14029.547
803.153; 9412.823;  -11.585;13836.846
803.720; 9223.931;   -9.095;13567.324
804.287; 8751.402;   -9.135;13360.622
804.855; 8351.845;  -11.604;13681.981
805.422; 8222.983;  -11.794;13536.560
805.989; 8209.619;  -10.734;13355.958
806.556; 8439.693;  -10.444;13747.896
807.124; 8720.315;  -12.764;13987.376
807.691; 8685.664;  -12.964;14038.674
808.258; 8439.731;  -11.134;14120.152
808.825; 8058.350;   -9.854;13860.111
809.392; 8085.622;  -10.504;13268.790
809.959; 7622.721;  -13.054;12680.389
810.526; 7250.161;   -8.294;12427.308
811.093; 7329.884;   -8.394;12030.105
811.659; 7885.607;  -12.304;11653.664
812.226; 8307.598;  -13.944;11637.183
812.793; 7942.951;  -10.484;11611.521
813.360; 7308.856;  -10.144;11885.181
813.926; 7045.039;  -11.684;12770.539
814.493; 6854.478;  -13.644;12677.638
815.060; 6496.557;   -9.724;11974.336
815.626; 6547.057;   -9.854;11594.715
816.193; 6959.235;  -13.254;11579.474
816.759; 6986.967;  -13.204;11666.972
817.325; 7080.751;   -9.434;11325.530
817.892; 7460.358;  -10.134;11105.369
818.458; 7882.036;  -13.474;10843.928
819.024; 7436.477;  -11.854;10714.406
819.591; 7072.491;  -10.244;10469.165
820.157; 6872.112;  -10.704;10235.523
820.723; 6410.509;  -12.324;10847.563
821.289; 6103.329;   -9.444;11040.980
821.855; 5963.634;   -8.374;10357.100
822.421; 5861.383;  -10.234; 9978.918
822.987; 5824.931;  -13.294; 9754.177
823.553; 5571.220;  -10.884;10065.755
824.119; 5437.763;   -8.884;10036.294
824.685; 5501.212;   -6.784;10029.192
825.251; 5556.479;  -12.004;10199.230
825.816; 5516.819;  -11.474; 9820.189
826.382; 5312.881;   -9.174; 9297.248
826.948; 5566.673;   -9.214; 9381.347
827.513; 5925.688;  -10.774; 9450.726
828.079; 5697.516;  -11.924; 9472.444
828.645; 5168.296;  -10.543; 9292.643
829.210; 5155.451;  -10.533; 9065.341
829.776; 5145.733;  -10.753; 9132.620
830.341; 5009.224;  -10.173; 9092.878
830.906; 5193.667;  -10.743; 9078.557
831.472; 5489.915;  -11.113; 8534.535
832.037; 5150.431;  -10.603; 8677.874
832.602; 4586.671;  -13.323; 8628.692
833.167; 4358.357;  -10.823; 8879.031
833.733; 4307.122;  -10.113; 9189.790
834.298; 4416.942;  -13.583; 9052.608
834.863; 4449.506;  -12.703; 8895.087
835.428; 4429.886;  -10.523; 8824.266
835.993; 4336.583;   -6.963; 8845.385
836.558; 4228.868;  -10.763; 8888.563
837.123; 4387.434;   -9.903; 8966.582
837.688; 4602.588;   -9.913; 8617.860
838.253; 4795.083;  -10.283; 8590.699
838.817; 4982.416;  -12.963; 8443.797
839.382; 4880.456;  -14.243; 8799.356
839.947; 4564.098;  -10.733; 8810.595
840.511; 4253.396;   -9.383; 8796.394
841.076; 3888.667;  -12.563; 8347.231
841.641; 3975.104;  -12.953; 8224.330
842.205; 4081.744;   -7.043; 8223.349
842.770; 4227.490;   -8.163; 8622.107
843.334; 4425.225;  -12.503; 8410.386
843.898; 4396.564;  -11.693; 8337.465
844.463; 4425.601;  -10.203; 8506.283
845.027; 4184.377;   -9.533; 8280.962
845.591; 4009.993;  -13.443; 8231.141
846.156; 3953.016;  -13.143; 7969.179
846.720; 3813.824;   -9.433; 7768.278
847.284; 3672.694;  -11.033; 7630.957
847.848; 3533.698;  -10.403; 7472.395
848.412; 3428.890;  -11.553; 7437.394
848.976; 3465.089;   -8.393; 7674.592
849.540; 3430.193;   -8.713; 7836.011
850.104; 3586.990;  -12.463; 7913.669
850.668; 3936.524;  -12.973; 7694.508
851.232; 4005.178;  -10.793; 7756.887
851.796; 3833.160;  -10.662; 7926.545
852.359; 3540.861;  -13.082; 7827.844
852.923; 3388.056;  -12.192; 7641.163
853.487; 3209.694;  -11.912; 7342.501
854.050; 3149.001;  -10.892; 7042.820
854.614; 3267.713;  -13.992; 7151.338
855.177; 3386.440;  -11.732; 7105.077
855.741; 3425.809;   -8.962; 6989.675
856.304; 3329.336;   -9.442; 6596.634
856.868; 3279.239;  -14.192; 6356.272
857.431; 3401.015;  -12.702; 6468.571
857.995; 3542.450;   -9.942; 6373.210
858.558; 3544.830;   -9.112; 6324.448
859.121; 3263.213;  -12.932; 6408.327
859.684; 3145.605;  -13.442; 6347.886
860.247; 3241.425;  -10.632; 6321.264
860.810; 3210.804;  -11.272; 6301.903
861.374; 2949.529;   -9.832; 6607.881
861.937; 2702.729;  -11.762; 6408.200
862.500; 2713.765;   -9.722; 6572.639
863.062; 2910.480;  -10.512; 6387.297
863.625; 3076.289;  -11.232; 6190.836
864.188; 3234.687;  -14.112; 5807.254
864.751; 3296.871;  -11.302; 5682.413
865.314; 3180.450;  -10.112; 5547.492
865.876; 2985.353;  -12.182; 5500.150
866.439; 2992.104;  -10.722; 5415.909
867.002; 2928.876;   -9.252; 5501.567
867.564; 2702.059;   -9.572; 5413.946
868.127; 2464.996;  -13.142; 5160.325
868.689; 2357.691;  -12.902; 5133.183
869.252; 2254.359;   -9.732; 5252.382
869.814; 2159.240;   -9.432; 5297.141
870.377; 2186.562;  -11.552; 5390.919
870.939; 2270.106;   -9.052; 5599.898
871.501; 2326.459;  -10.982; 5248.336
872.063; 2325.973;  -12.292; 4854.235
872.626; 2291.699;  -14.912; 4817.074
873.188; 2329.698;  -13.112; 4987.732
873.750; 2293.154;  -13.442; 4868.651
874.312; 2197.658;   -9.402; 4779.330
874.874; 2099.447;  -11.062; 4866.348
875.436; 2006.438;  -13.931; 4718.887
875.998; 1992.115;   -9.561; 4660.005
876.560; 2012.148;  -11.321; 4462.964
877.122; 1957.070;  -12.221; 4145.042
877.683; 1879.477;  -12.191; 4056.481
878.245; 1822.520;  -12.101; 3950.740
878.807; 1876.088;   -8.971; 4058.958
879.369; 1900.822;  -12.071; 3954.677
879.930; 1794.539;  -14.621; 3941.495
880.492; 1728.961;  -10.311; 4067.014
881.053; 1679.314;  -10.901; 3859.633
881.615; 1565.268;  -14.411; 3776.071
882.176; 1506.566;  -13.761; 3734.750
882.738; 1541.074;   -9.181; 3678.489
883.299; 1601.047;  -11.791; 3405.407
883.860; 1634.172;  -13.121; 3351.106
884.422; 1514.886;  -11.211; 3394.044
884.983; 1198.261;  -10.091; 3166.443
885.544;  861.869;   -8.461; 3189.802
886.105;  673.425;  -12.361; 3160.360
886.666;  629.789;  -14.141; 3093.059
887.227;  643.239;  -11.361; 2941.957
887.788;  653.168;  -11.401; 2974.836
888.349;  657.552;  -13.791; 2721.214
888.910;  693.518;  -13.191; 2696.493
889.471;  727.932;   -9.881; 2560.172
890.032;  730.010;   -9.881; 2558.190
890.593;  724.290;  -10.371; 2567.669
891.153;  713.382;  -13.301; 2460.307
891.714;  678.932;  -11.431; 2372.046
892.275;  648.288;  -11.291; 2309.505
892.835;  614.144;  -11.471; 2382.543
893.396;  568.515;  -11.541; 2295.502
893.956;  521.086;  -11.181; 2162.420
894.517;  492.225;  -11.741; 2125.439
895.077;  492.048;  -11.671; 2086.978
895.638;  493.818;  -11.311; 2126.316
896.198;  467.982;   -9.831; 1838.275
896.758;  429.875;   -8.421; 1892.813
897.319;  402.043;  -12.351; 1792.232
897.879;  387.163;  -13.511; 1762.751
898.439;  362.822;  -12.001; 1661.149
898.999;  340.838;  -10.180; 1781.468
899.559;  332.220;  -12.030; 1703.347
900.119;  328.058;  -15.710; 1537.525
900.679;  325.256;   -8.900; 1638.384
901.239;  311.130;   -8.340; 1527.902
901.799;  301.125;  -13.910; 1456.441
902.359;  296.987;  -13.460; 1357.140
902.919;  291.430;  -11.490; 1331.118
903.479;  278.564;  -12.110; 1317.257
904.038;  259.299;  -11.720; 1262.595
904.598;  244.566;  -13.610; 1152.034
905.158;  241.863;  -11.040; 1240.893
905.717;  234.392;  -10.900; 1233.691
906.277;  223.088;  -15.080; 1217.330
906.836;  213.132;  -13.380; 1222.408
907.396;  205.019;  -10.780; 1193.047
907.955;  197.966;   -8.500; 1182.526
908.515;  189.244;  -12.760; 1099.364
909.074;  181.167;  -11.900; 1092.863
909.633;  174.988;   -8.950; 1069.121
910.192;  171.792;   -8.770; 1196.460
910.752;  167.557;  -12.390; 1029.960
911.311;  164.702;  -13.680; 1009.780
911.870;  163.226;  -12.370;  971.460
912.429;  164.895;  -10.900; 1094.080
912.988;  164.087;  -11.690; 1081.060
913.547;  159.489;  -13.240;  940.380
914.106;  154.840;  -11.990;  999.420
914.665;  152.485;   -9.990;  984.020
915.224;  151.443;  -12.880; 1035.760
915.782;  151.498;  -12.350;  922.560
916.341;  151.177;   -9.110; 1049.840
916.900;  147.350;   -9.270;  925.260
917.458;  145.620;  -13.240;  884.220
918.017;  145.314;  -13.550;  942.600
918.576;  144.793;  -12.320;  904.440
919.134;  143.079;  -11.490;  837.980
919.693;  141.026;  -13.670;  893.060
920.251;  139.089;  -15.470;  876.500
920.809;  137.883;  -11.290;  839.580
921.368;  137.982;  -10.210;  885.360
921.926;  136.357;  -12.140;  842.940
922.484;  135.273;  -13.080;  903.360
923.042;  135.555;  -11.720;  880.340
923.601;  138.508;   -7.480;  998.680
924.159;  136.436;  -11.570;  935.560
924.717;  132.754;  -13.840;  841.080
925.275;  133.121;  -10.640;  903.240
925.833;  133.443;  -11.540;  779.320
926.391;  133.931;  -12.960;  938.380
926.949;  132.176;  -14.130;  857.680
927.506;  132.658;  -11.750;  903.500
928.064;  132.650;  -10.250;  877.580
928.622;  131.232;  -13.030;  880.100
929.180;  131.687;  -13.400;  814.180
929.737;  132.794;  -10.700;  808.540
930.295;  137.121;  -10.070;  928.480
930.853;  137.409;  -11.960;  849.100
931.410;  138.551;  -13.120;  821.120
931.968;  138.390;  -10.770;  940.660
932.525;  138.056;  -10.680;  909.380
933.082;  138.848;  -13.130;  811.440
933.640;  139.172;  -13.210;  925.900
934.197;  136.806;  -11.060;  886.360
934.754;  138.842;   -9.580;  897.780
935.312;  141.653;  -14.000;  863.340
935.869;  144.561;  -10.710; 1012.980
936.426;  145.231;   -9.860;  872.800
936.983;  147.589;   -9.710;  889.020
937.540;  145.759;  -13.990;  838.280
938.097;  143.545;  -14.040;  940.120
938.654;  143.789;  -10.310;  898.860
939.211;  147.423;  -10.560;  952.480
939.768;  150.557;  -13.900;  915.420
940.324;  153.235;  -14.760;  904.200
940.881;  154.310;  -10.370;  878.500
941.438;  155.379;   -8.260; 1021.200
941.995;  151.566;  -12.540;  992.560
942.551;  148.395;  -14.670;  875.620
943.108;  149.590;  -10.450;  937.920
943.664;  152.311;  -10.750;  869.340
944.221;  156.223;  -11.550; 1088.140
944.777;  152.293;  -14.770;  869.680
945.334;  153.389;  -12.820;  884.840
945.890;  155.350;  -10.130;  946.480
946.446;  155.478;  -13.470;  947.020
947.003;  156.658;  -12.120;  964.940
947.559;  159.657;   -9.980; 1063.040
948.115;  159.009;   -9.080; 1026.540
948.671;  157.815;  -10.830;  967.300
949.227;  154.696;  -12.440;  859.560
949.783;  151.610;  -12.910;  858.900
950.339;  153.774;  -10.270;  991.000
950.895;  154.026;  -13.630; 1023.840
951.451;  153.432;  -15.100;  925.280
952.007;  154.098;  -11.330;  998.540
952.563;  154.730;  -10.580;  937.780
953.118;  152.659;  -13.440;  904.940
953.674;  152.332;  -12.710;  935.780
954.230;  152.893;  -10.350;  949.640
954.785;  149.961;   -9.190;  936.640
955.341;  147.281;  -11.200;  998.160
955.897;  146.069;  -16.560;  834.660
956.452;  147.554;  -12.570;  953.840
957.008;  146.511;   -7.970; 1083.640
957.563;  144.422;  -11.940; 1009.540
958.118;  139.815;  -13.450;  877.700
958.674;  140.343;  -12.030;  946.780
959.229;  141.577;   -9.410; 1013.980
959.784;  139.337;  -12.000;  832.400
960.339;  138.601;  -14.780; 1001.280
960.894;  134.627;   -9.860;  963.760
961.449;  131.557;   -9.970;  859.960
962.004;  130.221;  -10.900; 1212.840
962.559;  125.787;  -13.150;  860.140
963.114;  123.530;  -13.740;  742.480
963.669;  122.896;   -9.820;  915.500
964.224;  121.998;  -13.890;  874.340
964.779;  119.986;  -12.600;  828.420
965.334;  120.415;  -10.950; 1017.860
965.888;  120.234;  -11.170;  875.360
966.443;  122.947;  -12.540;  972.380
966.998;  122.040;  -15.780;  819.460
967.552;  120.689;   -9.760;  908.380
968.107;  117.782;   -9.060;  868.300
968.661;  118.721;  -11.950;  922.440
969.216;  118.656;  -12.800;  856.280
969.770;  119.157;  -11.210;  917.200
970.324;  118.457;  -11.610;  923.140
970.879;  114.836;  -11.370;  947.180
971.433;  111.663;  -12.540;  952.720
971.987;  106.658;  -11.320;  895.340
972.541;  104.288;  -10.720;  917.100
973.095;  104.354;   -9.680; 1009.460
973.649;  102.328;  -11.440;  809.480
974.203;  101.504;  -11.210;  829.040
974.757;  101.344;  -10.240;  855.220
975.311;  101.823;  -13.720;  872.600
975.865;  100.467;  -13.770;  881.820
976.419;   98.751;  -11.690;  857.400
976.973;   98.576;   -9.510;  849.620
977.526;  100.561;  -12.620;  949.920
978.080;   99.850;  -12.010;  796.780
978.634;  100.707;  -10.170;  921.320
979.187;   98.877;   -9.020;  905.400
979.741;   95.263;   -9.820; 1018.380
980.294;   90.801;  -14.870;  789.160
980.848;   88.947;  -12.380;  717.220
981.401;   90.949;  -10.350;  816.540
981.955;   92.935;  -13.720;  844.300
982.508;   91.526;  -11.490;  746.340
983.061;   92.264;  -10.000;  915.260
983.615;   89.226;  -11.480;  798.800
984.168;   84.925;  -13.220;  770.080
984.721;   84.458;  -13.960;  880.760
985.274;   83.585;  -10.870;  867.500
985.827;   82.742;   -9.790;  834.220
986.380;   80.200;  -13.120;  721.340
986.933;   79.176;  -12.450;  864.800
987.486;   78.265;  -10.210;  861.920
988.039;   77.293;   -8.430;  863.100
988.591;   75.143;  -10.520;  893.260
989.144;   71.597;  -14.860;  737.260
989.697;   71.730;  -13.080;  758.740
990.250;   72.245;  -10.150;  858.100
990.802;   71.735;  -13.430;  755.860
991.355;   72.558;  -12.750;  974.880
991.907;   70.089;  -12.040;  864.320
992.460;   67.620;  -11.330;  753.760
993.012;   66.856;  -13.610;  749.540
993.565;   65.812;  -13.460;  711.360
994.117;   67.770;   -9.360;  950.780
994.669;   63.965;  -11.300;  701.320
995.221;   61.833;  -13.540;  791.920
995.774;   59.201;  -13.430;  787.580
996.326;   58.613;  -12.520;  740.220
996.878;   58.530;  -10.950;  838.420
997.430;   56.025;  -14.300;  699.860
997.982;   55.501;  -13.760;  750.140
998.534;   54.946;  -11.530;  739.060
999.086;   54.233;  -10.310;  738.220
999.638;   52.643;  -12.530;  661.380
1000.190;   51.613;  -11.840;  699.320
1000.741;   51.701;  -10.260;  742.700
1001.293;   51.524;   -8.860;  686.020
1001.845;   49.219;  -13.700;  676.640
1002.396;   50.344;  -12.100;  743.400
1002.948;   48.988;  -12.760;  737.400
1003.500;   48.200;  -10.380;  723.780
1004.051;   48.164;  -11.900;  907.580
1004.603;   46.191;  -12.250;  791.820
1005.154;   42.772;  -13.210;  608.980
1005.705;   42.301;  -10.950;  723.960
1006.257;   41.694;  -13.880;  707.220
1006.808;   40.815;  -12.840;  685.460
1007.359;   40.735;  -10.570;  763.240
1007.910;   39.669;   -9.620;  646.640
1008.461;   39.006;  -13.630;  732.940
1009.013;   38.011;  -17.200;  588.340
1009.564;   38.774;  -10.200;  793.520
1010.115;   37.246;  -12.570;  597.040
1010.665;   37.156;  -15.150;  602.160
1011.216;   37.434;  -14.480;  667.920
1011.767;   36.592;  -11.340;  697.920
1012.318;   36.983;   -9.780;  736.980
1012.869;   35.348;  -12.380;  679.000
1013.419;   35.009;  -15.560;  603.120
1013.970;   34.910;  -11.010;  666.640
1014.521;   34.027;  -11.610;  620.620
1015.071;   34.956;  -13.450;  670.380
1015.622;   34.149;  -13.870;  635.460
1016.172;   33.540;  -11.610;  596.820
1016.723;   34.345;  -12.120;  614.380
1017.273;   33.584;  -13.620;  604.160
1017.823;   32.769;  -14.140;  650.340
1018.374;   32.463;  -12.800;  611.760
1018.924;   32.863;  -12.340;  716.880
1019.474;   32.974;  -11.410;  718.880
1020.024;   31.891;  -14.770;  657.580
1020.574;   31.847;   -9.780;  726.160
1021.124;   32.442;   -8.560;  673.580
1021.674;   31.263;  -15.190;  559.120
1022.224;   32.000;  -13.530;  708.940
1022.774;   31.847;  -13.280;  668.820
1023.324;   31.894;  -10.690;  753.520
1023.874;   33.398;  -10.240;  875.760
1024.423;   30.279;  -12.540;  613.700
1024.973;   30.450;  -10.010;  610.760
1025.523;   29.199;  -10.550;  620.960
1026.072;   29.353;  -13.560;  606.420
1026.622;   29.083;  -15.120;  675.740
1027.172;   30.045;  -11.260;  715.660
1027.721;   29.571;  -11.410;  601.220
1028.270;   28.939;  -13.530;  663.400
1028.820;   29.927;  -13.680;  638.080
1029.369;   28.711;  -13.520;  612.700
1029.918;   29.585;  -10.980;  649.840
1030.468;   27.786;  -13.530;  564.780
1031.017;   28.175;  -13.170;  634.800
1031.566;   27.549;  -12.200;  608.900
1032.115;   28.188;   -9.960;  694.500
1032.664;   26.638;  -13.210;  596.480
1033.213;   27.940;  -12.500;  735.420
1033.762;   27.722;  -11.910;  635.620
1034.311;   26.637;   -9.640;  677.220
1034.860;   27.679;  -13.310;  691.000
1035.408;   27.369;  -11.830;  722.720
1035.957;   26.784;  -12.000;  719.540
1036.506;   25.590;  -11.690;  530.800
1037.055;   27.888;  -10.990;  844.320
1037.603;   25.659;  -15.120;  664.000
1038.152;   24.114;  -12.450;  534.760
1038.700;   24.923;  -10.560;  585.740
1039.249;   25.046;  -11.080;  681.220
1039.797;   25.278;  -12.540;  633.360
1040.345;   25.472;  -11.920;  705.420
1040.894;   25.432;  -11.410;  625.300
1041.442;   24.234;  -14.320;  632.200
1041.990;   23.276;  -16.240;  559.160
1042.538;   22.999;  -11.680;  536.180
1043.087;   24.050;  -10.760;  570.860
1043.635;   24.444;  -11.850;  670.500
1044.183;   23.564;  -15.480;  586.400
1044.731;   23.063;  -11.770;  576.000
1045.279;   23.289;  -13.090;  674.920
1045.827;   24.488;  -12.440;  892.400
1046.374;   22.193;  -13.840;  515.420
1046.922;   21.281;  -13.220;  590.580
1047.470;   23.501;  -10.230;  691.300
1048.018;   22.107;  -14.590;  647.960
1048.565;   23.109;  -12.050;  708.600
1049.113;   21.653;  -11.650;  557.000
1049.660;   22.395;  -10.510;  629.660
1050.208;   22.008;  -13.310;  675.640
1050.755;   21.325;  -15.900;  606.580
1051.303;   21.839;  -11.430;  686.820
1051.850;   21.368;   -8.480;  635.120
1052.397;   20.071;  -15.010;  473.960
1052.945;   19.758;  -13.960;  617.760
1053.492;   22.168;  -13.150;  741.840
1054.039;   22.418;   -9.630;  720.180
1054.586;   20.173;  -13.680;  557.240
1055.133;   20.690;  -14.570;  693.140
1055.680;   20.348;  -13.820;  646.620
1056.227;   19.503;  -11.730;  542.780
1056.774;   21.499;  -12.480;  794.980
1057.321;   18.855;  -13.930;  523.260
1057.868;   19.654;  -11.690;  651.320
1058.415;   19.874;   -9.520;  651.980
1058.961;   19.666;  -13.160;  678.940
1059.508;   18.619;  -12.920;  643.820
1060.055;   18.006;  -11.920;  581.780
1060.601;   19.010;  -11.500;  624.300
1061.148;   19.586;  -14.330;  616.820
1061.694;   18.084;  -16.870;  592.580
1062.241;   18.213;  -10.330;  596.320
1062.787;   19.298;  -10.620;  663.140
1063.334;   20.322;  -10.110;  808.560
1063.880;   18.166;  -13.400;  668.360
1064.426;   18.782;  -10.680;  706.820
1064.972;   18.645;   -9.920;  601.340
1065.518;   16.724;  -10.980;  566.640
1066.065;   18.067;  -14.890;  624.460
1066.611;   17.243;  -12.870;  598.800
1067.157;   18.192;  -12.950;  641.860
1067.703;   17.870;  -13.540;  668.480
1068.249;   17.280;  -13.540;  605.220
1068.794;   16.793;  -12.600;  626.880
1069.340;   16.563;  -10.620;  578.960
1069.886;   16.855;  -12.830;  590.700
1070.432;   15.361;  -14.870;  541.720
1070.977;   15.625;  -11.980;  601.080
1071.523;   15.823;   -8.200;  573.060
1072.068;   15.896;  -12.330;  582.000
1072.614;   16.046;  -16.370;  527.760
1073.160;   15.637;  -11.100;  687.040
1073.705;   15.604;  -10.480;  572.520
1074.250;   15.503;  -14.520;  559.900
1074.796;   16.750;  -11.460;  655.160
1075.341;   16.252;  -11.950;  664.100
1075.886;   16.613;  -11.460;  594.240
1076.431;   14.806;  -13.770;  649.880
1076.976;   14.253;  -12.680;  639.220
1077.521;   14.528;  -13.170;  583.080
1078.067;   14.545;  -10.860;  579.400
1078.612;   15.238;  -13.920;  661.620
1079.156;   14.948;  -13.880;  601.540
1079.701;   15.057;  -13.120;  693.260
1080.246;   15.017;   -9.940;  696.300
1080.791;   14.267;  -14.740;  625.020
1081.336;   13.603;  -13.750;  659.320
1081.880;   14.131;  -13.400;  649.680
1082.425;   13.516;  -12.220;  573.480
1082.970;   14.840;  -11.610;  717.040
1083.514;   13.826;  -13.580;  597.000
1084.059;   13.023;  -12.810;  586.720
1084.603;   12.777;  -12.320;  565.840
1085.147;   13.146;  -13.190;  645.220
1085.692;   13.640;  -12.480;  716.800
1086.236;   12.451;  -13.020;  503.140
1086.780;   14.133;   -9.190;  751.440
1087.325;   12.554;  -12.480;  654.620
1087.869;   12.434;  -12.450;  610.700
1088.413;   13.002;  -12.240;  705.040
1088.957;   11.751;   -9.020;  543.400
1089.501;   13.789;  -10.320;  766.640
1090.045;   12.753;  -12.720;  726.480
1090.589;   10.843;  -13.690;  569.920
1091.133;   12.222;  -10.020;  673.340
1091.676;   12.388;  -12.330;  591.940
1092.220;   11.275;  -14.970;  600.920
1092.764;   12.959;  -12.430;  706.960
1093.307;   12.270;   -9.800;  673.780
1093.851;   10.280;  -14.970;  556.540
1094.395;   11.669;  -15.310;  683.140
1094.938;   10.597;  -10.370;  632.520
1095.482;   11.569;  -11.050;  559.800
1096.025;   12.229;  -11.840;  710.880
1096.568;   12.335;  -12.840;  779.280
1097.112;    9.630;  -14.700;  508.180
1097.655;   10.913;   -8.720;  603.000
1098.198;    9.790;  -13.610;  600.180
1098.741;    9.997;  -13.350;  612.860
1099.285;   11.050;  -11.230;  657.300
1099.828;    9.073;  -11.840;  439.400
1100.371;   10.313;  -10.840;  608.160
1100.914;   10.057;  -14.190;  682.660
1101.457;    9.755;  -11.240;  679.900
1101.999;    9.295;  -11.270;  584.680
1102.542;   10.050;  -11.480;  641.440
1103.085;    9.195;  -11.750;  658.500
1103.628;    9.989;  -11.400;  762.060
1104.170;    9.658;  -10.490;  588.280
1104.713;    9.705;  -10.600;  646.700
1105.256;    8.882;  -14.360;  557.440
1105.798;    7.863;  -13.210;  499.980
1106.341;    9.652;  -10.270;  728.900
1106.883;    9.333;  -12.200;  521.340
1107.425;    8.723;  -13.110;  668.180
1107.968;    8.366;  -12.840;  612.380
1108.510;    8.866;   -6.480;  684.960
1109.052;    7.439;  -13.940;  612.620
1109.594;    7.344;  -13.690;  554.440
1110.136;    8.457;  -11.880;  643.220
1110.679;    7.757;   -9.500;  633.080
1111.221;    8.727;  -14.160;  604.460
1111.763;    7.371;  -13.980;  559.220
1112.304;    6.832;  -13.880;  547.140
1112.846;    8.639;  -12.210;  666.240
1113.388;   10.684;  -11.390;  942.180
1113.930;    8.056;  -14.540;  694.200
1114.472;    6.515;  -12.640;  606.540
1115.013;    5.924;  -11.620;  551.280
1115.555;    6.640;  -13.640;  587.100
1116.097;    6.146;  -15.380;  579.480
1116.638;    6.650;  -12.640;  684.600
1117.180;    7.641;   -9.850;  667.740
1117.721;    6.679;  -13.690;  568.580
1118.262;    7.023;  -12.680;  677.960
1118.804;    6.613;  -12.530;  637.340
1119.345;    6.114;  -11.690;  578.400
1119.886;    6.558;  -13.380;  704.040
1120.427;    5.291;  -14.070;  589.020
1120.969;    4.870;  -13.500;  597.920
1121.510;    5.852;  -11.480;  563.060
1122.051;    6.275;  -12.830;  723.580
1122.592;    4.762;  -14.290;  655.420
1123.133;    4.365;  -12.400;  547.940
1123.673;    7.436;  -10.130;  706.480
1124.214;    5.423;  -12.930;  612.460
1124.755;    6.404;  -14.380;  639.460
1125.296;    5.733;  -14.000;  627.320
1125.836;    6.018;  -10.070;  691.500
1126.377;    4.686;  -12.640;  599.660
1126.918;    5.064;  -12.960;  614.980
1127.458;    3.950;  -13.350;  622.220
1127.999;    5.679;  -10.750;  656.980
1128.539;    5.406;  -12.350;  694.240
1129.079;    3.717;  -14.860;  632.720
1129.620;    3.823;  -13.840;  558.100
1130.160;    4.131;  -12.330;  539.480
1130.700;    4.628;  -14.530;  640.840
1131.240;    4.639;  -12.530;  643.700
1131.781;    3.509;  -14.450;  619.680
1132.321;    4.162;   -9.790;  599.120
1132.861;    3.298;  -14.860;  564.200
1133.401;    3.112;  -14.290;  593.940
1133.941;    4.144;  -11.750;  626.280
1134.481;    3.638;   -9.920;  597.580
1135.020;    3.177;  -12.290;  609.160
1135.560;    3.221;  -11.650;  674.940
1136.100;    2.793;  -16.270;  501.160
1136.640;    2.915;  -10.890;  510.480
1137.179;    3.099;  -14.180;  537.960
1137.719;    3.371;  -16.250;  605.400
1138.258;    2.926;  -14.230;  587.360
1138.798;    3.471;   -9.090;  663.780
1139.337;    1.636;  -15.130;  482.840
1139.877;    2.891;  -13.680;  642.360
1140.416;    5.112;  -11.320;  878.060
1140.955;    2.815;  -10.860;  535.380
1141.494;    2.992;  -12.920;  669.280
1142.034;    1.905;  -13.930;  583.520
1142.573;    2.907;  -11.440;  646.280
1143.112;    2.048;  -12.000;  553.480
1143.651;    1.864;  -13.670;  536.480
1144.190;    2.332;  -12.730;  691.640
1144.729;    1.827;  -14.560;  607.420
1145.267;    2.685;  -11.830;  584.900
1145.806;    3.156;  -12.230;  637.040
1146.345;    1.178;  -14.130;  635.020
1146.884;    1.587;  -11.590;  622.500
1147.422;    1.657;  -12.550;  533.060
1147.961;    2.925;  -11.180;  708.460
1148.500;    1.738;  -11.510;  669.720
1149.038;    2.254;  -11.640;  632.500
1149.577;    2.396;  -10.130;  698.640
1150.115;    0.109;  -13.970;  452.280
1150.653;    1.358;  -14.520;  607.340
1151.192;    1.273;  -12.810;  552.920
1151.730;    1.827;   -9.100;  652.560
1152.268;    0.347;  -12.220;  589.520
1152.806;    0.647;  -14.140;  571.180
1153.344;   -0.603;  -12.350;  577.640
1153.882;    1.111;   -8.980;  600.060
1154.421;    0.322;  -15.190;  470.620
1154.958;    0.420;  -15.210;  595.240
1155.496;    0.991;  -12.850;  645.280
1156.034;    1.213;   -9.940;  721.880
1156.572;    1.647;  -13.570;  667.060
1157.110;   -1.073;  -14.590;  473.940
1157.647;    0.488;  -13.030;  676.960
1158.185;   -0.265;  -12.140;  564.320
1158.723;   -1.206;  -14.390;  509.200
1159.260;    0.081;  -14.090;  701.700
1159.798;    0.675;  -11.920;  658.160
1160.335;    0.297;  -11.110;  631.820

