gmr_right
Integration time [ms]: 4415.405
Averaging Nr. [scans]: 10
Smoothing Nr. [pixels]: 0
Data measured with spectrometer [name]: 7414430SP
Wave   ;Sample   ;Dark     ;Reference
[nm]   ;[counts] ;[counts] ;[counts] 

288.544; 5657.281; 5481.567;    6.613
289.143; 4627.071; 4445.805;   14.216
289.742; 6033.092; 5944.782;   11.816
290.341; 5779.747; 5549.822;   -4.936
290.940; 5257.460; 5126.334;    0.852
291.538; 6682.072; 6565.967;    1.792
292.137; 5917.912; 5724.192;    6.262
292.736; 7727.747; 7451.822;    8.164
293.335; 5389.983; 5236.041;   -6.418
293.934; 5854.025; 5668.136;   -2.904
294.532; 8297.397; 8170.262;   -5.162
295.131; 6547.784; 6327.777;  -10.283
295.730; 6346.677; 6165.880;  -16.141
296.328; 6107.903; 5919.741;  -14.740
296.927; 6036.340; 5823.527;   -8.768
297.525; 6032.135; 5870.784;  -15.255
298.124; 4880.439; 4719.534;  -22.063
298.722; 5875.293; 5667.405;  -14.796
299.321; 5422.016; 5160.111;  -10.466
299.919; 5816.862; 5655.808;  -10.979
300.518; 5301.897; 5062.438;  -12.077
301.116; 5272.918; 5088.125;  -13.509
301.715; 5638.370; 5476.557;  -11.939
302.313; 5442.563; 5256.375;  -15.424
302.911; 5773.325; 5621.171;  -19.833
303.509; 7634.365; 7470.388;   -3.567
304.108; 5980.749; 5754.438;   -9.553
304.706; 6389.535; 6182.500;   -8.582
305.304; 6473.727; 6357.468;  -12.348
305.902; 6157.021; 5985.563;  -14.411
306.500; 5743.707; 5621.059;   -7.194
307.098; 5966.160; 5766.937;   -9.322
307.696; 6344.362; 6148.666;  -19.192
308.294; 5829.035; 5652.933;   -9.736
308.892; 6086.477; 5935.455;  -15.482
309.490; 5596.353; 5442.755;  -14.107
310.088; 6483.765; 6295.396;  -15.862
310.686; 6653.044; 6399.270;  -10.781
311.284; 6245.067; 6134.692;  -14.878
311.882; 5762.790; 5647.399;   -9.948
312.480; 5566.201; 5377.040;  -15.503
313.078; 6708.943; 6571.419;  -17.262
313.675; 5506.707; 5344.059;   -3.694
314.273; 6599.045; 6491.006;  -18.246
314.871; 4541.859; 4387.228;  -15.190
315.468; 5212.125; 5086.171;  -12.633
316.066; 5603.900; 5378.019;   -5.765
316.664; 5231.618; 5124.990;  -14.317
317.261; 7657.414; 7501.531;   -8.677
317.859; 6470.213; 6383.247;  -11.804
318.456; 7009.312; 6947.801;   -3.107
319.054; 6570.606; 6478.350;   -3.062
319.651; 6249.399; 6074.594;   -6.706
320.249; 6898.600; 6764.594;   -5.206
320.846; 5912.941; 5767.831;   -4.679
321.443; 7139.653; 7003.613;   -7.920
322.041; 6967.246; 6863.432;  -14.105
322.638; 5915.018; 5873.557;   -6.263
323.235; 5427.763; 5353.375;   -7.424
323.833; 6274.279; 6144.042;  -14.765
324.430; 4967.914; 4823.814;  -10.550
325.027; 7531.705; 7492.045;   -9.951
325.624; 5157.233; 5037.771;   -3.712
326.221; 5607.481; 5515.481;   -9.368
326.818; 6855.088; 6752.095;   -5.637
327.415; 6011.250; 5883.005;   -6.699
328.012; 5463.620; 5293.117;   -5.713
328.609; 5799.643; 5667.824;   -9.983
329.206; 6364.044; 6302.553;   -7.154
329.803; 5858.698; 5770.431;   -1.682
330.400; 5480.698; 5373.857;   -2.741
330.997; 6538.412; 6398.510;   -4.339
331.594; 6335.609; 6309.646;  -10.278
332.191; 5631.124; 5513.435;   -6.967
332.787; 6721.870; 6623.131;   -0.480
333.384; 5917.762; 5864.241;  -10.333
333.981; 6498.970; 6493.301;  -19.900
334.578; 5387.531; 5197.644;  -19.816
335.174; 5636.101; 5451.614;  -15.844
335.771; 6692.535; 6559.961;  -12.670
336.367; 5568.334; 5394.394;  -21.124
336.964; 6375.658; 6137.810;  -18.226
337.561; 5748.893; 5655.582;  -13.311
338.157; 7548.171; 7429.612;  -19.006
338.754; 6422.838; 6305.286;  -19.418
339.350; 5694.787; 5531.421;  -29.433
339.946; 6110.511; 5908.979;  -16.622
340.543; 6899.673; 6726.633;  -16.744
341.139; 5754.774; 5622.079;  -21.841
341.735; 6339.051; 6137.947;  -25.012
342.332; 5545.544; 5311.191;  -19.156
342.928; 6497.303; 6365.379;  -20.443
343.524; 6283.260; 6140.857;  -14.397
344.120; 6054.563; 6034.729;  -20.654
344.716; 5719.898; 5567.636;   -5.730
345.313; 6600.640; 6491.590;  -10.929
345.909; 4900.040; 4700.448;  -19.843
346.505; 6057.322; 5954.910;  -19.645
347.101; 6845.864; 6646.147;   -9.618
347.697; 6483.776; 6396.497;  -10.305
348.293; 4910.978; 4852.084;  -23.189
348.889; 6103.980; 5965.240;  -18.418
349.485; 5453.369; 5374.457;  -10.476
350.081; 6348.708; 6229.540;  -17.320
350.676; 5627.782; 5471.969;  -21.088
351.272; 6677.736; 6672.840;  -12.821
351.868; 6313.309; 6170.107;  -13.165
352.464; 5808.901; 5717.784;  -12.464
353.059; 5151.503; 5013.372;  -22.547
353.655; 6447.729; 6246.942;   -9.379
354.251; 6194.721; 6029.314;   -8.266
354.846; 6090.855; 6051.520;  -17.705
355.442; 6156.510; 6058.985;   -9.317
356.038; 6103.353; 6001.648;  -11.049
356.633; 5883.267; 5753.728;  -10.006
357.229; 5877.750; 5792.494;  -13.120
357.824; 5717.508; 5618.256;  -15.647
358.420; 5455.222; 5342.335;  -19.204
359.015; 5563.311; 5433.553;  -12.263
359.610; 6318.620; 6199.748;  -16.421
360.206; 4726.629; 4613.949;  -20.074
360.801; 5136.564; 4989.573;  -13.277
361.396; 5922.611; 5775.979;   -5.822
361.992; 5388.508; 5307.256;  -11.247
362.587; 5427.482; 5357.827;  -21.502
363.182; 5593.303; 5457.229;   -7.461
363.777; 6110.692; 6069.447;   -8.719
364.372; 6096.127; 6050.361;  -14.590
364.967; 5601.884; 5475.840;  -15.145
365.563; 6791.813; 6697.708;   -7.192
366.158; 5545.652; 5421.507;   -5.662
366.753; 5234.297; 5143.757;   -8.378
367.348; 6209.931; 6005.246;  -14.990
367.942; 5684.376; 5506.497;   -6.005
368.537; 6259.889; 6153.150;  -11.504
369.132; 5783.773; 5757.342;  -10.576
369.727; 5116.096; 5037.765;  -12.573
370.322; 4701.529; 4595.091;  -11.560
370.917; 5917.082; 5842.969;  -10.388
371.511; 7401.041; 7311.299;   -9.161
372.106; 6591.984; 6524.840;  -10.245
372.701; 4751.768; 4616.606;  -10.158
373.296; 7300.813; 7212.424;   -4.719
373.890; 5329.882; 5243.827;  -11.802
374.485; 5801.117; 5755.458;  -13.500
375.079; 6240.736; 6165.272;   -6.276
375.674; 6917.125; 6819.348;   -0.447
376.268; 5744.657; 5693.824;   -6.916
376.863; 4813.923; 4784.930;  -14.483
377.457; 5527.631; 5440.104;   -6.903
378.052; 6542.251; 6456.656;   -9.844
378.646; 6355.429; 6323.666;  -12.601
379.240; 6178.986; 6030.570;  -14.715
379.835; 5364.464; 5223.005;  -12.331
380.429; 4636.091; 4499.880;   -9.074
381.023; 6721.645; 6686.475;   -1.729
381.617; 5790.137; 5705.293;  -13.714
382.212; 5812.992; 5704.022;   -7.060
382.806; 6537.531; 6396.104;   -2.303
383.400; 5811.128; 5801.524;   -0.815
383.994; 5753.086; 5653.428;   -4.429
384.588; 6033.387; 5945.137;   -6.261
385.182; 6298.876; 6274.639;    0.008
385.776; 6189.966; 6114.302;   -3.247
386.370; 5894.615; 5866.729;   -1.030
386.964; 5938.434; 5861.118;   -1.346
387.558; 5104.987; 5033.563;   -2.020
388.152; 5965.143; 5824.887;   -5.345
388.745; 7278.508; 7222.972;   -2.774
389.339; 6418.606; 6398.385;    3.510
389.933; 5931.804; 5911.655;    5.280
390.527; 7720.252; 7723.223;    2.610
391.120; 5152.791; 5074.455;   -7.914
391.714; 6169.636; 6149.989;   -1.903
392.308; 6921.348; 6811.480;    6.023
392.901; 5651.115; 5654.012;   -4.103
393.495; 5246.082; 5211.686;    3.284
394.089; 6904.264; 6843.864;    8.655
394.682; 6243.787; 6168.854;    2.312
395.275; 6451.361; 6403.851;   -7.402
395.869; 5979.622; 5942.626;   -1.072
396.462; 5449.359; 5435.979;    6.454
397.056; 6905.813; 6978.566;    8.494
397.649; 6603.708; 6572.689;    1.599
398.242; 6424.650; 6452.210;    3.153
398.836; 6879.159; 6924.404;   11.395
399.429; 5539.480; 5454.381;   14.695
400.022; 5964.201; 5910.649;    3.627
400.615; 7352.473; 7402.917;    8.383
401.208; 6133.497; 6070.474;   13.295
401.802; 6309.220; 6342.039;    6.211
402.395; 6205.801; 6126.649;    7.227
402.988; 6292.796; 6313.481;    2.700
403.581; 5668.257; 5668.250;   11.225
404.174; 6046.239; 6065.711;   18.922
404.767; 5595.005; 5544.959;   14.169
405.360; 5585.491; 5603.596;    8.999
405.953; 6844.874; 6861.483;   13.138
406.545; 6557.885; 6542.691;   13.937
407.138; 5509.484; 5510.982;   10.869
407.731; 5472.538; 5483.144;   12.768
408.324; 5885.146; 5857.034;   22.921
408.917; 6146.276; 6175.639;   15.308
409.509; 6736.145; 6749.184;   12.239
410.102; 5852.201; 5889.791;   13.741
410.695; 5965.734; 5923.110;   20.249
411.287; 5390.479; 5452.936;   21.793
411.880; 5206.432; 5246.813;   22.965
412.472; 5517.643; 5503.170;   15.082
413.065; 5729.706; 5735.526;   23.423
413.657; 5133.181; 5136.232;   21.077
414.250; 5812.572; 5801.180;   12.349
414.842; 6118.281; 6125.665;   20.423
415.434; 5173.437; 5145.124;   19.906
416.027; 5801.475; 5797.902;   26.574
416.619; 6468.332; 6455.239;   15.705
417.211; 5359.728; 5399.212;   17.791
417.804; 5611.998; 5649.034;   30.244
418.396; 5487.623; 5505.186;   24.177
418.988; 5970.460; 5929.539;   24.904
419.580; 5087.537; 5079.981;   20.692
420.172; 4835.809; 4804.532;   22.275
420.764; 6007.449; 6028.040;   26.773
421.356; 5765.840; 5735.846;   25.731
421.948; 6067.551; 6057.486;   24.876
422.540; 6068.042; 5988.426;   30.042
423.132; 5382.575; 5316.469;   32.728
423.724; 4963.898; 4990.750;   21.317
424.316; 5572.266; 5562.991;   29.359
424.908; 5301.652; 5306.763;   28.798
425.500; 5812.978; 5839.766;   30.512
426.092; 5779.808; 5813.795;   26.741
426.683; 6258.101; 6207.331;   27.029
427.275; 5728.564; 5706.112;   32.611
427.867; 5928.034; 5901.224;   33.796
428.458; 6619.357; 6570.214;   34.453
429.050; 6133.134; 6174.799;   34.255
429.642; 6693.571; 6702.152;   39.082
430.233; 4908.485; 4973.373;   41.138
430.825; 6598.746; 6574.290;   31.581
431.416; 6270.154; 6312.776;   35.755
432.008; 5758.011; 5785.518;   40.566
432.599; 5772.688; 5835.669;   46.322
433.190; 5664.506; 5673.924;   46.897
433.782; 4965.634; 5016.940;   41.069
434.373; 7942.302; 7932.891;   48.778
434.964; 5268.160; 5238.937;   50.078
435.556; 5602.625; 5643.313;   52.381
436.147; 6772.064; 6783.538;   38.251
436.738; 6238.555; 6216.626;   47.237
437.329; 6355.209; 6411.497;   61.304
437.920; 5821.327; 5909.043;   48.611
438.511; 4902.822; 4911.158;   44.910
439.103; 5426.035; 5442.359;   62.404
439.694; 5987.896; 6077.560;   63.075
440.285; 6563.307; 6606.342;   61.033
440.876; 7625.909; 7624.930;   57.249
441.466; 4930.744; 4938.128;   61.306
442.057; 5735.277; 5784.021;   65.773
442.648; 6595.384; 6629.352;   65.676
443.239; 5390.430; 5509.049;   55.963
443.830; 6184.347; 6119.850;   69.631
444.421; 5651.496; 5690.269;   69.943
445.011; 6054.014; 6044.240;   72.791
445.602; 6502.021; 6527.138;   68.848
446.193; 4004.868; 4025.969;   80.044
446.783; 5366.927; 5385.583;   82.599
447.374; 5915.261; 5929.362;   77.419
447.964; 6222.556; 6208.335;   72.605
448.555; 7106.141; 7223.662;   82.041
449.145; 5636.438; 5738.081;   76.230
449.736; 7028.772; 7014.854;   75.545
450.326; 6134.552; 6179.876;   67.945
450.917; 5726.339; 5723.790;   77.598
451.507; 5051.315; 5082.658;   68.027
452.097; 6431.664; 6490.368;   67.771
452.688; 6308.443; 6304.533;   62.884
453.278; 4512.490; 4527.655;   65.512
453.868; 6892.946; 6909.113;   71.796
454.458; 5496.929; 5508.596;   60.956
455.048; 6045.534; 6086.480;   62.356
455.639; 4657.899; 4670.133;   58.782
456.229; 5971.642; 6017.371;   65.209
456.819; 6343.044; 6310.384;   61.466
457.409; 6607.169; 6598.245;   59.967
457.999; 6148.702; 6187.713;   58.093
458.589; 5636.742; 5658.654;   59.536
459.179; 6019.491; 6018.506;   55.994
459.769; 5151.876; 5190.143;   43.624
460.358; 6710.972; 6708.826;   46.978
460.948; 5697.612; 5771.766;   49.821
461.538; 5417.430; 5352.872;   54.678
462.128; 5449.941; 5494.371;   49.309
462.717; 5792.340; 5833.634;   52.774
463.307; 5762.420; 5816.940;   48.101
463.897; 5302.219; 5357.948;   45.606
464.486; 7101.567; 7205.232;   45.010
465.076; 6030.031; 6073.297;   45.519
465.666; 5161.238; 5225.046;   50.058
466.255; 6542.996; 6590.100;   44.463
466.845; 5301.298; 5408.971;   41.206
467.434; 5895.140; 5963.350;   44.847
468.023; 5173.335; 5214.607;   46.760
468.613; 5806.542; 5777.654;   39.736
469.202; 5086.119; 5139.515;   46.461
469.791; 5867.234; 5905.020;   47.944
470.381; 5870.845; 5864.085;   47.529
470.970; 5645.227; 5605.980;   43.773
471.559; 5945.468; 5959.650;   41.646
472.148; 5244.994; 5252.221;   37.914
472.738; 6068.871; 6089.373;   48.071
473.327; 4829.276; 4874.257;   47.871
473.916; 5834.413; 5828.759;   37.716
474.505; 5928.641; 5974.484;   40.256
475.094; 6473.574; 6482.811;   43.269
475.683; 6296.839; 6371.471;   36.499
476.272; 5664.099; 5731.389;   44.542
476.861; 5396.063; 5407.887;   42.297
477.449; 5504.122; 5546.784;   46.878
478.038; 5179.025; 5151.392;   35.156
478.627; 5417.953; 5446.267;   42.514
479.216; 5845.442; 5893.335;   43.937
479.805; 5930.593; 5937.625;   51.393
480.393; 8132.018; 8145.920;   53.239
480.982; 6884.037; 6924.600;   38.955
481.571; 6654.928; 6654.682;   45.436
482.159; 5080.235; 5077.721;   51.007
482.748; 6220.512; 6295.164;   49.695
483.336; 6476.893; 6456.484;   48.280
483.925; 5654.777; 5467.250;   47.166
484.513; 5456.292; 5475.321;   55.404
485.102; 5904.451; 5977.104;   54.238
485.690; 7793.677; 7717.101;   55.748
486.278; 7498.752; 7496.097;   55.934
486.867; 5766.726; 5782.952;   57.106
487.455; 6602.626; 6500.668;   56.979
488.043; 5066.721; 5053.642;   57.564
488.631; 7456.101; 7444.375;   57.432
489.220; 6513.101; 6447.516;   63.646
489.808; 4857.986; 4790.870;   65.449
490.396; 6428.250; 6508.084;   61.977
490.984; 5434.173; 5490.074;   68.834
491.572; 6442.599; 6475.361;   70.775
492.160; 6051.721; 6070.642;   67.564
492.748; 5603.661; 5624.583;   66.808
493.336; 6505.047; 6545.354;   79.747
493.924; 5546.689; 5510.734;   88.688
494.512; 6414.210; 6351.001;   84.120
495.100; 6264.896; 6290.639;   86.250
495.687; 6661.327; 6684.661;  103.074
496.275; 5366.771; 5360.486;  108.717
496.863; 5623.924; 5635.797;  107.035
497.451; 5527.510; 5572.718;  117.993
498.038; 5830.057; 5881.833;  120.116
498.626; 5580.259; 5611.704;  143.059
499.214; 6028.852; 5977.097;  153.434
499.801; 5866.535; 5898.863;  175.121
500.389; 4756.266; 4766.602;  185.617
500.976; 6151.678; 6136.526;  215.789
501.564; 5894.956; 5944.840;  240.321
502.151; 4195.656; 4163.698;  267.007
502.738; 5503.373; 5479.358;  317.961
503.326; 5656.736; 5638.856;  361.216
503.913; 5935.584; 6019.282;  401.433
504.500; 6095.701; 6033.949;  446.492
505.088; 5149.087; 5161.012;  512.063
505.675; 5671.406; 5645.826;  586.387
506.262; 5629.482; 5691.702;  671.021
506.849; 5761.699; 5799.219;  759.062
507.436; 6548.932; 6604.688;  849.788
508.023; 5706.315; 5724.595;  944.288
508.610; 6372.229; 6444.249; 1020.690
509.197; 6188.789; 6140.315; 1089.052
509.784; 5810.266; 5717.176; 1133.776
510.371; 4787.906; 4775.968; 1165.501
510.958; 5893.882; 5882.843; 1251.735
511.545; 6822.019; 6857.054; 1350.248
512.132; 5762.850; 5698.793; 1525.945
512.719; 5118.685; 5104.282; 1834.933
513.305; 5306.603; 5310.962; 1965.349
513.892; 6731.905; 6702.550; 1963.265
514.479; 5889.701; 5832.516; 2046.446
515.066; 6488.108; 6464.414; 2252.803
515.652; 5892.626; 5881.377; 2567.247
516.239; 6290.105; 6313.117; 2636.919
516.825; 4905.013; 4921.298; 2482.304
517.412; 7300.134; 7283.559; 2427.031
517.998; 5644.170; 5628.919; 2540.463
518.585; 5573.556; 5531.698; 2609.007
519.171; 5919.090; 5920.734; 2842.088
519.758; 4979.003; 4972.529; 3090.703
520.344; 6432.866; 6431.176; 3176.076
520.930; 5120.917; 5097.474; 3295.037
521.516; 6173.238; 6125.727; 3500.959
522.103; 6790.892; 6779.321; 3736.704
522.689; 5578.645; 5566.632; 3971.022
523.275; 6593.101; 6608.807; 4213.778
523.861; 5644.578; 5668.242; 4190.361
524.447; 6525.736; 6462.714; 4070.602
525.033; 6632.284; 6618.856; 4088.892
525.619; 5338.538; 5328.593; 4416.851
526.205; 4969.561; 5023.866; 4836.835
526.791; 5628.145; 5627.483; 4885.903
527.377; 5395.598; 5337.652; 4544.907
527.963; 5952.486; 5968.302; 4321.995
528.549; 6024.289; 6039.599; 4473.979
529.135; 5269.308; 5226.988; 4788.663
529.721; 5843.896; 5866.922; 4888.577
530.306; 7990.089; 7995.599; 4775.779
530.892; 5551.968; 5557.906; 4793.906
531.478; 5437.415; 5415.170; 4956.948
532.063; 5172.407; 5180.705; 5136.936
532.649; 7201.460; 7262.157; 5336.867
533.235; 5186.668; 5212.764; 5748.092
533.820; 6705.731; 6608.546; 6456.875
534.406; 5682.040; 5666.180; 6590.167
534.991; 5257.124; 5289.655; 6179.622
535.576; 5726.821; 5694.926; 6098.691
536.162; 8034.115; 7974.028; 6441.234
536.747; 4917.625; 4940.101; 6816.224
537.333; 5270.435; 5302.154; 6889.752
537.918; 5737.998; 5755.368; 7154.280
538.503; 5363.877; 5371.101; 7150.848
539.088; 6038.765; 6099.467; 7253.308
539.673; 5530.619; 5513.345; 7625.180
540.259; 5349.889; 5372.741; 8226.793
540.844; 4667.684; 4634.856; 8745.092
541.429; 7048.860; 7120.016; 8762.553
542.014; 4873.267; 4949.771; 8871.497
542.599; 6002.261; 6063.583; 8886.008
543.184; 5042.972; 5041.082; 9079.139
543.769; 5343.590; 5326.045; 9076.182
544.354; 5543.807; 5529.138; 8354.081
544.938; 5974.370; 5998.352; 8236.809
545.523; 7026.205; 7062.691; 8222.179
546.108; 5738.532; 5738.999; 8114.082
546.693; 5730.160; 5653.590; 8535.912
547.278; 5735.770; 5769.494; 9238.322
547.862; 5712.205; 5704.975; 9034.405
548.447; 6474.588; 6339.890; 7795.011
549.031; 5523.380; 5521.425; 7485.099
549.616; 5947.586; 5912.444; 7626.308
550.201; 5332.553; 5297.260; 7627.909
550.785; 6238.051; 6214.963; 7859.125
551.370; 5021.390; 4994.762; 7990.654
551.954; 6447.069; 6431.926; 8196.468
552.538; 6262.528; 6355.256; 7959.495
553.123; 5379.197; 5310.801; 7964.826
553.707; 5584.313; 5611.185; 8515.957
554.291; 6742.967; 6768.055; 8724.024
554.876; 6358.030; 6346.844; 8524.211
555.460; 5400.041; 5443.484; 8704.456
556.044; 5339.668; 5278.934; 9141.473
556.628; 5780.229; 5740.702; 9250.197
557.212; 6625.058; 6627.428; 9444.237
557.796; 5617.704; 5621.699; 9379.783
558.380; 6085.380; 6056.000; 9353.658
558.964; 5890.279; 5879.121; 9210.310
559.548; 4908.498; 4817.085; 8475.153
560.132; 5518.955; 5477.422; 7954.084
560.716; 5088.187; 5065.040; 7489.529
561.300; 5000.772; 4919.223; 7211.952
561.884; 6253.639; 6281.613; 7141.313
562.467; 6175.668; 6136.076; 7155.386
563.051; 5803.796; 5819.092; 7323.158
563.635; 5697.953; 5635.267; 7709.114
564.219; 5761.916; 5793.623; 7678.855
564.802; 6223.152; 6082.983; 7376.187
565.386; 5879.081; 5788.142; 7054.372
565.969; 6794.658; 6725.002; 6589.196
566.553; 7466.671; 7384.373; 6279.371
567.136; 6727.150; 6652.970; 5967.930
567.720; 5940.850; 5855.687; 5660.703
568.303; 6134.820; 6024.082; 5648.615
568.887; 5992.125; 5900.250; 5618.443
569.470; 6153.366; 6009.495; 5411.875
570.053; 6415.061; 6312.610; 5149.274
570.637; 5439.034; 5194.587; 5122.798
571.220; 6508.620; 6360.649; 4957.369
571.803; 7608.205; 7391.436; 4933.018
572.386; 5834.973; 5532.818; 4840.973
572.969; 5862.164; 5597.191; 4592.886
573.552; 5983.332; 5723.006; 4348.387
574.135; 5443.059; 5165.314; 4002.290
574.718; 5667.952; 5343.841; 3654.773
575.301; 5690.014; 5304.195; 3502.288
575.884; 5712.075; 5264.548; 3349.803
576.467; 7078.950; 6533.687; 3191.403
577.050; 6592.743; 5972.505; 3062.418
577.633; 7866.490; 7248.194; 3214.200
578.216; 6322.308; 5558.591; 3284.889
578.799; 6420.559; 5724.172; 3189.777
579.381; 8347.829; 7434.709; 3064.502
579.964; 6245.813; 5321.185; 2888.357
580.547; 7039.020; 5915.515; 2905.760
581.129; 8108.654; 6835.004; 2966.849
581.712; 7381.098; 6015.829; 2887.292
582.294; 7306.422; 5849.670; 2771.631
582.877; 9143.166; 7448.779; 2711.602
583.459; 7546.479; 5788.865; 2577.049
584.042; 7592.381; 5660.878; 2454.707
584.624; 7385.040; 5359.783; 2305.893
585.206; 6635.431; 4502.581; 2189.546
585.789; 7671.826; 5443.987; 2112.577
586.371; 8406.598; 6153.545; 2153.065
586.953; 8785.535; 6358.040; 2197.806
587.536; 9319.107; 6688.591; 2105.489
588.118; 8450.480; 5611.886; 1963.911
588.700; 9938.618; 6837.664; 1843.179
589.282; 9590.861; 6205.185; 1813.834
589.864; 9498.623; 5914.974; 1777.620
590.446; 8538.648; 4743.410; 1733.780
591.028;10024.095; 5847.532; 1676.008
591.610; 9390.717; 4786.935; 1631.649
592.192;10852.412; 5910.192; 1632.362
592.774;10038.549; 5196.694; 1569.507
593.356;10319.285; 5367.054; 1524.539
593.937;10758.219; 5418.089; 1569.720
594.519;12562.675; 6522.980; 1569.049
595.101;11197.144; 4808.242; 1545.452
595.683;12229.815; 5511.083; 1607.568
596.264;12972.677; 5733.994; 1615.506
596.846;12941.396; 5498.674; 1667.622
597.427;12991.704; 5333.876; 1670.469
598.009;13199.022; 5250.839; 1640.312
598.591;14197.916; 6341.651; 1541.022
599.172;13371.318; 5532.522; 1598.665
599.753;13466.162; 4953.922; 1619.068
600.335;15627.590; 6869.655; 1548.612
600.916;14944.792; 5819.093; 1607.510
601.498;15557.532; 6126.318; 1745.181
602.079;15828.438; 5848.932; 1801.011
602.660;16119.836; 5679.777; 1834.640
603.241;15153.651; 4596.565; 1787.351
603.823;15879.744; 5401.384; 1684.266
604.404;15065.178; 5057.730; 1654.241
604.985;15805.183; 5519.615; 1758.741
605.566;17471.260; 6349.618; 1697.679
606.147;17502.846; 5562.404; 1526.728
606.728;17480.072; 4921.279; 1484.086
607.309;17930.076; 5387.576; 1421.070
607.890;18330.633; 5481.176; 1369.867
608.471;18911.910; 5259.773; 1277.826
609.051;20311.621; 5983.847; 1180.416
609.632;20374.518; 5226.962; 1075.816
610.213;21413.289; 5714.655; 1053.313
610.794;21778.045; 5559.546;  979.442
611.374;23266.699; 6096.424;  917.414
611.955;22601.219; 4899.117;  819.987
612.536;23635.295; 5966.681;  752.627
613.116;23842.047; 5384.559;  690.799
613.697;23450.266; 5447.814;  674.974
614.277;22875.641; 5180.669;  663.846
614.858;22073.307; 5392.605;  665.898
615.438;22608.068; 5736.678;  660.712
616.019;23804.756; 6710.619;  632.732
616.599;21928.873; 4412.995;  551.759
617.179;23931.465; 5059.368;  512.871
617.760;27254.082; 7737.757;  473.655
618.340;25502.730; 5604.474;  440.004
618.920;26946.748; 7001.850;  429.731
619.500;25537.295; 5482.418;  441.361
620.080;24731.975; 5209.867;  425.202
620.660;24894.498; 5209.864;  408.164
621.241;25899.313; 5514.510;  387.161
621.821;26523.025; 5837.731;  378.017
622.401;27262.770; 6505.840;  379.188
622.980;25856.564; 4903.247;  350.019
623.560;26319.824; 5521.576;  336.446
624.140;25924.023; 5821.860;  336.473
624.720;25521.428; 6055.745;  334.974
625.300;24962.143; 5219.824;  325.717
625.880;26651.785; 5700.224;  308.519
626.459;29183.289; 5793.662;  307.117
627.039;29960.709; 4713.355;  290.890
627.619;32808.945; 7367.857;  286.635
628.198;31180.779; 6704.042;  282.535
628.778;30533.428; 6234.745;  285.474
629.357;30288.322; 4963.705;  284.103
629.937;31757.260; 5496.937;  292.178
630.516;32317.846; 7021.999;  290.749
631.096;31304.496; 5324.702;  285.489
631.675;33078.129; 6730.623;  287.022
632.254;30874.506; 5277.350;  286.038
632.834;31195.764; 5700.538;  276.451
633.413;32345.813; 6763.369;  279.447
633.992;31808.945; 6435.574;  264.508
634.571;31090.701; 6147.181;  271.010
635.151;30612.164; 5098.396;  277.338
635.730;32668.678; 5649.313;  289.305
636.309;35004.047; 6052.012;  285.306
636.888;35117.043; 6123.561;  254.051
637.467;32854.008; 4719.208;  230.324
638.046;34426.906; 6942.045;  253.349
638.625;34419.668; 6572.564;  246.866
639.204;35684.230; 5929.069;  240.825
639.782;35489.828; 5700.617;  261.970
640.361;34167.031; 6735.752;  277.780
640.940;31485.947; 5352.780;  270.101
641.519;32124.363; 5966.808;  248.622
642.097;33421.082; 6194.836;  239.843
642.676;34731.398; 5832.864;  244.264
643.255;35415.914; 5595.892;  234.985
643.833;36623.133; 6154.920;  244.406
644.412;36331.848; 5457.948;  244.927
644.990;36576.863; 5847.976;  249.948
645.569;38094.480; 6105.004;  249.569
646.147;40194.898; 6392.032;  243.290
646.726;37344.516; 5870.060;  249.511
647.304;35248.133; 5517.087;  228.032
647.882;34750.148; 4664.116;  214.552
648.461;36773.664; 6009.144;  214.973
649.039;36555.582; 6236.171;  223.394
649.617;36200.500; 6235.199;  261.415
650.195;36119.617; 5901.228;  298.736
650.773;35084.531; 5462.255;  309.557
651.352;34007.148; 4637.283;  297.978
651.930;33187.465; 4530.311;  289.399
652.508;34667.984; 6380.339;  285.620
653.086;35193.500; 6049.367;  272.241
653.663;36326.816; 5267.395;  265.062
654.241;36827.133; 4997.423;  286.083
654.819;37291.449; 5031.451;  286.404
655.397;36799.066; 5128.479;  291.825
655.975;35067.586; 5523.507;  299.145
656.553;35943.500; 6916.535;  288.866
657.130;35146.719; 5139.563;  304.087
657.708;36717.434; 5972.591;  302.908
658.286;36130.852; 5910.619;  294.629
658.863;36407.566; 5878.646;  293.350
659.441;37910.586; 5966.674;  318.671
660.018;37063.402; 5632.703;  333.692
660.596;35928.617; 4648.730;  335.013
661.173;36734.734; 5367.758;  371.534
661.750;36366.852; 5153.786;  365.155
662.328;37331.168; 6199.814;  349.976
662.905;35142.586; 5476.842;  332.997
663.482;33880.004; 5638.870;  321.717
664.060;33477.520; 5282.898;  314.438
664.637;35641.738; 6099.926;  306.259
665.214;37060.953; 5914.954;  314.580
665.791;37493.070; 5540.982;  334.501
666.368;37285.086; 5450.010;  329.222
666.945;36966.305; 6258.038;  342.143
667.522;34820.121; 5207.066;  370.964
668.099;35132.637; 5656.094;  396.885
668.676;35622.453; 5755.122;  391.706
669.253;38307.672; 6928.150;  369.627
669.830;37742.086; 6704.178;  360.348
670.407;36944.305; 5608.206;  344.769
670.984;35712.020; 5627.233;  322.890
671.560;35105.738; 6122.262;  316.910
672.137;34359.855; 5431.290;  322.531
672.714;35367.070; 6147.317;  318.552
673.290;36386.590; 5911.345;  324.473
673.867;36346.906; 5382.373;  340.594
674.443;36829.223; 4994.401;  319.515
675.020;38846.938; 5856.429;  286.336
675.596;36951.055; 5504.457;  247.557
676.173;35565.773; 4908.485;  227.778
676.749;35301.988; 4358.513;  224.399
677.326;35589.008; 4788.541;  230.520
677.902;35618.625; 5177.569;  241.841
678.478;35955.238; 4895.597;  239.762
679.054;39993.059; 8495.625;  248.583
679.631;37262.672; 5984.653;  237.503
680.207;38469.789; 7131.681;  245.924
680.783;35734.105; 4427.708;  224.845
681.359;36503.926; 5552.737;  209.666
681.935;36970.742; 5738.765;  191.687
682.511;35986.258; 5741.792;  210.008
683.087;36755.875; 6086.820;  213.329
683.663;36528.590; 5578.849;  216.850
684.239;35513.109; 4983.876;  229.471
684.815;37704.227; 6294.904;  248.792
685.390;38610.340; 7397.932;  231.813
685.966;36751.359; 5788.960;  221.234
686.542;35748.574; 5068.988;  214.255
687.118;36638.891; 5877.016;  212.276
687.693;37027.910; 6123.044;  233.096
688.269;36906.926; 5556.072;  246.917
688.844;36958.941; 5960.100;  236.938
689.420;35596.258; 5760.128;  242.059
689.995;37758.176; 7042.156;  245.480
690.571;36821.293; 6693.184;  244.701
691.146;34594.711; 5413.212;  251.922
691.722;35296.328; 5927.240;  284.743
692.297;35082.145; 5385.268;  320.664
692.872;35886.660; 5270.295;  313.885
693.448;36692.379; 5038.324;  290.106
694.023;36589.594; 5790.352;  304.327
694.598;36328.313; 5913.379;  319.648
695.173;35588.926; 5416.407;  323.169
695.748;34167.145; 4608.436;  376.389
696.323;34312.859; 5602.463;  397.610
696.898;35095.879; 6660.491;  430.231
697.473;34560.793; 4730.519;  454.952
698.048;35931.410; 5527.547;  478.973
698.623;35419.727; 4907.575;  477.094
699.198;35449.445; 5760.603;  496.915
699.773;34861.863; 5265.631;  490.236
700.348;34145.879; 5032.659;  519.957
700.922;35976.297; 5803.687;  575.678
701.497;35068.414; 5715.715;  621.399
702.072;34479.328; 6345.743;  664.420
702.646;35279.445; 6220.771;  690.541
703.221;35395.762; 5851.799;  748.862
703.795;33648.680; 5075.827;  774.282
704.370;31439.396; 4195.854;  799.803
704.944;32180.313; 5350.882;  875.824
705.519;32223.029; 5917.911;  902.945
706.093;31776.146; 5115.938;  889.266
706.668;33071.164; 5977.966;  903.487
707.242;33169.781; 6229.994;  881.708
707.816;31937.297; 5421.022;  892.329
708.390;32734.914; 5573.050;  970.250
708.965;33431.930; 5894.078;  984.671
709.539;31912.348; 5479.106; 1026.092
710.113;31898.064; 5717.134; 1067.913
710.687;32829.781; 6340.162; 1166.434
711.261;32193.699; 5046.190; 1190.854
711.835;32546.115; 5113.218; 1197.275
712.409;32371.932; 4673.246; 1308.096
712.983;31844.449; 4698.274; 1461.617
713.557;31676.166; 4738.302; 1611.838
714.131;31880.482; 5513.330; 1554.359
714.704;31222.600; 5052.357; 1520.780
715.278;31999.316; 5778.386; 1575.101
715.852;32118.934; 6195.414; 1689.822
716.425;32468.150; 7173.441; 1829.143
716.999;29755.566; 4602.469; 2008.664
717.573;31606.584; 6068.498; 2000.485
718.146;33822.801; 6993.525; 1914.506
718.720;33596.016; 5863.553; 1818.026
719.293;33716.734; 6102.581; 1734.147
719.867;32149.051; 5211.609; 1716.968
720.440;33041.668; 6702.637; 1918.589
721.013;31802.484; 5248.665; 1975.410
721.587;32622.301; 4707.693; 2073.331
722.160;34387.418; 6337.721; 2357.852
722.733;33380.535; 5699.749; 2657.073
723.306;33824.652; 5693.777; 2703.894
723.880;33330.770; 5874.805; 2549.415
724.453;34486.684; 6623.833; 2414.336
725.026;33541.402; 5414.861; 2298.557
725.599;33728.820; 5851.889; 2168.778
726.172;33266.934; 6048.917; 2106.099
726.745;32049.652; 5995.944; 2253.320
727.318;31666.270; 6349.973; 2404.740
727.891;31012.486; 5952.000; 2680.161
728.463;30929.604; 5874.028; 2838.882
729.036;30417.920; 5191.056; 2755.103
729.609;30356.037; 5164.084; 2731.824
730.182;31766.053; 6269.112; 2855.645
730.754;29777.070; 4264.140; 2946.866
731.327;31131.887; 6087.168; 2840.187
731.900;30117.004; 4722.196; 2647.608
732.472;31699.721; 5610.224; 2473.929
733.045;33313.938; 5415.252; 2445.750
733.617;32550.254; 4658.280; 2511.771
734.190;33461.172; 6048.308; 2581.592
734.762;32997.688; 5625.336; 2710.813
735.334;32381.805; 5705.364; 3005.733
735.907;32544.121; 5650.392; 3154.954
736.479;34008.738; 6477.420; 3171.675
737.051;33730.355; 6076.448; 3217.496
737.623;34509.172; 6125.476; 3246.217
738.195;34310.090; 5227.503; 2985.238
738.768;34085.906; 4413.532; 2727.559
739.340;35596.723; 5395.560; 2666.880
739.912;35544.938; 6154.587; 2769.601
740.484;33495.656; 6041.615; 2731.422
741.056;32471.072; 5406.643; 2963.043
741.628;31974.590; 5061.671; 3361.364
742.199;34662.508; 6600.699; 3641.185
742.771;33049.422; 4871.727; 3932.005
743.343;34245.941; 5107.755; 4319.926
743.915;35156.855; 5911.783; 4706.647
744.487;34667.973; 6027.811; 4874.968
745.058;33637.090; 6190.839; 4616.589
745.630;33722.508; 6120.867; 4253.410
746.201;33433.523; 5360.895; 4056.131
746.773;34830.742; 5970.923; 3772.952
747.344;34786.859; 5546.951; 3642.473
747.916;35099.273; 5867.979; 3752.294
748.487;34585.891; 6215.007; 4106.215
749.059;32616.008; 4925.035; 4457.835
749.630;33136.727; 5210.063; 4366.457
750.201;34112.242; 5596.090; 4600.078
750.773;34891.559; 5191.119; 4658.499
751.344;35694.977; 5646.146; 4609.319
751.915;34839.793; 5615.174; 4526.440
752.486;34181.910; 5290.202; 4536.061
753.057;34817.625; 5833.230; 4383.282
753.628;34192.043; 5134.258; 4296.503
754.199;34667.559; 5388.286; 4383.224
754.770;34460.375; 6050.314; 4653.545
755.341;34775.691; 6390.342; 4831.666
755.912;34633.711; 5515.370; 4831.387
756.483;34138.328; 6044.398; 4735.808
757.054;32990.344; 5429.426; 4685.029
757.625;33483.359; 4914.454; 4994.250
758.195;34122.277; 4772.482; 5051.471
758.766;35019.195; 5796.510; 5317.792
759.337;34212.711; 4685.538; 5646.512
759.907;33559.426; 4799.565; 5404.133
760.478;33883.445; 5292.594; 5090.954
761.048;35053.859; 6093.622; 4871.175
761.619;34955.879; 5987.649; 4589.396
762.189;35419.395; 5679.677; 4171.317
762.760;37402.711; 6186.706; 3872.538
763.330;37227.328; 6171.733; 3832.259
763.900;35141.645; 5877.761; 4150.180
764.471;34638.961; 5146.789; 4529.801
765.041;36250.379; 6472.817; 4715.922
765.611;35533.695; 6018.845; 4681.442
766.181;36101.512; 5600.873; 4717.063
766.751;36258.730; 5715.901; 4710.285
767.321;34316.445; 4850.929; 4450.305
767.891;35047.965; 5769.957; 4274.126
768.461;35733.480; 5538.985; 4215.047
769.031;36754.695; 5584.013; 4173.068
769.601;38380.215; 6515.041; 4174.689
770.171;36768.629; 4741.069; 4229.310
770.741;36358.945; 5430.097; 4352.031
771.311;36542.863; 5953.125; 4336.652
771.880;35262.980; 5107.152; 4300.873
772.450;35634.797; 5123.181; 4387.194
773.020;35018.113; 4730.208; 4220.415
773.589;34852.031; 5262.236; 4075.835
774.159;34497.746; 5286.264; 4105.756
774.729;34867.066; 5167.292; 4114.978
775.298;35667.383; 5219.320; 3693.298
775.867;35138.000; 5182.348; 3343.119
776.437;34345.613; 5672.376; 3062.040
777.006;33473.031; 4710.404; 2927.161
777.576;35041.250; 6039.432; 3046.482
778.145;35399.066; 5923.460; 3230.203
778.714;34667.582; 5528.488; 3253.324
779.283;33906.000; 5999.516; 3129.745
779.853;33570.816; 5550.544; 2983.566
780.422;32998.734; 5521.572; 2929.887
780.991;33339.852; 5881.600; 2863.908
781.560;33586.965; 6633.627; 2948.029
782.129;32944.785; 5883.656; 3074.149
782.698;33505.301; 6520.684; 2893.970
783.267;32407.217; 5196.711; 2721.391
783.836;35073.234; 5872.739; 2659.712
784.404;35134.551; 4896.768; 2622.233
784.973;34450.066; 4159.795; 2600.754
785.542;34550.285; 5541.823; 2528.475
786.111;33844.102; 6351.851; 2404.396
786.679;32906.617; 6007.879; 2365.717
787.248;32037.635; 4763.907; 2498.438
787.817;32719.451; 5303.935; 2645.659
788.385;34202.367; 6374.963; 2709.280
788.954;31702.885; 4857.991; 2620.500
789.522;31671.201; 6116.019; 2625.422
790.090;31664.020; 4816.047; 2743.843
790.659;32795.637; 5358.075; 2635.163
791.227;33389.352; 5509.103; 2495.484
791.795;33709.770; 5819.131; 2413.705
792.364;32176.387; 5044.159; 2345.326
792.932;32676.002; 5996.187; 2350.447
793.500;32347.119; 5421.214; 2429.768
794.068;33322.637; 4762.243; 2513.589
794.636;33248.555; 5129.271; 2664.310
795.204;32312.170; 4580.298; 2721.431
795.772;31445.586; 5100.326; 2802.052
796.340;31392.604; 5282.354; 2847.173
796.908;31292.621; 4563.382; 2997.194
797.476;31344.438; 4974.410; 3151.615
798.044;31034.654; 4456.438; 3110.735
798.612;31473.371; 5530.466; 2931.656
799.180;31925.387; 5639.494; 2785.777
799.747;32456.805; 5565.522; 2899.098
800.315;30866.822; 4923.550; 2955.519
800.883;30691.438; 4500.578; 2948.940
801.450;31604.955; 5537.606; 2965.361
802.018;31795.473; 5867.634; 3070.582
802.585;32001.988; 5644.662; 3156.103
803.153;31154.506; 5139.690; 3199.524
803.720;30529.723; 5170.718; 3168.845
804.287;30968.539; 5380.746; 3248.366
804.855;31792.156; 6321.773; 3406.187
805.422;30560.873; 5458.802; 3430.907
805.989;29529.990; 5009.830; 3453.528
806.556;29387.906; 5021.857; 3612.649
807.124;32029.223; 6214.885; 3736.570
807.691;32181.141; 4934.913; 3770.491
808.258;33062.656; 5577.941; 3705.012
808.825;33180.574; 6156.969; 3828.733
809.392;32205.590; 6660.997; 3986.754
809.959;30626.207; 5870.025; 4410.075
810.526;32041.424; 6678.053; 4774.996
811.093;30246.740; 6331.081; 4754.217
811.659;29577.557; 5531.109; 4661.238
812.226;30254.574; 5491.137; 4672.559
812.793;31608.490; 5759.165; 4822.979
813.360;30337.908; 5529.193; 5189.800
813.926;30372.426; 5868.221; 5310.622
814.493;28836.941; 4764.249; 5414.542
815.060;29475.459; 4516.277; 5548.963
815.626;28166.875; 4878.305; 5452.284
816.193;28247.592; 5715.333; 5339.305
816.759;28360.109; 5068.360; 5544.426
817.325;28042.426; 4486.389; 5706.547
817.892;29897.943; 6140.417; 5623.468
818.458;30540.260; 5899.444; 5586.689
819.024;29609.576; 6416.472; 5647.910
819.591;28347.393; 5628.500; 5762.031
820.157;27481.609; 4825.528; 6284.452
820.723;27974.426; 5904.556; 6906.973
821.289;31201.443; 8526.584; 7086.894
821.855;28186.561; 6078.612; 7054.915
822.421;27271.477; 5236.640; 7112.035
822.987;27346.994; 4891.668; 7256.156
823.553;28243.111; 5402.696; 7538.077
824.119;28785.127; 6121.724; 7594.298
824.685;28070.943; 6437.752; 7613.619
825.251;26591.160; 6140.780; 7644.140
825.816;26971.979; 6810.808; 7720.261
826.382;26369.494; 6051.835; 8014.282
826.948;26007.313; 6131.864; 8281.503
827.513;25124.828; 5517.892; 8289.624
828.079;25092.945; 4962.919; 8587.045
828.645;26540.162; 5791.947; 8821.865
829.210;25225.578; 4944.976; 9054.486
829.776;25190.496; 5965.003; 9054.607
830.341;24280.912; 6112.031; 9415.628
830.906;24223.729; 6304.059; 9932.449
831.472;23012.746; 5191.087;10150.271
832.037;24534.662; 6249.115; 9420.391
832.602;22938.180; 5259.143; 8664.912
833.167;22809.096; 5773.171; 8491.933
833.733;23815.313; 6187.199; 8872.854
834.298;22236.631; 4952.227; 9370.575
834.863;22150.746; 5789.255; 9610.695
835.428;21749.264; 5814.283; 9655.616
835.993;21609.281; 5997.311; 9437.838
836.558;21186.396; 6102.339; 9441.459
837.123;23661.914; 7443.367; 9600.979
837.688;22399.031; 5851.395; 9798.301
838.253;22815.447; 5924.422; 9902.921
838.817;21482.164; 5479.451;10339.742
839.382;22280.982; 6624.479;10548.363
839.947;20849.098; 5688.506;10252.484
840.511;21231.916; 6782.534;10040.005
841.076;18714.133; 4509.563;10099.926
841.641;20187.049; 6094.590;10347.347
842.205;19794.465; 5963.618;10817.368
842.770;21164.682; 6893.646;11435.289
843.334;19554.699; 5488.674;12072.409
843.898;18653.016; 5343.702;12635.431
844.463;19444.332; 6616.730;12537.252
845.027;18031.850; 5346.758;12759.673
845.591;18927.367; 6343.786;12821.993
846.156;17952.684; 5323.814;12520.914
846.720;18474.500; 6234.842;12390.436
847.284;17863.117; 5813.870;12956.456
847.848;17973.834; 6032.897;13240.177
848.412;17708.951; 5724.926;13216.998
848.976;18548.967; 6794.954;13014.619
849.540;18915.184; 7300.981;12355.740
850.104;17719.500; 6636.009;12208.761
850.668;15602.618; 4616.038;12106.882
851.232;16331.234; 4750.065;11862.103
851.796;17134.352; 5667.093;11700.523
852.359;17623.869; 6274.121;12375.944
852.923;17383.984; 6409.149;13087.966
853.487;17030.803; 6105.177;13297.187
854.050;14647.618; 3908.205;13851.207
854.614;15868.436; 5469.233;14854.229
855.177;15983.853; 5886.261;15802.149
855.741;16086.169; 6060.289;16603.570
856.304;16045.486; 6370.317;16359.891
856.868;14305.603; 5105.345;14365.512
857.431;14594.319; 5712.373;13361.333
857.995;14333.336; 5462.401;14130.554
858.558;14916.354; 5915.429;14883.175
859.121;16011.870; 6254.457;15754.195
859.684;15973.986; 5904.484;15995.017
860.247;15705.604; 5695.513;15149.537
860.810;14900.521; 5400.541;14640.358
861.374;16443.537; 7459.568;15551.079
861.937;13772.054; 4998.596;16519.801
862.500;14355.071; 5339.625;16796.521
863.062;13842.388; 5105.652;16538.742
863.625;14464.604; 5921.680;16716.764
864.188;14087.222; 5397.708;17055.084
864.751;13422.838; 5356.736;17197.705
865.314;13463.755; 5761.764;17151.625
865.876;13922.872; 6364.792;17783.547
866.439;13850.389; 6196.820;19283.467
867.002;14942.705; 7174.848;20256.389
867.564;13747.722; 6441.876;20485.410
868.127;12700.239; 5718.904;20789.730
868.689;13026.556; 5961.932;21981.951
869.252;13780.272; 6425.960;23803.771
869.814;12427.489; 5230.988;24974.094
870.377;13053.406; 5923.016;24690.314
870.939;15544.323; 8317.044;23963.436
871.501;13124.540; 5897.071;25167.156
872.063;11357.057; 4221.100;26995.477
872.626;11508.674; 4647.127;27443.098
873.188;12519.690; 5921.155;26718.418
873.750;12287.607; 5674.183;26558.840
874.312;11924.124; 5388.211;26701.561
874.874;13347.241; 6898.239;27970.582
875.436;12760.357; 6221.267;29173.402
875.998;13414.675; 6734.295;30376.623
876.560;13147.291; 6397.323;32507.344
877.122;11380.408; 5260.351;34833.066
877.683;11809.925; 6151.379;36458.285
878.245;10865.042; 5376.407;37248.207
878.807;11312.559; 6031.435;36758.027
879.369;10050.375; 4942.463;35223.551
879.930;10277.092; 5136.491;33824.969
880.492;11710.509; 6573.519;34436.492
881.053;10037.126; 5102.547;37745.313
881.615;10442.043; 5391.575;41184.633
882.176;10627.560; 5567.603;42871.555
882.738;11396.776; 6274.630;41693.074
883.299; 9701.593; 4460.659;40289.895
883.860; 9374.010; 4709.687;39231.215
884.422;10530.627; 6181.714;38264.039
884.983; 9291.743; 5033.742;37171.859
885.544; 9989.360; 5855.770;35842.379
886.105; 9723.977; 5720.798;34810.000
886.666; 9231.294; 5336.826;34519.020
887.227; 8580.211; 4744.854;33905.641
887.788; 9715.027; 5936.882;34502.965
888.349; 8575.845; 4873.910;34241.785
888.910; 9761.961; 6124.938;33722.203
889.471; 9504.378; 5846.966;32539.625
890.032; 9106.194; 5702.994;31528.346
890.593; 9409.911; 6083.022;32655.068
891.153; 8657.729; 5645.050;33882.289
891.714; 7745.845; 4819.078;33318.711
892.275; 7767.462; 5036.105;31848.930
892.835; 9112.379; 6330.134;30339.752
893.396; 8951.796; 6260.162;30074.973
893.956; 8121.813; 5605.189;30338.393
894.517; 8311.930; 5858.217;30864.113
895.077; 8279.546; 5932.246;29766.734
895.638; 9128.863; 6897.273;26379.557
896.198; 7144.180; 5026.301;24056.277
896.758; 8368.597; 6261.329;22961.898
897.319; 7594.713; 5611.357;21772.020
897.879; 7536.530; 5714.385;20877.539
898.439; 6523.547; 4747.413;19509.461
898.999; 7851.364; 6119.441;17297.582
899.559; 7773.480; 6037.469;14712.002
900.119; 6763.498; 5084.497;12790.224
900.679; 8342.814; 6747.525;11586.744
901.239; 7664.631; 6168.553;10776.465
901.799; 7251.048; 5786.581; 9691.687
902.359; 6530.465; 5185.609; 8725.907
902.919; 6400.881; 5054.637; 8305.728
903.479; 6383.298; 5046.665; 8172.649
904.038; 6095.615; 4968.692; 7913.870
904.598; 5452.132; 4259.721; 7262.291
905.158; 6490.648; 5435.749; 6609.012
905.717; 6757.766; 5623.776; 6236.133
906.277; 6780.182; 5717.804; 5829.054
906.836; 7078.999; 6056.833; 5396.674
907.396; 6981.016; 6052.860; 4964.195
907.955; 7013.333; 5980.888; 4528.917
908.515; 6416.549; 5444.916; 4223.837
909.074; 6465.366; 5481.944; 4023.958
909.633; 6469.383; 5518.972; 4065.379
910.192; 7821.100; 6941.000; 4066.300
910.752; 6351.500; 5503.000; 3971.600
911.311; 6266.200; 5417.000; 3839.600
911.870; 6053.300; 5136.000; 3684.500
912.429; 7318.500; 6432.000; 3635.600
912.988; 7144.600; 6289.000; 3689.800
913.547; 5929.300; 5102.000; 3737.700
914.106; 6655.700; 5755.000; 3740.300
914.665; 6591.600; 5731.000; 3604.600
915.224; 7207.600; 6407.000; 3358.700
915.782; 6165.400; 5305.000; 3188.400
916.341; 7395.500; 6542.000; 3091.400
916.900; 6224.200; 5490.000; 3044.800
917.458; 5914.900; 5238.000; 2888.600
918.017; 6514.300; 5768.000; 2818.900
918.576; 6251.400; 5455.000; 2838.600
919.134; 5580.700; 4788.000; 2880.100
919.693; 6182.600; 5332.000; 2996.300
920.251; 6073.500; 5290.000; 3183.100
920.809; 5738.300; 4913.000; 3247.000
921.368; 6089.700; 5358.000; 3156.600
921.926; 5857.400; 5063.000; 2964.900
922.484; 6414.300; 5701.000; 2846.300
923.042; 6237.100; 5468.000; 2890.400
923.601; 7363.400; 6575.000; 2987.700
924.159; 6762.200; 6004.000; 3049.800
924.717; 5819.200; 5018.000; 3087.000
925.275; 6479.000; 5673.000; 3093.400
925.833; 5317.400; 4503.000; 3182.400
926.391; 6786.600; 5982.000; 3397.900
926.949; 6146.600; 5315.000; 3575.400
927.506; 6535.700; 5692.000; 3713.400
928.064; 6176.700; 5391.000; 3871.300
928.622; 6315.700; 5544.000; 4092.800
929.180; 5683.400; 4740.000; 4499.300
929.737; 5548.500; 4678.000; 4813.200
930.295; 6830.400; 5971.000; 5084.100
930.853; 5954.400; 5176.000; 5185.000
931.410; 5678.400; 4811.000; 5313.100
931.968; 6913.900; 5977.000; 5339.600
932.525; 6453.300; 5604.000; 5399.900
933.082; 5642.000; 4724.000; 5457.500
933.640; 6755.500; 5779.000; 5692.900
934.197; 6320.100; 5288.000; 5821.200
934.754; 6351.200; 5389.000; 5617.900
935.312; 6036.200; 5035.000; 5512.400
935.869; 7518.400; 6473.000; 5582.400
936.426; 6096.900; 5084.000; 5650.100
936.983; 6271.100; 5351.000; 5657.400
937.540; 5719.600; 4795.000; 5564.300
938.097; 6710.600; 5766.000; 5574.000
938.654; 6188.200; 5205.000; 5665.900
939.211; 6751.200; 5747.000; 5931.600
939.768; 6475.700; 5454.000; 6153.600
940.324; 6285.700; 5260.000; 6397.600
940.881; 6035.100; 5026.000; 6454.200
941.438; 7328.900; 6321.000; 6206.900
941.995; 7068.600; 6088.000; 6003.900
942.551; 5758.300; 4826.000; 6228.300
943.108; 6298.400; 5493.000; 6603.500
943.664; 5749.100; 4808.000; 7188.100
944.221; 7846.100; 6963.000; 7579.900
944.777; 5663.300; 4769.000; 7658.100
945.334; 5794.000; 4926.000; 7670.400
945.890; 6380.000; 5499.000; 7525.100
946.446; 6418.000; 5661.000; 7261.500
947.003; 6634.000; 5720.000; 6949.200
947.559; 7559.100; 6597.000; 6773.100
948.115; 7165.300; 6184.000; 6668.400
948.671; 6611.500; 5716.000; 6488.400
949.227; 5549.900; 4637.000; 6236.600
949.783; 5467.400; 4555.000; 6008.900
950.339; 6709.700; 5763.000; 5934.100
950.895; 7074.100; 6155.000; 5933.500
951.451; 6141.200; 5281.000; 6074.700
952.007; 6825.900; 5873.000; 6066.400
952.563; 6160.900; 5328.000; 5884.100
953.118; 5946.700; 5100.000; 5733.800
953.674; 6324.800; 5522.000; 5734.300
954.230; 6366.500; 5449.000; 6039.700
954.785; 6300.200; 5377.000; 6383.500
955.341; 6914.300; 5957.000; 6568.200
955.897; 5451.100; 4541.000; 6488.600
956.452; 6570.000; 5608.000; 6239.200
957.008; 7952.300; 7065.000; 5954.600
957.563; 7239.500; 6359.000; 5816.700
958.118; 5897.500; 5037.000; 5828.200
958.674; 6503.900; 5597.000; 5717.400
959.229; 7318.800; 6411.000; 5506.800
959.784; 5598.100; 4679.000; 5292.200
960.339; 7220.900; 6396.000; 5101.900
960.894; 6842.100; 5933.000; 5093.200
961.449; 5815.800; 4985.000; 5227.900
962.004; 9321.700; 8506.000; 5349.300
962.559; 5926.000; 5074.000; 5514.900
963.114; 4808.200; 3947.000; 5717.300
963.669; 6366.000; 5523.000; 5841.400
964.224; 6076.800; 5243.000; 5805.900
964.779; 5652.000; 4846.000; 5723.400
965.334; 7252.700; 6456.000; 5779.500
965.888; 6017.700; 5158.000; 5948.500
966.443; 6961.200; 6152.000; 6344.200
966.998; 5426.500; 4528.000; 6666.300
967.552; 6298.700; 5558.000; 6710.100
968.107; 5970.400; 5157.000; 6593.500
968.661; 6496.800; 5652.000; 6344.100
969.216; 5871.000; 5033.000; 6062.400
969.770; 6465.200; 5711.000; 5785.500
970.324; 6501.100; 5736.000; 5426.800
970.879; 6795.600; 6085.000; 5016.800
971.433; 6854.100; 6137.000; 4904.500
971.987; 6324.800; 5551.000; 4991.000
972.541; 6552.400; 5804.000; 4978.500
973.095; 7402.700; 6695.000; 4832.000
973.649; 5430.900; 4743.000; 4767.900
974.203; 5647.800; 4999.000; 4881.200
974.757; 5925.700; 5146.000; 4969.500
975.311; 6179.400; 5507.000; 4953.000
975.865; 6178.300; 5512.000; 4884.300
976.419; 6005.600; 5308.000; 4739.800
976.973; 5934.200; 5164.000; 4698.100
977.526; 6955.700; 6270.000; 4631.100
978.080; 5436.900; 4752.000; 4621.600
978.634; 6591.800; 5983.000; 4650.200
979.187; 6499.200; 5837.000; 4669.200
979.741; 7614.000; 6893.000; 4658.000
980.294; 5442.400; 4800.000; 4579.100
980.848; 4758.100; 4141.000; 4452.800
981.401; 5772.100; 5098.000; 4271.900
981.955; 6096.600; 5559.000; 4087.800
982.508; 5136.100; 4589.000; 3973.900
983.061; 6829.400; 6233.000; 3928.600
983.615; 5622.500; 5011.000; 3851.200
984.168; 5388.100; 4774.000; 3734.800
984.721; 6447.400; 5824.000; 3628.300
985.274; 6319.000; 5695.000; 3564.300
985.827; 6045.300; 5545.000; 3558.100
986.380; 4968.400; 4362.000; 3559.900
986.933; 6322.000; 5820.000; 3688.700
987.486; 6336.500; 5769.000; 3778.500
988.039; 6299.500; 5766.000; 3559.900
988.591; 6726.900; 6199.000; 3219.300
989.144; 5200.800; 4702.000; 2902.900
989.697; 5481.200; 4951.000; 2722.600
990.250; 6508.300; 5977.000; 2618.000
990.802; 5523.000; 4954.000; 2523.900
991.355; 7714.100; 7290.000; 2436.500
991.907; 6653.050; 6210.000; 2412.200
992.460; 5592.000; 5130.000; 2387.900
993.012; 5593.300; 5177.000; 2365.800
993.565; 5257.500; 4838.000; 2311.100
994.117; 7543.400; 7118.000; 2308.700
994.669; 5260.400; 4789.000; 2249.300
995.221; 6181.300; 5730.000; 2158.100
995.774; 6036.500; 5661.000; 2085.600
996.326; 5625.400; 5310.000; 2068.100
996.878; 6664.200; 6288.000; 1975.300
997.430; 5355.700; 5001.000; 1929.500
997.982; 5885.400; 5514.000; 1861.900
998.534; 5811.800; 5395.000; 1830.200
999.086; 5748.200; 5486.000; 1823.200
999.638; 5018.400; 4617.000; 1815.000
1000.190; 5514.500; 5201.000; 1796.600
1000.741; 5859.100; 5618.000; 1738.800
1001.293; 5306.500; 4958.000; 1666.200
1001.845; 5337.100; 4936.000; 1566.500
1002.396; 5937.800; 5683.000; 1471.900
1002.948; 5904.000; 5585.000; 1398.000
1003.500; 5795.700; 5384.000; 1356.500
1004.051; 7697.400; 7408.000; 1294.200
1004.603; 6547.400; 6321.000; 1190.000
1005.154; 4815.800; 4622.000; 1063.900
1005.705; 5956.800; 5715.000;  968.300
1006.257; 5822.600; 5621.000;  889.800
1006.808; 5641.300; 5409.000;  801.500
1007.359; 6470.400; 6277.000;  716.400
1007.910; 5288.900; 5166.000;  639.100
1008.461; 6199.000; 6046.000;  561.600
1009.013; 4791.700; 4631.000;  500.400
1009.564; 6802.600; 6641.000;  476.100
1010.115; 4881.600; 4749.000;  431.600
1010.665; 4972.400; 4862.000;  409.300
1011.216; 5628.900; 5486.000;  399.700
1011.767; 5845.400; 5682.000;  388.100
1012.318; 6126.500; 5979.000;  381.400
1012.869; 5650.300; 5469.000;  375.400
1013.419; 4967.500; 4882.000;  357.600
1013.970; 5649.400; 5508.000;  358.300
1014.521; 5132.700; 4920.000;  344.100
1015.071; 5670.900; 5526.000;  322.800
1015.622; 5325.600; 5173.000;  320.600
1016.172; 4911.400; 4798.000;  301.700
1016.723; 5112.400; 4985.000;  289.800
1017.273; 5051.300; 4919.000;  287.600
1017.823; 5472.200; 5266.000;  278.700
1018.374; 5116.400; 5017.000;  274.400
1018.924; 6153.300; 6026.000;  283.200
1019.474; 6040.800; 5935.000;  278.500
1020.024; 5495.700; 5446.000;  274.700
1020.574; 6219.700; 6046.000;  272.700
1021.124; 5742.500; 5659.000;  278.400
1021.674; 4645.300; 4550.000;  269.200
1022.224; 6121.800; 6058.000;  267.800
1022.774; 5628.500; 5508.000;  258.100
1023.324; 6528.500; 6390.000;  260.000
1023.874; 7753.400; 7690.000;  260.700
1024.423; 5172.100; 5024.000;  252.700
1024.973; 5016.600; 4838.000;  234.700
1025.523; 5229.700; 5137.000;  226.500
1026.072; 5144.500; 5038.000;  225.500
1026.622; 5798.600; 5608.000;  210.100
1027.172; 6145.800; 6037.000;  213.000
1027.721; 5063.400; 4936.000;  207.700
1028.270; 5762.500; 5591.000;  205.400
1028.820; 5487.100; 5374.000;  201.000
1029.369; 5214.300; 5199.000;  201.000
1029.918; 5482.000; 5341.000;  198.400
1030.468; 4729.800; 4593.000;  199.200
1031.017; 5440.200; 5332.000;  192.600
1031.566; 5206.000; 5112.000;  197.400
1032.115; 6012.700; 5870.000;  188.300
1032.664; 5124.800; 4961.000;  193.700
1033.213; 6369.300; 6321.000;  191.900
1033.762; 5454.800; 5365.000;  184.500
1034.311; 5808.300; 5729.000;  194.300
1034.860; 5961.200; 5882.000;  192.300
1035.408; 6339.400; 6205.000;  182.600
1035.957; 6226.400; 6129.000;  173.900
1036.506; 4424.200; 4341.000;  185.200
1037.055; 7440.300; 7433.000;  182.500
1037.603; 5727.700; 5562.000;  167.600
1038.152; 4422.200; 4363.000;  168.200
1038.700; 4969.600; 4879.000;  169.600
1039.249; 5883.700; 5805.000;  164.300
1039.797; 5455.100; 5351.000;  169.600
1040.345; 6113.100; 6042.000;  167.100
1040.894; 5439.900; 5358.000;  164.400
1041.442; 5502.100; 5318.000;  158.300
1041.990; 4762.300; 4711.000;  160.000
1042.538; 4549.900; 4442.000;  156.800
1043.087; 4791.300; 4622.000;  146.600
1043.635; 5891.600; 5900.000;  162.400
1044.183; 5073.500; 4946.000;  156.300
1044.731; 4934.800; 4900.000;  158.100
1045.279; 5884.900; 5836.000;  154.500
1045.827; 8002.300; 7934.000;  146.200
1046.374; 4319.900; 4281.000;  154.000
1046.922; 5065.300; 5002.000;  149.000
1047.470; 6055.800; 5941.000;  154.900
1048.018; 5733.700; 5569.000;  148.400
1048.565; 6269.200; 6230.000;  146.300
1049.113; 4714.100; 4693.000;  156.100
1049.660; 5410.100; 5334.000;  154.300
1050.208; 5887.200; 5811.000;  149.400
1050.755; 5243.100; 5115.000;  157.500
1051.303; 6029.200; 5906.000;  157.700
1051.850; 5480.900; 5349.000;  152.800
1052.397; 3994.300; 3904.000;  146.300
1052.945; 5368.800; 5306.000;  149.500
1053.492; 6546.000; 6448.000;  149.300
1054.039; 6358.000; 6276.000;  163.100
1054.586; 4802.200; 4669.000;  150.400
1055.133; 6113.000; 6065.000;  153.500
1055.680; 5633.500; 5558.000;  155.600
1056.227; 4650.800; 4517.000;  148.700
1056.774; 7089.300; 7027.000;  151.500
1057.321; 4485.500; 4417.000;  143.700
1057.868; 5654.800; 5537.000;  145.300
1058.415; 5733.700; 5620.000;  153.500
1058.961; 5967.000; 5887.000;  149.900
1059.508; 5609.900; 5514.000;  147.300
1060.055; 5058.600; 4957.000;  151.000
1060.601; 5395.500; 5313.000;  148.700
1061.148; 5479.100; 5405.000;  153.800
1061.694; 5173.200; 5146.000;  150.500
1062.241; 5197.000; 5032.000;  149.100
1062.787; 5854.400; 5747.000;  153.000
1063.334; 7168.300; 7001.000;  153.200
1063.880; 5923.300; 5827.000;  148.400
1064.426; 6256.800; 6202.000;  149.200
1064.972; 5208.800; 5161.000;  156.400
1065.518; 4943.100; 4912.000;  144.700
1066.065; 5538.300; 5581.000;  139.400
1066.611; 5261.400; 5178.000;  139.300
1067.157; 5633.400; 5532.000;  138.400
1067.703; 5919.300; 5887.000;  142.700
1068.249; 5182.000; 5113.000;  136.700
1068.794; 5470.300; 5423.000;  139.400
1069.340; 5038.800; 5006.000;  142.700
1069.886; 5211.600; 5117.000;  135.600
1070.432; 4663.400; 4606.000;  133.400
1070.977; 5295.500; 5135.000;  138.200
1071.523; 4910.300; 4894.000;  132.400
1072.068; 5038.500; 4936.000;  132.700
1072.614; 4525.100; 4503.000;  127.000
1073.160; 6139.800; 6090.000;  131.300
1073.705; 5032.000; 5030.000;  135.700
1074.250; 4895.500; 4904.000;  133.000
1074.796; 5805.300; 5771.000;  138.000
1075.341; 5843.900; 5822.000;  137.300
1075.886; 5144.900; 4986.000;  134.300
1076.431; 5831.800; 5812.000;  138.200
1076.976; 5679.900; 5633.000;  132.200
1077.521; 5088.600; 5046.000;  138.900
1078.067; 5128.300; 5050.000;  128.600
1078.612; 5886.000; 5886.000;  138.900
1079.156; 5304.300; 5189.000;  128.900
1079.701; 6170.800; 6155.000;  129.700
1080.246; 6185.600; 6178.000;  128.600
1080.791; 5580.700; 5562.000;  122.600
1081.336; 5841.100; 5852.000;  122.000
1081.880; 5802.800; 5717.000;  123.900
1082.425; 5002.500; 4948.000;  120.600
1082.970; 6436.900; 6384.000;  124.500
1083.514; 5261.900; 5162.000;  112.000
1084.059; 5142.300; 5063.000;  120.700
1084.603; 5025.200; 4893.000;  116.000
1085.147; 5790.100; 5713.000;  116.300
1085.692; 6467.100; 6383.000;  108.200
1086.236; 4402.800; 4346.000;  114.600
1086.780; 6768.900; 6644.000;  118.900
1087.325; 5842.900; 5849.000;  120.400
1087.869; 5462.600; 5459.000;  110.500
1088.413; 6314.500; 6238.000;  114.000
1088.957; 4722.400; 4614.000;  114.300
1089.501; 6937.500; 6857.000;  114.600
1090.045; 6553.100; 6559.000;  114.200
1090.589; 5014.900; 4966.000;  105.500
1091.133; 5992.300; 5902.000;  111.800
1091.676; 5185.700; 5140.000;  110.900
1092.220; 5332.600; 5377.000;  110.100
1092.764; 6319.200; 6290.000;  108.100
1093.307; 5995.700; 5998.000;  109.900
1093.851; 4908.800; 4870.000;  107.500
1094.395; 6157.200; 6119.000;   96.200
1094.938; 5632.000; 5617.000;   99.300
1095.482; 4938.100; 4918.000;   97.700
1096.025; 6398.800; 6310.000;   84.900
1096.568; 6985.100; 6932.000;   88.500
1097.112; 4392.200; 4354.000;   95.700
1097.655; 5299.600; 5181.000;   97.300
1098.198; 5331.800; 5278.000;   92.600
1098.741; 5524.200; 5520.000;   91.800
1099.285; 5845.200; 5763.000;   88.000
1099.828; 3798.200; 3796.000;   91.700
1100.371; 5488.200; 5383.000;   89.900
1100.914; 6156.100; 6094.000;   91.500
1101.457; 6110.900; 6083.000;   88.100
1101.999; 5149.000; 5084.000;   86.400
1102.542; 5676.100; 5645.000;   90.800
1103.085; 5936.000; 5802.000;   95.400
1103.628; 6947.600; 6918.000;   97.700
1104.170; 5206.500; 5102.000;   84.000
1104.713; 5793.300; 5745.000;   93.900
1105.256; 4929.200; 4875.000;   93.000
1105.798; 4423.200; 4434.000;   85.600
1106.341; 6592.400; 6532.000;   87.100
1106.883; 4635.100; 4570.000;   85.200
1107.425; 6035.500; 6045.000;   85.000
1107.968; 5554.000; 5472.000;   84.300
1108.510; 6168.700; 6108.000;   88.200
1109.052; 5565.100; 5533.000;   86.600
1109.594; 4993.200; 4946.000;   79.400
1110.136; 5808.700; 5831.000;   81.700
1110.679; 5667.000; 5623.000;   75.500
1111.221; 5458.800; 5411.000;   88.500
1111.763; 4961.200; 4911.000;   87.700
1112.304; 4874.000; 4854.000;   89.700
1112.846; 6005.300; 5956.000;   81.900
1113.388; 8726.900; 8762.000;   86.400
1113.930; 6280.200; 6282.000;   84.700
1114.472; 5477.200; 5366.000;   78.900
1115.013; 4908.700; 4872.000;   78.100
1115.555; 5319.200; 5271.000;   84.900
1116.097; 5153.600; 5162.000;   79.200
1116.638; 6236.500; 6142.000;   83.700
1117.180; 5969.200; 5892.000;   85.500
1117.721; 5128.700; 5089.000;   78.800
1118.262; 6146.900; 6168.000;   77.400
1118.804; 5745.300; 5668.000;   81.400
1119.345; 5253.300; 5154.000;   77.800
1119.886; 6405.600; 6365.000;   81.200
1120.427; 5317.200; 5263.000;   77.200
1120.969; 5428.400; 5361.000;   75.200
1121.510; 5072.200; 5095.000;   80.900
1122.051; 6607.000; 6478.000;   77.300
1122.592; 5966.300; 5955.000;   73.300
1123.133; 4908.800; 4880.000;   90.100
1123.673; 6477.100; 6445.000;   75.000
1124.214; 5565.400; 5548.000;   80.600
1124.755; 5876.500; 5830.000;   78.000
1125.296; 5656.900; 5628.000;   77.500
1125.836; 6306.200; 6237.000;   80.400
1126.377; 5443.100; 5435.000;   75.600
1126.918; 5579.600; 5571.000;   78.900
1127.458; 5653.800; 5616.000;   78.000
1127.999; 5973.400; 5905.000;   76.100
1128.539; 6349.200; 6283.000;   81.400
1129.079; 5800.600; 5794.000;   77.400
1129.620; 5046.500; 5066.000;   68.000
1130.160; 4875.400; 4819.000;   77.500
1130.700; 5812.900; 5809.000;   76.300
1131.240; 5877.200; 5810.000;   66.800
1131.781; 5668.300; 5572.000;   70.600
1132.321; 5486.700; 5434.000;   77.200
1132.861; 5060.300; 4954.000;   70.400
1133.401; 5419.600; 5415.000;   68.700
1133.941; 5705.200; 5752.000;   68.500
1134.481; 5489.900; 5399.000;   75.900
1135.020; 5525.600; 5478.000;   66.600
1135.560; 6106.700; 6106.000;   68.100
1136.100; 4508.700; 4466.000;   64.900
1136.640; 4638.100; 4595.000;   72.500
1137.179; 4811.600; 4772.000;   69.700
1137.719; 5518.400; 5456.000;   68.400
1138.258; 5342.600; 5364.000;   67.000
1138.798; 6027.900; 5978.000;   69.600
1139.337; 4344.000; 4292.000;   64.000
1139.877; 5852.100; 5855.000;   64.500
1140.416; 8054.400; 8129.000;   74.900
1140.955; 4801.600; 4763.000;   67.200
1141.494; 6185.100; 6114.000;   69.900
1142.034; 5300.600; 5349.000;   59.100
1142.573; 5905.500; 5846.000;   65.900
1143.112; 5014.500; 4973.000;   70.600
1143.651; 4860.300; 4810.000;   67.100
1144.190; 6377.000; 6414.000;   56.700
1144.729; 5531.500; 5553.000;   61.800
1145.267; 5318.500; 5202.000;   62.500
1145.806; 5808.100; 5715.000;   68.500
1146.345; 5861.600; 5888.000;   58.300
1146.884; 5722.000; 5660.000;   63.100
1147.422; 4834.500; 4811.000;   54.800
1147.961; 6528.000; 6432.000;   67.600
1148.500; 6132.700; 6104.000;   64.700
1149.038; 5835.100; 5811.000;   61.000
1149.577; 6443.700; 6411.000;   65.100
1150.115; 4056.700; 3998.000;   58.100
1150.653; 5575.300; 5591.000;   60.500
1151.192; 5055.200; 5061.000;   56.600
1151.730; 6018.700; 5962.000;   62.300
1152.268; 5345.900; 5302.000;   55.500
1152.806; 5257.400; 5130.000;   58.200
1153.344; 5240.400; 5204.000;   55.000
1153.882; 5440.200; 5389.000;   64.200
1154.421; 4220.900; 4188.000;   60.300
1154.958; 5491.200; 5482.000;   58.100
1155.496; 5916.500; 5874.000;   55.800
1156.034; 6672.100; 6597.000;   61.000
1156.572; 6130.400; 6053.000;   56.200
1157.110; 4250.200; 4289.000;   53.200
1157.647; 6234.100; 6224.000;   57.400
1158.185; 5200.300; 5144.000;   55.500
1158.723; 4621.300; 4643.000;   58.000
1159.260; 6446.800; 6461.000;   53.700
1159.798; 6070.800; 6045.000;   51.700
1160.335; 5816.700; 5797.000;   59.600

