
Integration time [ms]:   3.276
Averaging Nr. [scans]: 1000
Smoothing Nr. [pixels]: 0
Data measured with spectrometer [name]: 7414430SP
Wave   ;Sample   ;Dark     ;Reference
[nm]   ;[counts] ;[counts] ;[counts] 

288.544;  150.674;    7.793;  793.890
289.143;  154.194;    7.462;  681.602
289.742;  153.668;    8.602;  828.814
290.341;  139.461;    1.321;  789.841
290.940;  128.872;   -0.709;  730.702
291.538;  129.265;    0.881;  881.108
292.137;  129.710;    0.122;  792.581
292.736;  133.673;   -1.929;  975.101
293.335;  130.581;   -8.229;  735.086
293.934;  131.166;   -5.279;  781.677
294.532;  129.086;   -1.369; 1031.958
295.131;  115.266;   -7.641;  834.394
295.730;  115.838;   -8.420;  809.588
296.328;  114.849;   -5.611;  783.442
296.927;  115.032;   -5.781;  779.652
297.525;  115.968;   -6.361;  781.236
298.124;  106.762;  -11.382;  654.009
298.722;  110.031;   -7.641;  761.933
299.321;  108.049;   -6.811;  708.597
299.919;  106.137;   -6.991;  751.918
300.518;  103.544;  -10.362;  689.338
301.116;  105.316;   -9.581;  691.381
301.715;  104.170;   -4.891;  730.222
302.313;  102.722;   -8.801;  704.943
302.911;   99.470;   -8.522;  733.830
303.509;  104.608;   -6.171;  925.627
304.108;  101.643;   -7.311;  760.383
304.706;  100.696;   -8.321;  801.664
305.304;   96.570;  -10.222;  796.707
305.902;  100.615;   -6.021;  784.484
306.500;   96.972;   -4.971;  728.200
307.098;   95.000;   -7.061;  746.560
307.696;   93.684;   -8.801;  780.432
308.294;   93.146;   -6.411;  731.359
308.892;   95.245;   -2.901;  759.769
309.490;   91.150;   -5.041;  712.161
310.088;   89.894;   -5.002;  788.444
310.686;   93.727;   -2.041;  821.749
311.284;   89.840;   -2.351;  766.040
311.882;   87.922;   -4.422;  731.225
312.480;   84.848;   -4.192;  697.167
313.078;   86.233;   -1.172;  808.331
313.675;   86.818;   -2.601;  691.600
314.273;   82.270;   -1.312;  797.837
314.871;   82.044;   -3.942;  589.829
315.468;   80.188;   -2.802;  652.090
316.066;   81.819;   -0.701;  694.427
316.664;   75.495;   -4.362;  656.351
317.261;   78.935;   -2.872;  910.128
317.859;   74.873;   -2.022;  768.735
318.456;   75.104;   -0.531;  830.096
319.054;   70.639;   -3.912;  787.828
319.651;   70.585;   -4.752;  759.928
320.249;   69.003;   -2.602;  810.188
320.846;   66.198;   -0.821;  714.286
321.443;   64.375;   -4.642;  832.135
322.041;   61.056;   -5.002;  812.315
322.638;   59.474;   -3.982;  701.456
323.235;   60.217;   -3.411;  665.683
323.833;   57.245;   -7.361;  740.354
324.430;   52.817;   -8.611;  615.900
325.027;   54.198;   -4.061;  876.855
325.624;   53.086;   -4.031;  644.532
326.221;   50.192;   -7.481;  689.717
326.818;   50.112;   -5.281;  818.332
327.415;   53.624;   -7.460;  748.828
328.012;   52.379;   -5.510;  690.585
328.609;   52.051;   -7.880;  731.389
329.206;   49.607;   -8.331;  778.621
329.803;   49.743;   -5.121;  737.841
330.400;   52.204;   -4.510;  704.260
330.997;   53.166;   -6.441;  817.147
331.594;   52.819;   -8.831;  788.185
332.191;   57.144;   -7.621;  728.722
332.787;   60.355;   -4.591;  844.463
333.384;   59.009;   -7.412;  763.093
333.981;   57.284;   -8.293;  815.687
334.578;   61.162;   -7.052;  708.378
335.174;   62.901;   -3.102;  731.469
335.771;   62.463;   -5.943;  836.456
336.367;   60.207;   -7.393;  710.631
336.964;   63.499;   -4.063;  793.266
337.561;   61.437;   -3.813;  731.112
338.157;   57.159;   -4.654;  911.916
338.754;   54.920;   -7.934;  796.589
339.350;   52.704;   -4.414;  722.493
339.946;   53.981;   -4.664;  773.135
340.543;   46.869;   -6.375;  846.136
341.139;   41.359;   -9.815;  720.836
341.735;   39.525;   -4.526;  772.593
342.332;   37.895;   -4.895;  691.472
342.928;   38.411;   -4.295;  795.394
343.524;   32.744;   -5.476;  761.684
344.120;   28.660;   -5.856;  738.562
344.716;   31.896;   -2.155;  723.717
345.313;   29.607;   -6.275;  795.342
345.909;   24.254;   -8.815;  627.336
346.505;   26.351;   -5.305;  740.247
347.101;   26.364;   -2.674;  827.864
347.697;   27.205;   -4.344;  785.398
348.293;   21.430;   -9.975;  627.244
348.889;   22.512;   -5.774;  745.914
349.485;   21.667;   -5.004;  688.205
350.081;   21.807;   -4.704;  772.592
350.676;   18.110;   -6.635;  691.606
351.272;   22.089;   -4.504;  809.530
351.868;   21.258;   -3.914;  780.497
352.464;   19.009;   -9.044;  723.932
353.059;   15.934;   -8.314;  646.017
353.655;   18.988;   -7.024;  777.063
354.251;   19.591;   -5.343;  759.845
354.846;   12.913;   -8.604;  740.646
355.442;   11.641;   -6.945;  753.071
356.038;   13.076;   -7.564;  751.708
356.633;   14.139;   -5.814;  728.594
357.229;   11.365;   -7.364;  724.757
357.824;   10.583;   -8.024;  703.600
358.420;    9.845;   -9.384;  679.726
359.015;    9.138;   -5.104;  695.357
359.610;   10.706;   -6.854;  763.920
360.206;    4.677;  -10.185;  603.240
360.801;    7.510;   -7.054;  646.503
361.396;   10.080;   -5.034;  725.975
361.992;    5.213;   -8.284;  668.220
362.587;    2.889;   -8.625;  670.160
363.182;    4.872;   -7.674;  689.631
363.777;    5.470;   -5.164;  738.242
364.372;    5.448;   -8.604;  737.314
364.967;    1.670;   -9.055;  680.744
365.563;    5.336;   -6.114;  815.567
366.158;    1.886;   -5.814;  685.161
366.753;    2.612;   -7.854;  649.263
367.348;    2.111;   -7.804;  746.056
367.942;    0.984;   -7.954;  697.298
368.537;    0.254;   -4.984;  754.245
369.132;   -0.004;   -8.564;  703.428
369.727;   -3.056;   -8.855;  638.079
370.322;   -1.993;   -6.245;  580.186
370.917;   -2.472;   -6.425;  710.646
371.511;    0.174;   -6.294;  861.834
372.106;   -2.681;   -7.685;  776.964
372.701;   -6.033;   -7.335;  585.988
373.296;   -1.287;   -4.564;  863.135
373.890;   -5.630;  -10.235;  647.840
374.485;   -7.650;   -7.885;  691.199
375.079;   -3.999;   -7.324;  738.685
375.674;   -2.731;   -3.494;  812.970
376.268;   -7.433;   -8.525;  691.759
376.863;  -12.454;  -10.086;  580.327
377.457;   -6.983;   -7.025;  662.490
378.052;   -8.365;   -3.585;  764.884
378.646;   -9.191;   -7.595;  741.167
379.240;   -9.290;   -8.335;  721.176
379.835;   -8.477;   -5.785;  636.978
380.429;  -10.537;   -4.335;  562.557
381.023;  -10.860;   -6.805;  779.205
381.617;  -12.646;   -9.195;  680.106
382.212;   -9.511;   -6.905;  685.303
382.806;   -8.295;   -3.745;  760.690
383.400;  -12.041;   -7.745;  672.281
383.994;  -13.228;   -9.765;  664.870
384.588;   -9.736;   -6.564;  697.701
385.182;   -8.523;   -5.344;  726.624
385.776;   -9.912;   -8.514;  706.875
386.370;  -13.522;   -9.555;  681.968
386.964;  -11.740;   -8.715;  684.155
387.558;  -10.628;   -6.174;  598.360
388.152;  -14.265;   -8.725;  681.959
388.745;  -12.170;   -7.965;  814.707
389.339;  -10.249;   -5.924;  747.642
389.933;   -9.943;   -5.524;  695.370
390.527;  -10.415;   -7.114;  859.029
391.120;  -16.614;  -10.725;  595.318
391.714;  -13.184;   -8.035;  711.633
392.308;  -10.895;   -3.574;  780.253
392.901;  -14.310;   -7.245;  642.460
393.495;  -15.738;   -9.285;  595.414
394.089;  -13.700;   -5.895;  760.452
394.682;  -14.531;   -4.295;  697.188
395.275;  -15.247;   -9.875;  719.927
395.869;  -16.713;   -8.485;  667.314
396.462;  -14.435;   -7.455;  616.609
397.056;  -11.530;   -5.424;  776.621
397.649;  -15.880;   -6.605;  731.575
398.242;  -12.771;   -8.224;  712.645
398.836;  -11.419;   -7.474;  766.408
399.429;  -13.940;   -7.094;  631.041
400.022;  -16.745;   -9.475;  665.902
400.615;  -14.481;   -7.145;  805.609
401.208;  -12.374;   -7.174;  691.451
401.802;  -15.302;   -5.515;  699.329
402.395;  -15.654;   -9.875;  683.502
402.988;  -16.385;   -8.845;  696.627
403.581;  -13.239;   -8.874;  646.878
404.174;  -11.024;   -5.324;  686.568
404.767;  -14.504;   -9.575;  638.583
405.360;  -17.002;  -10.965;  621.445
405.953;  -10.738;   -8.764;  759.034
406.545;  -11.122;   -7.514;  725.342
407.138;  -15.277;  -10.025;  618.350
407.731;  -13.882;  -10.034;  613.303
408.324;  -10.111;   -9.374;  660.554
408.917;  -11.493;   -6.534;  681.864
409.509;  -13.033;   -8.004;  740.396
410.102;  -14.391;   -9.875;  643.948
410.695;   -8.905;   -8.604;  665.758
411.287;  -10.091;   -6.794;  599.821
411.880;  -10.955;   -9.334;  585.421
412.472;  -13.775;  -10.254;  613.092
413.065;  -11.340;   -6.714;  629.408
413.657;  -10.358;   -7.234;  576.678
414.250;   -9.022;  -10.544;  646.681
414.842;  -10.547;   -9.744;  676.353
415.434;   -7.885;   -6.994;  570.463
416.027;   -4.672;   -5.893;  652.196
416.619;   -7.269;   -7.264;  713.400
417.211;   -7.322;  -10.374;  599.352
417.804;   -3.486;   -7.993;  628.499
418.396;   -7.888;   -7.234;  607.643
418.988;   -5.339;   -9.443;  659.238
419.580;   -8.660;  -10.724;  568.276
420.172;   -6.182;  -10.323;  536.196
420.764;   -1.939;   -8.793;  672.482
421.356;   -3.439;  -11.143;  636.898
421.948;   -4.142;   -8.293;  677.661
422.540;    1.810;   -7.893;  680.027
423.132;   -0.419;   -7.082;  600.641
423.724;   -3.544;   -8.653;  561.267
424.316;   -0.823;  -10.213;  621.345
424.908;    2.409;   -9.762;  591.517
425.500;    2.573;   -5.572;  647.978
426.092;    3.586;   -8.422;  648.268
426.683;    2.009;   -9.283;  684.836
427.275;    5.531;   -7.852;  641.471
427.867;    6.699;   -5.272;  668.948
428.458;    7.002;   -7.682;  732.344
429.050;    6.167;  -10.612;  680.749
429.642;    7.798;   -9.882;  743.124
430.233;    7.390;   -6.962;  569.356
430.825;    9.546;   -6.842;  724.809
431.416;    6.631;   -9.672;  698.241
432.008;   10.435;   -6.552;  651.723
432.599;   10.832;   -6.891;  656.073
433.190;    8.230;  -10.912;  637.670
433.782;    7.634;  -11.172;  590.395
434.373;   14.574;   -6.061;  884.765
434.964;   13.122;   -8.251;  602.920
435.556;   10.579;   -9.722;  634.537
436.147;   13.942;   -9.082;  758.490
436.738;   14.140;   -8.041;  701.099
437.329;   19.272;   -7.341;  721.723
437.920;   12.900;   -8.162;  666.688
438.511;   12.509;  -11.802;  564.526
439.103;   19.138;  -10.191;  623.998
439.694;   20.234;   -7.601;  681.583
440.285;   21.275;   -8.541;  764.432
440.876;   19.345;   -9.751;  845.738
441.466;   19.210;   -9.401;  575.162
442.057;   24.489;   -7.760;  665.814
442.648;   23.374;   -9.971;  746.255
443.239;   21.333;  -11.001;  620.477
443.830;   26.046;   -7.990;  704.958
444.421;   28.365;   -7.910;  655.474
445.011;   24.503;   -8.131;  693.619
445.602;   24.670;   -7.111;  743.126
446.193;   25.866;  -10.920;  488.117
446.783;   30.406;   -6.500;  640.397
447.374;   26.229;   -8.671;  692.759
447.964;   26.672;  -10.781;  713.770
448.555;   34.628;   -9.650;  822.742
449.145;   31.668;   -8.660;  662.853
449.736;   33.574;   -8.990;  803.179
450.326;   32.280;   -9.500;  713.626
450.917;   37.246;   -8.680;  675.324
451.507;   35.665;   -7.520;  600.661
452.097;   37.010;   -8.590;  746.267
452.688;   38.773;  -11.340;  742.160
453.278;   37.891;  -10.100;  566.840
453.868;   41.294;   -6.019;  793.550
454.458;   39.713;   -9.440;  651.141
455.048;   40.070;  -10.560;  711.783
455.639;   41.599;  -11.799;  567.096
456.229;   45.530;   -6.899;  710.694
456.819;   46.976;   -7.389;  751.158
457.409;   47.403;  -11.119;  773.993
457.999;   50.231;   -9.289;  737.505
458.589;   50.134;   -6.139;  686.606
459.179;   49.468;   -8.729;  717.658
459.769;   48.603;   -9.789;  627.099
460.358;   53.136;  -10.259;  797.262
460.948;   52.605;   -7.299;  689.503
461.538;   54.649;  -10.289;  660.677
462.128;   53.029;  -11.269;  664.934
462.717;   59.232;   -9.368;  710.326
463.307;   62.153;   -7.908;  705.846
463.897;   57.389;   -9.599;  656.942
464.486;   56.801;   -9.769;  837.128
465.076;   62.367;   -8.048;  733.776
465.666;   64.974;   -9.358;  652.900
466.255;   62.530;   -7.919;  785.651
466.845;   61.895;  -11.689;  666.749
467.434;   65.319;   -7.818;  725.873
468.023;   66.027;   -7.678;  658.357
468.613;   63.681;  -10.939;  713.946
469.202;   68.225;  -10.118;  646.507
469.791;   71.930;   -9.108;  737.811
470.381;   73.631;   -6.058;  742.813
470.970;   73.477;  -10.428;  711.099
471.559;   73.669;  -10.268;  733.291
472.148;   76.378;   -8.448;  675.737
472.738;   79.093;   -6.917;  765.466
473.327;   78.404;  -11.978;  637.529
473.916;   78.476;  -11.888;  737.446
474.505;   82.268;   -9.437;  751.703
475.094;   84.449;   -6.747;  806.570
475.683;   85.085;   -9.367;  797.699
476.272;   85.374;  -12.637;  730.632
476.861;   88.722;  -10.027;  706.754
477.449;   94.476;   -8.716;  728.487
478.038;   88.653;   -9.577;  692.513
478.627;   90.311;   -9.718;  714.852
479.216;   97.013;   -8.947;  769.441
479.805;  100.494;   -6.256;  783.375
480.393;   99.571;   -7.937; 1008.945
480.982;   98.769;   -7.717;  874.501
481.571;  104.956;   -9.266;  858.333
482.159;  105.191;   -7.636;  705.386
482.748;  105.324;   -9.667;  821.385
483.336;  110.616;  -10.376;  858.209
483.925;  110.608;   -7.147;  774.373
484.513;  115.839;   -7.996;  758.962
485.102;  113.232;  -10.027;  810.965
485.690;  121.845;  -10.446; 1011.050
486.278;  124.142;   -8.446;  979.329
486.867;  125.055;   -6.356;  809.662
487.455;  126.397;   -9.136;  898.229
488.043;  128.283;  -10.646;  748.361
488.631;  136.514;   -7.456; 1005.079
489.220;  139.648;   -6.636;  908.626
489.808;  140.691;  -11.036;  741.415
490.396;  149.075;  -10.246;  914.645
490.984;  154.649;   -8.556;  830.161
491.572;  163.332;   -5.886;  940.315
492.160;  169.200;   -9.486;  919.081
492.748;  181.043;  -10.976;  884.341
493.336;  202.741;   -8.776; 1019.693
493.924;  228.354;   -5.465;  958.077
494.512;  255.708;   -9.986; 1066.638
495.100;  289.225;  -10.636; 1103.280
495.687;  344.490;  -10.885; 1206.373
496.275;  405.333;   -8.126; 1150.796
496.863;  473.964;  -10.586; 1281.171
497.451;  571.567;  -11.926; 1386.805
498.038;  699.587;  -10.885; 1556.729
498.626;  804.709;   -6.315; 1741.407
499.214;  955.404;   -7.326; 2016.609
499.801; 1143.352;  -11.906; 2220.633
500.389; 1382.285;  -10.466; 2312.494
500.976; 1667.334;   -5.236; 2744.849
501.564; 2093.120;   -8.936; 3148.565
502.151; 2435.115;  -13.176; 3515.999
502.738; 2831.276;  -10.646; 3971.274
503.326; 3238.412;   -9.525; 4403.796
503.913; 3632.496;  -10.856; 5161.749
504.500; 4006.357;  -11.586; 5986.420
505.088; 4373.445;  -10.336; 6381.201
505.675; 4916.826;   -6.355; 6925.547
506.262; 5584.444;   -9.046; 7619.060
506.849; 6293.483;  -10.416; 8733.969
507.436; 6822.982;  -10.305; 9790.121
508.023; 7407.799;   -5.496; 9985.472
508.610; 7656.314;   -7.856;10434.618
509.197; 8249.064;  -10.097;11198.435
509.784; 9585.099;  -10.886;12391.194
510.371;10766.221;   -9.315;13603.713
510.958;11552.083;   -9.936;14426.586
511.545;12295.290;   -9.326;15243.775
512.132;13107.112;  -10.075;15945.876
512.719;13528.665;   -7.796;16340.369
513.305;14517.783;  -10.606;18011.766
513.892;15181.450;  -11.486;19754.971
514.479;16356.866;   -9.126;20967.805
515.066;17965.145;   -6.026;22299.793
515.652;19683.617;   -8.466;22908.660
516.239;20863.313;  -10.886;23798.875
516.825;21622.283;  -11.496;25567.275
517.412;22416.758;   -5.796;28154.959
517.998;23142.889;  -10.506;28344.111
518.585;23300.043;  -10.076;27134.219
519.171;23953.834;   -8.315;27268.576
519.758;25604.527;   -8.596;28964.129
520.344;27724.025;   -8.466;30664.494
520.930;27527.896;  -11.006;32550.605
521.516;28158.027;  -10.495;35422.895
522.103;29941.680;   -5.526;38280.004
522.689;30235.422;   -8.746;37835.117
523.275;30137.717;  -11.376;37288.613
523.861;32180.693;  -11.156;37281.395
524.447;34015.055;   -8.135;37846.949
525.033;33784.438;   -7.896;38321.949
525.619;34030.379;  -12.476;38579.285
526.205;35411.039;   -9.516;40622.875
526.791;38128.539;   -6.926;42258.836
527.377;38264.961;   -8.346;42966.902
527.963;39214.492;   -8.717;42018.949
528.549;38573.387;  -11.016;42476.828
529.135;37117.945;   -8.536;41854.852
529.721;35813.547;   -9.666;41237.711
530.306;34998.020;  -10.066;41259.445
530.892;34875.324;  -11.356;41506.047
531.478;36303.688;   -6.596;43559.613
532.063;39721.859;   -8.836;47695.563
532.649;41129.238;  -10.047;50808.324
533.235;41286.230;   -9.746;51787.500
533.820;40590.551;   -6.566;52145.035
534.406;42118.422;  -10.817;51133.488
534.991;42385.086;   -9.416;49996.805
535.576;40659.188;   -9.036;48882.852
536.162;41509.461;   -6.156;46942.285
536.747;42708.262;  -11.607;45711.746
537.333;45089.523;  -11.787;48510.180
537.918;48439.293;  -12.437;50439.891
538.503;48263.215;   -7.196;50863.711
539.088;44736.836;  -10.556;50906.922
539.673;44205.551;   -8.767;52621.965
540.259;44898.633;  -10.026;52368.094
540.844;42379.906;   -7.416;50879.109
541.429;44146.117;   -9.467;52077.777
542.014;46213.730;   -9.527;52716.695
542.599;45264.625;   -9.946;52363.281
543.184;42500.242;   -7.927;53187.137
543.769;43345.145;   -9.297;54697.605
544.354;43499.031;  -10.127;53913.914
544.938;42251.988;   -9.267;49680.164
545.523;43905.621;   -6.506;47386.277
546.108;46780.320;   -9.787;49151.949
546.693;48453.969;  -11.587;51384.637
547.278;48838.152;  -10.986;51853.254
547.862;46312.441;   -8.206;51173.750
548.447;42109.438;  -10.067;51691.395
549.031;41191.711;   -9.637;52456.703
549.616;45321.227;   -9.926;52714.516
550.201;45398.273;   -6.347;52414.598
550.785;46598.793;   -7.917;52355.059
551.370;45713.195;  -10.867;54589.453
551.954;44984.445;   -9.047;58267.348
552.538;45919.219;   -7.827;59062.176
553.123;44580.516;  -10.287;58115.285
553.707;42134.727;  -12.178;56556.285
554.291;43667.297;   -8.717;56201.668
554.876;47118.199;   -7.457;55335.762
555.460;47157.563;  -10.387;54155.703
556.044;47016.824;   -9.618;53721.484
556.628;44902.465;  -11.567;53731.016
557.212;43816.543;   -8.097;54312.531
557.796;42796.367;  -11.077;53797.773
558.380;43159.395;  -11.108;56145.984
558.964;43136.027;   -9.057;57277.930
559.548;44358.633;   -6.977;56459.641
560.132;42626.344;  -11.457;54434.543
560.716;40566.074;  -11.378;54800.617
561.300;41314.535;   -9.577;57606.945
561.884;42414.035;   -7.127;58972.445
562.467;40255.898;   -7.118;57327.570
563.051;39696.836;  -13.358;54962.434
563.635;41820.523;  -10.178;52594.473
564.219;42201.898;   -7.837;50610.410
564.802;42524.000;  -11.398;49551.180
565.386;42074.449;  -12.788;48370.953
565.969;41426.117;   -9.077;48178.871
566.553;40012.516;   -6.207;49957.305
567.136;40959.152;   -8.568;50369.594
567.720;38302.973;  -11.868;49492.004
568.303;36333.520;   -8.268;50616.352
568.887;36443.113;   -8.698;50727.148
569.470;37057.734;   -6.808;51698.379
570.053;36280.543;  -13.188;52122.078
570.637;34002.965;  -12.037;52536.438
571.220;33915.258;   -8.577;51186.098
571.803;35328.781;   -8.498;51032.762
572.386;37033.625;  -10.498;49609.887
572.969;38923.266;   -9.388;48285.926
573.552;37612.289;   -8.338;47624.285
574.135;36152.797;   -8.518;45498.641
574.718;33882.777;  -13.628;41970.434
575.301;33264.957;  -10.893;41447.137
575.884;32647.135;   -8.158;40923.836
576.467;33744.797;  -10.328;45267.723
577.050;34715.746;  -13.058;48175.543
577.633;35762.320;   -9.458;47729.328
578.216;35340.039;   -8.928;47579.793
578.799;34572.398;   -9.358;47820.996
579.381;33683.910;  -11.388;48115.551
579.964;31280.686;  -11.718;47333.766
580.547;33363.754;   -8.588;46668.969
581.129;34188.172;   -8.859;44466.141
581.712;34914.340;  -10.729;44164.922
582.294;35234.641;  -11.118;46477.855
582.877;35089.988;   -5.218;48244.254
583.459;33291.867;   -8.679;47437.895
584.042;31191.063;  -10.709;46943.219
584.624;30640.764;  -11.669;46792.227
585.206;29789.418;   -8.218;46557.250
585.789;28759.002;  -10.569;45793.773
586.371;28721.502;  -11.859;43836.391
586.953;27244.193;  -10.719;42972.492
587.536;28048.607;   -7.198;42487.211
588.118;31863.990;   -8.720;42086.414
588.700;31417.305;  -10.439;43389.930
589.282;31871.496;   -9.198;43646.039
589.864;33275.398;   -9.199;43438.109
590.446;34641.488;  -11.319;43151.926
591.028;34956.844;  -11.159;42781.867
591.610;33599.875;  -11.779;42839.098
592.192;30498.859;   -7.668;42820.402
592.774;29073.979;  -11.949;40724.277
593.356;28016.027;  -12.129;39874.789
593.937;26828.361;  -10.669;39980.648
594.519;28859.410;   -6.509;42069.633
595.101;30970.963;  -10.849;42976.031
595.683;31119.629;  -11.679;44084.441
596.264;31890.695;   -9.049;43478.797
596.846;32019.619;   -8.849;43803.672
597.427;32155.404;   -9.570;42986.934
598.009;33425.918;  -12.620;42832.219
598.591;33738.102;  -10.039;42580.086
599.172;33525.230;  -10.369;43061.805
599.753;33713.953;   -9.140;41691.469
600.335;34824.461;  -11.430;40692.520
600.916;32979.984;   -9.939;39982.422
601.498;30816.391;   -8.479;40318.617
602.079;29380.398;  -10.920;40670.609
602.660;28825.539;  -11.480;41450.898
603.241;30621.447;  -11.699;41137.738
603.823;29594.955;   -9.579;38868.797
604.404;28193.713;  -10.620;38182.785
604.985;29887.031;  -10.450;38078.047
605.566;30543.084;   -9.129;38056.633
606.147;30509.014;   -7.510;37020.418
606.728;31748.125;  -10.660;37883.359
607.309;30234.826;  -11.740;38748.273
607.890;30150.811;   -9.759;38850.230
608.471;29806.264;   -8.250;37457.918
609.051;29077.262;   -9.240;36066.457
609.632;27839.568;  -12.120;35991.074
610.213;27933.889;   -9.110;37402.641
610.794;28803.045;   -8.030;38383.363
611.374;28732.842;   -8.110;40562.387
611.955;29699.779;  -13.560;38533.727
612.536;30969.205;  -11.400;36951.789
613.116;30356.613;   -8.070;37197.891
613.697;30926.301;  -10.830;38411.125
614.277;29025.979;  -11.641;38673.938
614.858;29520.930;  -13.310;37075.863
615.438;29378.279;   -7.460;35092.906
616.019;27638.307;   -7.601;33666.301
616.599;27765.623;  -12.020;34189.023
617.179;29317.887;  -11.780;36952.047
617.760;30524.789;   -8.570;39582.574
618.340;31129.955;  -11.471;38943.977
618.920;32052.725;  -11.170;37594.156
619.500;32157.625;  -11.071;37866.938
620.080;30992.457;   -7.750;37869.043
620.660;31779.805;  -12.711;36868.617
621.241;33315.395;  -10.211;36352.309
621.821;34093.215;  -10.961;35459.520
622.401;33014.695;   -7.720;35207.414
622.980;31878.568;   -8.981;35980.422
623.560;30526.773;   -9.331;37351.328
624.140;29162.857;   -9.850;34388.582
624.720;24551.744;   -7.451;32368.764
625.300;21402.283;   -9.070;32638.629
625.880;24702.627;  -12.601;34599.035
626.459;28544.234;  -11.751;36831.738
627.039;31231.840;   -9.281;38299.098
627.619;31220.586;   -8.801;38289.574
628.198;30093.373;  -12.071;37220.695
628.778;29142.820;   -9.461;37632.563
629.357;29462.305;   -8.491;38003.012
629.937;29722.672;   -9.721;38402.039
630.516;29399.443;   -9.951;37868.801
631.096;29397.734;  -11.731;35760.410
631.675;30946.035;   -8.572;35225.219
632.254;35870.629;  -11.282;35130.289
632.834;35679.082;  -13.322;35794.570
633.413;34153.156;  -10.301;35788.922
633.992;32045.637;   -8.582;34532.863
634.571;32288.736;   -8.352;33590.113
635.151;34884.531;  -11.912;34943.863
635.730;33886.918;  -10.511;35352.523
636.309;30695.994;   -7.731;35366.605
636.888;27851.389;   -9.952;36165.637
637.467;27927.555;  -11.672;37515.902
638.046;29164.900;   -8.901;39288.695
638.625;31874.133;   -7.912;38279.699
639.204;31811.555;  -10.022;37741.598
639.782;30770.916;  -12.252;38364.551
640.361;27432.338;  -10.041;36740.621
640.940;24903.584;  -11.161;34950.082
641.519;25846.523;   -9.701;34137.398
642.097;28585.492;  -11.271;35654.258
642.676;30927.574;   -8.651;35637.957
643.255;32316.135;   -8.711;36567.074
643.833;31813.088;   -9.581;37809.434
644.412;31805.242;  -13.711;37337.293
644.990;30737.355;  -11.811;37018.531
645.569;30261.838;   -9.411;36518.469
646.147;29899.617;  -10.291;36186.430
646.726;30501.248;  -12.401;36267.688
647.304;31504.332;  -10.411;36647.625
647.882;32366.598;   -9.651;39286.742
648.461;33776.645;   -9.631;39157.703
649.039;32571.887;  -11.881;35412.883
649.617;31690.611;   -9.661;34744.918
650.195;30689.500;   -9.301;35403.098
650.773;29546.293;  -10.511;35053.797
651.352;27129.627;  -11.521;33756.816
651.930;24736.865;  -12.211;31868.773
652.508;23560.049;   -9.171;33121.551
653.086;27397.354;   -9.371;33564.793
653.663;30572.773;  -13.161;34054.668
654.241;29053.805;  -13.031;35693.309
654.819;30033.818;   -9.371;36422.906
655.397;29884.689;  -10.511;38213.484
655.975;29552.277;  -10.371;39507.625
656.553;29351.494;  -10.051;39498.223
657.130;27886.178;  -10.061;40395.480
657.708;26964.336;   -9.561;39242.020
658.286;27045.902;  -11.511;38920.020
658.863;28494.322;  -10.261;40202.898
659.441;31892.990;   -7.531;39677.938
660.018;32058.000;   -9.501;40413.355
660.596;30715.844;  -13.301;39931.414
661.173;31963.684;  -11.211;39604.531
661.750;32183.791;   -9.951;39700.070
662.328;30778.490;   -9.390;39292.809
662.905;29875.242;  -11.330;38235.648
663.482;26287.471;   -9.050;36212.305
664.060;24427.357;   -8.240;35944.945
664.637;27177.711;  -10.050;35170.785
665.214;28503.670;  -11.760;34197.523
665.791;30235.908;  -10.530;34549.520
666.368;29684.074;   -9.690;35118.578
666.945;29931.951;   -9.320;36019.418
667.522;31365.887;  -11.860;36048.438
668.099;31133.275;  -10.770;36243.914
668.676;29827.338;   -6.260;35958.875
669.253;28551.992;   -7.000;37384.730
669.830;28828.205;  -10.190;36779.629
670.407;28787.336;   -9.550;35231.289
670.984;28349.711;   -9.260;35544.270
671.560;29343.469;   -9.280;35466.867
672.137;29086.512;  -11.810;34280.863
672.714;29998.434;  -11.490;34632.863
673.290;31179.420;   -7.740;35135.422
673.867;31103.342;  -10.660;36114.480
674.443;31006.049;  -12.230;36152.859
675.020;29135.967;  -10.450;35327.238
675.596;29741.197;   -9.260;35795.176
676.173;30377.826;  -10.780;35430.355
676.749;30139.156;  -13.690;33549.516
677.326;29942.014;  -11.980;32210.012
677.902;29659.793;   -8.630;32068.871
678.478;29104.703;  -10.730;32583.891
679.054;28037.521;  -10.520;32088.928
679.631;28254.941;  -11.920;30978.848
680.207;29855.980;   -7.490;33160.887
680.783;31406.828;   -9.860;35570.363
681.359;30568.801;  -13.380;36125.184
681.935;30334.432;  -12.480;35240.922
682.511;30484.633;   -7.900;34429.961
683.087;30971.541;   -7.710;34463.680
683.663;29972.092;  -11.480;34648.898
684.239;28467.664;  -14.090;34546.457
684.815;27872.977;   -7.560;35586.375
685.390;27854.420;   -9.910;35821.895
685.966;28326.609;  -11.159;35085.871
686.542;30592.152;  -11.169;34198.230
687.118;33216.430;   -5.959;32847.707
687.693;34153.074;  -10.329;32794.027
688.269;33816.176;  -12.059;33072.367
688.844;32013.166;  -10.909;33141.664
689.420;29964.098;   -8.019;33965.742
689.995;28123.297;   -8.399;34655.523
690.571;26596.615;  -10.949;33576.742
691.146;26633.727;   -9.619;32657.219
691.722;26827.277;   -8.999;32526.979
692.297;26068.752;  -11.589;33014.617
692.872;27081.275;  -11.739;34012.254
693.448;27051.637;  -11.059;34237.434
694.023;26223.350;  -10.139;34142.672
694.598;27999.533;   -9.029;34132.031
695.173;28755.537;  -13.319;34205.250
695.748;27648.125;  -10.169;32882.488
696.323;27692.709;   -8.339;32864.906
696.898;28093.613;   -8.169;33170.004
697.473;28448.158;  -12.309;32432.984
698.048;27991.531;  -10.989;31649.303
698.623;27643.645;   -9.329;30778.141
699.198;28914.320;   -9.849;31140.119
699.773;30375.041;  -12.329;31764.299
700.348;29028.596;  -10.389;31780.816
700.922;28787.271;   -9.269;32046.375
701.497;29997.385;   -9.329;32603.574
702.072;30620.525;  -10.789;34799.871
702.646;29002.781;  -10.839;35793.172
703.221;26360.037;   -9.099;35201.590
703.795;28202.967;  -10.939;34764.527
704.370;28961.063;  -12.859;34307.367
704.944;29134.176;  -11.559;33509.887
705.519;29551.629;   -7.939;31388.584
706.093;30752.631;  -10.499;31340.104
706.668;31543.385;  -11.289;32630.281
707.242;30473.275;  -11.509;32728.779
707.816;29065.389;   -9.639;32947.238
708.390;27457.033;  -11.429;33277.855
708.965;27664.295;  -11.869;33834.336
709.539;27394.371;  -11.689;33709.273
710.113;27625.816;  -10.478;33044.313
710.687;27579.428;  -10.228;31953.992
711.261;26328.477;  -13.698;30505.949
711.835;25873.725;  -13.378;30262.369
712.409;25914.904;   -9.698;31254.447
712.983;27982.074;  -11.898;32754.986
713.557;29433.766;  -15.138;34018.824
714.131;29290.873;  -14.098;34579.625
714.704;28320.252;   -9.958;33890.262
715.278;25826.459;  -10.028;33531.102
715.852;24460.205;  -11.148;33601.660
716.425;25436.049;   -9.068;33515.117
716.999;26597.840;  -10.038;33185.555
717.573;27469.891;   -9.798;33905.996
718.146;28532.445;  -12.378;35199.293
718.720;28751.832;  -11.918;35060.551
719.293;28648.324;   -8.088;34973.230
719.867;31708.656;  -10.888;36394.449
720.440;31767.375;  -11.938;36663.008
721.013;30201.328;  -12.818;35102.426
721.587;28534.982;  -10.298;33985.266
722.160;27204.100;  -10.048;33524.965
722.733;26054.873;  -12.108;32987.043
723.306;25988.732;  -10.818;33066.301
723.880;28293.078;   -8.908;33399.500
724.453;31172.832;   -9.878;33468.297
725.026;30796.682;  -11.188;33816.637
725.599;27613.795;  -11.678;32797.996
726.172;26906.805;   -9.618;33187.434
726.745;27598.896;   -8.258;35136.613
727.318;28772.689;  -12.978;35751.730
727.891;29825.334;  -12.148;35890.430
728.463;29537.318;   -8.968;34822.090
729.036;28138.670;  -10.188;32895.086
729.609;28578.512;  -11.788;31823.225
730.182;26042.375;  -11.788;31445.283
730.754;23785.277;  -10.268;32373.223
731.327;24048.697;   -9.998;33676.820
731.900;24277.326;  -12.228;33417.000
732.472;24776.824;  -13.848;31978.498
733.045;26263.467;   -8.698;30368.777
733.617;26463.662;  -10.607;30574.215
734.190;26929.350;  -11.507;31280.975
734.762;25034.283;  -13.647;31674.412
735.334;23154.221;   -9.767;31247.291
735.907;23370.531;   -9.897;29876.211
736.479;23859.160;  -11.637;29808.488
737.051;23518.855;   -9.567;30233.547
737.623;23921.717;   -8.187;31469.086
738.195;23981.070;  -11.187;31784.225
738.768;25741.133;  -12.337;32120.523
739.340;26842.223;  -12.227;32094.342
739.912;26205.021;  -11.057;31312.680
740.484;24782.445;  -10.207;31946.238
741.056;22989.100;  -10.047;32984.059
741.628;24030.725;  -13.627;33897.715
742.199;26190.951;   -7.177;33213.016
742.771;24914.354;  -10.797;31369.113
743.343;22797.830;  -11.997;31865.473
743.915;21854.305;  -12.867;32388.631
744.487;21901.572;   -7.617;31079.568
745.058;22120.922;   -9.557;30570.107
745.630;22713.539;   -9.877;29970.127
746.201;24128.742;  -14.177;29186.766
746.773;25071.066;   -9.237;28805.723
747.344;24767.592;   -9.847;29591.223
747.916;22680.338;  -11.657;31412.201
748.487;22477.115;  -10.587;32194.898
749.059;23762.592;   -8.707;32533.719
749.630;24417.471;  -10.537;32158.518
750.201;23393.818;  -11.687;30855.395
750.773;21740.369;  -11.647;28622.555
751.344;21455.666;   -7.147;28405.732
751.915;22384.615;   -9.757;28461.551
752.486;22854.156;  -12.427;27842.850
753.057;21003.742;  -12.227;27845.008
753.628;19636.197;  -10.417;27728.107
754.199;20375.779;  -11.767;27381.086
754.770;21388.801;  -11.187;25882.203
755.341;21647.154;  -10.507;25886.184
755.912;21984.971;   -9.387;26050.861
756.483;21567.645;  -10.647;26798.779
757.054;19855.090;  -11.837;27048.238
757.625;18524.803;  -12.716;26294.838
758.195;18227.922;   -9.666;26142.076
758.766;17797.756;   -8.656;26392.234
759.337;18209.217;  -12.856;26334.594
759.907;19499.127;  -13.366;27579.652
760.478;20548.170;   -8.576;28352.770
761.048;20324.447;  -10.526;27325.088
761.619;19434.682;  -11.116;26460.428
762.189;19297.271;  -12.136;26029.826
762.760;20043.951;   -9.456;26430.145
763.330;21365.252;   -7.136;26670.902
763.900;21174.814;  -11.786;26603.021
764.471;18949.922;  -11.546;25542.740
765.041;17690.930;   -8.096;24358.459
765.611;17422.182;   -8.876;23991.297
766.181;17464.336;  -12.196;24470.236
766.751;18515.248;  -11.636;24845.975
767.321;18535.607;  -10.156;24533.633
767.891;16684.191;  -11.766;24916.492
768.461;16038.421;  -14.936;24776.771
769.031;16419.605;  -12.356;24757.988
769.601;18146.004;   -7.526;24181.088
770.171;18287.568;  -10.766;23670.387
770.741;17143.701;  -13.176;22960.045
771.311;16939.771;  -10.616;22917.523
771.880;17676.322;   -9.576;23562.941
772.450;17767.182;  -10.336;24216.500
773.020;17672.627;  -13.516;24140.398
773.589;16729.924;  -13.466;24414.857
774.159;15831.236;   -8.686;23858.717
774.729;15360.078;   -9.476;22942.135
775.298;15091.857;  -13.666;22324.033
775.867;14738.408;  -11.716;21140.313
776.437;14973.271;   -9.906;20838.092
777.006;14786.750;  -12.166;20599.510
777.576;14363.514;  -12.356;20508.809
778.145;14238.668;  -11.646;20732.947
778.714;14412.793;   -8.226;21062.465
779.283;13994.002;   -9.556;20949.664
779.853;13432.004;  -14.116;20508.623
780.422;13841.084;  -11.506;20649.082
780.991;13374.364;   -9.556;21527.520
781.560;11995.763;   -9.095;22632.658
782.129;11745.365;  -12.135;23048.277
782.698;11775.739;  -10.865;23438.555
783.267;11469.954;   -9.335;23267.734
783.836;11392.748;  -11.045;22415.133
784.404;12338.314;  -13.865;20443.152
784.973;13072.044;  -13.095;19699.150
785.542;13164.294;  -11.575;19763.828
786.111;12926.224;   -9.705;20341.408
786.679;12470.901;  -12.105;20207.967
787.248;12182.939;  -12.455;19516.465
787.817;12007.833;  -11.535;18900.363
788.385;11745.918;   -9.765;17879.121
788.954;11261.603;  -14.005;17658.301
789.522;10580.396;  -11.955;17788.879
790.090;10908.075;  -10.135;18118.277
790.659;11512.306;  -10.975;18338.736
791.227;11218.022;  -13.375;18508.615
791.795;11623.643;  -12.375;17898.254
792.364;11993.835;  -10.725;17295.133
792.932;12430.037;   -9.715;16822.051
793.500;12700.308;  -12.675;17040.148
794.068;12786.746;  -13.495;17179.787
794.636;12919.453;  -10.885;16664.246
795.204;12182.908;  -11.045;16524.545
795.772;12148.538;  -13.175;17274.564
796.340;11715.885;  -12.445;17891.002
796.908;11448.946;   -9.735;17648.561
797.476;11282.221;   -9.815;17064.080
798.044;10879.138;  -13.985;16672.777
798.612;10140.029;  -13.115;17023.996
799.180; 9806.059;  -10.185;16561.615
799.747; 9696.183;   -9.055;15962.773
800.315; 9347.447;  -12.385;15296.992
800.883; 9158.976;  -15.035;14801.771
801.450; 9419.884;  -10.365;14534.430
802.018; 9585.813;   -9.855;14173.248
802.585; 9632.253;  -11.905;14029.547
803.153; 9566.749;  -11.585;13836.846
803.720; 9315.543;   -9.095;13567.324
804.287; 8839.338;   -9.135;13360.622
804.855; 8325.390;  -11.604;13681.981
805.422; 8136.683;  -11.794;13536.560
805.989; 8228.190;  -10.734;13355.958
806.556; 8388.762;  -10.444;13747.896
807.124; 8598.757;  -12.764;13987.376
807.691; 8552.938;  -12.964;14038.674
808.258; 8421.128;  -11.134;14120.152
808.825; 8193.803;   -9.854;13860.111
809.392; 8304.202;  -10.504;13268.790
809.959; 7755.287;  -13.054;12680.389
810.526; 7191.035;   -8.294;12427.308
811.093; 7144.947;   -8.394;12030.105
811.659; 7834.461;  -12.304;11653.664
812.226; 8509.280;  -13.944;11637.183
812.793; 8305.234;  -10.484;11611.521
813.360; 7664.923;  -10.144;11885.181
813.926; 7323.858;  -11.684;12770.539
814.493; 7118.316;  -13.644;12677.638
815.060; 6731.100;   -9.724;11974.336
815.626; 6640.847;   -9.854;11594.715
816.193; 6973.782;  -13.254;11579.474
816.759; 7007.038;  -13.204;11666.972
817.325; 6994.680;   -9.434;11325.530
817.892; 7310.426;  -10.134;11105.369
818.458; 7748.797;  -13.474;10843.928
819.024; 7465.754;  -11.854;10714.406
819.591; 7173.224;  -10.244;10469.165
820.157; 6974.122;  -10.704;10235.523
820.723; 6434.360;  -12.324;10847.563
821.289; 6063.202;   -9.444;11040.980
821.855; 5998.786;   -8.374;10357.100
822.421; 6053.060;  -10.234; 9978.918
822.987; 6098.212;  -13.294; 9754.177
823.553; 5705.085;  -10.884;10065.755
824.119; 5423.703;   -8.884;10036.294
824.685; 5542.117;   -6.784;10029.192
825.251; 5681.756;  -12.004;10199.230
825.816; 5604.963;  -11.474; 9820.189
826.382; 5271.678;   -9.174; 9297.248
826.948; 5355.687;   -9.214; 9381.347
827.513; 5789.217;  -10.774; 9450.726
828.079; 5747.947;  -11.924; 9472.444
828.645; 5142.646;  -10.543; 9292.643
829.210; 4894.319;  -10.533; 9065.341
829.776; 4852.764;  -10.753; 9132.620
830.341; 4748.718;  -10.173; 9092.878
830.906; 4888.409;  -10.743; 9078.557
831.472; 5233.883;  -11.113; 8534.535
832.037; 5048.987;  -10.603; 8677.874
832.602; 4553.087;  -13.323; 8628.692
833.167; 4293.931;  -10.823; 8879.031
833.733; 4253.462;  -10.113; 9189.790
834.298; 4419.470;  -13.583; 9052.608
834.863; 4598.676;  -12.703; 8895.087
835.428; 4624.395;  -10.523; 8824.266
835.993; 4444.867;   -6.963; 8845.385
836.558; 4225.705;  -10.763; 8888.563
837.123; 4266.660;   -9.903; 8966.582
837.688; 4512.216;   -9.913; 8617.860
838.253; 4811.014;  -10.283; 8590.699
838.817; 5023.092;  -12.963; 8443.797
839.382; 4944.080;  -14.243; 8799.356
839.947; 4638.736;  -10.733; 8810.595
840.511; 4344.279;   -9.383; 8796.394
841.076; 3966.226;  -12.563; 8347.231
841.641; 4010.534;  -12.953; 8224.330
842.205; 4140.690;   -7.043; 8223.349
842.770; 4147.777;   -8.163; 8622.107
843.334; 4213.029;  -12.503; 8410.386
843.898; 4147.965;  -11.693; 8337.465
844.463; 4157.202;  -10.203; 8506.283
845.027; 3969.743;   -9.533; 8280.962
845.591; 3791.532;  -13.443; 8231.141
846.156; 3806.920;  -13.143; 7969.179
846.720; 3722.644;   -9.433; 7768.278
847.284; 3613.527;  -11.033; 7630.957
847.848; 3484.056;  -10.403; 7472.395
848.412; 3408.688;  -11.553; 7437.394
848.976; 3459.554;   -8.393; 7674.592
849.540; 3355.919;   -8.713; 7836.011
850.104; 3392.102;  -12.463; 7913.669
850.668; 3761.550;  -12.973; 7694.508
851.232; 3956.346;  -10.793; 7756.887
851.796; 3838.736;  -10.662; 7926.545
852.359; 3525.683;  -13.082; 7827.844
852.923; 3320.991;  -12.192; 7641.163
853.487; 3152.404;  -11.912; 7342.501
854.050; 3134.009;  -10.892; 7042.820
854.614; 3291.123;  -13.992; 7151.338
855.177; 3417.831;  -11.732; 7105.077
855.741; 3453.000;   -8.962; 6989.675
856.304; 3328.969;   -9.442; 6596.634
856.868; 3293.657;  -14.192; 6356.272
857.431; 3415.034;  -12.702; 6468.571
857.995; 3543.186;   -9.942; 6373.210
858.558; 3578.012;   -9.112; 6324.448
859.121; 3314.725;  -12.932; 6408.327
859.684; 3124.710;  -13.442; 6347.886
860.247; 3234.271;  -10.632; 6321.264
860.810; 3289.722;  -11.272; 6301.903
861.374; 3044.956;   -9.832; 6607.881
861.937; 2768.012;  -11.762; 6408.200
862.500; 2752.742;   -9.722; 6572.639
863.062; 2899.427;  -10.512; 6387.297
863.625; 3054.674;  -11.232; 6190.836
864.188; 3222.264;  -14.112; 5807.254
864.751; 3304.515;  -11.302; 5682.413
865.314; 3229.618;  -10.112; 5547.492
865.876; 2989.867;  -12.182; 5500.150
866.439; 2929.198;  -10.722; 5415.909
867.002; 2886.853;   -9.252; 5501.567
867.564; 2721.708;   -9.572; 5413.946
868.127; 2524.893;  -13.142; 5160.325
868.689; 2407.694;  -12.902; 5133.183
869.252; 2304.915;   -9.732; 5252.382
869.814; 2200.752;   -9.432; 5297.141
870.377; 2182.113;  -11.552; 5390.919
870.939; 2228.846;   -9.052; 5599.898
871.501; 2307.230;  -10.982; 5248.336
872.063; 2333.682;  -12.292; 4854.235
872.626; 2280.610;  -14.912; 4817.074
873.188; 2266.462;  -13.112; 4987.732
873.750; 2227.598;  -13.442; 4868.651
874.312; 2134.033;   -9.402; 4779.330
874.874; 2054.501;  -11.062; 4866.348
875.436; 1979.176;  -13.931; 4718.887
875.998; 1973.690;   -9.561; 4660.005
876.560; 1998.473;  -11.321; 4462.964
877.122; 1935.666;  -12.221; 4145.042
877.683; 1823.876;  -12.191; 4056.481
878.245; 1737.390;  -12.101; 3950.740
878.807; 1776.234;   -8.971; 4058.958
879.369; 1811.847;  -12.071; 3954.677
879.930; 1718.133;  -14.621; 3941.495
880.492; 1642.314;  -10.311; 4067.014
881.053; 1619.873;  -10.901; 3859.633
881.615; 1538.503;  -14.411; 3776.071
882.176; 1433.218;  -13.761; 3734.750
882.738; 1368.362;   -9.181; 3678.489
883.299; 1340.865;  -11.791; 3405.407
883.860; 1325.315;  -13.121; 3351.106
884.422; 1312.404;  -11.211; 3394.044
884.983; 1273.706;  -10.091; 3166.443
885.544; 1208.792;   -8.461; 3189.802
886.105; 1135.019;  -12.361; 3160.360
886.666; 1063.345;  -14.141; 3093.059
887.227;  997.447;  -11.361; 2941.957
887.788;  934.889;  -11.401; 2974.836
888.349;  868.386;  -13.791; 2721.214
888.910;  858.694;  -13.191; 2696.493
889.471;  862.771;   -9.881; 2560.172
890.032;  848.161;   -9.881; 2558.190
890.593;  821.299;  -10.371; 2567.669
891.153;  791.240;  -13.301; 2460.307
891.714;  741.676;  -11.431; 2372.046
892.275;  709.345;  -11.291; 2309.505
892.835;  678.968;  -11.471; 2382.543
893.396;  633.659;  -11.541; 2295.502
893.956;  573.483;  -11.181; 2162.420
894.517;  529.526;  -11.741; 2125.439
895.077;  518.298;  -11.671; 2086.978
895.638;  520.045;  -11.311; 2126.316
896.198;  494.479;   -9.831; 1838.275
896.758;  453.582;   -8.421; 1892.813
897.319;  419.860;  -12.351; 1792.232
897.879;  403.819;  -13.511; 1762.751
898.439;  380.093;  -12.001; 1661.149
898.999;  355.350;  -10.180; 1781.468
899.559;  344.966;  -12.030; 1703.347
900.119;  339.514;  -15.710; 1537.525
900.679;  334.876;   -8.900; 1638.384
901.239;  320.716;   -8.340; 1527.902
901.799;  311.868;  -13.910; 1456.441
902.359;  304.577;  -13.460; 1357.140
902.919;  298.012;  -11.490; 1331.118
903.479;  285.003;  -12.110; 1317.257
904.038;  264.283;  -11.720; 1262.595
904.598;  249.197;  -13.610; 1152.034
905.158;  244.421;  -11.040; 1240.893
905.717;  238.467;  -10.900; 1233.691
906.277;  229.063;  -15.080; 1217.330
906.836;  219.211;  -13.380; 1222.408
907.396;  209.047;  -10.780; 1193.047
907.955;  201.068;   -8.500; 1182.526
908.515;  195.288;  -12.760; 1099.364
909.074;  189.118;  -11.900; 1092.863
909.633;  183.567;   -8.950; 1069.121
910.192;  178.641;   -8.770; 1196.460
910.752;  173.573;  -12.390; 1029.960
911.311;  169.719;  -13.680; 1009.780
911.870;  166.266;  -12.370;  971.460
912.429;  166.830;  -10.900; 1094.080
912.988;  165.583;  -11.690; 1081.060
913.547;  162.880;  -13.240;  940.380
914.106;  157.777;  -11.990;  999.420
914.665;  153.490;   -9.990;  984.020
915.224;  152.379;  -12.880; 1035.760
915.782;  153.940;  -12.350;  922.560
916.341;  152.328;   -9.110; 1049.840
916.900;  147.830;   -9.270;  925.260
917.458;  145.859;  -13.240;  884.220
918.017;  145.419;  -13.550;  942.600
918.576;  145.069;  -12.320;  904.440
919.134;  143.840;  -11.490;  837.980
919.693;  141.107;  -13.670;  893.060
920.251;  140.946;  -15.470;  876.500
920.809;  139.954;  -11.290;  839.580
921.368;  139.122;  -10.210;  885.360
921.926;  138.239;  -12.140;  842.940
922.484;  137.142;  -13.080;  903.360
923.042;  136.735;  -11.720;  880.340
923.601;  139.430;   -7.480;  998.680
924.159;  137.798;  -11.570;  935.560
924.717;  134.802;  -13.840;  841.080
925.275;  133.939;  -10.640;  903.240
925.833;  133.403;  -11.540;  779.320
926.391;  135.286;  -12.960;  938.380
926.949;  133.094;  -14.130;  857.680
927.506;  133.378;  -11.750;  903.500
928.064;  133.990;  -10.250;  877.580
928.622;  132.739;  -13.030;  880.100
929.180;  133.290;  -13.400;  814.180
929.737;  133.268;  -10.700;  808.540
930.295;  136.972;  -10.070;  928.480
930.853;  139.278;  -11.960;  849.100
931.410;  139.898;  -13.120;  821.120
931.968;  138.977;  -10.770;  940.660
932.525;  138.914;  -10.680;  909.380
933.082;  139.639;  -13.130;  811.440
933.640;  141.168;  -13.210;  925.900
934.197;  138.984;  -11.060;  886.360
934.754;  140.323;   -9.580;  897.780
935.312;  142.312;  -14.000;  863.340
935.869;  147.364;  -10.710; 1012.980
936.426;  148.389;   -9.860;  872.800
936.983;  148.788;   -9.710;  889.020
937.540;  148.768;  -13.990;  838.280
938.097;  149.014;  -14.040;  940.120
938.654;  148.575;  -10.310;  898.860
939.211;  150.876;  -10.560;  952.480
939.768;  154.476;  -13.900;  915.420
940.324;  157.683;  -14.760;  904.200
940.881;  159.188;  -10.370;  878.500
941.438;  160.429;   -8.260; 1021.200
941.995;  156.439;  -12.540;  992.560
942.551;  153.926;  -14.670;  875.620
943.108;  154.045;  -10.450;  937.920
943.664;  155.009;  -10.750;  869.340
944.221;  159.312;  -11.550; 1088.140
944.777;  156.679;  -14.770;  869.680
945.334;  156.434;  -12.820;  884.840
945.890;  157.680;  -10.130;  946.480
946.446;  159.123;  -13.470;  947.020
947.003;  161.725;  -12.120;  964.940
947.559;  163.937;   -9.980; 1063.040
948.115;  163.853;   -9.080; 1026.540
948.671;  161.199;  -10.830;  967.300
949.227;  158.643;  -12.440;  859.560
949.783;  156.231;  -12.910;  858.900
950.339;  158.032;  -10.270;  991.000
950.895;  159.716;  -13.630; 1023.840
951.451;  157.973;  -15.100;  925.280
952.007;  157.147;  -11.330;  998.540
952.563;  156.147;  -10.580;  937.780
953.118;  155.285;  -13.440;  904.940
953.674;  155.312;  -12.710;  935.780
954.230;  155.059;  -10.350;  949.640
954.785;  153.359;   -9.190;  936.640
955.341;  151.011;  -11.200;  998.160
955.897;  149.077;  -16.560;  834.660
956.452;  151.815;  -12.570;  953.840
957.008;  150.247;   -7.970; 1083.640
957.563;  148.680;  -11.940; 1009.540
958.118;  142.753;  -13.450;  877.700
958.674;  143.141;  -12.030;  946.780
959.229;  144.688;   -9.410; 1013.980
959.784;  143.180;  -12.000;  832.400
960.339;  141.685;  -14.780; 1001.280
960.894;  138.257;   -9.860;  963.760
961.449;  134.331;   -9.970;  859.960
962.004;  135.513;  -10.900; 1212.840
962.559;  129.024;  -13.150;  860.140
963.114;  125.988;  -13.740;  742.480
963.669;  125.927;   -9.820;  915.500
964.224;  124.266;  -13.890;  874.340
964.779;  123.900;  -12.600;  828.420
965.334;  124.407;  -10.950; 1017.860
965.888;  123.950;  -11.170;  875.360
966.443;  127.545;  -12.540;  972.380
966.998;  127.995;  -15.780;  819.460
967.552;  127.174;   -9.760;  908.380
968.107;  122.673;   -9.060;  868.300
968.661;  123.699;  -11.950;  922.440
969.216;  124.261;  -12.800;  856.280
969.770;  124.252;  -11.210;  917.200
970.324;  123.445;  -11.610;  923.140
970.879;  121.211;  -11.370;  947.180
971.433;  117.601;  -12.540;  952.720
971.987;  113.212;  -11.320;  895.340
972.541;  109.623;  -10.720;  917.100
973.095;  108.954;   -9.680; 1009.460
973.649;  107.446;  -11.440;  809.480
974.203;  106.679;  -11.210;  829.040
974.757;  105.618;  -10.240;  855.220
975.311;  106.428;  -13.720;  872.600
975.865;  104.621;  -13.770;  881.820
976.419;  102.579;  -11.690;  857.400
976.973;  102.047;   -9.510;  849.620
977.526;  101.691;  -12.620;  949.920
978.080;   95.867;  -12.010;  796.780
978.634;   89.674;  -10.170;  921.320
979.187;   80.799;   -9.020;  905.400
979.741;   76.629;   -9.820; 1018.380
980.294;   73.721;  -14.870;  789.160
980.848;   72.303;  -12.380;  717.220
981.401;   75.188;  -10.350;  816.540
981.955;   78.332;  -13.720;  844.300
982.508;   78.983;  -11.490;  746.340
983.061;   80.575;  -10.000;  915.260
983.615;   78.846;  -11.480;  798.800
984.168;   76.828;  -13.220;  770.080
984.721;   77.555;  -13.960;  880.760
985.274;   76.848;  -10.870;  867.500
985.827;   75.655;   -9.790;  834.220
986.380;   74.523;  -13.120;  721.340
986.933;   75.507;  -12.450;  864.800
987.486;   73.233;  -10.210;  861.920
988.039;   72.533;   -8.430;  863.100
988.591;   72.484;  -10.520;  893.260
989.144;   70.118;  -14.860;  737.260
989.697;   69.107;  -13.080;  758.740
990.250;   69.377;  -10.150;  858.100
990.802;   68.304;  -13.430;  755.860
991.355;   70.015;  -12.750;  974.880
991.907;   67.801;  -12.040;  864.320
992.460;   65.588;  -11.330;  753.760
993.012;   64.429;  -13.610;  749.540
993.565;   63.776;  -13.460;  711.360
994.117;   64.842;   -9.360;  950.780
994.669;   61.073;  -11.300;  701.320
995.221;   60.186;  -13.540;  791.920
995.774;   58.893;  -13.430;  787.580
996.326;   57.806;  -12.520;  740.220
996.878;   56.801;  -10.950;  838.420
997.430;   55.625;  -14.300;  699.860
997.982;   54.642;  -13.760;  750.140
998.534;   54.389;  -11.530;  739.060
999.086;   52.450;  -10.310;  738.220
999.638;   51.313;  -12.530;  661.380
1000.190;   51.017;  -11.840;  699.320
1000.741;   50.872;  -10.260;  742.700
1001.293;   50.450;   -8.860;  686.020
1001.845;   49.525;  -13.700;  676.640
1002.396;   49.806;  -12.100;  743.400
1002.948;   48.923;  -12.760;  737.400
1003.500;   46.835;  -10.380;  723.780
1004.051;   48.143;  -11.900;  907.580
1004.603;   46.957;  -12.250;  791.820
1005.154;   42.519;  -13.210;  608.980
1005.705;   41.910;  -10.950;  723.960
1006.257;   41.489;  -13.880;  707.220
1006.808;   41.023;  -12.840;  685.460
1007.359;   41.227;  -10.570;  763.240
1007.910;   38.894;   -9.620;  646.640
1008.461;   39.498;  -13.630;  732.940
1009.013;   38.522;  -17.200;  588.340
1009.564;   39.983;  -10.200;  793.520
1010.115;   37.757;  -12.570;  597.040
1010.665;   37.207;  -15.150;  602.160
1011.216;   36.896;  -14.480;  667.920
1011.767;   36.702;  -11.340;  697.920
1012.318;   36.127;   -9.780;  736.980
1012.869;   35.835;  -12.380;  679.000
1013.419;   35.412;  -15.560;  603.120
1013.970;   35.309;  -11.010;  666.640
1014.521;   34.453;  -11.610;  620.620
1015.071;   34.702;  -13.450;  670.380
1015.622;   34.931;  -13.870;  635.460
1016.172;   33.954;  -11.610;  596.820
1016.723;   32.785;  -12.120;  614.380
1017.273;   32.987;  -13.620;  604.160
1017.823;   33.404;  -14.140;  650.340
1018.374;   32.753;  -12.800;  611.760
1018.924;   32.665;  -12.340;  716.880
1019.474;   32.976;  -11.410;  718.880
1020.024;   31.572;  -14.770;  657.580
1020.574;   32.628;   -9.780;  726.160
1021.124;   32.666;   -8.560;  673.580
1021.674;   31.552;  -15.190;  559.120
1022.224;   32.884;  -13.530;  708.940
1022.774;   32.316;  -13.280;  668.820
1023.324;   32.472;  -10.690;  753.520
1023.874;   33.240;  -10.240;  875.760
1024.423;   30.789;  -12.540;  613.700
1024.973;   29.548;  -10.010;  610.760
1025.523;   29.517;  -10.550;  620.960
1026.072;   29.655;  -13.560;  606.420
1026.622;   29.723;  -15.120;  675.740
1027.172;   30.217;  -11.260;  715.660
1027.721;   28.549;  -11.410;  601.220
1028.270;   28.666;  -13.530;  663.400
1028.820;   29.182;  -13.680;  638.080
1029.369;   28.863;  -13.520;  612.700
1029.918;   29.197;  -10.980;  649.840
1030.468;   28.503;  -13.530;  564.780
1031.017;   29.501;  -13.170;  634.800
1031.566;   28.313;  -12.200;  608.900
1032.115;   27.724;   -9.960;  694.500
1032.664;   26.112;  -13.210;  596.480
1033.213;   27.607;  -12.500;  735.420
1033.762;   27.459;  -11.910;  635.620
1034.311;   27.027;   -9.640;  677.220
1034.860;   27.805;  -13.310;  691.000
1035.408;   27.027;  -11.830;  722.720
1035.957;   28.047;  -12.000;  719.540
1036.506;   25.070;  -11.690;  530.800
1037.055;   27.803;  -10.990;  844.320
1037.603;   25.948;  -15.120;  664.000
1038.152;   24.351;  -12.450;  534.760
1038.700;   25.204;  -10.560;  585.740
1039.249;   25.127;  -11.080;  681.220
1039.797;   24.605;  -12.540;  633.360
1040.345;   25.478;  -11.920;  705.420
1040.894;   24.288;  -11.410;  625.300
1041.442;   25.131;  -14.320;  632.200
1041.990;   23.958;  -16.240;  559.160
1042.538;   23.576;  -11.680;  536.180
1043.087;   23.875;  -10.760;  570.860
1043.635;   24.729;  -11.850;  670.500
1044.183;   23.994;  -15.480;  586.400
1044.731;   23.220;  -11.770;  576.000
1045.279;   23.307;  -13.090;  674.920
1045.827;   25.332;  -12.440;  892.400
1046.374;   22.564;  -13.840;  515.420
1046.922;   22.277;  -13.220;  590.580
1047.470;   23.561;  -10.230;  691.300
1048.018;   22.185;  -14.590;  647.960
1048.565;   23.666;  -12.050;  708.600
1049.113;   21.999;  -11.650;  557.000
1049.660;   21.842;  -10.510;  629.660
1050.208;   22.460;  -13.310;  675.640
1050.755;   21.994;  -15.900;  606.580
1051.303;   22.384;  -11.430;  686.820
1051.850;   21.225;   -8.480;  635.120
1052.397;   19.779;  -15.010;  473.960
1052.945;   21.442;  -13.960;  617.760
1053.492;   22.139;  -13.150;  741.840
1054.039;   21.419;   -9.630;  720.180
1054.586;   20.953;  -13.680;  557.240
1055.133;   21.069;  -14.570;  693.140
1055.680;   21.196;  -13.820;  646.620
1056.227;   19.675;  -11.730;  542.780
1056.774;   21.716;  -12.480;  794.980
1057.321;   19.755;  -13.930;  523.260
1057.868;   19.523;  -11.690;  651.320
1058.415;   19.537;   -9.520;  651.980
1058.961;   20.193;  -13.160;  678.940
1059.508;   19.396;  -12.920;  643.820
1060.055;   19.082;  -11.920;  581.780
1060.601;   19.720;  -11.500;  624.300
1061.148;   19.467;  -14.330;  616.820
1061.694;   18.734;  -16.870;  592.580
1062.241;   18.925;  -10.330;  596.320
1062.787;   19.036;  -10.620;  663.140
1063.334;   20.425;  -10.110;  808.560
1063.880;   18.586;  -13.400;  668.360
1064.426;   18.612;  -10.680;  706.820
1064.972;   18.111;   -9.920;  601.340
1065.518;   17.343;  -10.980;  566.640
1066.065;   18.631;  -14.890;  624.460
1066.611;   17.446;  -12.870;  598.800
1067.157;   17.779;  -12.950;  641.860
1067.703;   17.650;  -13.540;  668.480
1068.249;   17.923;  -13.540;  605.220
1068.794;   17.396;  -12.600;  626.880
1069.340;   15.536;  -10.620;  578.960
1069.886;   16.719;  -12.830;  590.700
1070.432;   16.310;  -14.870;  541.720
1070.977;   16.199;  -11.980;  601.080
1071.523;   16.314;   -8.200;  573.060
1072.068;   15.974;  -12.330;  582.000
1072.614;   16.092;  -16.370;  527.760
1073.160;   16.562;  -11.100;  687.040
1073.705;   15.671;  -10.480;  572.520
1074.250;   15.948;  -14.520;  559.900
1074.796;   17.018;  -11.460;  655.160
1075.341;   17.122;  -11.950;  664.100
1075.886;   14.594;  -11.460;  594.240
1076.431;   14.945;  -13.770;  649.880
1076.976;   15.011;  -12.680;  639.220
1077.521;   14.928;  -13.170;  583.080
1078.067;   14.132;  -10.860;  579.400
1078.612;   14.710;  -13.920;  661.620
1079.156;   14.901;  -13.880;  601.540
1079.701;   15.386;  -13.120;  693.260
1080.246;   15.780;   -9.940;  696.300
1080.791;   14.634;  -14.740;  625.020
1081.336;   14.753;  -13.750;  659.320
1081.880;   14.799;  -13.400;  649.680
1082.425;   13.183;  -12.220;  573.480
1082.970;   15.360;  -11.610;  717.040
1083.514;   13.568;  -13.580;  597.000
1084.059;   13.459;  -12.810;  586.720
1084.603;   12.304;  -12.320;  565.840
1085.147;   12.935;  -13.190;  645.220
1085.692;   14.322;  -12.480;  716.800
1086.236;   12.619;  -13.020;  503.140
1086.780;   14.487;   -9.190;  751.440
1087.325;   13.058;  -12.480;  654.620
1087.869;   13.395;  -12.450;  610.700
1088.413;   13.758;  -12.240;  705.040
1088.957;   11.482;   -9.020;  543.400
1089.501;   13.509;  -10.320;  766.640
1090.045;   12.946;  -12.720;  726.480
1090.589;   11.220;  -13.690;  569.920
1091.133;   11.906;  -10.020;  673.340
1091.676;   12.445;  -12.330;  591.940
1092.220;   12.503;  -14.970;  600.920
1092.764;   12.782;  -12.430;  706.960
1093.307;   12.450;   -9.800;  673.780
1093.851;   11.168;  -14.970;  556.540
1094.395;   11.950;  -15.310;  683.140
1094.938;   11.544;  -10.370;  632.520
1095.482;   10.914;  -11.050;  559.800
1096.025;   11.321;  -11.840;  710.880
1096.568;   12.483;  -12.840;  779.280
1097.112;    9.764;  -14.700;  508.180
1097.655;   11.466;   -8.720;  603.000
1098.198;   10.094;  -13.610;  600.180
1098.741;    9.859;  -13.350;  612.860
1099.285;   11.235;  -11.230;  657.300
1099.828;    8.981;  -11.840;  439.400
1100.371;   10.144;  -10.840;  608.160
1100.914;   10.453;  -14.190;  682.660
1101.457;   10.575;  -11.240;  679.900
1101.999;    9.241;  -11.270;  584.680
1102.542;    9.985;  -11.480;  641.440
1103.085;    9.494;  -11.750;  658.500
1103.628;   10.154;  -11.400;  762.060
1104.170;    9.368;  -10.490;  588.280
1104.713;    9.805;  -10.600;  646.700
1105.256;    8.972;  -14.360;  557.440
1105.798;    8.314;  -13.210;  499.980
1106.341;   10.027;  -10.270;  728.900
1106.883;    9.053;  -12.200;  521.340
1107.425;    9.539;  -13.110;  668.180
1107.968;    9.246;  -12.840;  612.380
1108.510;    9.270;   -6.480;  684.960
1109.052;    7.683;  -13.940;  612.620
1109.594;    7.622;  -13.690;  554.440
1110.136;    8.962;  -11.880;  643.220
1110.679;    7.752;   -9.500;  633.080
1111.221;    8.764;  -14.160;  604.460
1111.763;    7.630;  -13.980;  559.220
1112.304;    7.982;  -13.880;  547.140
1112.846;    8.131;  -12.210;  666.240
1113.388;   10.971;  -11.390;  942.180
1113.930;    8.030;  -14.540;  694.200
1114.472;    7.315;  -12.640;  606.540
1115.013;    6.436;  -11.620;  551.280
1115.555;    6.134;  -13.640;  587.100
1116.097;    6.060;  -15.380;  579.480
1116.638;    6.558;  -12.640;  684.600
1117.180;    7.793;   -9.850;  667.740
1117.721;    6.773;  -13.690;  568.580
1118.262;    7.791;  -12.680;  677.960
1118.804;    7.582;  -12.530;  637.340
1119.345;    6.448;  -11.690;  578.400
1119.886;    7.698;  -13.380;  704.040
1120.427;    5.586;  -14.070;  589.020
1120.969;    5.349;  -13.500;  597.920
1121.510;    5.377;  -11.480;  563.060
1122.051;    5.861;  -12.830;  723.580
1122.592;    5.714;  -14.290;  655.420
1123.133;    5.077;  -12.400;  547.940
1123.673;    5.959;  -10.130;  706.480
1124.214;    5.393;  -12.930;  612.460
1124.755;    6.174;  -14.380;  639.460
1125.296;    5.924;  -14.000;  627.320
1125.836;    5.683;  -10.070;  691.500
1126.377;    5.199;  -12.640;  599.660
1126.918;    5.802;  -12.960;  614.980
1127.458;    4.963;  -13.350;  622.220
1127.999;    5.016;  -10.750;  656.980
1128.539;    5.539;  -12.350;  694.240
1129.079;    4.828;  -14.860;  632.720
1129.620;    4.226;  -13.840;  558.100
1130.160;    4.090;  -12.330;  539.480
1130.700;    5.158;  -14.530;  640.840
1131.240;    5.558;  -12.530;  643.700
1131.781;    4.396;  -14.450;  619.680
1132.321;    4.695;   -9.790;  599.120
1132.861;    2.644;  -14.860;  564.200
1133.401;    3.306;  -14.290;  593.940
1133.941;    4.204;  -11.750;  626.280
1134.481;    3.244;   -9.920;  597.580
1135.020;    3.137;  -12.290;  609.160
1135.560;    3.541;  -11.650;  674.940
1136.100;    2.948;  -16.270;  501.160
1136.640;    3.224;  -10.890;  510.480
1137.179;    3.000;  -14.180;  537.960
1137.719;    3.337;  -16.250;  605.400
1138.258;    3.054;  -14.230;  587.360
1138.798;    3.081;   -9.090;  663.780
1139.337;    2.015;  -15.130;  482.840
1139.877;    2.738;  -13.680;  642.360
1140.416;    5.204;  -11.320;  878.060
1140.955;    2.938;  -10.860;  535.380
1141.494;    2.899;  -12.920;  669.280
1142.034;    2.840;  -13.930;  583.520
1142.573;    3.815;  -11.440;  646.280
1143.112;    2.235;  -12.000;  553.480
1143.651;    1.851;  -13.670;  536.480
1144.190;    3.088;  -12.730;  691.640
1144.729;    2.119;  -14.560;  607.420
1145.267;    1.851;  -11.830;  584.900
1145.806;    2.794;  -12.230;  637.040
1146.345;    1.741;  -14.130;  635.020
1146.884;    2.090;  -11.590;  622.500
1147.422;    1.146;  -12.550;  533.060
1147.961;    2.405;  -11.180;  708.460
1148.500;    2.140;  -11.510;  669.720
1149.038;    2.636;  -11.640;  632.500
1149.577;    2.100;  -10.130;  698.640
1150.115;   -0.289;  -13.970;  452.280
1150.653;    2.076;  -14.520;  607.340
1151.192;    1.661;  -12.810;  552.920
1151.730;    1.941;   -9.100;  652.560
1152.268;    0.856;  -12.220;  589.520
1152.806;    1.664;  -14.140;  571.180
1153.344;   -0.164;  -12.350;  577.640
1153.882;    0.855;   -8.980;  600.060
1154.421;   -0.752;  -15.190;  470.620
1154.958;   -0.259;  -15.210;  595.240
1155.496;    1.486;  -12.850;  645.280
1156.034;    0.826;   -9.940;  721.880
1156.572;    1.969;  -13.570;  667.060
1157.110;   -0.423;  -14.590;  473.940
1157.647;    1.305;  -13.030;  676.960
1158.185;   -0.391;  -12.140;  564.320
1158.723;   -1.018;  -14.390;  509.200
1159.260;    0.761;  -14.090;  701.700
1159.798;    1.265;  -11.920;  658.160
1160.335;   -0.581;  -11.110;  631.820

