
Integration time [ms]:   3.882
Averaging Nr. [scans]: 1000
Smoothing Nr. [pixels]: 0
Data measured with spectrometer [name]: 7414430SP
Wave   ;Sample   ;Dark     ;Reference
[nm]   ;[counts] ;[counts] ;[counts] 

288.544;  142.000;    7.153;  793.890
289.143;  145.390;    8.402;  681.602
289.742;  145.962;    7.062;  828.814
290.341;  133.746;    0.191;  789.841
290.940;  123.340;    0.321;  730.702
291.538;  124.213;    3.811;  881.108
292.137;  122.859;   -3.438;  792.581
292.736;  126.722;   -2.809;  975.101
293.335;  122.925;   -5.239;  735.086
293.934;  123.547;   -4.939;  781.677
294.532;  124.006;   -2.199; 1031.958
295.131;  110.473;   -6.831;  834.394
295.730;  108.906;   -6.620;  809.588
296.328;  107.317;   -6.471;  783.442
296.927;  106.617;   -6.571;  779.652
297.525;  107.774;   -7.391;  781.236
298.124;   99.239;   -9.402;  654.009
298.722;  103.838;   -5.781;  761.933
299.321;  101.595;   -6.351;  708.597
299.919;   99.423;   -8.661;  751.918
300.518;   95.002;  -11.922;  689.338
301.116;   96.103;   -6.941;  691.381
301.715;   97.087;   -5.471;  730.222
302.313;   96.395;   -8.361;  704.943
302.911;   93.472;   -9.082;  733.830
303.509;   97.136;   -4.571;  925.627
304.108;   94.662;   -7.111;  760.383
304.706;   94.895;   -7.681;  801.664
305.304;   89.277;   -9.162;  796.707
305.902;   94.244;   -6.761;  784.484
306.500;   89.390;   -6.921;  728.200
307.098;   88.763;   -6.491;  746.560
307.696;   86.351;   -6.941;  780.432
308.294;   86.088;   -6.301;  731.359
308.892;   88.718;   -4.771;  759.769
309.490;   85.153;   -5.141;  712.161
310.088;   82.958;   -2.912;  788.444
310.686;   87.746;   -0.421;  821.749
311.284;   82.931;   -3.461;  766.040
311.882;   80.850;   -6.282;  731.225
312.480;   78.382;   -3.632;  697.167
313.078;   79.794;   -2.112;  808.331
313.675;   80.926;   -1.931;  691.600
314.273;   75.464;   -1.442;  797.837
314.871;   75.385;   -3.002;  589.829
315.468;   73.159;   -2.252;  652.090
316.066;   75.904;   -1.091;  694.427
316.664;   68.319;   -4.512;  656.351
317.261;   73.734;   -0.062;  910.128
317.859;   68.368;   -0.952;  768.735
318.456;   69.827;    0.719;  830.096
319.054;   65.299;   -4.002;  787.828
319.651;   65.528;   -4.972;  759.928
320.249;   64.122;   -1.162;  810.188
320.846;   61.525;   -2.651;  714.286
321.443;   59.811;   -3.832;  832.135
322.041;   55.959;   -4.312;  812.315
322.638;   54.189;   -3.872;  701.456
323.235;   55.522;   -4.361;  665.683
323.833;   53.930;   -4.821;  740.354
324.430;   48.777;   -6.971;  615.900
325.027;   50.056;   -4.361;  876.855
325.624;   49.907;   -5.581;  644.532
326.221;   47.489;   -6.601;  689.717
326.818;   47.198;   -7.301;  818.332
327.415;   49.320;   -6.180;  748.828
328.012;   48.502;   -5.920;  690.585
328.609;   46.279;   -8.390;  731.389
329.206;   44.828;   -6.121;  778.621
329.803;   44.837;   -5.241;  737.841
330.400;   46.812;   -7.420;  704.260
330.997;   48.200;   -5.931;  817.147
331.594;   45.425;   -5.641;  788.185
332.191;   52.210;   -6.451;  728.722
332.787;   53.919;   -4.651;  844.463
333.384;   52.127;   -5.472;  763.093
333.981;   50.828;   -6.303;  815.687
334.578;   52.711;   -5.892;  708.378
335.174;   55.293;   -4.102;  731.469
335.771;   54.273;   -8.053;  836.456
336.367;   51.694;   -7.363;  710.631
336.964;   55.995;   -6.243;  793.266
337.561;   55.036;   -5.653;  731.112
338.157;   49.611;   -7.074;  911.916
338.754;   47.806;   -5.474;  796.589
339.350;   46.009;   -5.624;  722.493
339.946;   48.589;   -5.054;  773.135
340.543;   41.055;   -6.695;  846.136
341.139;   34.850;   -6.215;  720.836
341.735;   32.874;   -5.746;  772.593
342.332;   31.858;   -7.335;  691.472
342.928;   32.816;   -4.835;  795.394
343.524;   26.597;   -4.586;  761.684
344.120;   23.470;   -3.946;  738.562
344.716;   26.214;   -4.835;  723.717
345.313;   24.442;   -5.325;  795.342
345.909;   20.067;   -6.535;  627.336
346.505;   21.620;   -4.725;  740.247
347.101;   22.297;   -4.164;  827.864
347.697;   23.343;   -5.274;  785.398
348.293;   16.427;   -7.145;  627.244
348.889;   17.307;   -4.364;  745.914
349.485;   17.354;   -6.404;  688.205
350.081;   18.108;   -7.534;  772.592
350.676;   13.091;   -6.995;  691.606
351.272;   18.009;   -3.544;  809.530
351.868;   18.383;   -5.324;  780.497
352.464;   15.080;   -7.204;  723.932
353.059;   11.049;   -6.894;  646.017
353.655;   14.717;   -3.754;  777.063
354.251;   15.545;   -6.143;  759.845
354.846;   10.572;   -9.464;  740.646
355.442;    7.683;   -7.555;  753.071
356.038;    9.657;   -5.474;  751.708
356.633;    9.529;   -5.914;  728.594
357.229;    8.521;   -8.944;  724.757
357.824;    6.929;   -6.794;  703.600
358.420;    4.802;   -5.754;  679.726
359.015;    5.478;   -5.664;  695.357
359.610;    6.361;   -8.004;  763.920
360.206;    0.854;   -8.815;  603.240
360.801;    3.817;   -8.834;  646.503
361.396;    5.847;   -6.274;  725.975
361.992;    2.108;   -8.574;  668.220
362.587;   -0.486;   -9.265;  670.160
363.182;    0.505;   -5.484;  689.631
363.777;    1.639;   -5.164;  738.242
364.372;    2.613;   -6.954;  737.314
364.967;   -2.148;   -7.065;  680.744
365.563;    2.253;   -5.684;  815.567
366.158;   -1.027;   -6.484;  685.161
366.753;    0.708;   -8.004;  649.263
367.348;   -1.460;  -10.114;  746.056
367.942;   -1.237;   -7.764;  697.298
368.537;   -2.671;   -4.554;  754.245
369.132;   -2.775;   -7.664;  703.428
369.727;   -6.442;   -8.905;  638.079
370.322;   -5.511;   -4.945;  580.186
370.917;   -5.368;   -7.095;  710.646
371.511;   -1.873;   -6.574;  861.834
372.106;   -5.877;   -6.515;  776.964
372.701;   -9.866;   -8.225;  585.988
373.296;   -3.540;   -4.494;  863.135
373.890;   -7.805;   -7.965;  647.840
374.485;   -9.546;   -9.745;  691.199
375.079;   -6.694;   -5.554;  738.685
375.674;   -5.527;   -4.724;  812.970
376.268;   -8.862;   -8.365;  691.759
376.863;  -15.290;   -8.126;  580.327
377.457;   -8.771;   -6.045;  662.490
378.052;  -10.015;   -6.835;  764.884
378.646;  -11.143;   -9.375;  741.167
379.240;  -11.759;   -6.185;  721.176
379.835;  -10.867;   -6.135;  636.978
380.429;  -12.913;   -8.365;  562.557
381.023;  -12.478;   -7.935;  779.205
381.617;  -15.478;   -8.325;  680.106
382.212;  -11.502;   -7.405;  685.303
382.806;   -9.957;   -4.155;  760.690
383.400;  -14.654;   -8.945;  672.281
383.994;  -15.938;   -8.365;  664.870
384.588;  -11.470;   -7.824;  697.701
385.182;   -9.947;   -7.984;  726.624
385.776;  -12.132;  -10.404;  706.875
386.370;  -15.458;   -7.335;  681.968
386.964;  -13.663;   -7.485;  684.155
387.558;  -12.399;   -8.174;  598.360
388.152;  -16.108;  -10.415;  681.959
388.745;  -13.312;   -9.595;  814.707
389.339;  -12.059;   -6.454;  747.642
389.933;  -11.566;   -5.804;  695.370
390.527;  -11.283;   -6.854;  859.029
391.120;  -18.481;   -7.665;  595.318
391.714;  -15.307;   -7.245;  711.633
392.308;  -12.609;   -4.514;  780.253
392.901;  -15.930;   -7.935;  642.460
393.495;  -17.204;   -8.585;  595.414
394.089;  -16.080;   -5.245;  760.452
394.682;  -16.391;   -6.305;  697.188
395.275;  -16.592;   -9.335;  719.927
395.869;  -18.575;   -7.375;  667.314
396.462;  -16.885;   -7.055;  616.609
397.056;  -12.610;   -5.434;  776.621
397.649;  -17.016;   -9.525;  731.575
398.242;  -14.216;   -7.574;  712.645
398.836;  -13.641;   -5.134;  766.408
399.429;  -15.045;   -6.544;  631.041
400.022;  -17.997;   -9.215;  665.902
400.615;  -15.537;   -8.105;  805.609
401.208;  -13.773;   -7.614;  691.451
401.802;  -16.355;   -8.085;  699.329
402.395;  -17.469;   -9.575;  683.502
402.988;  -18.355;   -9.285;  696.627
403.581;  -15.122;   -7.514;  646.878
404.174;  -12.496;   -6.404;  686.568
404.767;  -15.829;   -8.775;  638.583
405.360;  -18.464;   -7.415;  621.445
405.953;  -12.819;   -5.624;  759.034
406.545;  -12.621;   -6.474;  725.342
407.138;  -16.671;   -8.445;  618.350
407.731;  -14.788;  -10.044;  613.303
408.324;  -11.149;   -8.484;  660.554
408.917;  -11.827;   -7.624;  681.864
409.509;  -14.405;   -8.304;  740.396
410.102;  -16.229;   -8.495;  643.948
410.695;  -10.425;   -7.824;  665.758
411.287;  -10.636;   -7.754;  599.821
411.880;  -11.968;   -9.294;  585.421
412.472;  -15.140;   -8.814;  613.092
413.065;  -12.485;   -6.674;  629.408
413.657;  -10.109;   -9.664;  576.678
414.250;   -9.687;  -10.264;  646.681
414.842;  -11.570;   -8.664;  676.353
415.434;   -9.731;   -8.584;  570.463
416.027;   -5.834;   -9.423;  652.196
416.619;   -7.288;  -10.764;  713.400
417.211;   -7.835;   -7.404;  599.352
417.804;   -4.660;   -7.383;  628.499
418.396;   -8.572;   -8.334;  607.643
418.988;   -5.409;   -9.633;  659.238
419.580;   -9.054;  -10.554;  568.276
420.172;   -8.091;   -8.683;  536.196
420.764;   -3.493;   -9.713;  672.482
421.356;   -5.209;  -11.303;  636.898
421.948;   -4.235;   -8.453;  677.661
422.540;    0.197;   -5.793;  680.027
423.132;   -0.971;   -7.162;  600.641
423.724;   -4.442;   -7.933;  561.267
424.316;   -2.185;   -9.083;  621.345
424.908;    1.234;   -8.392;  591.517
425.500;    2.312;   -8.062;  647.978
426.092;    2.421;   -9.692;  648.268
426.683;    2.201;   -8.223;  684.836
427.275;    4.073;   -8.602;  641.471
427.867;    5.472;   -8.382;  668.948
428.458;    7.248;  -10.472;  732.344
429.050;    4.459;   -9.112;  680.749
429.642;    6.914;   -7.752;  743.124
430.233;    6.947;   -8.832;  569.356
430.825;    9.452;   -8.292;  724.809
431.416;    6.179;   -7.522;  698.241
432.008;    9.735;   -9.262;  651.723
432.599;   10.204;   -6.441;  656.073
433.190;    7.584;   -9.222;  637.670
433.782;    6.848;  -11.832;  590.395
434.373;   14.645;   -7.121;  884.765
434.964;   12.560;   -9.141;  602.920
435.556;   10.268;   -9.332;  634.537
436.147;   13.389;   -8.892;  758.490
436.738;   13.171;   -8.151;  701.099
437.329;   18.005;   -8.281;  721.723
437.920;   11.249;   -9.062;  666.688
438.511;   11.612;  -11.182;  564.526
439.103;   17.777;   -7.461;  623.998
439.694;   19.695;   -8.541;  681.583
440.285;   21.230;   -7.351;  764.432
440.876;   18.886;   -8.201;  845.738
441.466;   18.150;  -10.381;  575.162
442.057;   23.139;   -7.620;  665.814
442.648;   22.596;   -8.461;  746.255
443.239;   20.283;   -8.991;  620.477
443.830;   25.819;   -7.910;  704.958
444.421;   26.754;   -7.340;  655.474
445.011;   23.379;   -8.981;  693.619
445.602;   23.738;   -9.341;  743.126
446.193;   24.551;  -11.390;  488.117
446.783;   29.328;  -11.240;  640.397
447.374;   25.336;   -8.471;  692.759
447.964;   25.506;   -8.471;  713.770
448.555;   33.753;   -6.590;  822.742
449.145;   29.788;   -8.200;  662.853
449.736;   31.901;  -11.040;  803.179
450.326;   31.793;   -9.640;  713.626
450.917;   36.447;   -9.480;  675.324
451.507;   35.092;   -8.020;  600.661
452.097;   36.494;  -10.210;  746.267
452.688;   36.956;   -7.810;  742.160
453.278;   36.497;   -9.360;  566.840
453.868;   41.253;   -8.669;  793.550
454.458;   39.203;  -10.950;  651.141
455.048;   39.937;  -10.200;  711.783
455.639;   40.640;   -9.369;  567.096
456.229;   44.345;   -7.739;  710.694
456.819;   46.856;   -8.939;  751.158
457.409;   47.098;   -7.169;  773.993
457.999;   49.121;   -7.779;  737.505
458.589;   49.529;   -7.039;  686.606
459.179;   49.178;   -9.019;  717.658
459.769;   46.877;   -8.909;  627.099
460.358;   51.868;   -8.659;  797.262
460.948;   51.535;   -8.209;  689.503
461.538;   54.104;   -9.879;  660.677
462.128;   51.300;   -9.379;  664.934
462.717;   57.890;   -9.158;  710.326
463.307;   62.121;   -8.638;  705.846
463.897;   56.644;   -8.869;  656.942
464.486;   56.569;   -7.409;  837.128
465.076;   60.532;   -9.618;  733.776
465.666;   64.312;   -7.578;  652.900
466.255;   62.153;   -9.369;  785.651
466.845;   60.374;  -10.049;  666.749
467.434;   64.421;   -8.168;  725.873
468.023;   63.685;   -9.188;  658.357
468.613;   62.114;   -9.849;  713.946
469.202;   66.465;  -12.958;  646.507
469.791;   70.578;   -9.488;  737.811
470.381;   73.760;   -6.468;  742.813
470.970;   73.002;  -10.248;  711.099
471.559;   72.771;  -11.428;  733.291
472.148;   74.918;   -9.738;  675.737
472.738;   77.736;   -7.877;  765.466
473.327;   77.111;  -11.868;  637.529
473.916;   77.485;   -8.578;  737.446
474.505;   80.978;  -11.137;  751.703
475.094;   84.414;   -9.407;  806.570
475.683;   83.946;   -9.977;  797.699
476.272;   84.547;  -10.807;  730.632
476.861;   86.900;  -11.017;  706.754
477.449;   93.446;  -10.316;  728.487
478.038;   88.282;  -10.187;  692.513
478.627;   89.580;  -12.458;  714.852
479.216;   95.005;  -10.127;  769.441
479.805;   98.170;   -6.256;  783.375
480.393;   98.162;   -8.737; 1008.945
480.982;   97.496;   -9.087;  874.501
481.571;  102.591;   -7.806;  858.333
482.159;  103.235;  -10.596;  705.386
482.748;  103.825;  -11.507;  821.385
483.336;  107.567;   -8.366;  858.209
483.925;  108.242;   -7.497;  774.373
484.513;  115.459;   -8.326;  758.962
485.102;  111.775;  -10.277;  810.965
485.690;  120.688;   -8.256; 1011.050
486.278;  121.701;   -7.146;  979.329
486.867;  122.255;   -7.986;  809.662
487.455;  125.131;   -9.926;  898.229
488.043;  125.794;  -10.026;  748.361
488.631;  134.539;   -7.226; 1005.079
489.220;  138.118;   -8.696;  908.626
489.808;  137.576;  -12.276;  741.415
490.396;  145.559;   -9.386;  914.645
490.984;  150.728;   -8.506;  830.161
491.572;  160.113;   -8.226;  940.315
492.160;  166.457;   -9.836;  919.081
492.748;  176.304;  -10.316;  884.341
493.336;  196.496;   -7.146; 1019.693
493.924;  217.978;   -7.965;  958.077
494.512;  243.585;  -10.316; 1066.638
495.100;  277.263;  -10.186; 1103.280
495.687;  328.118;   -7.805; 1206.373
496.275;  389.626;   -9.686; 1150.796
496.863;  468.890;  -11.566; 1281.171
497.451;  559.187;  -11.406; 1386.805
498.038;  678.196;   -8.235; 1556.729
498.626;  790.236;   -7.485; 1741.407
499.214;  948.165;   -8.646; 2016.609
499.801; 1180.097;   -9.936; 2220.633
500.389; 1374.380;   -8.056; 2312.494
500.976; 1551.456;   -6.166; 2744.849
501.564; 1744.608;   -9.126; 3148.565
502.151; 2046.464;  -12.456; 3515.999
502.738; 2443.524;  -10.056; 3971.274
503.326; 2818.579;  -10.605; 4403.796
503.913; 3164.635;  -10.576; 5161.749
504.500; 3664.848;   -9.056; 5986.420
505.088; 4119.302;  -10.136; 6381.201
505.675; 4828.374;   -9.075; 6925.547
506.262; 5299.421;  -11.346; 7619.060
506.849; 5879.468;   -9.376; 8733.969
507.436; 6408.870;   -7.365; 9790.121
508.023; 6748.968;   -8.686; 9985.472
508.610; 7190.392;   -8.846;10434.618
509.197; 8101.710;   -9.077;11198.435
509.784; 9357.261;  -10.246;12391.194
510.371; 9861.608;   -9.825;13603.713
510.958;10626.748;  -10.896;14426.586
511.545;11337.532;   -9.006;15243.775
512.132;12022.386;   -8.765;15945.876
512.719;13128.951;   -8.286;16340.369
513.305;15025.951;   -9.256;18011.766
513.892;17139.805;  -11.106;19754.971
514.479;18947.838;   -8.576;20967.805
515.066;20395.018;   -9.046;22299.793
515.652;20957.090;  -10.676;22908.660
516.239;22332.811;  -10.166;23798.875
516.825;22732.318;  -11.266;25567.275
517.412;22069.076;   -7.446;28154.959
517.998;22035.404;  -10.916;28344.111
518.585;21325.313;   -9.166;27134.219
519.171;21181.662;  -10.135;27268.576
519.758;22673.756;   -8.806;28964.129
520.344;26014.260;   -6.716;30664.494
520.930;27745.350;  -10.166;32550.605
521.516;27657.957;   -9.615;35422.895
522.103;28273.461;   -8.656;38280.004
522.689;28837.119;   -9.646;37835.117
523.275;27302.518;  -10.786;37288.613
523.861;27108.986;   -9.266;37281.395
524.447;28991.313;   -8.285;37846.949
525.033;32160.648;   -9.426;38321.949
525.619;33342.711;   -9.836;38579.285
526.205;34862.238;   -8.136;40622.875
526.791;36389.859;   -9.986;42258.836
527.377;38206.477;   -8.236;42966.902
527.963;36493.738;  -12.117;42018.949
528.549;34661.953;   -8.376;42476.828
529.135;35685.934;   -8.696;41854.852
529.721;37619.973;   -9.686;41237.711
530.306;39668.000;   -8.616;41259.445
530.892;42976.734;   -9.396;41506.047
531.478;43398.172;   -9.926;43559.613
532.063;44144.699;  -10.236;47695.563
532.649;46160.844;   -8.257;50808.324
533.235;47522.727;  -11.476;51787.500
533.820;46453.926;   -8.156;52145.035
534.406;45655.816;  -12.257;51133.488
534.991;43516.449;   -8.686;49996.805
535.576;41333.988;   -9.426;48882.852
536.162;41161.258;   -8.436;46942.285
536.747;40141.680;  -10.957;45711.746
537.333;39459.004;  -13.147;48510.180
537.918;41788.141;   -9.027;50439.891
538.503;42380.953;   -8.256;50863.711
539.088;45353.957;  -10.576;50906.922
539.673;47059.219;  -10.907;52621.965
540.259;47421.359;   -9.126;52368.094
540.844;44414.512;   -9.026;50879.109
541.429;45814.258;   -9.597;52077.777
542.014;48648.855;  -11.447;52716.695
542.599;47459.191;   -9.236;52363.281
543.184;43135.336;  -12.267;53187.137
543.769;42292.480;  -10.367;54697.605
544.354;42897.465;  -10.887;53913.914
544.938;40717.855;  -11.687;49680.164
545.523;39639.344;   -8.286;47386.277
546.108;43028.492;   -9.317;49151.949
546.693;45808.492;  -10.187;51384.637
547.278;44589.434;   -9.926;51853.254
547.862;43877.953;   -9.196;51173.750
548.447;43656.383;   -9.657;51691.395
549.031;44332.805;   -9.127;52456.703
549.616;47362.574;  -10.836;52714.516
550.201;50116.887;   -8.507;52414.598
550.785;51195.328;  -10.537;52355.059
551.370;51872.906;  -11.727;54589.453
551.954;50963.672;   -9.457;58267.348
552.538;49543.203;   -8.147;59062.176
553.123;48347.629;   -9.397;58115.285
553.707;46472.914;   -9.558;56556.285
554.291;46774.426;   -9.417;56201.668
554.876;47583.176;   -7.627;55335.762
555.460;46328.605;  -10.457;54155.703
556.044;44355.945;  -10.078;53721.484
556.628;44706.246;   -9.407;53731.016
557.212;44554.637;   -7.957;54312.531
557.796;44726.500;  -11.327;53797.773
558.380;49111.453;  -10.868;56145.984
558.964;49237.418;   -9.637;57277.930
559.548;46994.414;   -8.807;56459.641
560.132;47747.125;  -10.187;54434.543
560.716;47046.031;   -9.868;54800.617
561.300;48475.371;  -10.217;57606.945
561.884;49404.313;   -4.947;58972.445
562.467;48433.613;   -9.588;57327.570
563.051;46515.570;  -11.138;54962.434
563.635;44829.336;   -9.358;52594.473
564.219;44051.633;   -9.797;50610.410
564.802;44319.480;   -9.918;49551.180
565.386;42423.539;  -10.838;48370.953
565.969;41250.523;   -8.037;48178.871
566.553;40404.777;   -5.667;49957.305
567.136;39849.879;   -8.258;50369.594
567.720;39346.035;  -11.278;49492.004
568.303;40957.727;   -9.028;50616.352
568.887;40708.324;   -7.508;50727.148
569.470;39653.039;  -11.068;51698.379
570.053;39840.773;  -10.028;52122.078
570.637;38572.996;  -11.077;52536.438
571.220;38576.316;   -8.747;51186.098
571.803;40465.898;   -8.868;51032.762
572.386;42568.301;  -10.608;49609.887
572.969;41739.539;  -10.548;48285.926
573.552;39023.988;   -7.898;47624.285
574.135;40217.379;   -9.918;45498.641
574.718;36278.551;  -10.328;41970.434
575.301;33352.969;   -9.548;41447.137
575.884;30427.383;   -8.768;40923.836
576.467;33775.051;   -9.858;45267.723
577.050;34461.531;  -11.018;48175.543
577.633;35519.117;  -10.048;47729.328
578.216;34681.109;  -10.268;47579.793
578.799;32196.207;  -11.808;47820.996
579.381;32137.855;   -7.338;48115.551
579.964;35014.148;   -9.728;47333.766
580.547;36128.566;   -8.928;46668.969
581.129;36775.906;   -9.149;44466.141
581.712;36827.965;  -11.359;44164.922
582.294;34439.086;  -10.738;46477.855
582.877;33664.234;   -8.788;48244.254
583.459;34313.344;   -9.859;47437.895
584.042;36419.973;   -9.649;46943.219
584.624;36144.590;  -10.529;46792.227
585.206;34691.703;  -10.298;46557.250
585.789;34030.965;  -11.029;45793.773
586.371;32566.025;   -9.359;43836.391
586.953;32238.271;   -8.799;42972.492
587.536;31980.205;   -8.928;42487.211
588.118;32004.635;   -9.180;42086.414
588.700;31518.369;  -10.519;43389.930
589.282;30314.801;   -8.098;43646.039
589.864;29807.244;   -8.139;43438.109
590.446;31799.469;  -10.509;43151.926
591.028;32923.949;  -11.119;42781.867
591.610;34213.477;  -10.019;42839.098
592.192;33481.984;   -8.838;42820.402
592.774;30606.242;  -11.549;40724.277
593.356;28046.404;  -11.609;39874.789
593.937;27624.711;  -10.019;39980.648
594.519;29909.939;   -7.839;42069.633
595.101;32549.566;  -10.779;42976.031
595.683;33815.133;  -10.049;44084.441
596.264;33140.070;   -9.969;43478.797
596.846;32870.418;   -9.699;43803.672
597.427;31692.014;  -10.970;42986.934
598.009;31248.406;  -13.090;42832.219
598.591;30659.510;   -9.509;42580.086
599.172;30629.479;   -9.019;43061.805
599.753;31204.592;  -13.310;41691.469
600.335;32210.336;  -11.010;40692.520
600.916;31833.105;  -10.309;39982.422
601.498;30989.607;   -8.209;40318.617
602.079;30683.006;  -11.440;40670.609
602.660;32536.422;   -8.690;41450.898
603.241;33896.262;  -12.759;41137.738
603.823;32497.541;  -10.409;38868.797
604.404;31877.035;  -11.790;38182.785
604.985;33202.625;  -10.280;38078.047
605.566;34557.324;   -8.059;38056.633
606.147;32062.043;   -8.960;37020.418
606.728;30130.148;  -10.710;37883.359
607.309;29187.836;  -12.760;38748.273
607.890;27488.492;   -9.959;38850.230
608.471;28127.449;   -9.780;37457.918
609.051;30144.479;   -8.940;36066.457
609.632;31378.057;  -12.070;35991.074
610.213;31259.035;   -9.610;37402.641
610.794;30824.746;   -8.750;38383.363
611.374;30914.969;  -11.100;40562.387
611.955;31356.895;  -12.200;38533.727
612.536;31652.275;  -10.410;36951.789
613.116;31005.365;  -10.010;37197.891
613.697;29547.297;  -10.480;38411.125
614.277;29122.664;  -12.751;38673.938
614.858;28374.643;  -11.600;37075.863
615.438;28596.170;   -8.190;35092.906
616.019;27071.240;   -8.941;33666.301
616.599;28694.719;  -13.540;34189.023
617.179;31153.051;  -10.890;36952.047
617.760;30249.309;   -7.610;39582.574
618.340;28647.445;  -14.441;38943.977
618.920;28522.963;   -9.180;37594.156
619.500;30742.373;  -11.881;37866.938
620.080;32355.826;   -9.870;37869.043
620.660;31211.350;  -13.211;36868.617
621.241;29856.016;  -11.921;36352.309
621.821;29033.055;  -10.271;35459.520
622.401;29825.809;   -8.200;35207.414
622.980;31782.170;  -11.141;35980.422
623.560;31792.230;  -14.321;37351.328
624.140;30276.584;   -9.360;34388.582
624.720;25912.924;   -7.481;32368.764
625.300;23740.818;  -12.730;32638.629
625.880;27837.633;  -11.441;34599.035
626.459;31371.197;  -10.971;36831.738
627.039;34586.969;   -9.011;38299.098
627.619;34913.910;   -8.521;38289.574
628.198;33348.617;   -9.861;37220.695
628.778;32350.244;   -8.841;37632.563
629.357;32510.855;   -9.891;38003.012
629.937;32282.480;  -11.871;38402.039
630.516;31603.791;  -10.641;37868.801
631.096;33732.426;  -11.391;35760.410
631.675;35497.512;   -6.622;35225.219
632.254;32979.039;  -13.002;35130.289
632.834;31613.100;  -11.622;35794.570
633.413;32375.195;   -8.321;35788.922
633.992;30507.740;   -7.732;34532.863
634.571;30790.621;  -10.992;33590.113
635.151;30322.463;  -10.422;34943.863
635.730;30962.275;  -11.511;35352.523
636.309;30466.217;   -7.901;35366.605
636.888;29974.680;  -11.452;36165.637
637.467;29757.785;  -10.672;37515.902
638.046;30579.424;   -9.301;39288.695
638.625;31787.531;  -11.452;38279.699
639.204;32358.361;  -12.262;37741.598
639.782;32751.984;  -11.892;38364.551
640.361;31065.232;  -11.411;36740.621
640.940;26126.602;  -11.501;34950.082
641.519;28354.031;  -10.921;34137.398
642.097;31841.514;  -10.101;35654.258
642.676;30244.162;  -10.821;35637.957
643.255;31535.178;   -8.631;36567.074
643.833;34336.031;  -11.411;37809.434
644.412;36794.672;  -12.021;37337.293
644.990;37068.758;  -12.271;37018.531
645.569;35830.461;   -9.741;36518.469
646.147;33648.570;   -9.051;36186.430
646.726;33630.051;  -13.861;36267.688
647.304;33453.078;   -9.461;36647.625
647.882;32898.914;  -13.171;39286.742
648.461;33103.547;  -11.911;39157.703
649.039;32177.840;   -9.541;35412.883
649.617;31899.666;   -8.901;34744.918
650.195;29550.434;   -8.591;35403.098
650.773;29059.184;  -13.031;35053.797
651.352;28265.586;  -12.211;33756.816
651.930;25844.197;  -11.361;31868.773
652.508;22850.424;   -8.601;33121.551
653.086;25722.277;   -9.991;33564.793
653.663;29919.143;  -11.931;34054.668
654.241;32580.719;  -10.821;35693.309
654.819;34039.918;   -9.341;36422.906
655.397;31942.885;  -10.851;38213.484
655.975;30537.863;  -11.461;39507.625
656.553;30275.889;   -8.841;39498.223
657.130;29399.787;  -10.371;40395.480
657.708;30075.666;  -11.071;39242.020
658.286;29327.451;  -11.141;38920.020
658.863;30451.330;  -10.861;40202.898
659.441;35515.477;  -11.181;39677.938
660.018;36281.988;  -10.851;40413.355
660.596;35929.363;  -12.571;39931.414
661.173;36493.961;  -12.141;39604.531
661.750;35791.359;  -11.571;39700.070
662.328;33071.500;  -10.780;39292.809
662.905;30494.348;  -10.750;38235.648
663.482;27277.580;  -11.320;36212.305
664.060;26380.977;  -10.160;35944.945
664.637;31118.266;  -13.120;35170.785
665.214;33136.398;  -11.500;34197.523
665.791;31212.807;  -12.430;34549.520
666.368;28758.920;   -9.840;35118.578
666.945;27620.051;  -11.290;36019.418
667.522;28374.822;  -13.540;36048.438
668.099;29239.938;  -10.250;36243.914
668.676;28301.814;  -11.270;35958.875
669.253;27175.102;   -8.210;37384.730
669.830;26393.049;   -9.710;36779.629
670.407;26345.006;   -9.700;35231.289
670.984;27203.990;   -9.190;35544.270
671.560;26349.619;   -9.560;35466.867
672.137;26180.576;  -11.820;34280.863
672.714;29231.139;  -12.460;34632.863
673.290;33426.750;  -10.940;35135.422
673.867;33577.668;  -10.510;36114.480
674.443;30600.920;  -12.110;36152.859
675.020;31794.008;  -11.760;35327.238
675.596;32416.697;   -9.380;35795.176
676.173;31331.518;  -11.120;35430.355
676.749;30079.842;  -13.390;33549.516
677.326;29326.529;  -12.600;32210.012
677.902;28452.695;  -10.830;32068.871
678.478;28435.656;  -12.400;32583.891
679.054;30110.383;   -8.610;32088.928
679.631;30168.670;  -11.640;30978.848
680.207;30161.016;   -8.140;33160.887
680.783;30751.543;  -12.300;35570.363
681.359;29813.896;  -10.910;36125.184
681.935;30278.973;  -11.040;35240.922
682.511;30756.719;  -11.130;34429.961
683.087;30882.936;  -11.080;34463.680
683.663;32768.895;  -10.530;34648.898
684.239;32347.227;  -12.120;34546.457
684.815;29977.863;   -8.870;35586.375
685.390;29074.500;   -8.940;35821.895
685.966;28929.600;  -12.109;35085.871
686.542;28204.008;  -13.539;34198.230
687.118;28010.039;  -10.379;32847.707
687.693;28143.508;  -10.189;32794.027
688.269;26876.248;  -12.939;33072.367
688.844;26149.789;   -8.679;33141.664
689.420;27269.732;  -10.919;33965.742
689.995;27656.898;   -7.489;34655.523
690.571;27281.828;  -12.199;33576.742
691.146;27862.201;   -8.979;32657.219
691.722;29292.354;   -9.119;32526.979
692.297;27696.748;  -10.519;33014.617
692.872;26885.271;  -10.629;34012.254
693.448;27038.504;  -12.119;34237.434
694.023;27628.492;   -8.219;34142.672
694.598;25915.443;  -13.209;34132.031
695.173;25289.148;  -11.879;34205.250
695.748;26197.361;  -12.039;32882.488
696.323;26306.250;  -11.779;32864.906
696.898;27280.805;  -10.219;33170.004
697.473;28390.969;  -13.639;32432.984
698.048;28591.438;  -11.239;31649.303
698.623;30445.188;  -10.859;30778.141
699.198;32191.986;  -13.379;31140.119
699.773;32846.711;  -13.409;31764.299
700.348;32970.148;  -12.329;31780.816
700.922;33238.773;   -8.749;32046.375
701.497;33622.852;  -12.449;32603.574
702.072;31748.592;   -8.879;34799.871
702.646;29712.678;  -10.719;35793.172
703.221;28803.941;   -8.469;35201.590
703.795;28699.994;  -11.389;34764.527
704.370;28029.969;  -12.499;34307.367
704.944;27802.795;  -11.449;33509.887
705.519;27177.186;  -10.659;31388.584
706.093;26766.158;  -12.909;31340.104
706.668;27552.703;  -13.509;32630.281
707.242;27268.750;  -10.049;32728.779
707.816;25278.244;  -10.629;32947.238
708.390;24715.977;  -11.829;33277.855
708.965;25417.840;  -11.159;33834.336
709.539;26295.742;  -11.069;33709.273
710.113;25369.625;  -10.908;33044.313
710.687;23514.520;   -9.488;31953.992
711.261;23917.232;  -13.068;30505.949
711.835;26937.189;  -12.748;30262.369
712.409;27485.844;  -10.678;31254.447
712.983;25789.436;  -11.658;32754.986
713.557;25814.092;  -13.718;34018.824
714.131;26240.930;  -13.388;34579.625
714.704;27394.939;   -9.818;33890.262
715.278;28958.773;  -11.818;33531.102
715.852;30337.660;  -11.328;33601.660
716.425;30900.357;   -9.118;33515.117
716.999;30778.979;  -10.188;33185.555
717.573;30798.277;   -9.808;33905.996
718.146;33205.719;  -11.478;35199.293
718.720;32670.396;  -10.998;35060.551
719.293;30812.275;   -9.508;34973.230
719.867;30623.418;  -12.138;36394.449
720.440;29759.070;  -11.288;36663.008
721.013;32542.785;  -11.428;35102.426
721.587;33985.629;  -11.698;33985.266
722.160;35157.000;  -11.608;33524.965
722.733;33866.352;  -11.428;32987.043
723.306;32304.859;  -12.518;33066.301
723.880;31714.113;   -7.408;33399.500
724.453;30398.902;  -11.048;33468.297
725.026;28987.818;  -11.678;33816.637
725.599;28006.176;  -10.978;32797.996
726.172;27036.525;   -8.838;33187.434
726.745;28010.473;  -11.438;35136.613
727.318;28973.541;   -9.828;35751.730
727.891;27857.377;  -10.868;35890.430
728.463;25896.688;  -11.348;34822.090
729.036;24157.301;  -11.608;32895.086
729.609;24311.180;  -14.738;31823.225
730.182;25709.908;   -8.448;31445.283
730.754;26751.625;  -11.228;32373.223
731.327;26999.092;  -12.018;33676.820
731.900;28796.926;  -13.748;33417.000
732.472;29081.193;  -10.928;31978.498
733.045;27394.229;   -9.478;30368.777
733.617;25457.531;  -12.967;30574.215
734.190;24625.900;  -11.707;31280.975
734.762;23869.965;  -11.067;31674.412
735.334;23281.701;  -10.587;31247.291
735.907;22289.613;  -11.947;29876.211
736.479;22921.863;  -11.667;29808.488
737.051;25563.383;  -10.187;30233.547
737.623;27652.785;   -6.887;31469.086
738.195;30526.541;  -12.117;31784.225
738.768;32417.920;  -14.077;32120.523
739.340;31087.586;  -12.207;32094.342
739.912;27597.770;   -8.977;31312.680
740.484;26203.881;  -11.017;31946.238
741.056;27621.012;  -13.517;32984.059
741.628;29601.082;  -11.507;33897.715
742.199;29681.900;   -7.597;33213.016
742.771;30324.582;  -12.227;31369.113
743.343;29407.590;  -12.427;31865.473
743.915;27685.703;   -9.827;32388.631
744.487;26655.170;  -10.007;31079.568
745.058;24965.971;  -11.887;30570.107
745.630;24280.457;  -10.787;29970.127
746.201;23764.115;  -10.887;29186.766
746.773;24217.072;   -9.707;28805.723
747.344;25187.186;  -11.137;29591.223
747.916;25211.186;  -11.887;31412.201
748.487;24400.215;   -9.707;32194.898
749.059;23683.900;  -10.027;32533.719
749.630;23465.777;  -11.787;32158.518
750.201;22471.049;  -12.767;30855.395
750.773;22128.117;  -11.497;28622.555
751.344;22962.443;   -9.937;28405.732
751.915;23268.441;  -11.567;28461.551
752.486;22466.877;  -13.267;27842.850
753.057;20428.451;  -10.627;27845.008
753.628;19084.670;  -11.657;27728.107
754.199;21396.070;  -12.097;27381.086
754.770;23107.830;  -11.447;25882.203
755.341;23100.816;  -11.997;25886.184
755.912;21013.641;  -10.207;26050.861
756.483;19285.605;  -10.937;26798.779
757.054;19193.457;  -11.527;27048.238
757.625;19269.154;  -12.886;26294.838
758.195;19437.533;  -11.226;26142.076
758.766;19408.984;  -12.366;26392.234
759.337;18384.209;  -11.946;26334.594
759.907;18551.535;  -13.856;27579.652
760.478;19495.850;   -9.606;28352.770
761.048;19577.229;  -11.606;27325.088
761.619;19676.883;  -11.036;26460.428
762.189;19072.674;  -12.206;26029.826
762.760;20343.229;   -9.666;26430.145
763.330;21031.398;   -9.796;26670.902
763.900;19081.486;  -10.896;26603.021
764.471;17594.500;  -11.726;25542.740
765.041;18215.859;   -9.656;24358.459
765.611;19157.449;  -11.276;23991.297
766.181;18934.453;  -12.116;24470.236
766.751;18421.654;  -12.376;24845.975
767.321;18398.990;  -11.626;24533.633
767.891;18438.164;  -10.426;24916.492
768.461;17111.020;  -13.456;24776.771
769.031;15227.597;  -11.616;24757.988
769.601;15321.995;  -11.356;24181.088
770.171;15705.742;  -11.586;23670.387
770.741;16200.740;  -12.696;22960.045
771.311;16425.740;  -10.226;22917.523
771.880;16079.781;  -11.146;23562.941
772.450;16693.928;  -11.716;24216.500
773.020;16806.957;  -13.226;24140.398
773.589;16427.344;  -12.586;24414.857
774.159;16100.631;  -10.246;23858.717
774.729;15671.802;  -11.586;22942.135
775.298;14936.624;  -15.926;22324.033
775.867;15164.689;  -10.426;21140.313
776.437;14910.528;  -11.416;20838.092
777.006;13325.452;  -12.766;20599.510
777.576;13561.676;  -13.666;20508.809
778.145;14232.068;  -10.066;20732.947
778.714;13774.118;  -10.276;21062.465
779.283;13939.203;  -12.086;20949.664
779.853;15228.591;  -14.016;20508.623
780.422;15544.129;  -12.376;20649.082
780.991;14528.946;   -9.246;21527.520
781.560;13742.656;   -9.775;22632.658
782.129;13512.159;  -12.495;23048.277
782.698;13204.770;  -11.775;23438.555
783.267;13352.367;  -10.065;23267.734
783.836;13898.060;  -12.455;22415.133
784.404;14568.329;  -13.385;20443.152
784.973;15338.787;  -11.045;19699.150
785.542;14986.646;   -9.505;19763.828
786.111;13961.658;   -9.385;20341.408
786.679;13730.681;  -13.475;20207.967
787.248;13674.717;  -11.245;19516.465
787.817;11910.442;  -12.485;18900.363
788.385;10313.646;  -11.165;17879.121
788.954;10846.188;  -11.755;17658.301
789.522;11545.497;   -9.625;17788.879
790.090;11352.502;   -9.665;18118.277
790.659;11100.153;   -9.295;18338.736
791.227;12125.976;  -12.175;18508.615
791.795;13504.724;  -12.145;17898.254
792.364;13423.647;  -11.575;17295.133
792.932;12108.008;  -11.085;16822.051
793.500;10938.143;  -11.345;17040.148
794.068;10878.636;  -12.565;17179.787
794.636;12010.396;  -12.105;16664.246
795.204;12565.689;  -11.995;16524.545
795.772;11905.451;  -12.615;17274.564
796.340;11422.136;  -12.425;17891.002
796.908;11155.071;  -11.455;17648.561
797.476;10478.945;  -12.165;17064.080
798.044;10112.094;  -15.795;16672.777
798.612;10346.972;  -10.985;17023.996
799.180;11164.912;  -12.055;16561.615
799.747;11473.748;  -12.525;15962.773
800.315;10225.820;  -14.765;15296.992
800.883; 8948.094;  -12.435;14801.771
801.450; 8847.583;  -11.295;14534.430
802.018; 9293.108;  -11.185;14173.248
802.585; 9318.244;  -11.625;14029.547
803.153; 8436.640;  -10.665;13836.846
803.720; 8005.277;  -10.275;13567.324
804.287; 7910.371;  -12.865;13360.622
804.855; 8131.700;  -12.324;13681.981
805.422; 8350.923;  -11.574;13536.560
805.989; 8115.651;  -11.004;13355.958
806.556; 8293.544;  -12.214;13747.896
807.124; 8702.590;  -13.304;13987.376
807.691; 8391.228;  -12.034;14038.674
808.258; 7827.207;  -11.014;14120.152
808.825; 7762.207;  -11.804;13860.111
809.392; 7673.478;  -11.544;13268.790
809.959; 7548.395;  -14.954;12680.389
810.526; 7822.276;  -10.214;12427.308
811.093; 8238.694;  -10.754;12030.105
811.659; 7932.183;  -12.194;11653.664
812.226; 6824.631;   -9.194;11637.183
812.793; 6487.242;   -9.644;11611.521
813.360; 7289.065;  -11.544;11885.181
813.926; 8141.921;  -12.814;12770.539
814.493; 8091.487;  -11.524;12677.638
815.060; 7784.244;  -12.254;11974.336
815.626; 7324.862;  -12.114;11594.715
816.193; 6993.633;  -11.994;11579.474
816.759; 6865.086;  -11.464;11666.972
817.325; 6561.336;  -10.444;11325.530
817.892; 6251.595;  -11.124;11105.369
818.458; 6169.880;  -11.864;10843.928
819.024; 6494.765;  -10.634;10714.406
819.591; 6594.949;  -10.554;10469.165
820.157; 6806.055;  -13.334;10235.523
820.723; 7009.107;  -13.044;10847.563
821.289; 7119.130;   -9.664;11040.980
821.855; 7320.649;  -10.994;10357.100
822.421; 7427.701;  -11.784; 9978.918
822.987; 7461.815;  -12.554; 9754.177
823.553; 7779.991;  -12.554;10065.755
824.119; 7593.120;   -8.544;10036.294
824.685; 6670.458;  -12.144;10029.192
825.251; 6101.588;  -12.754;10199.230
825.816; 5599.161;  -11.354; 9820.189
826.382; 5223.976;  -11.004; 9297.248
826.948; 5207.932;  -11.004; 9381.347
827.513; 5197.117;  -12.474; 9450.726
828.079; 5239.854;  -13.084; 9472.444
828.645; 5438.678;  -10.813; 9292.643
829.210; 5313.688;  -11.593; 9065.341
829.776; 5270.250;  -12.633; 9132.620
830.341; 5237.137;  -10.473; 9092.878
830.906; 5036.910;   -8.763; 9078.557
831.472; 4732.010;  -13.453; 8534.535
832.037; 4116.415;  -12.173; 8677.874
832.602; 3916.806;  -14.093; 8628.692
833.167; 4229.999;  -13.593; 8879.031
833.733; 4778.928;  -10.793; 9189.790
834.298; 5127.893;  -14.783; 9052.608
834.863; 4670.713;  -11.023; 8895.087
835.428; 4436.463;  -11.113; 8824.266
835.993; 4877.476;   -9.983; 8845.385
836.558; 5113.387;  -13.003; 8888.563
837.123; 4909.995;  -10.733; 8966.582
837.688; 4493.053;   -9.683; 8617.860
838.253; 4338.424;  -12.253; 8590.699
838.817; 4399.957;  -11.643; 8443.797
839.382; 4414.357;  -11.953; 8799.356
839.947; 4478.946;  -11.443; 8810.595
840.511; 4748.609;  -10.843; 8796.394
841.076; 4956.057;  -13.533; 8347.231
841.641; 4760.417;  -11.743; 8224.330
842.205; 4275.692;  -10.013; 8223.349
842.770; 4014.229;  -11.023; 8622.107
843.334; 4131.244;  -14.273; 8410.386
843.898; 4545.625;  -11.323; 8337.465
844.463; 4926.549;  -10.263; 8506.283
845.027; 5070.427;  -10.353; 8280.962
845.591; 4978.389;  -12.163; 8231.141
846.156; 4815.147;  -12.263; 7969.179
846.720; 4831.429;  -11.553; 7768.278
847.284; 4633.008;  -12.393; 7630.957
847.848; 3822.934;  -12.623; 7472.395
848.412; 3225.965;  -11.863; 7437.394
848.976; 3147.678;  -10.203; 7674.592
849.540; 3314.086;  -10.603; 7836.011
850.104; 3497.641;  -12.423; 7913.669
850.668; 3542.029;  -14.613; 7694.508
851.232; 3556.967;  -12.873; 7756.887
851.796; 3760.503;  -14.192; 7926.545
852.359; 3950.395;  -13.652; 7827.844
852.923; 3886.539;  -11.402; 7641.163
853.487; 3594.132;  -12.022; 7342.501
854.050; 3443.079;  -15.202; 7042.820
854.614; 3453.068;  -14.592; 7151.338
855.177; 3434.696;  -12.572; 7105.077
855.741; 3457.255;   -9.932; 6989.675
856.304; 3417.460;  -12.192; 6596.634
856.868; 3318.650;  -13.462; 6356.272
857.431; 3311.514;  -11.542; 6468.571
857.995; 3357.345;  -12.062; 6373.210
858.558; 3132.912;  -11.142; 6324.448
859.121; 2985.492;  -11.742; 6408.327
859.684; 3069.914;  -10.332; 6347.886
860.247; 3204.859;  -11.962; 6321.264
860.810; 3264.368;  -12.332; 6301.903
861.374; 3150.921;  -10.292; 6607.881
861.937; 2997.069;  -12.062; 6408.200
862.500; 3005.119;  -11.702; 6572.639
863.062; 3134.956;  -13.852; 6387.297
863.625; 3211.877;  -12.972; 6190.836
864.188; 3182.345;  -10.292; 5807.254
864.751; 3125.897;  -12.382; 5682.413
865.314; 2897.804;  -13.232; 5547.492
865.876; 2602.489;  -12.772; 5500.150
866.439; 2379.384;  -11.952; 5415.909
867.002; 2462.112;   -9.332; 5501.567
867.564; 2826.620;  -11.712; 5413.946
868.127; 2993.111;  -12.012; 5160.325
868.689; 2627.043;  -11.882; 5133.183
869.252; 2245.745;  -11.572; 5252.382
869.814; 2136.029;  -10.692; 5297.141
870.377; 2200.938;  -12.392; 5390.919
870.939; 2314.834;  -10.582; 5599.898
871.501; 2459.281;  -12.782; 5248.336
872.063; 2652.900;  -15.612; 4854.235
872.626; 2902.856;  -13.922; 4817.074
873.188; 2926.626;  -13.832; 4987.732
873.750; 2678.368;  -10.962; 4868.651
874.312; 2265.614;  -11.022; 4779.330
874.874; 1776.844;  -13.152; 4866.348
875.436; 1380.275;  -13.401; 4718.887
875.998; 1257.845;   -8.891; 4660.005
876.560; 1312.318;  -12.591; 4462.964
877.122; 1397.782;  -14.531; 4145.042
877.683; 1461.885;  -10.781; 4056.481
878.245; 1471.173;  -14.281; 3950.740
878.807; 1500.959;  -10.311; 4058.958
879.369; 1521.993;  -13.201; 3954.677
879.930; 1532.563;  -12.061; 3941.495
880.492; 1561.458;   -9.181; 4067.014
881.053; 1595.355;  -12.051; 3859.633
881.615; 1563.254;  -11.501; 3776.071
882.176; 1469.796;  -12.221; 3734.750
882.738; 1374.646;   -8.931; 3678.489
883.299; 1322.885;  -13.571; 3405.407
883.860; 1347.891;  -12.331; 3351.106
884.422; 1300.886;  -10.201; 3394.044
884.983; 1168.813;  -12.521; 3166.443
885.544; 1046.773;  -12.291; 3189.802
886.105;  994.879;  -12.991; 3160.360
886.666;  986.394;  -12.901; 3093.059
887.227;  979.883;  -12.061; 2941.957
887.788;  953.337;  -11.641; 2974.836
888.349;  909.970;  -14.691; 2721.214
888.910;  866.418;   -9.681; 2696.493
889.471;  859.994;   -9.971; 2560.172
890.032;  867.566;  -13.151; 2558.190
890.593;  847.444;  -12.051; 2567.669
891.153;  813.359;  -12.841; 2460.307
891.714;  786.285;  -13.561; 2372.046
892.275;  758.202;  -12.401; 2309.505
892.835;  719.876;  -13.191; 2382.543
893.396;  679.516;  -12.551; 2295.502
893.956;  658.328;  -11.981; 2162.420
894.517;  641.912;  -12.221; 2125.439
895.077;  601.964;  -12.021; 2086.978
895.638;  542.017;  -10.891; 2126.316
896.198;  490.166;  -13.171; 1838.275
896.758;  454.102;  -11.891; 1892.813
897.319;  427.411;  -12.491; 1792.232
897.879;  412.446;  -12.401; 1762.751
898.439;  385.164;  -13.431; 1661.149
898.999;  368.811;  -11.340; 1781.468
899.559;  362.375;  -13.930; 1703.347
900.119;  342.254;  -13.730; 1537.525
900.679;  324.587;   -9.210; 1638.384
901.239;  307.817;  -10.860; 1527.902
901.799;  288.916;  -11.450; 1456.441
902.359;  270.790;  -13.800; 1357.140
902.919;  264.711;  -12.130; 1331.118
903.479;  265.033;  -12.650; 1317.257
904.038;  257.996;  -16.110; 1262.595
904.598;  242.122;  -13.690; 1152.034
905.158;  229.490;  -10.290; 1240.893
905.717;  222.177;  -10.670; 1233.691
906.277;  221.801;  -14.040; 1217.330
906.836;  221.236;  -13.510; 1222.408
907.396;  215.823;  -11.530; 1193.047
907.955;  205.629;  -13.190; 1182.526
908.515;  192.959;  -12.950; 1099.364
909.074;  185.142;  -12.390; 1092.863
909.633;  179.739;  -10.340; 1069.121
910.192;  178.348;  -11.170; 1196.460
910.752;  172.858;  -14.200; 1029.960
911.311;  169.136;  -13.810; 1009.780
911.870;  166.569;  -12.750;  971.460
912.429;  165.852;  -12.380; 1094.080
912.988;  163.406;  -11.930; 1081.060
913.547;  156.398;  -10.990;  940.380
914.106;  154.014;  -11.200;  999.420
914.665;  151.793;  -13.150;  984.020
915.224;  151.196;  -13.310; 1035.760
915.782;  148.273;  -13.340;  922.560
916.341;  148.256;  -10.710; 1049.840
916.900;  145.379;  -12.980;  925.260
917.458;  143.473;  -13.060;  884.220
918.017;  141.417;  -10.900;  942.600
918.576;  139.721;  -11.630;  904.440
919.134;  138.488;  -12.860;  837.980
919.693;  138.348;  -15.160;  893.060
920.251;  136.804;  -13.470;  876.500
920.809;  135.753;  -13.700;  839.580
921.368;  137.029;  -13.420;  885.360
921.926;  137.138;  -14.710;  842.940
922.484;  137.895;  -12.560;  903.360
923.042;  137.585;  -11.930;  880.340
923.601;  137.965;  -10.270;  998.680
924.159;  137.614;  -12.960;  935.560
924.717;  136.759;  -13.040;  841.080
925.275;  139.285;  -12.560;  903.240
925.833;  140.618;  -13.040;  779.320
926.391;  142.093;  -13.360;  938.380
926.949;  140.058;  -13.940;  857.680
927.506;  142.791;   -9.400;  903.500
928.064;  141.750;  -10.940;  877.580
928.622;  141.000;  -13.180;  880.100
929.180;  140.758;  -12.730;  814.180
929.737;  141.587;  -12.840;  808.540
930.295;  145.402;  -11.810;  928.480
930.853;  149.293;  -13.650;  849.100
931.410;  151.578;  -13.580;  821.120
931.968;  152.982;  -12.020;  940.660
932.525;  153.562;  -13.320;  909.380
933.082;  155.740;  -13.800;  811.440
933.640;  159.472;  -11.380;  925.900
934.197;  161.667;  -11.480;  886.360
934.754;  165.285;  -13.220;  897.780
935.312;  165.361;  -14.950;  863.340
935.869;  162.842;  -10.940; 1012.980
936.426;  157.200;  -12.100;  872.800
936.983;  157.339;  -12.930;  889.020
937.540;  157.449;  -14.250;  838.280
938.097;  162.703;  -12.600;  940.120
938.654;  167.877;  -11.260;  898.860
939.211;  172.144;  -13.020;  952.480
939.768;  174.204;  -15.760;  915.420
940.324;  175.472;  -13.920;  904.200
940.881;  170.525;  -11.620;  878.500
941.438;  167.528;   -9.870; 1021.200
941.995;  165.510;  -13.920;  992.560
942.551;  164.131;  -12.830;  875.620
943.108;  165.988;  -11.980;  937.920
943.664;  168.986;  -13.740;  869.340
944.221;  175.579;  -12.670; 1088.140
944.777;  173.166;  -13.250;  869.680
945.334;  170.857;  -13.000;  884.840
945.890;  171.263;  -13.020;  946.480
946.446;  171.744;  -13.880;  947.020
947.003;  172.848;  -12.660;  964.940
947.559;  174.044;   -8.730; 1063.040
948.115;  171.044;  -11.960; 1026.540
948.671;  166.848;  -12.360;  967.300
949.227;  162.999;  -12.700;  859.560
949.783;  159.492;  -13.450;  858.900
950.339;  158.878;  -10.620;  991.000
950.895;  156.585;  -14.770; 1023.840
951.451;  153.642;  -13.650;  925.280
952.007;  153.446;  -11.180;  998.540
952.563;  151.930;  -11.680;  937.780
953.118;  153.426;  -13.280;  904.940
953.674;  154.951;  -12.510;  935.780
954.230;  154.651;  -12.220;  949.640
954.785;  149.077;  -12.190;  936.640
955.341;  144.993;  -12.270;  998.160
955.897;  139.409;  -14.900;  834.660
956.452;  139.341;  -12.520;  953.840
957.008;  139.121;   -9.410; 1083.640
957.563;  138.522;  -11.280; 1009.540
958.118;  135.929;  -13.470;  877.700
958.674;  137.993;  -12.190;  946.780
959.229;  140.228;  -12.760; 1013.980
959.784;  146.338;  -15.710;  832.400
960.339;  151.995;  -12.540; 1001.280
960.894;  152.433;  -11.680;  963.760
961.449;  147.396;  -11.410;  859.960
962.004;  146.923;  -10.430; 1212.840
962.559;  140.701;  -14.040;  860.140
963.114;  137.269;  -14.270;  742.480
963.669;  138.821;  -11.320;  915.500
964.224;  137.429;  -14.620;  874.340
964.779;  135.436;  -14.150;  828.420
965.334;  133.999;  -10.850; 1017.860
965.888;  132.972;  -14.530;  875.360
966.443;  135.414;  -13.520;  972.380
966.998;  130.942;  -13.370;  819.460
967.552;  127.971;   -9.960;  908.380
968.107;  123.813;  -12.360;  868.300
968.661;  125.047;  -12.270;  922.440
969.216;  123.727;  -12.140;  856.280
969.770;  124.354;  -11.860;  917.200
970.324;  124.227;  -12.170;  923.140
970.879;  123.631;  -14.160;  947.180
971.433;  121.003;  -12.940;  952.720
971.987;  117.866;  -10.180;  895.340
972.541;  117.217;  -12.130;  917.100
973.095;  117.588;  -14.980; 1009.460
973.649;  114.949;  -14.480;  809.480
974.203;  116.181;  -13.530;  829.040
974.757;  118.425;  -12.060;  855.220
975.311;  116.242;  -13.240;  872.600
975.865;  112.559;  -12.550;  881.820
976.419;  111.281;  -13.180;  857.400
976.973;  109.938;  -14.100;  849.620
977.526;  109.941;  -13.330;  949.920
978.080;  105.066;  -15.390;  796.780
978.634;  105.865;  -11.670;  921.320
979.187;  103.614;  -10.640;  905.400
979.741;  103.540;  -13.330; 1018.380
980.294;   99.790;  -14.480;  789.160
980.848;   97.964;  -13.420;  717.220
981.401;   96.249;  -12.360;  816.540
981.955;   94.876;  -12.480;  844.300
982.508;   91.159;  -14.000;  746.340
983.061;   90.333;  -10.440;  915.260
983.615;   86.472;  -14.340;  798.800
984.168;   84.530;  -14.950;  770.080
984.721;   83.927;  -13.270;  880.760
985.274;   83.434;  -12.240;  867.500
985.827;   80.062;  -12.720;  834.220
986.380;   76.527;  -14.920;  721.340
986.933;   76.284;  -12.860;  864.800
987.486;   75.292;  -10.440;  861.920
988.039;   74.131;  -11.820;  863.100
988.591;   73.457;  -13.760;  893.260
989.144;   71.051;  -14.080;  737.260
989.697;   71.535;  -13.440;  758.740
990.250;   72.276;  -12.050;  858.100
990.802;   71.596;  -14.550;  755.860
991.355;   70.998;  -10.770;  974.880
991.907;   68.849;  -11.710;  864.320
992.460;   66.700;  -12.650;  753.760
993.012;   66.137;  -13.860;  749.540
993.565;   63.350;  -14.310;  711.360
994.117;   63.517;   -9.920;  950.780
994.669;   60.362;  -13.420;  701.320
995.221;   59.487;  -14.200;  791.920
995.774;   59.097;  -13.400;  787.580
996.326;   57.962;  -11.850;  740.220
996.878;   57.459;  -12.230;  838.420
997.430;   55.967;  -14.260;  699.860
997.982;   55.419;  -11.430;  750.140
998.534;   55.047;  -11.590;  739.060
999.086;   53.867;  -11.960;  738.220
999.638;   54.403;  -13.640;  661.380
1000.190;   52.623;  -13.660;  699.320
1000.741;   52.370;   -9.980;  742.700
1001.293;   51.552;  -11.860;  686.020
1001.845;   50.485;  -14.280;  676.640
1002.396;   51.030;  -12.270;  743.400
1002.948;   49.792;  -13.670;  737.400
1003.500;   48.536;  -12.010;  723.780
1004.051;   51.226;  -11.890;  907.580
1004.603;   49.125;  -11.220;  791.820
1005.154;   45.122;  -13.210;  608.980
1005.705;   44.384;  -11.850;  723.960
1006.257;   43.974;  -13.670;  707.220
1006.808;   43.612;  -12.060;  685.460
1007.359;   42.526;  -10.250;  763.240
1007.910;   41.301;  -13.440;  646.640
1008.461;   42.215;  -13.170;  732.940
1009.013;   39.757;  -14.590;  588.340
1009.564;   41.937;  -12.100;  793.520
1010.115;   39.166;  -14.000;  597.040
1010.665;   39.425;  -15.020;  602.160
1011.216;   39.621;  -12.560;  667.920
1011.767;   38.251;  -11.330;  697.920
1012.318;   38.781;  -11.450;  736.980
1012.869;   37.832;  -11.000;  679.000
1013.419;   36.984;  -11.760;  603.120
1013.970;   37.251;  -11.800;  666.640
1014.521;   37.137;  -14.750;  620.620
1015.071;   37.443;  -14.430;  670.380
1015.622;   36.268;  -14.170;  635.460
1016.172;   35.693;  -11.700;  596.820
1016.723;   35.058;  -13.230;  614.380
1017.273;   35.753;  -16.120;  604.160
1017.823;   35.577;  -13.360;  650.340
1018.374;   35.260;  -13.710;  611.760
1018.924;   34.489;  -11.050;  716.880
1019.474;   35.769;  -14.120;  718.880
1020.024;   33.832;  -12.990;  657.580
1020.574;   33.626;  -12.010;  726.160
1021.124;   35.114;  -12.080;  673.580
1021.674;   33.101;  -15.860;  559.120
1022.224;   34.470;  -11.710;  708.940
1022.774;   33.617;  -13.030;  668.820
1023.324;   34.063;  -11.000;  753.520
1023.874;   35.328;  -13.270;  875.760
1024.423;   32.565;  -14.570;  613.700
1024.973;   31.606;  -12.620;  610.760
1025.523;   31.344;  -12.630;  620.960
1026.072;   31.885;  -14.110;  606.420
1026.622;   30.562;  -15.390;  675.740
1027.172;   32.094;   -9.090;  715.660
1027.721;   30.360;  -12.250;  601.220
1028.270;   31.731;  -15.590;  663.400
1028.820;   30.392;  -13.840;  638.080
1029.369;   30.288;  -13.170;  612.700
1029.918;   30.613;  -14.080;  649.840
1030.468;   29.885;  -13.860;  564.780
1031.017;   30.459;  -12.970;  634.800
1031.566;   29.187;  -12.320;  608.900
1032.115;   30.325;  -13.140;  694.500
1032.664;   28.502;  -14.560;  596.480
1033.213;   29.734;  -11.620;  735.420
1033.762;   29.426;  -13.190;  635.620
1034.311;   28.713;  -13.460;  677.220
1034.860;   29.142;  -15.770;  691.000
1035.408;   28.649;  -13.100;  722.720
1035.957;   29.045;  -12.880;  719.540
1036.506;   26.835;  -13.640;  530.800
1037.055;   30.536;  -12.420;  844.320
1037.603;   27.871;  -13.740;  664.000
1038.152;   26.007;  -13.840;  534.760
1038.700;   27.069;  -10.770;  585.740
1039.249;   27.667;  -13.520;  681.220
1039.797;   27.084;  -13.060;  633.360
1040.345;   26.564;  -11.760;  705.420
1040.894;   26.185;  -10.790;  625.300
1041.442;   26.629;  -15.420;  632.200
1041.990;   24.665;  -14.550;  559.160
1042.538;   24.298;  -15.620;  536.180
1043.087;   25.386;  -14.940;  570.860
1043.635;   26.969;  -12.100;  670.500
1044.183;   25.371;  -13.200;  586.400
1044.731;   25.544;  -11.630;  576.000
1045.279;   24.982;  -14.200;  674.920
1045.827;   27.674;  -12.510;  892.400
1046.374;   24.232;  -14.960;  515.420
1046.922;   23.131;  -11.850;  590.580
1047.470;   25.234;  -13.770;  691.300
1048.018;   24.583;  -15.380;  647.960
1048.565;   25.828;  -14.010;  708.600
1049.113;   23.534;  -14.620;  557.000
1049.660;   23.553;  -14.940;  629.660
1050.208;   23.749;  -14.540;  675.640
1050.755;   23.132;  -13.710;  606.580
1051.303;   23.519;  -11.880;  686.820
1051.850;   22.254;  -12.160;  635.120
1052.397;   21.258;  -15.110;  473.960
1052.945;   22.099;  -14.770;  617.760
1053.492;   23.508;  -12.320;  741.840
1054.039;   23.446;  -13.290;  720.180
1054.586;   21.814;  -15.210;  557.240
1055.133;   23.034;  -12.920;  693.140
1055.680;   22.439;  -12.610;  646.620
1056.227;   20.910;  -12.620;  542.780
1056.774;   23.441;  -13.010;  794.980
1057.321;   21.238;  -16.180;  523.260
1057.868;   20.808;  -11.230;  651.320
1058.415;   21.229;  -10.890;  651.980
1058.961;   21.908;  -12.530;  678.940
1059.508;   21.503;  -14.120;  643.820
1060.055;   20.010;  -13.340;  581.780
1060.601;   21.080;  -12.920;  624.300
1061.148;   21.599;  -14.430;  616.820
1061.694;   20.583;  -14.140;  592.580
1062.241;   19.778;  -12.550;  596.320
1062.787;   20.397;  -13.370;  663.140
1063.334;   22.665;  -12.260;  808.560
1063.880;   20.650;  -10.800;  668.360
1064.426;   19.983;   -9.920;  706.820
1064.972;   19.037;  -12.970;  601.340
1065.518;   18.895;  -14.440;  566.640
1066.065;   20.147;  -12.680;  624.460
1066.611;   18.246;  -13.520;  598.800
1067.157;   19.269;  -11.100;  641.860
1067.703;   18.954;  -14.100;  668.480
1068.249;   19.215;  -13.750;  605.220
1068.794;   18.448;  -11.070;  626.880
1069.340;   17.906;  -13.210;  578.960
1069.886;   18.557;  -14.850;  590.700
1070.432;   17.169;  -14.580;  541.720
1070.977;   16.541;  -12.930;  601.080
1071.523;   17.908;  -11.970;  573.060
1072.068;   17.914;  -13.730;  582.000
1072.614;   16.595;  -14.550;  527.760
1073.160;   17.957;  -13.690;  687.040
1073.705;   16.468;  -14.780;  572.520
1074.250;   17.145;  -15.430;  559.900
1074.796;   18.121;  -11.620;  655.160
1075.341;   17.685;  -11.580;  664.100
1075.886;   16.821;  -13.190;  594.240
1076.431;   16.797;  -13.630;  649.880
1076.976;   16.925;  -11.670;  639.220
1077.521;   15.906;  -11.600;  583.080
1078.067;   15.537;  -13.920;  579.400
1078.612;   16.242;  -12.910;  661.620
1079.156;   15.993;  -15.340;  601.540
1079.701;   15.772;  -12.560;  693.260
1080.246;   16.738;  -12.490;  696.300
1080.791;   16.492;  -14.550;  625.020
1081.336;   16.043;  -15.210;  659.320
1081.880;   16.009;  -11.280;  649.680
1082.425;   14.350;  -12.830;  573.480
1082.970;   16.716;  -11.680;  717.040
1083.514;   15.356;  -15.500;  597.000
1084.059;   14.196;  -11.770;  586.720
1084.603;   13.239;  -13.480;  565.840
1085.147;   15.026;  -13.940;  645.220
1085.692;   15.767;  -13.170;  716.800
1086.236;   13.071;  -15.740;  503.140
1086.780;   15.209;  -10.750;  751.440
1087.325;   14.706;  -14.900;  654.620
1087.869;   14.281;  -15.160;  610.700
1088.413;   15.041;  -11.030;  705.040
1088.957;   13.133;  -15.210;  543.400
1089.501;   15.660;  -12.310;  766.640
1090.045;   15.177;  -12.790;  726.480
1090.589;   12.140;  -14.040;  569.920
1091.133;   13.342;  -12.800;  673.340
1091.676;   14.264;  -13.600;  591.940
1092.220;   12.947;  -12.960;  600.920
1092.764;   13.234;  -10.830;  706.960
1093.307;   13.350;  -12.390;  673.780
1093.851;   12.466;  -15.850;  556.540
1094.395;   13.797;  -12.980;  683.140
1094.938;   12.390;  -13.670;  632.520
1095.482;   12.052;  -12.740;  559.800
1096.025;   14.085;  -13.340;  710.880
1096.568;   13.262;  -10.500;  779.280
1097.112;    9.805;  -13.500;  508.180
1097.655;   11.792;  -13.060;  603.000
1098.198;   10.825;  -13.240;  600.180
1098.741;   11.078;  -15.490;  612.860
1099.285;   12.036;  -13.410;  657.300
1099.828;    9.731;  -15.640;  439.400
1100.371;   11.705;  -13.980;  608.160
1100.914;   11.440;  -13.990;  682.660
1101.457;   12.402;  -15.030;  679.900
1101.999;   10.341;  -12.480;  584.680
1102.542;   11.160;  -12.410;  641.440
1103.085;   10.533;  -14.730;  658.500
1103.628;   11.506;  -12.190;  762.060
1104.170;   10.100;  -12.360;  588.280
1104.713;   10.231;  -13.350;  646.700
1105.256;    9.557;  -14.930;  557.440
1105.798;    8.228;  -15.150;  499.980
1106.341;   11.456;  -13.230;  728.900
1106.883;    9.997;  -14.680;  521.340
1107.425;   10.141;  -14.810;  668.180
1107.968;    9.069;  -12.940;  612.380
1108.510;   10.107;  -10.550;  684.960
1109.052;    8.578;  -15.640;  612.620
1109.594;    8.894;  -14.440;  554.440
1110.136;    9.938;  -11.380;  643.220
1110.679;    8.840;  -13.090;  633.080
1111.221;    9.531;  -14.230;  604.460
1111.763;    8.483;  -14.260;  559.220
1112.304;    7.460;  -14.510;  547.140
1112.846;    8.941;  -14.700;  666.240
1113.388;   12.256;  -12.270;  942.180
1113.930;    8.483;  -13.340;  694.200
1114.472;    8.001;  -12.560;  606.540
1115.013;    7.146;  -14.280;  551.280
1115.555;    7.402;  -14.010;  587.100
1116.097;    7.231;  -14.730;  579.480
1116.638;    7.815;  -12.160;  684.600
1117.180;    8.112;  -14.320;  667.740
1117.721;    7.395;  -15.730;  568.580
1118.262;    8.194;  -13.480;  677.960
1118.804;    7.623;  -11.530;  637.340
1119.345;    6.314;  -13.540;  578.400
1119.886;    8.486;  -14.470;  704.040
1120.427;    7.235;  -13.030;  589.020
1120.969;    6.756;  -13.150;  597.920
1121.510;    6.286;  -13.940;  563.060
1122.051;    7.940;  -12.310;  723.580
1122.592;    6.561;  -13.870;  655.420
1123.133;    4.362;  -12.890;  547.940
1123.673;    7.076;  -13.300;  706.480
1124.214;    6.403;  -14.000;  612.460
1124.755;    7.725;  -13.210;  639.460
1125.296;    5.890;  -13.450;  627.320
1125.836;    7.126;  -12.610;  691.500
1126.377;    6.611;  -15.840;  599.660
1126.918;    7.269;  -11.830;  614.980
1127.458;    5.546;  -11.830;  622.220
1127.999;    6.657;  -11.490;  656.980
1128.539;    5.920;  -12.900;  694.240
1129.079;    5.713;  -14.910;  632.720
1129.620;    4.409;  -12.920;  558.100
1130.160;    3.770;  -14.640;  539.480
1130.700;    5.944;  -13.270;  640.840
1131.240;    6.038;  -14.110;  643.700
1131.781;    4.925;  -13.130;  619.680
1132.321;    4.809;  -15.220;  599.120
1132.861;    4.703;  -15.670;  564.200
1133.401;    4.871;  -13.970;  593.940
1133.941;    4.730;  -13.740;  626.280
1134.481;    4.334;  -13.200;  597.580
1135.020;    4.467;  -14.830;  609.160
1135.560;    4.475;  -14.590;  674.940
1136.100;    2.939;  -13.730;  501.160
1136.640;    2.690;  -15.240;  510.480
1137.179;    3.731;  -14.710;  537.960
1137.719;    4.286;  -14.090;  605.400
1138.258;    3.805;  -12.470;  587.360
1138.798;    4.512;  -12.580;  663.780
1139.337;    2.801;  -16.480;  482.840
1139.877;    4.503;  -13.970;  642.360
1140.416;    6.712;   -9.870;  878.060
1140.955;    3.222;  -14.860;  535.380
1141.494;    4.435;  -14.530;  669.280
1142.034;    2.617;  -13.940;  583.520
1142.573;    3.980;  -11.160;  646.280
1143.112;    2.858;  -15.050;  553.480
1143.651;    3.406;  -15.390;  536.480
1144.190;    3.962;  -12.990;  691.640
1144.729;    3.306;  -12.220;  607.420
1145.267;    3.115;  -14.020;  584.900
1145.806;    4.272;  -12.740;  637.040
1146.345;    3.506;  -14.810;  635.020
1146.884;    2.667;  -12.920;  622.500
1147.422;    2.142;  -13.930;  533.060
1147.961;    4.214;  -11.830;  708.460
1148.500;    3.602;  -12.710;  669.720
1149.038;    2.671;  -14.420;  632.500
1149.577;    2.726;  -13.920;  698.640
1150.115;    0.714;  -17.050;  452.280
1150.653;    2.348;  -14.890;  607.340
1151.192;    2.496;  -15.270;  552.920
1151.730;    2.089;  -13.160;  652.560
1152.268;    2.173;  -15.430;  589.520
1152.806;    2.010;  -15.880;  571.180
1153.344;    0.963;  -13.240;  577.640
1153.882;    1.484;  -13.010;  600.060
1154.421;    0.387;  -16.180;  470.620
1154.958;    1.022;  -13.880;  595.240
1155.496;    2.290;  -13.590;  645.280
1156.034;    1.977;  -11.910;  721.880
1156.572;    3.123;  -12.010;  667.060
1157.110;    0.454;  -16.250;  473.940
1157.647;    1.883;  -15.230;  676.960
1158.185;    0.207;  -13.770;  564.320
1158.723;    0.453;  -15.300;  509.200
1159.260;    1.679;  -13.130;  701.700
1159.798;    1.571;  -11.300;  658.160
1160.335;    0.498;  -13.210;  631.820

