
Integration time [ms]:   3.882
Averaging Nr. [scans]: 1000
Smoothing Nr. [pixels]: 0
Data measured with spectrometer [name]: 7414430SP
Wave   ;Sample   ;Dark     ;Reference
[nm]   ;[counts] ;[counts] ;[counts] 

288.544;  143.753;    7.153;  793.890
289.143;  146.665;    8.402;  681.602
289.742;  147.562;    7.062;  828.814
290.341;  134.392;    0.191;  789.841
290.940;  124.231;    0.321;  730.702
291.538;  125.270;    3.811;  881.108
292.137;  123.916;   -3.438;  792.581
292.736;  126.910;   -2.809;  975.101
293.335;  123.968;   -5.239;  735.086
293.934;  125.056;   -4.939;  781.677
294.532;  125.899;   -2.199; 1031.958
295.131;  110.227;   -6.831;  834.394
295.730;  110.184;   -6.620;  809.588
296.328;  107.962;   -6.471;  783.442
296.927;  107.873;   -6.571;  779.652
297.525;  108.859;   -7.391;  781.236
298.124;  100.358;   -9.402;  654.009
298.722;  104.824;   -5.781;  761.933
299.321;  102.920;   -6.351;  708.597
299.919;   99.981;   -8.661;  751.918
300.518;   95.660;  -11.922;  689.338
301.116;   97.585;   -6.941;  691.381
301.715;   98.015;   -5.471;  730.222
302.313;   98.070;   -8.361;  704.943
302.911;   93.297;   -9.082;  733.830
303.509;   98.332;   -4.571;  925.627
304.108;   94.841;   -7.111;  760.383
304.706;   95.023;   -7.681;  801.664
305.304;   88.631;   -9.162;  796.707
305.902;   95.677;   -6.761;  784.484
306.500;   90.884;   -6.921;  728.200
307.098;   88.959;   -6.491;  746.560
307.696;   87.400;   -6.941;  780.432
308.294;   88.221;   -6.301;  731.359
308.892;   89.771;   -4.771;  759.769
309.490;   85.939;   -5.141;  712.161
310.088;   84.315;   -2.912;  788.444
310.686;   88.205;   -0.421;  821.749
311.284;   85.038;   -3.461;  766.040
311.882;   82.739;   -6.282;  731.225
312.480;   79.503;   -3.632;  697.167
313.078;   81.326;   -2.112;  808.331
313.675;   82.513;   -1.931;  691.600
314.273;   76.027;   -1.442;  797.837
314.871;   74.803;   -3.002;  589.829
315.468;   74.229;   -2.252;  652.090
316.066;   78.114;   -1.091;  694.427
316.664;   70.202;   -4.512;  656.351
317.261;   73.410;   -0.062;  910.128
317.859;   70.005;   -0.952;  768.735
318.456;   70.879;    0.719;  830.096
319.054;   65.939;   -4.002;  787.828
319.651;   66.013;   -4.972;  759.928
320.249;   64.684;   -1.162;  810.188
320.846;   63.075;   -2.651;  714.286
321.443;   59.881;   -3.832;  832.135
322.041;   56.741;   -4.312;  812.315
322.638;   55.126;   -3.872;  701.456
323.235;   57.234;   -4.361;  665.683
323.833;   54.992;   -4.821;  740.354
324.430;   49.536;   -6.971;  615.900
325.027;   51.828;   -4.361;  876.855
325.624;   50.967;   -5.581;  644.532
326.221;   48.495;   -6.601;  689.717
326.818;   47.543;   -7.301;  818.332
327.415;   51.128;   -6.180;  748.828
328.012;   49.341;   -5.920;  690.585
328.609;   47.703;   -8.390;  731.389
329.206;   46.004;   -6.121;  778.621
329.803;   45.523;   -5.241;  737.841
330.400;   48.894;   -7.420;  704.260
330.997;   49.618;   -5.931;  817.147
331.594;   46.808;   -5.641;  788.185
332.191;   53.077;   -6.451;  728.722
332.787;   56.609;   -4.651;  844.463
333.384;   53.388;   -5.472;  763.093
333.981;   51.826;   -6.303;  815.687
334.578;   54.978;   -5.892;  708.378
335.174;   56.237;   -4.102;  731.469
335.771;   55.326;   -8.053;  836.456
336.367;   52.145;   -7.363;  710.631
336.964;   57.718;   -6.243;  793.266
337.561;   56.226;   -5.653;  731.112
338.157;   50.384;   -7.074;  911.916
338.754;   49.049;   -5.474;  796.589
339.350;   46.938;   -5.624;  722.493
339.946;   49.125;   -5.054;  773.135
340.543;   42.866;   -6.695;  846.136
341.139;   36.405;   -6.215;  720.836
341.735;   34.503;   -5.746;  772.593
342.332;   32.762;   -7.335;  691.472
342.928;   33.680;   -4.835;  795.394
343.524;   27.672;   -4.586;  761.684
344.120;   25.038;   -3.946;  738.562
344.716;   28.061;   -4.835;  723.717
345.313;   25.525;   -5.325;  795.342
345.909;   20.741;   -6.535;  627.336
346.505;   23.786;   -4.725;  740.247
347.101;   23.435;   -4.164;  827.864
347.697;   23.788;   -5.274;  785.398
348.293;   17.517;   -7.145;  627.244
348.889;   19.825;   -4.364;  745.914
349.485;   18.254;   -6.404;  688.205
350.081;   19.780;   -7.534;  772.592
350.676;   14.930;   -6.995;  691.606
351.272;   20.197;   -3.544;  809.530
351.868;   19.249;   -5.324;  780.497
352.464;   17.019;   -7.204;  723.932
353.059;   12.405;   -6.894;  646.017
353.655;   16.867;   -3.754;  777.063
354.251;   17.563;   -6.143;  759.845
354.846;   11.977;   -9.464;  740.646
355.442;    8.544;   -7.555;  753.071
356.038;   11.773;   -5.474;  751.708
356.633;   12.022;   -5.914;  728.594
357.229;    9.961;   -8.944;  724.757
357.824;    8.326;   -6.794;  703.600
358.420;    7.284;   -5.754;  679.726
359.015;    8.135;   -5.664;  695.357
359.610;    8.448;   -8.004;  763.920
360.206;    2.497;   -8.815;  603.240
360.801;    6.014;   -8.834;  646.503
361.396;    8.394;   -6.274;  725.975
361.992;    3.468;   -8.574;  668.220
362.587;    0.631;   -9.265;  670.160
363.182;    3.107;   -5.484;  689.631
363.777;    3.579;   -5.164;  738.242
364.372;    3.178;   -6.954;  737.314
364.967;   -0.281;   -7.065;  680.744
365.563;    3.805;   -5.684;  815.567
366.158;    1.640;   -6.484;  685.161
366.753;    1.376;   -8.004;  649.263
367.348;    0.359;  -10.114;  746.056
367.942;   -0.300;   -7.764;  697.298
368.537;   -0.304;   -4.554;  754.245
369.132;   -0.897;   -7.664;  703.428
369.727;   -4.616;   -8.905;  638.079
370.322;   -2.577;   -4.945;  580.186
370.917;   -3.181;   -7.095;  710.646
371.511;   -0.305;   -6.574;  861.834
372.106;   -4.102;   -6.515;  776.964
372.701;   -6.836;   -8.225;  585.988
373.296;   -1.450;   -4.494;  863.135
373.890;   -6.305;   -7.965;  647.840
374.485;   -9.036;   -9.745;  691.199
375.079;   -3.994;   -5.554;  738.685
375.674;   -2.942;   -4.724;  812.970
376.268;   -6.614;   -8.365;  691.759
376.863;  -12.900;   -8.126;  580.327
377.457;   -6.471;   -6.045;  662.490
378.052;   -8.190;   -6.835;  764.884
378.646;   -9.391;   -9.375;  741.167
379.240;   -9.197;   -6.185;  721.176
379.835;   -8.379;   -6.135;  636.978
380.429;  -10.659;   -8.365;  562.557
381.023;  -10.398;   -7.935;  779.205
381.617;  -13.111;   -8.325;  680.106
382.212;   -9.404;   -7.405;  685.303
382.806;   -8.561;   -4.155;  760.690
383.400;  -12.357;   -8.945;  672.281
383.994;  -13.258;   -8.365;  664.870
384.588;   -9.402;   -7.824;  697.701
385.182;   -7.699;   -7.984;  726.624
385.776;   -9.619;  -10.404;  706.875
386.370;  -12.795;   -7.335;  681.968
386.964;  -11.663;   -7.485;  684.155
387.558;   -8.852;   -8.174;  598.360
388.152;  -13.183;  -10.415;  681.959
388.745;  -11.630;   -9.595;  814.707
389.339;  -10.513;   -6.454;  747.642
389.933;   -9.513;   -5.804;  695.370
390.527;   -9.996;   -6.854;  859.029
391.120;  -17.218;   -7.665;  595.318
391.714;  -12.317;   -7.245;  711.633
392.308;   -9.355;   -4.514;  780.253
392.901;  -14.068;   -7.935;  642.460
393.495;  -14.902;   -8.585;  595.414
394.089;  -13.215;   -5.245;  760.452
394.682;  -13.897;   -6.305;  697.188
395.275;  -14.378;   -9.335;  719.927
395.869;  -15.582;   -7.375;  667.314
396.462;  -14.089;   -7.055;  616.609
397.056;  -10.231;   -5.434;  776.621
397.649;  -15.130;   -9.525;  731.575
398.242;  -12.403;   -7.574;  712.645
398.836;  -10.513;   -5.134;  766.408
399.429;  -11.628;   -6.544;  631.041
400.022;  -15.317;   -9.215;  665.902
400.615;  -13.864;   -8.105;  805.609
401.208;  -11.468;   -7.614;  691.451
401.802;  -13.168;   -8.085;  699.329
402.395;  -15.245;   -9.575;  683.502
402.988;  -15.810;   -9.285;  696.627
403.581;  -12.887;   -7.514;  646.878
404.174;   -9.648;   -6.404;  686.568
404.767;  -13.140;   -8.775;  638.583
405.360;  -15.645;   -7.415;  621.445
405.953;   -9.743;   -5.624;  759.034
406.545;   -9.339;   -6.474;  725.342
407.138;  -13.916;   -8.445;  618.350
407.731;  -11.866;  -10.044;  613.303
408.324;   -8.036;   -8.484;  660.554
408.917;   -9.712;   -7.624;  681.864
409.509;  -10.974;   -8.304;  740.396
410.102;  -13.564;   -8.495;  643.948
410.695;   -6.747;   -7.824;  665.758
411.287;   -8.012;   -7.754;  599.821
411.880;  -10.328;   -9.294;  585.421
412.472;  -12.265;   -8.814;  613.092
413.065;   -9.119;   -6.674;  629.408
413.657;   -6.528;   -9.664;  576.678
414.250;   -6.161;  -10.264;  646.681
414.842;   -8.688;   -8.664;  676.353
415.434;   -6.304;   -8.584;  570.463
416.027;   -2.436;   -9.423;  652.196
416.619;   -4.298;  -10.764;  713.400
417.211;   -5.288;   -7.404;  599.352
417.804;   -0.455;   -7.383;  628.499
418.396;   -4.335;   -8.334;  607.643
418.988;   -2.446;   -9.633;  659.238
419.580;   -6.168;  -10.554;  568.276
420.172;   -3.546;   -8.683;  536.196
420.764;   -0.392;   -9.713;  672.482
421.356;   -1.626;  -11.303;  636.898
421.948;   -1.507;   -8.453;  677.661
422.540;    2.923;   -5.793;  680.027
423.132;    2.772;   -7.162;  600.641
423.724;   -0.976;   -7.933;  561.267
424.316;    0.428;   -9.083;  621.345
424.908;    4.652;   -8.392;  591.517
425.500;    5.738;   -8.062;  647.978
426.092;    6.959;   -9.692;  648.268
426.683;    5.585;   -8.223;  684.836
427.275;    7.279;   -8.602;  641.471
427.867;    9.860;   -8.382;  668.948
428.458;    9.647;  -10.472;  732.344
429.050;    8.427;   -9.112;  680.749
429.642;   10.855;   -7.752;  743.124
430.233;   10.816;   -8.832;  569.356
430.825;   11.814;   -8.292;  724.809
431.416;   10.088;   -7.522;  698.241
432.008;   13.698;   -9.262;  651.723
432.599;   14.166;   -6.441;  656.073
433.190;   11.075;   -9.222;  637.670
433.782;   10.636;  -11.832;  590.395
434.373;   18.711;   -7.121;  884.765
434.964;   17.176;   -9.141;  602.920
435.556;   14.362;   -9.332;  634.537
436.147;   17.023;   -8.892;  758.490
436.738;   17.418;   -8.151;  701.099
437.329;   22.563;   -8.281;  721.723
437.920;   15.171;   -9.062;  666.688
438.511;   15.355;  -11.182;  564.526
439.103;   21.793;   -7.461;  623.998
439.694;   24.651;   -8.541;  681.583
440.285;   25.493;   -7.351;  764.432
440.876;   23.459;   -8.201;  845.738
441.466;   22.542;  -10.381;  575.162
442.057;   27.473;   -7.620;  665.814
442.648;   26.404;   -8.461;  746.255
443.239;   23.918;   -8.991;  620.477
443.830;   30.549;   -7.910;  704.958
444.421;   31.805;   -7.340;  655.474
445.011;   28.924;   -8.981;  693.619
445.602;   28.227;   -9.341;  743.126
446.193;   29.524;  -11.390;  488.117
446.783;   34.987;  -11.240;  640.397
447.374;   30.053;   -8.471;  692.759
447.964;   29.776;   -8.471;  713.770
448.555;   38.920;   -6.590;  822.742
449.145;   35.322;   -8.200;  662.853
449.736;   35.943;  -11.040;  803.179
450.326;   35.617;   -9.640;  713.626
450.917;   40.937;   -9.480;  675.324
451.507;   39.947;   -8.020;  600.661
452.097;   40.736;  -10.210;  746.267
452.688;   42.354;   -7.810;  742.160
453.278;   42.133;   -9.360;  566.840
453.868;   47.197;   -8.669;  793.550
454.458;   44.407;  -10.950;  651.141
455.048;   44.721;  -10.200;  711.783
455.639;   46.048;   -9.369;  567.096
456.229;   50.024;   -7.739;  710.694
456.819;   51.236;   -8.939;  751.158
457.409;   51.524;   -7.169;  773.993
457.999;   54.254;   -7.779;  737.505
458.589;   54.745;   -7.039;  686.606
459.179;   54.478;   -9.019;  717.658
459.769;   51.864;   -8.909;  627.099
460.358;   57.497;   -8.659;  797.262
460.948;   58.197;   -8.209;  689.503
461.538;   58.975;   -9.879;  660.677
462.128;   57.164;   -9.379;  664.934
462.717;   64.343;   -9.158;  710.326
463.307;   67.489;   -8.638;  705.846
463.897;   62.370;   -8.869;  656.942
464.486;   61.537;   -7.409;  837.128
465.076;   67.023;   -9.618;  733.776
465.666;   69.815;   -7.578;  652.900
466.255;   67.939;   -9.369;  785.651
466.845;   66.736;  -10.049;  666.749
467.434;   70.355;   -8.168;  725.873
468.023;   70.920;   -9.188;  658.357
468.613;   68.489;   -9.849;  713.946
469.202;   73.122;  -12.958;  646.507
469.791;   77.435;   -9.488;  737.811
470.381;   79.923;   -6.468;  742.813
470.970;   78.638;  -10.248;  711.099
471.559;   79.022;  -11.428;  733.291
472.148;   82.257;   -9.738;  675.737
472.738;   85.476;   -7.877;  765.466
473.327;   84.414;  -11.868;  637.529
473.916;   84.591;   -8.578;  737.446
474.505;   88.499;  -11.137;  751.703
475.094;   90.947;   -9.407;  806.570
475.683;   90.795;   -9.977;  797.699
476.272;   90.325;  -10.807;  730.632
476.861;   94.548;  -11.017;  706.754
477.449;  100.576;  -10.316;  728.487
478.038;   94.756;  -10.187;  692.513
478.627;   96.530;  -12.458;  714.852
479.216;  103.481;  -10.127;  769.441
479.805;  107.321;   -6.256;  783.375
480.393;  106.047;   -8.737; 1008.945
480.982;  104.781;   -9.087;  874.501
481.571;  111.544;   -7.806;  858.333
482.159;  112.146;  -10.596;  705.386
482.748;  112.042;  -11.507;  821.385
483.336;  116.246;   -8.366;  858.209
483.925;  117.515;   -7.497;  774.373
484.513;  123.726;   -8.326;  758.962
485.102;  120.372;  -10.277;  810.965
485.690;  129.469;   -8.256; 1011.050
486.278;  130.624;   -7.146;  979.329
486.867;  131.444;   -7.986;  809.662
487.455;  133.979;   -9.926;  898.229
488.043;  134.486;  -10.026;  748.361
488.631;  144.189;   -7.226; 1005.079
489.220;  148.638;   -8.696;  908.626
489.808;  147.495;  -12.276;  741.415
490.396;  155.726;   -9.386;  914.645
490.984;  161.865;   -8.506;  830.161
491.572;  172.189;   -8.226;  940.315
492.160;  179.151;   -9.836;  919.081
492.748;  190.391;  -10.316;  884.341
493.336;  211.426;   -7.146; 1019.693
493.924;  234.770;   -7.965;  958.077
494.512;  262.093;  -10.316; 1066.638
495.100;  300.916;  -10.186; 1103.280
495.687;  356.249;   -7.805; 1206.373
496.275;  421.204;   -9.686; 1150.796
496.863;  506.879;  -11.566; 1281.171
497.451;  602.644;  -11.406; 1386.805
498.038;  728.569;   -8.235; 1556.729
498.626;  844.851;   -7.485; 1741.407
499.214; 1016.642;   -8.646; 2016.609
499.801; 1269.909;   -9.936; 2220.633
500.389; 1488.435;   -8.056; 2312.494
500.976; 1688.764;   -6.166; 2744.849
501.564; 1895.101;   -9.126; 3148.565
502.151; 2222.479;  -12.456; 3515.999
502.738; 2652.279;  -10.056; 3971.274
503.326; 3059.681;  -10.605; 4403.796
503.913; 3441.640;  -10.576; 5161.749
504.500; 4012.608;   -9.056; 5986.420
505.088; 4521.562;  -10.136; 6381.201
505.675; 5286.217;   -9.075; 6925.547
506.262; 5791.479;  -11.346; 7619.060
506.849; 6409.290;   -9.376; 8733.969
507.436; 6962.294;   -7.365; 9790.121
508.023; 7285.931;   -8.686; 9985.472
508.610; 7763.104;   -8.846;10434.618
509.197; 8766.125;   -9.077;11198.435
509.784;10141.151;  -10.246;12391.194
510.371;10702.320;   -9.825;13603.713
510.958;11524.957;  -10.896;14426.586
511.545;12263.215;   -9.006;15243.775
512.132;13008.106;   -8.765;15945.876
512.719;14237.365;   -8.286;16340.369
513.305;16278.462;   -9.256;18011.766
513.892;18643.066;  -11.106;19754.971
514.479;20739.383;   -8.576;20967.805
515.066;22380.496;   -9.046;22299.793
515.652;22912.586;  -10.676;22908.660
516.239;24341.217;  -10.166;23798.875
516.825;24876.299;  -11.266;25567.275
517.412;24254.744;   -7.446;28154.959
517.998;24333.096;  -10.916;28344.111
518.585;23630.465;   -9.166;27134.219
519.171;23411.127;  -10.135;27268.576
519.758;24925.072;   -8.806;28964.129
520.344;28692.168;   -6.716;30664.494
520.930;30966.121;  -10.166;32550.605
521.516;31117.086;   -9.615;35422.895
522.103;32211.096;   -8.656;38280.004
522.689;34079.828;   -9.646;37835.117
523.275;34953.789;  -10.786;37288.613
523.861;36095.723;   -9.266;37281.395
524.447;35928.863;   -8.285;37846.949
525.033;36101.836;   -9.426;38321.949
525.619;35567.320;   -9.836;38579.285
526.205;36639.621;   -8.136;40622.875
526.791;38089.605;   -9.986;42258.836
527.377;39937.063;   -8.236;42966.902
527.963;38201.852;  -12.117;42018.949
528.549;36439.297;   -8.376;42476.828
529.135;37601.250;   -8.696;41854.852
529.721;39767.176;   -9.686;41237.711
530.306;41892.789;   -8.616;41259.445
530.892;45502.852;   -9.396;41506.047
531.478;45954.398;   -9.926;43559.613
532.063;46660.004;  -10.236;47695.563
532.649;48613.723;   -8.257;50808.324
533.235;50076.762;  -11.476;51787.500
533.820;49091.484;   -8.156;52145.035
534.406;48483.125;  -12.257;51133.488
534.991;46403.918;   -8.686;49996.805
535.576;44004.203;   -9.426;48882.852
536.162;43963.719;   -8.436;46942.285
536.747;43100.727;  -10.957;45711.746
537.333;42115.852;  -13.147;48510.180
537.918;44670.563;   -9.027;50439.891
538.503;45488.090;   -8.256;50863.711
539.088;48660.379;  -10.576;50906.922
539.673;50576.258;  -10.907;52621.965
540.259;51212.129;   -9.126;52368.094
540.844;48529.574;   -9.026;50879.109
541.429;50580.680;   -9.597;52077.777
542.014;55219.500;  -11.447;52716.695
542.599;56422.598;   -9.236;52363.281
543.184;54456.512;  -12.267;53187.137
543.769;55483.441;  -10.367;54697.605
544.354;54952.719;  -10.887;53913.914
544.938;48384.133;  -11.687;49680.164
545.523;43095.848;   -8.286;47386.277
546.108;44604.680;   -9.317;49151.949
546.693;46922.844;  -10.187;51384.637
547.278;45458.531;   -9.926;51853.254
547.862;44675.160;   -9.196;51173.750
548.447;44357.984;   -9.657;51691.395
549.031;45078.262;   -9.127;52456.703
549.616;48077.680;  -10.836;52714.516
550.201;51018.945;   -8.507;52414.598
550.785;52444.598;  -10.537;52355.059
551.370;53512.379;  -11.727;54589.453
551.954;52626.285;   -9.457;58267.348
552.538;51170.984;   -8.147;59062.176
553.123;49981.930;   -9.397;58115.285
553.707;47952.461;   -9.558;56556.285
554.291;48034.316;   -9.417;56201.668
554.876;48878.250;   -7.627;55335.762
555.460;47738.762;  -10.457;54155.703
556.044;45802.648;  -10.078;53721.484
556.628;46302.414;   -9.407;53731.016
557.212;45896.672;   -7.957;54312.531
557.796;45771.227;  -11.327;53797.773
558.380;50035.980;  -10.868;56145.984
558.964;50350.555;   -9.637;57277.930
559.548;48080.648;   -8.807;56459.641
560.132;49027.660;  -10.187;54434.543
560.716;48554.398;   -9.868;54800.617
561.300;49897.352;  -10.217;57606.945
561.884;50849.672;   -4.947;58972.445
562.467;49821.363;   -9.588;57327.570
563.051;47849.027;  -11.138;54962.434
563.635;46229.613;   -9.358;52594.473
564.219;45567.043;   -9.797;50610.410
564.802;45957.496;   -9.918;49551.180
565.386;43873.719;  -10.838;48370.953
565.969;42570.102;   -8.037;48178.871
566.553;41591.680;   -5.667;49957.305
567.136;40962.367;   -8.258;50369.594
567.720;40484.805;  -11.278;49492.004
568.303;42063.023;   -9.028;50616.352
568.887;41857.949;   -7.508;50727.148
569.470;40714.188;  -11.068;51698.379
570.053;41042.934;  -10.028;52122.078
570.637;40064.281;  -11.077;52536.438
571.220;40246.473;   -8.747;51186.098
571.803;42226.070;   -8.868;51032.762
572.386;44373.031;  -10.608;49609.887
572.969;43534.387;  -10.548;48285.926
573.552;40625.891;   -7.898;47624.285
574.135;41922.527;   -9.918;45498.641
574.718;37856.230;  -10.328;41970.434
575.301;34726.902;   -9.548;41447.137
575.884;31597.574;   -8.768;40923.836
576.467;35074.590;   -9.858;45267.723
577.050;35655.441;  -11.018;48175.543
577.633;36822.344;  -10.048;47729.328
578.216;36199.219;  -10.268;47579.793
578.799;33615.672;  -11.808;47820.996
579.381;33376.172;   -7.338;48115.551
579.964;36332.281;   -9.728;47333.766
580.547;37465.742;   -8.928;46668.969
581.129;38002.926;   -9.149;44466.141
581.712;38202.023;  -11.359;44164.922
582.294;35884.539;  -10.738;46477.855
582.877;35130.207;   -8.788;48244.254
583.459;35740.824;   -9.859;47437.895
584.042;37855.973;   -9.649;46943.219
584.624;37577.988;  -10.529;46792.227
585.206;36045.074;  -10.298;46557.250
585.789;35468.715;  -11.029;45793.773
586.371;33909.742;   -9.359;43836.391
586.953;33620.211;   -8.799;42972.492
587.536;33388.398;   -8.928;42487.211
588.118;33317.957;   -9.180;42086.414
588.700;32905.484;  -10.519;43389.930
589.282;31760.506;   -8.098;43646.039
589.864;31364.842;   -8.139;43438.109
590.446;33337.629;  -10.509;43151.926
591.028;34494.523;  -11.119;42781.867
591.610;35799.785;  -10.019;42839.098
592.192;35183.453;   -8.838;42820.402
592.774;32202.775;  -11.549;40724.277
593.356;29566.807;  -11.609;39874.789
593.937;29265.156;  -10.019;39980.648
594.519;31570.238;   -7.839;42069.633
595.101;34183.152;  -10.779;42976.031
595.683;35555.172;  -10.049;44084.441
596.264;34871.496;   -9.969;43478.797
596.846;34603.289;   -9.699;43803.672
597.427;33380.762;  -10.970;42986.934
598.009;32767.064;  -13.090;42832.219
598.591;32000.232;   -9.509;42580.086
599.172;31873.402;   -9.019;43061.805
599.753;32428.953;  -13.310;41691.469
600.335;33538.465;  -11.010;40692.520
600.916;33201.934;  -10.309;39982.422
601.498;32311.463;   -8.209;40318.617
602.079;31931.578;  -11.440;40670.609
602.660;33842.012;   -8.690;41450.898
603.241;35272.035;  -12.759;41137.738
603.823;33787.199;  -10.409;38868.797
604.404;33234.953;  -11.790;38182.785
604.985;34377.309;  -10.280;38078.047
605.566;35763.637;   -8.059;38056.633
606.147;32991.859;   -8.960;37020.418
606.728;30874.947;  -10.710;37883.359
607.309;30067.293;  -12.760;38748.273
607.890;28357.967;   -9.959;38850.230
608.471;28924.037;   -9.780;37457.918
609.051;31081.902;   -8.940;36066.457
609.632;32367.725;  -12.070;35991.074
610.213;32151.131;   -9.610;37402.641
610.794;31760.932;   -8.750;38383.363
611.374;31970.059;  -11.100;40562.387
611.955;32521.803;  -12.200;38533.727
612.536;32853.898;  -10.410;36951.789
613.116;32353.621;  -10.010;37197.891
613.697;30868.801;  -10.480;38411.125
614.277;30462.361;  -12.751;38673.938
614.858;29651.047;  -11.600;37075.863
615.438;29771.014;   -8.190;35092.906
616.019;28117.154;   -8.941;33666.301
616.599;29659.451;  -13.540;34189.023
617.179;32259.301;  -10.890;36952.047
617.760;31442.971;   -7.610;39582.574
618.340;29758.746;  -14.441;38943.977
618.920;29493.094;   -9.180;37594.156
619.500;31563.805;  -11.881;37866.938
620.080;33295.656;   -9.870;37869.043
620.660;32262.746;  -13.211;36868.617
621.241;30891.963;  -11.921;36352.309
621.821;29981.160;  -10.271;35459.520
622.401;30677.941;   -8.200;35207.414
622.980;32638.461;  -11.141;35980.422
623.560;32714.260;  -14.321;37351.328
624.140;31237.611;   -9.360;34388.582
624.720;26867.543;   -7.481;32368.764
625.300;24603.283;  -12.730;32638.629
625.880;28908.551;  -11.441;34599.035
626.459;32342.789;  -10.971;36831.738
627.039;35544.691;   -9.011;38299.098
627.619;36012.707;   -8.521;38289.574
628.198;34429.652;   -9.861;37220.695
628.778;33506.277;   -8.841;37632.563
629.357;33781.660;   -9.891;38003.012
629.937;33503.746;  -11.871;38402.039
630.516;32578.965;  -10.641;37868.801
631.096;34547.203;  -11.391;35760.410
631.675;36491.410;   -6.622;35225.219
632.254;33983.063;  -13.002;35130.289
632.834;32375.238;  -11.622;35794.570
633.413;33359.434;   -8.321;35788.922
633.992;31496.123;   -7.732;34532.863
634.571;31699.549;  -10.992;33590.113
635.151;31186.979;  -10.422;34943.863
635.730;31873.697;  -11.511;35352.523
636.309;31319.252;   -7.901;35366.605
636.888;30755.930;  -11.452;36165.637
637.467;30588.314;  -10.672;37515.902
638.046;31378.879;   -9.301;39288.695
638.625;32602.057;  -11.452;38279.699
639.204;33090.500;  -12.262;37741.598
639.782;33203.406;  -11.892;38364.551
640.361;31615.592;  -11.411;36740.621
640.940;26589.508;  -11.501;34950.082
641.519;28794.908;  -10.921;34137.398
642.097;32573.260;  -10.101;35654.258
642.676;30914.123;  -10.821;35637.957
643.255;32164.279;   -8.631;36567.074
643.833;35105.621;  -11.411;37809.434
644.412;37561.148;  -12.021;37337.293
644.990;37758.879;  -12.271;37018.531
645.569;36472.148;   -9.741;36518.469
646.147;34392.898;   -9.051;36186.430
646.726;34345.727;  -13.861;36267.688
647.304;34094.781;   -9.461;36647.625
647.882;33335.484;  -13.171;39286.742
648.461;33467.547;  -11.911;39157.703
649.039;32625.992;   -9.541;35412.883
649.617;32509.459;   -8.901;34744.918
650.195;30093.877;   -8.591;35403.098
650.773;29524.488;  -13.031;35053.797
651.352;28486.318;  -12.211;33756.816
651.930;25954.229;  -11.361;31868.773
652.508;22976.068;   -8.601;33121.551
653.086;25812.564;   -9.991;33564.793
653.663;29862.418;  -11.931;34054.668
654.241;32458.336;  -10.821;35693.309
654.819;34122.523;   -9.341;36422.906
655.397;32118.928;  -10.851;38213.484
655.975;30617.254;  -11.461;39507.625
656.553;30317.846;   -8.841;39498.223
657.130;29272.713;  -10.371;40395.480
657.708;29775.004;  -11.071;39242.020
658.286;28976.430;  -11.141;38920.020
658.863;30112.252;  -10.861;40202.898
659.441;35513.316;  -11.181;39677.938
660.018;36573.012;  -10.851;40413.355
660.596;36077.750;  -12.571;39931.414
661.173;36542.273;  -12.141;39604.531
661.750;35819.555;  -11.571;39700.070
662.328;33162.246;  -10.780;39292.809
662.905;30500.051;  -10.750;38235.648
663.482;27137.434;  -11.320;36212.305
664.060;26232.764;  -10.160;35944.945
664.637;30981.814;  -13.120;35170.785
665.214;33252.012;  -11.500;34197.523
665.791;31224.609;  -12.430;34549.520
666.368;28497.809;   -9.840;35118.578
666.945;27262.115;  -11.290;36019.418
667.522;28132.436;  -13.540;36048.438
668.099;29096.725;  -10.250;36243.914
668.676;28261.449;  -11.270;35958.875
669.253;27088.301;   -8.210;37384.730
669.830;26271.340;   -9.710;36779.629
670.407;26295.336;   -9.700;35231.289
670.984;27098.025;   -9.190;35544.270
671.560;26235.799;   -9.560;35466.867
672.137;26075.951;  -11.820;34280.863
672.714;29177.855;  -12.460;34632.863
673.290;33601.285;  -10.940;35135.422
673.867;33964.582;  -10.510;36114.480
674.443;30875.027;  -12.110;36152.859
675.020;31892.840;  -11.760;35327.238
675.596;32637.342;   -9.380;35795.176
676.173;31612.455;  -11.120;35430.355
676.749;30413.475;  -13.390;33549.516
677.326;29693.648;  -12.600;32210.012
677.902;28873.451;  -10.830;32068.871
678.478;28768.414;  -12.400;32583.891
679.054;30414.932;   -8.610;32088.928
679.631;30428.248;  -11.640;30978.848
680.207;30379.594;   -8.140;33160.887
680.783;30949.236;  -12.300;35570.363
681.359;29971.184;  -10.910;36125.184
681.935;30483.318;  -11.040;35240.922
682.511;31057.412;  -11.130;34429.961
683.087;31162.813;  -11.080;34463.680
683.663;33104.684;  -10.530;34648.898
684.239;32646.885;  -12.120;34546.457
684.815;30168.992;   -8.870;35586.375
685.390;29032.645;   -8.940;35821.895
685.966;28860.531;  -12.109;35085.871
686.542;28159.818;  -13.539;34198.230
687.118;27970.129;  -10.379;32847.707
687.693;28289.857;  -10.189;32794.027
688.269;27099.734;  -12.939;33072.367
688.844;26169.631;   -8.679;33141.664
689.420;27269.387;  -10.919;33965.742
689.995;27779.104;   -7.489;34655.523
690.571;27413.422;  -12.199;33576.742
691.146;27952.225;   -8.979;32657.219
691.722;29499.418;   -9.119;32526.979
692.297;28107.174;  -10.519;33014.617
692.872;27242.869;  -10.629;34012.254
693.448;27210.521;  -12.119;34237.434
694.023;27862.396;   -8.219;34142.672
694.598;26204.867;  -13.209;34132.031
695.173;25537.248;  -11.879;34205.250
695.748;26436.943;  -12.039;32882.488
696.323;26609.000;  -11.779;32864.906
696.898;27649.232;  -10.219;33170.004
697.473;28867.715;  -13.639;32432.984
698.048;28980.012;  -11.239;31649.303
698.623;30621.805;  -10.859;30778.141
699.198;32256.283;  -13.379;31140.119
699.773;32888.828;  -13.409;31764.299
700.348;32986.766;  -12.329;31780.816
700.922;33349.750;   -8.749;32046.375
701.497;34045.871;  -12.449;32603.574
702.072;32272.744;   -8.879;34799.871
702.646;30124.775;  -10.719;35793.172
703.221;29114.486;   -8.469;35201.590
703.795;28957.633;  -11.389;34764.527
704.370;28086.885;  -12.499;34307.367
704.944;27700.232;  -11.449;33509.887
705.519;27199.117;  -10.659;31388.584
706.093;26913.314;  -12.909;31340.104
706.668;27765.029;  -13.509;32630.281
707.242;27534.363;  -10.049;32728.779
707.816;25544.627;  -10.629;32947.238
708.390;25006.100;  -11.829;33277.855
708.965;25786.748;  -11.159;33834.336
709.539;26773.115;  -11.069;33709.273
710.113;25806.066;  -10.908;33044.313
710.687;23749.189;   -9.488;31953.992
711.261;23938.313;  -13.068;30505.949
711.835;26880.061;  -12.748;30262.369
712.409;27700.941;  -10.678;31254.447
712.983;26297.604;  -11.658;32754.986
713.557;26540.344;  -13.718;34018.824
714.131;27087.799;  -13.388;34579.625
714.704;28027.076;   -9.818;33890.262
715.278;29110.564;  -11.818;33531.102
715.852;30244.375;  -11.328;33601.660
716.425;30837.963;   -9.118;33515.117
716.999;30735.475;  -10.188;33185.555
717.573;30698.010;   -9.808;33905.996
718.146;33115.996;  -11.478;35199.293
718.720;32631.188;  -10.998;35060.551
719.293;30539.184;   -9.508;34973.230
719.867;30144.125;  -12.138;36394.449
720.440;29230.918;  -11.288;36663.008
721.013;31940.141;  -11.428;35102.426
721.587;33385.664;  -11.698;33985.266
722.160;34641.383;  -11.608;33524.965
722.733;33726.832;  -11.428;32987.043
723.306;32382.213;  -12.518;33066.301
723.880;31752.582;   -7.408;33399.500
724.453;30247.779;  -11.048;33468.297
725.026;28842.420;  -11.678;33816.637
725.599;27909.410;  -10.978;32797.996
726.172;26850.779;   -8.838;33187.434
726.745;27592.275;  -11.438;35136.613
727.318;28491.387;   -9.828;35751.730
727.891;27621.469;  -10.868;35890.430
728.463;25885.992;  -11.348;34822.090
729.036;24128.754;  -11.608;32895.086
729.609;24165.150;  -14.738;31823.225
730.182;25372.775;   -8.448;31445.283
730.754;26406.365;  -11.228;32373.223
731.327;26670.443;  -12.018;33676.820
731.900;28424.641;  -13.748;33417.000
732.472;28754.895;  -10.928;31978.498
733.045;27154.998;   -9.478;30368.777
733.617;25208.539;  -12.967;30574.215
734.190;24339.295;  -11.707;31280.975
734.762;23728.191;  -11.067;31674.412
735.334;23305.629;  -10.587;31247.291
735.907;22272.639;  -11.947;29876.211
736.479;22841.174;  -11.667;29808.488
737.051;25435.949;  -10.187;30233.547
737.623;27383.330;   -6.887;31469.086
738.195;30071.908;  -12.117;31784.225
738.768;31992.715;  -14.077;32120.523
739.340;30746.902;  -12.207;32094.342
739.912;27416.994;   -8.977;31312.680
740.484;26078.410;  -11.017;31946.238
741.056;27629.865;  -13.517;32984.059
741.628;29755.707;  -11.507;33897.715
742.199;29715.619;   -7.597;33213.016
742.771;30060.254;  -12.227;31369.113
743.343;29013.480;  -12.427;31865.473
743.915;27203.047;   -9.827;32388.631
744.487;26268.023;  -10.007;31079.568
745.058;24801.012;  -11.887;30570.107
745.630;24192.643;  -10.787;29970.127
746.201;23590.049;  -10.887;29186.766
746.773;23839.658;   -9.707;28805.723
747.344;24679.250;  -11.137;29591.223
747.916;24713.871;  -11.887;31412.201
748.487;24050.314;   -9.707;32194.898
749.059;23395.836;  -10.027;32533.719
749.630;23079.662;  -11.787;32158.518
750.201;21909.668;  -12.767;30855.395
750.773;21508.000;  -11.497;28622.555
751.344;22467.477;   -9.937;28405.732
751.915;22873.783;  -11.567;28461.551
752.486;22033.402;  -13.267;27842.850
753.057;19995.230;  -10.627;27845.008
753.628;18577.508;  -11.657;27728.107
754.199;20825.100;  -12.097;27381.086
754.770;22563.910;  -11.447;25882.203
755.341;22646.732;  -11.997;25886.184
755.912;20627.416;  -10.207;26050.861
756.483;18847.447;  -10.937;26798.779
757.054;18738.615;  -11.527;27048.238
757.625;18897.574;  -12.886;26294.838
758.195;19174.875;  -11.226;26142.076
758.766;19232.141;  -12.366;26392.234
759.337;18142.795;  -11.946;26334.594
759.907;18233.494;  -13.856;27579.652
760.478;19137.488;   -9.606;28352.770
761.048;19238.623;  -11.606;27325.088
761.619;19439.410;  -11.036;26460.428
762.189;18904.158;  -12.206;26029.826
762.760;20096.977;   -9.666;26430.145
763.330;20820.834;   -9.796;26670.902
763.900;18878.789;  -10.896;26603.021
764.471;17358.209;  -11.726;25542.740
765.041;18008.859;   -9.656;24358.459
765.611;19033.555;  -11.276;23991.297
766.181;18822.195;  -12.116;24470.236
766.751;18179.520;  -12.376;24845.975
767.321;17960.115;  -11.626;24533.633
767.891;17947.588;  -10.426;24916.492
768.461;16750.689;  -13.456;24776.771
769.031;14934.295;  -11.616;24757.988
769.601;15076.078;  -11.356;24181.088
770.171;15548.246;  -11.586;23670.387
770.741;16051.394;  -12.696;22960.045
771.311;16201.523;  -10.226;22917.523
771.880;15771.936;  -11.146;23562.941
772.450;16325.122;  -11.716;24216.500
773.020;16474.762;  -13.226;24140.398
773.589;16081.170;  -12.586;24414.857
774.159;15738.566;  -10.246;23858.717
774.729;15245.574;  -11.586;22942.135
775.298;14531.764;  -15.926;22324.033
775.867;14830.720;  -10.426;21140.313
776.437;14709.378;  -11.416;20838.092
777.006;13133.262;  -12.766;20599.510
777.576;13265.749;  -13.666;20508.809
778.145;13915.676;  -10.066;20732.947
778.714;13500.978;  -10.276;21062.465
779.283;13641.795;  -12.086;20949.664
779.853;14918.659;  -14.016;20508.623
780.422;15279.908;  -12.376;20649.082
780.991;14284.559;   -9.246;21527.520
781.560;13445.160;   -9.775;22632.658
782.129;13138.676;  -12.495;23048.277
782.698;12835.287;  -11.775;23438.555
783.267;12995.165;  -10.065;23267.734
783.836;13588.277;  -12.455;22415.133
784.404;14240.301;  -13.385;20443.152
784.973;14921.521;  -11.045;19699.150
785.542;14556.122;   -9.505;19763.828
786.111;13556.050;   -9.385;20341.408
786.679;13312.817;  -13.475;20207.967
787.248;13220.475;  -11.245;19516.465
787.817;11472.593;  -12.485;18900.363
788.385; 9863.138;  -11.165;17879.121
788.954;10387.290;  -11.755;17658.301
789.522;11094.331;   -9.625;17788.879
790.090;10951.701;   -9.665;18118.277
790.659;10743.938;   -9.295;18338.736
791.227;11792.584;  -12.175;18508.615
791.795;13193.565;  -12.145;17898.254
792.364;13186.238;  -11.575;17295.133
792.932;11884.704;  -11.085;16822.051
793.500;10698.124;  -11.345;17040.148
794.068;10578.833;  -12.565;17179.787
794.636;11656.660;  -12.105;16664.246
795.204;12263.946;  -11.995;16524.545
795.772;11624.979;  -12.615;17274.564
796.340;11101.215;  -12.425;17891.002
796.908;10805.803;  -11.455;17648.561
797.476;10118.432;  -12.165;17064.080
798.044; 9762.745;  -15.795;16672.777
798.612;10025.426;  -10.985;17023.996
799.180;10867.303;  -12.055;16561.615
799.747;11176.477;  -12.525;15962.773
800.315; 9897.171;  -14.765;15296.992
800.883; 8579.074;  -12.435;14801.771
801.450; 8434.024;  -11.295;14534.430
802.018; 8865.932;  -11.185;14173.248
802.585; 8953.680;  -11.625;14029.547
803.153; 8151.153;  -10.665;13836.846
803.720; 7729.174;  -10.275;13567.324
804.287; 7654.989;  -12.865;13360.622
804.855; 7861.555;  -12.324;13681.981
805.422; 8038.080;  -11.574;13536.560
805.989; 7784.624;  -11.004;13355.958
806.556; 7960.638;  -12.214;13747.896
807.124; 8386.266;  -13.304;13987.376
807.691; 8115.027;  -12.034;14038.674
808.258; 7565.895;  -11.014;14120.152
808.825; 7507.725;  -11.804;13860.111
809.392; 7434.761;  -11.544;13268.790
809.959; 7312.342;  -14.954;12680.389
810.526; 7594.182;  -10.214;12427.308
811.093; 7977.551;  -10.754;12030.105
811.659; 7672.009;  -12.194;11653.664
812.226; 6601.825;   -9.194;11637.183
812.793; 6240.081;   -9.644;11611.521
813.360; 6996.941;  -11.544;11885.181
813.926; 7872.750;  -12.814;12770.539
814.493; 7882.688;  -11.524;12677.638
815.060; 7573.850;  -12.254;11974.336
815.626; 7104.279;  -12.114;11594.715
816.193; 6723.635;  -11.994;11579.474
816.759; 6589.119;  -11.464;11666.972
817.325; 6303.875;  -10.444;11325.530
817.892; 5995.053;  -11.124;11105.369
818.458; 5920.741;  -11.864;10843.928
819.024; 6270.988;  -10.634;10714.406
819.591; 6372.749;  -10.554;10469.165
820.157; 6566.809;  -13.334;10235.523
820.723; 6755.793;  -13.044;10847.563
821.289; 6859.422;   -9.664;11040.980
821.855; 7050.560;  -10.994;10357.100
822.421; 7152.500;  -11.784; 9978.918
822.987; 7142.938;  -12.554; 9754.177
823.553; 7425.235;  -12.554;10065.755
824.119; 7273.865;   -8.544;10036.294
824.685; 6386.556;  -12.144;10029.192
825.251; 5838.933;  -12.754;10199.230
825.816; 5363.358;  -11.354; 9820.189
826.382; 5006.348;  -11.004; 9297.248
826.948; 5009.332;  -11.004; 9381.347
827.513; 5044.031;  -12.474; 9450.726
828.079; 5099.887;  -13.084; 9472.444
828.645; 5289.074;  -10.813; 9292.643
829.210; 5148.626;  -11.593; 9065.341
829.776; 5093.777;  -12.633; 9132.620
830.341; 5066.273;  -10.473; 9092.878
830.906; 4858.353;   -8.763; 9078.557
831.472; 4554.201;  -13.453; 8534.535
832.037; 3953.076;  -12.173; 8677.874
832.602; 3757.453;  -14.093; 8628.692
833.167; 4055.523;  -13.593; 8879.031
833.733; 4600.123;  -10.793; 9189.790
834.298; 4957.768;  -14.783; 9052.608
834.863; 4525.199;  -11.023; 8895.087
835.428; 4273.547;  -11.113; 8824.266
835.993; 4679.048;   -9.983; 8845.385
836.558; 4904.904;  -13.003; 8888.563
837.123; 4727.563;  -10.733; 8966.582
837.688; 4326.588;   -9.683; 8617.860
838.253; 4161.087;  -12.253; 8590.699
838.817; 4220.758;  -11.643; 8443.797
839.382; 4245.594;  -11.953; 8799.356
839.947; 4308.014;  -11.443; 8810.595
840.511; 4553.181;  -10.843; 8796.394
841.076; 4752.180;  -13.533; 8347.231
841.641; 4586.276;  -11.743; 8224.330
842.205; 4119.394;  -10.013; 8223.349
842.770; 3849.557;  -11.023; 8622.107
843.334; 3941.043;  -14.273; 8410.386
843.898; 4327.647;  -11.323; 8337.465
844.463; 4697.559;  -10.263; 8506.283
845.027; 4826.781;  -10.353; 8280.962
845.591; 4732.153;  -12.163; 8231.141
846.156; 4578.344;  -12.263; 7969.179
846.720; 4610.584;  -11.553; 7768.278
847.284; 4443.997;  -12.393; 7630.957
847.848; 3675.527;  -12.623; 7472.395
848.412; 3094.114;  -11.863; 7437.394
848.976; 3020.926;  -10.203; 7674.592
849.540; 3171.448;  -10.603; 7836.011
850.104; 3350.502;  -12.423; 7913.669
850.668; 3394.306;  -14.613; 7694.508
851.232; 3406.321;  -12.873; 7756.887
851.796; 3589.744;  -14.192; 7926.545
852.359; 3774.791;  -13.652; 7827.844
852.923; 3718.390;  -11.402; 7641.163
853.487; 3440.989;  -12.022; 7342.501
854.050; 3280.048;  -15.202; 7042.820
854.614; 3288.986;  -14.592; 7151.338
855.177; 3279.931;  -12.572; 7105.077
855.741; 3316.457;   -9.932; 6989.675
856.304; 3292.544;  -12.192; 6596.634
856.868; 3195.992;  -13.462; 6356.272
857.431; 3175.570;  -11.542; 6468.571
857.995; 3225.118;  -12.062; 6373.210
858.558; 3011.390;  -11.142; 6324.448
859.121; 2857.405;  -11.742; 6408.327
859.684; 2926.671;  -10.332; 6347.886
860.247; 3052.422;  -11.962; 6321.264
860.810; 3111.743;  -12.332; 6301.903
861.374; 3003.615;  -10.292; 6607.881
861.937; 2858.710;  -12.062; 6408.200
862.500; 2868.948;  -11.702; 6572.639
863.062; 2983.578;  -13.852; 6387.297
863.625; 3069.439;  -12.972; 6190.836
864.188; 3048.223;  -10.292; 5807.254
864.751; 2987.141;  -12.382; 5682.413
865.314; 2774.552;  -13.232; 5547.492
865.876; 2479.632;  -12.772; 5500.150
866.439; 2251.314;  -11.952; 5415.909
867.002; 2308.704;   -9.332; 5501.567
867.564; 2632.371;  -11.712; 5413.946
868.127; 2789.913;  -12.012; 5160.325
868.689; 2469.792;  -11.882; 5133.183
869.252; 2111.852;  -11.572; 5252.382
869.814; 1999.504;  -10.692; 5297.141
870.377; 2058.108;  -12.392; 5390.919
870.939; 2149.164;  -10.582; 5599.898
871.501; 2216.104;  -12.782; 5248.336
872.063; 2250.881;  -15.612; 4854.235
872.626; 2303.562;  -13.922; 4817.074
873.188; 2265.137;  -13.832; 4987.732
873.750; 2185.881;  -10.962; 4868.651
874.312; 2225.086;  -11.022; 4779.330
874.874; 2274.636;  -13.152; 4866.348
875.436; 2211.375;  -13.401; 4718.887
875.998; 2101.739;   -8.891; 4660.005
876.560; 2009.295;  -12.591; 4462.964
877.122; 1946.478;  -14.531; 4145.042
877.683; 1913.715;  -10.781; 4056.481
878.245; 1830.029;  -14.281; 3950.740
878.807; 1776.162;  -10.311; 4058.958
879.369; 1718.661;  -13.201; 3954.677
879.930; 1681.177;  -12.061; 3941.495
880.492; 1690.278;   -9.181; 4067.014
881.053; 1713.814;  -12.051; 3859.633
881.615; 1667.533;  -11.501; 3776.071
882.176; 1560.299;  -12.221; 3734.750
882.738; 1444.557;   -8.931; 3678.489
883.299; 1373.524;  -13.571; 3405.407
883.860; 1387.383;  -12.331; 3351.106
884.422; 1331.216;  -10.201; 3394.044
884.983; 1191.439;  -12.521; 3166.443
885.544; 1062.901;  -12.291; 3189.802
886.105; 1005.571;  -12.991; 3160.360
886.666;  997.424;  -12.901; 3093.059
887.227;  995.557;  -12.061; 2941.957
887.788;  969.039;  -11.641; 2974.836
888.349;  923.858;  -14.691; 2721.214
888.910;  878.547;   -9.681; 2696.493
889.471;  867.365;   -9.971; 2560.172
890.032;  874.389;  -13.151; 2558.190
890.593;  854.733;  -12.051; 2567.669
891.153;  816.910;  -12.841; 2460.307
891.714;  785.889;  -13.561; 2372.046
892.275;  754.852;  -12.401; 2309.505
892.835;  713.618;  -13.191; 2382.543
893.396;  670.054;  -12.551; 2295.502
893.956;  647.311;  -11.981; 2162.420
894.517;  632.041;  -12.221; 2125.439
895.077;  595.731;  -12.021; 2086.978
895.638;  538.710;  -10.891; 2126.316
896.198;  489.216;  -13.171; 1838.275
896.758;  452.045;  -11.891; 1892.813
897.319;  422.870;  -12.491; 1792.232
897.879;  407.197;  -12.401; 1762.751
898.439;  380.999;  -13.431; 1661.149
898.999;  364.080;  -11.340; 1781.468
899.559;  356.319;  -13.930; 1703.347
900.119;  337.858;  -13.730; 1537.525
900.679;  320.004;   -9.210; 1638.384
901.239;  303.613;  -10.860; 1527.902
901.799;  283.488;  -11.450; 1456.441
902.359;  265.082;  -13.800; 1357.140
902.919;  258.229;  -12.130; 1331.118
903.479;  258.464;  -12.650; 1317.257
904.038;  251.330;  -16.110; 1262.595
904.598;  236.922;  -13.690; 1152.034
905.158;  225.026;  -10.290; 1240.893
905.717;  218.837;  -10.670; 1233.691
906.277;  217.311;  -14.040; 1217.330
906.836;  217.764;  -13.510; 1222.408
907.396;  212.015;  -11.530; 1193.047
907.955;  201.480;  -13.190; 1182.526
908.515;  189.230;  -12.950; 1099.364
909.074;  180.217;  -12.390; 1092.863
909.633;  175.408;  -10.340; 1069.121
910.192;  174.672;  -11.170; 1196.460
910.752;  169.361;  -14.200; 1029.960
911.311;  165.383;  -13.810; 1009.780
911.870;  163.022;  -12.750;  971.460
912.429;  162.644;  -12.380; 1094.080
912.988;  159.457;  -11.930; 1081.060
913.547;  153.521;  -10.990;  940.380
914.106;  150.833;  -11.200;  999.420
914.665;  149.981;  -13.150;  984.020
915.224;  146.793;  -13.310; 1035.760
915.782;  145.129;  -13.340;  922.560
916.341;  145.126;  -10.710; 1049.840
916.900;  142.300;  -12.980;  925.260
917.458;  139.955;  -13.060;  884.220
918.017;  138.618;  -10.900;  942.600
918.576;  137.288;  -11.630;  904.440
919.134;  137.500;  -12.860;  837.980
919.693;  137.697;  -15.160;  893.060
920.251;  137.514;  -13.470;  876.500
920.809;  136.803;  -13.700;  839.580
921.368;  137.411;  -13.420;  885.360
921.926;  138.332;  -14.710;  842.940
922.484;  138.063;  -12.560;  903.360
923.042;  137.458;  -11.930;  880.340
923.601;  138.443;  -10.270;  998.680
924.159;  136.165;  -12.960;  935.560
924.717;  135.218;  -13.040;  841.080
925.275;  138.817;  -12.560;  903.240
925.833;  138.298;  -13.040;  779.320
926.391;  140.120;  -13.360;  938.380
926.949;  139.079;  -13.940;  857.680
927.506;  140.329;   -9.400;  903.500
928.064;  140.221;  -10.940;  877.580
928.622;  138.406;  -13.180;  880.100
929.180;  138.720;  -12.730;  814.180
929.737;  140.001;  -12.840;  808.540
930.295;  143.957;  -11.810;  928.480
930.853;  147.647;  -13.650;  849.100
931.410;  149.500;  -13.580;  821.120
931.968;  150.994;  -12.020;  940.660
932.525;  151.487;  -13.320;  909.380
933.082;  152.590;  -13.800;  811.440
933.640;  157.777;  -11.380;  925.900
934.197;  160.855;  -11.480;  886.360
934.754;  163.289;  -13.220;  897.780
935.312;  162.224;  -14.950;  863.340
935.869;  159.820;  -10.940; 1012.980
936.426;  154.871;  -12.100;  872.800
936.983;  154.677;  -12.930;  889.020
937.540;  155.171;  -14.250;  838.280
938.097;  159.146;  -12.600;  940.120
938.654;  164.693;  -11.260;  898.860
939.211;  168.851;  -13.020;  952.480
939.768;  170.512;  -15.760;  915.420
940.324;  173.280;  -13.920;  904.200
940.881;  169.256;  -11.620;  878.500
941.438;  165.176;   -9.870; 1021.200
941.995;  162.587;  -13.920;  992.560
942.551;  160.752;  -12.830;  875.620
943.108;  162.920;  -11.980;  937.920
943.664;  165.448;  -13.740;  869.340
944.221;  172.102;  -12.670; 1088.140
944.777;  168.963;  -13.250;  869.680
945.334;  167.887;  -13.000;  884.840
945.890;  166.798;  -13.020;  946.480
946.446;  167.869;  -13.880;  947.020
947.003;  169.686;  -12.660;  964.940
947.559;  170.482;   -8.730; 1063.040
948.115;  167.186;  -11.960; 1026.540
948.671;  163.343;  -12.360;  967.300
949.227;  159.478;  -12.700;  859.560
949.783;  157.064;  -13.450;  858.900
950.339;  156.534;  -10.620;  991.000
950.895;  152.843;  -14.770; 1023.840
951.451;  151.007;  -13.650;  925.280
952.007;  151.689;  -11.180;  998.540
952.563;  149.816;  -11.680;  937.780
953.118;  149.994;  -13.280;  904.940
953.674;  151.587;  -12.510;  935.780
954.230;  151.792;  -12.220;  949.640
954.785;  146.397;  -12.190;  936.640
955.341;  141.125;  -12.270;  998.160
955.897;  136.570;  -14.900;  834.660
956.452;  136.497;  -12.520;  953.840
957.008;  136.776;   -9.410; 1083.640
957.563;  135.490;  -11.280; 1009.540
958.118;  132.835;  -13.470;  877.700
958.674;  135.247;  -12.190;  946.780
959.229;  138.126;  -12.760; 1013.980
959.784;  142.899;  -15.710;  832.400
960.339;  149.446;  -12.540; 1001.280
960.894;  149.662;  -11.680;  963.760
961.449;  145.135;  -11.410;  859.960
962.004;  143.863;  -10.430; 1212.840
962.559;  137.768;  -14.040;  860.140
963.114;  134.456;  -14.270;  742.480
963.669;  135.290;  -11.320;  915.500
964.224;  133.838;  -14.620;  874.340
964.779;  131.460;  -14.150;  828.420
965.334;  131.468;  -10.850; 1017.860
965.888;  129.857;  -14.530;  875.360
966.443;  131.209;  -13.520;  972.380
966.998;  126.872;  -13.370;  819.460
967.552;  125.591;   -9.960;  908.380
968.107;  120.141;  -12.360;  868.300
968.661;  121.567;  -12.270;  922.440
969.216;  121.350;  -12.140;  856.280
969.770;  122.153;  -11.860;  917.200
970.324;  122.261;  -12.170;  923.140
970.879;  120.600;  -14.160;  947.180
971.433;  118.615;  -12.940;  952.720
971.987;  114.961;  -10.180;  895.340
972.541;  114.054;  -12.130;  917.100
973.095;  114.721;  -14.980; 1009.460
973.649;  112.379;  -14.480;  809.480
974.203;  114.086;  -13.530;  829.040
974.757;  115.399;  -12.060;  855.220
975.311;  113.684;  -13.240;  872.600
975.865;  109.646;  -12.550;  881.820
976.419;  108.797;  -13.180;  857.400
976.973;  107.131;  -14.100;  849.620
977.526;  106.627;  -13.330;  949.920
978.080;  102.862;  -15.390;  796.780
978.634;  103.794;  -11.670;  921.320
979.187;  100.731;  -10.640;  905.400
979.741;  100.243;  -13.330; 1018.380
980.294;   96.983;  -14.480;  789.160
980.848;   95.858;  -13.420;  717.220
981.401;   94.712;  -12.360;  816.540
981.955;   92.195;  -12.480;  844.300
982.508;   88.823;  -14.000;  746.340
983.061;   88.601;  -10.440;  915.260
983.615;   84.549;  -14.340;  798.800
984.168;   82.097;  -14.950;  770.080
984.721;   82.269;  -13.270;  880.760
985.274;   81.135;  -12.240;  867.500
985.827;   77.895;  -12.720;  834.220
986.380;   74.497;  -14.920;  721.340
986.933;   74.059;  -12.860;  864.800
987.486;   73.668;  -10.440;  861.920
988.039;   72.975;  -11.820;  863.100
988.591;   71.613;  -13.760;  893.260
989.144;   69.276;  -14.080;  737.260
989.697;   70.188;  -13.440;  758.740
990.250;   70.930;  -12.050;  858.100
990.802;   68.942;  -14.550;  755.860
991.355;   70.399;  -10.770;  974.880
991.907;   68.285;  -11.710;  864.320
992.460;   66.170;  -12.650;  753.760
993.012;   64.636;  -13.860;  749.540
993.565;   62.510;  -14.310;  711.360
994.117;   62.631;   -9.920;  950.780
994.669;   59.528;  -13.420;  701.320
995.221;   57.972;  -14.200;  791.920
995.774;   57.833;  -13.400;  787.580
996.326;   56.599;  -11.850;  740.220
996.878;   56.781;  -12.230;  838.420
997.430;   54.455;  -14.260;  699.860
997.982;   53.773;  -11.430;  750.140
998.534;   54.673;  -11.590;  739.060
999.086;   53.237;  -11.960;  738.220
999.638;   52.842;  -13.640;  661.380
1000.190;   51.181;  -13.660;  699.320
1000.741;   50.849;   -9.980;  742.700
1001.293;   50.563;  -11.860;  686.020
1001.845;   49.512;  -14.280;  676.640
1002.396;   50.086;  -12.270;  743.400
1002.948;   49.453;  -13.670;  737.400
1003.500;   48.048;  -12.010;  723.780
1004.051;   49.025;  -11.890;  907.580
1004.603;   48.221;  -11.220;  791.820
1005.154;   44.136;  -13.210;  608.980
1005.705;   43.969;  -11.850;  723.960
1006.257;   43.158;  -13.670;  707.220
1006.808;   42.667;  -12.060;  685.460
1007.359;   41.617;  -10.250;  763.240
1007.910;   40.577;  -13.440;  646.640
1008.461;   40.740;  -13.170;  732.940
1009.013;   38.396;  -14.590;  588.340
1009.564;   40.413;  -12.100;  793.520
1010.115;   38.325;  -14.000;  597.040
1010.665;   38.439;  -15.020;  602.160
1011.216;   37.749;  -12.560;  667.920
1011.767;   37.592;  -11.330;  697.920
1012.318;   38.625;  -11.450;  736.980
1012.869;   36.593;  -11.000;  679.000
1013.419;   36.932;  -11.760;  603.120
1013.970;   36.676;  -11.800;  666.640
1014.521;   36.088;  -14.750;  620.620
1015.071;   36.071;  -14.430;  670.380
1015.622;   35.161;  -14.170;  635.460
1016.172;   34.150;  -11.700;  596.820
1016.723;   34.635;  -13.230;  614.380
1017.273;   35.073;  -16.120;  604.160
1017.823;   35.115;  -13.360;  650.340
1018.374;   33.874;  -13.710;  611.760
1018.924;   34.408;  -11.050;  716.880
1019.474;   33.575;  -14.120;  718.880
1020.024;   33.250;  -12.990;  657.580
1020.574;   34.042;  -12.010;  726.160
1021.124;   33.804;  -12.080;  673.580
1021.674;   32.271;  -15.860;  559.120
1022.224;   33.498;  -11.710;  708.940
1022.774;   32.548;  -13.030;  668.820
1023.324;   34.101;  -11.000;  753.520
1023.874;   34.248;  -13.270;  875.760
1024.423;   31.255;  -14.570;  613.700
1024.973;   31.517;  -12.620;  610.760
1025.523;   31.479;  -12.630;  620.960
1026.072;   30.494;  -14.110;  606.420
1026.622;   30.138;  -15.390;  675.740
1027.172;   31.034;   -9.090;  715.660
1027.721;   29.504;  -12.250;  601.220
1028.270;   30.255;  -15.590;  663.400
1028.820;   30.131;  -13.840;  638.080
1029.369;   29.473;  -13.170;  612.700
1029.918;   30.036;  -14.080;  649.840
1030.468;   29.192;  -13.860;  564.780
1031.017;   29.504;  -12.970;  634.800
1031.566;   27.805;  -12.320;  608.900
1032.115;   29.427;  -13.140;  694.500
1032.664;   28.179;  -14.560;  596.480
1033.213;   29.294;  -11.620;  735.420
1033.762;   27.912;  -13.190;  635.620
1034.311;   28.973;  -13.460;  677.220
1034.860;   28.811;  -15.770;  691.000
1035.408;   27.745;  -13.100;  722.720
1035.957;   28.903;  -12.880;  719.540
1036.506;   26.160;  -13.640;  530.800
1037.055;   28.651;  -12.420;  844.320
1037.603;   27.180;  -13.740;  664.000
1038.152;   25.812;  -13.840;  534.760
1038.700;   25.608;  -10.770;  585.740
1039.249;   26.606;  -13.520;  681.220
1039.797;   25.955;  -13.060;  633.360
1040.345;   25.830;  -11.760;  705.420
1040.894;   26.006;  -10.790;  625.300
1041.442;   25.736;  -15.420;  632.200
1041.990;   24.768;  -14.550;  559.160
1042.538;   23.922;  -15.620;  536.180
1043.087;   24.188;  -14.940;  570.860
1043.635;   25.504;  -12.100;  670.500
1044.183;   24.496;  -13.200;  586.400
1044.731;   24.290;  -11.630;  576.000
1045.279;   24.252;  -14.200;  674.920
1045.827;   26.666;  -12.510;  892.400
1046.374;   22.903;  -14.960;  515.420
1046.922;   22.350;  -11.850;  590.580
1047.470;   24.228;  -13.770;  691.300
1048.018;   24.013;  -15.380;  647.960
1048.565;   24.624;  -14.010;  708.600
1049.113;   22.335;  -14.620;  557.000
1049.660;   22.736;  -14.940;  629.660
1050.208;   23.155;  -14.540;  675.640
1050.755;   21.806;  -13.710;  606.580
1051.303;   22.791;  -11.880;  686.820
1051.850;   22.388;  -12.160;  635.120
1052.397;   19.791;  -15.110;  473.960
1052.945;   21.563;  -14.770;  617.760
1053.492;   23.178;  -12.320;  741.840
1054.039;   22.523;  -13.290;  720.180
1054.586;   20.999;  -15.210;  557.240
1055.133;   22.191;  -12.920;  693.140
1055.680;   20.995;  -12.610;  646.620
1056.227;   21.009;  -12.620;  542.780
1056.774;   22.497;  -13.010;  794.980
1057.321;   20.139;  -16.180;  523.260
1057.868;   20.351;  -11.230;  651.320
1058.415;   20.778;  -10.890;  651.980
1058.961;   20.939;  -12.530;  678.940
1059.508;   20.655;  -14.120;  643.820
1060.055;   18.965;  -13.340;  581.780
1060.601;   21.005;  -12.920;  624.300
1061.148;   19.538;  -14.430;  616.820
1061.694;   19.258;  -14.140;  592.580
1062.241;   19.480;  -12.550;  596.320
1062.787;   20.168;  -13.370;  663.140
1063.334;   21.428;  -12.260;  808.560
1063.880;   19.432;  -10.800;  668.360
1064.426;   19.804;   -9.920;  706.820
1064.972;   18.219;  -12.970;  601.340
1065.518;   17.609;  -14.440;  566.640
1066.065;   18.445;  -12.680;  624.460
1066.611;   17.615;  -13.520;  598.800
1067.157;   18.880;  -11.100;  641.860
1067.703;   18.913;  -14.100;  668.480
1068.249;   17.599;  -13.750;  605.220
1068.794;   18.063;  -11.070;  626.880
1069.340;   17.461;  -13.210;  578.960
1069.886;   17.873;  -14.850;  590.700
1070.432;   16.402;  -14.580;  541.720
1070.977;   16.449;  -12.930;  601.080
1071.523;   17.327;  -11.970;  573.060
1072.068;   16.960;  -13.730;  582.000
1072.614;   15.907;  -14.550;  527.760
1073.160;   17.228;  -13.690;  687.040
1073.705;   15.940;  -14.780;  572.520
1074.250;   15.424;  -15.430;  559.900
1074.796;   17.497;  -11.620;  655.160
1075.341;   17.523;  -11.580;  664.100
1075.886;   16.137;  -13.190;  594.240
1076.431;   16.033;  -13.630;  649.880
1076.976;   15.694;  -11.670;  639.220
1077.521;   15.362;  -11.600;  583.080
1078.067;   14.706;  -13.920;  579.400
1078.612;   16.123;  -12.910;  661.620
1079.156;   15.498;  -15.340;  601.540
1079.701;   16.329;  -12.560;  693.260
1080.246;   16.131;  -12.490;  696.300
1080.791;   15.686;  -14.550;  625.020
1081.336;   14.977;  -15.210;  659.320
1081.880;   15.347;  -11.280;  649.680
1082.425;   14.600;  -12.830;  573.480
1082.970;   15.847;  -11.680;  717.040
1083.514;   14.839;  -15.500;  597.000
1084.059;   13.909;  -11.770;  586.720
1084.603;   13.361;  -13.480;  565.840
1085.147;   14.374;  -13.940;  645.220
1085.692;   15.357;  -13.170;  716.800
1086.236;   11.736;  -15.740;  503.140
1086.780;   15.262;  -10.750;  751.440
1087.325;   13.800;  -14.900;  654.620
1087.869;   14.146;  -15.160;  610.700
1088.413;   13.895;  -11.030;  705.040
1088.957;   12.538;  -15.210;  543.400
1089.501;   14.670;  -12.310;  766.640
1090.045;   14.040;  -12.790;  726.480
1090.589;   11.732;  -14.040;  569.920
1091.133;   13.147;  -12.800;  673.340
1091.676;   13.260;  -13.600;  591.940
1092.220;   11.963;  -12.960;  600.920
1092.764;   13.365;  -10.830;  706.960
1093.307;   12.857;  -12.390;  673.780
1093.851;   11.601;  -15.850;  556.540
1094.395;   13.057;  -12.980;  683.140
1094.938;   11.759;  -13.670;  632.520
1095.482;   12.419;  -12.740;  559.800
1096.025;   12.440;  -13.340;  710.880
1096.568;   12.661;  -10.500;  779.280
1097.112;    9.944;  -13.500;  508.180
1097.655;   11.835;  -13.060;  603.000
1098.198;   10.010;  -13.240;  600.180
1098.741;   10.385;  -15.490;  612.860
1099.285;   11.132;  -13.410;  657.300
1099.828;    9.745;  -15.640;  439.400
1100.371;   10.332;  -13.980;  608.160
1100.914;   10.547;  -13.990;  682.660
1101.457;   10.949;  -15.030;  679.900
1101.999;    9.906;  -12.480;  584.680
1102.542;   10.699;  -12.410;  641.440
1103.085;   10.086;  -14.730;  658.500
1103.628;   10.459;  -12.190;  762.060
1104.170;    9.708;  -12.360;  588.280
1104.713;   10.377;  -13.350;  646.700
1105.256;    9.192;  -14.930;  557.440
1105.798;    8.303;  -15.150;  499.980
1106.341;   11.083;  -13.230;  728.900
1106.883;    8.777;  -14.680;  521.340
1107.425;    9.391;  -14.810;  668.180
1107.968;    8.702;  -12.940;  612.380
1108.510;   10.257;  -10.550;  684.960
1109.052;    7.786;  -15.640;  612.620
1109.594;    7.922;  -14.440;  554.440
1110.136;    9.538;  -11.380;  643.220
1110.679;    8.536;  -13.090;  633.080
1111.221;    9.466;  -14.230;  604.460
1111.763;    7.536;  -14.260;  559.220
1112.304;    7.870;  -14.510;  547.140
1112.846;    8.376;  -14.700;  666.240
1113.388;   11.859;  -12.270;  942.180
1113.930;    9.075;  -13.340;  694.200
1114.472;    7.041;  -12.560;  606.540
1115.013;    7.750;  -14.280;  551.280
1115.555;    6.980;  -14.010;  587.100
1116.097;    6.504;  -14.730;  579.480
1116.638;    7.420;  -12.160;  684.600
1117.180;    8.278;  -14.320;  667.740
1117.721;    7.144;  -15.730;  568.580
1118.262;    7.669;  -13.480;  677.960
1118.804;    7.616;  -11.530;  637.340
1119.345;    6.579;  -13.540;  578.400
1119.886;    7.766;  -14.470;  704.040
1120.427;    5.981;  -13.030;  589.020
1120.969;    6.386;  -13.150;  597.920
1121.510;    5.909;  -13.940;  563.060
1122.051;    7.596;  -12.310;  723.580
1122.592;    6.023;  -13.870;  655.420
1123.133;    4.911;  -12.890;  547.940
1123.673;    7.425;  -13.300;  706.480
1124.214;    5.467;  -14.000;  612.460
1124.755;    5.801;  -13.210;  639.460
1125.296;    5.430;  -13.450;  627.320
1125.836;    6.984;  -12.610;  691.500
1126.377;    5.340;  -15.840;  599.660
1126.918;    6.354;  -11.830;  614.980
1127.458;    5.146;  -11.830;  622.220
1127.999;    6.482;  -11.490;  656.980
1128.539;    6.445;  -12.900;  694.240
1129.079;    4.985;  -14.910;  632.720
1129.620;    3.857;  -12.920;  558.100
1130.160;    4.362;  -14.640;  539.480
1130.700;    4.895;  -13.270;  640.840
1131.240;    5.552;  -14.110;  643.700
1131.781;    4.038;  -13.130;  619.680
1132.321;    4.934;  -15.220;  599.120
1132.861;    3.538;  -15.670;  564.200
1133.401;    3.934;  -13.970;  593.940
1133.941;    4.624;  -13.740;  626.280
1134.481;    4.022;  -13.200;  597.580
1135.020;    4.119;  -14.830;  609.160
1135.560;    3.808;  -14.590;  674.940
1136.100;    3.035;  -13.730;  501.160
1136.640;    3.043;  -15.240;  510.480
1137.179;    2.568;  -14.710;  537.960
1137.719;    3.508;  -14.090;  605.400
1138.258;    3.650;  -12.470;  587.360
1138.798;    4.283;  -12.580;  663.780
1139.337;    1.971;  -16.480;  482.840
1139.877;    4.021;  -13.970;  642.360
1140.416;    5.630;   -9.870;  878.060
1140.955;    2.324;  -14.860;  535.380
1141.494;    3.952;  -14.530;  669.280
1142.034;    2.046;  -13.940;  583.520
1142.573;    3.747;  -11.160;  646.280
1143.112;    2.386;  -15.050;  553.480
1143.651;    2.543;  -15.390;  536.480
1144.190;    3.012;  -12.990;  691.640
1144.729;    1.783;  -12.220;  607.420
1145.267;    3.143;  -14.020;  584.900
1145.806;    3.861;  -12.740;  637.040
1146.345;    2.349;  -14.810;  635.020
1146.884;    2.252;  -12.920;  622.500
1147.422;    2.303;  -13.930;  533.060
1147.961;    3.908;  -11.830;  708.460
1148.500;    2.805;  -12.710;  669.720
1149.038;    2.331;  -14.420;  632.500
1149.577;    2.982;  -13.920;  698.640
1150.115;   -0.044;  -17.050;  452.280
1150.653;    2.252;  -14.890;  607.340
1151.192;    2.108;  -15.270;  552.920
1151.730;    2.138;  -13.160;  652.560
1152.268;    0.854;  -15.430;  589.520
1152.806;    0.932;  -15.880;  571.180
1153.344;    0.128;  -13.240;  577.640
1153.882;    1.841;  -13.010;  600.060
1154.421;   -0.064;  -16.180;  470.620
1154.958;    0.289;  -13.880;  595.240
1155.496;    1.370;  -13.590;  645.280
1156.034;    1.790;  -11.910;  721.880
1156.572;    2.108;  -12.010;  667.060
1157.110;   -0.147;  -16.250;  473.940
1157.647;    1.216;  -15.230;  676.960
1158.185;    0.671;  -13.770;  564.320
1158.723;   -0.058;  -15.300;  509.200
1159.260;    1.173;  -13.130;  701.700
1159.798;    1.756;  -11.300;  658.160
1160.335;    0.196;  -13.210;  631.820

