
Integration time [ms]:   3.276
Averaging Nr. [scans]: 1000
Smoothing Nr. [pixels]: 0
Data measured with spectrometer [name]: 7414430SP
Wave   ;Sample   ;Dark     ;Reference
[nm]   ;[counts] ;[counts] ;[counts] 

288.544;  149.899;    7.793;  793.890
289.143;  154.919;    7.462;  681.602
289.742;  155.067;    8.602;  828.814
290.341;  139.410;    1.321;  789.841
290.940;  128.331;   -0.709;  730.702
291.538;  131.369;    0.881;  881.108
292.137;  130.365;    0.122;  792.581
292.736;  133.808;   -1.929;  975.101
293.335;  130.146;   -8.229;  735.086
293.934;  131.961;   -5.279;  781.677
294.532;  130.387;   -1.369; 1031.958
295.131;  114.290;   -7.641;  834.394
295.730;  115.346;   -8.420;  809.588
296.328;  116.003;   -5.611;  783.442
296.927;  115.477;   -5.781;  779.652
297.525;  115.576;   -6.361;  781.236
298.124;  107.095;  -11.382;  654.009
298.722;  111.239;   -7.641;  761.933
299.321;  108.548;   -6.811;  708.597
299.919;  105.807;   -6.991;  751.918
300.518;  102.621;  -10.362;  689.338
301.116;  105.084;   -9.581;  691.381
301.715;  105.277;   -4.891;  730.222
302.313;  103.129;   -8.801;  704.943
302.911;   98.678;   -8.522;  733.830
303.509;  105.095;   -6.171;  925.627
304.108;  102.927;   -7.311;  760.383
304.706;  100.740;   -8.321;  801.664
305.304;   95.243;  -10.222;  796.707
305.902;  102.136;   -6.021;  784.484
306.500;   97.425;   -4.971;  728.200
307.098;   94.968;   -7.061;  746.560
307.696;   92.578;   -8.801;  780.432
308.294;   94.822;   -6.411;  731.359
308.892;   96.726;   -2.901;  759.769
309.490;   91.323;   -5.041;  712.161
310.088;   89.515;   -5.002;  788.444
310.686;   94.601;   -2.041;  821.749
311.284;   90.389;   -2.351;  766.040
311.882;   87.879;   -4.422;  731.225
312.480;   84.439;   -4.192;  697.167
313.078;   86.450;   -1.172;  808.331
313.675;   87.556;   -2.601;  691.600
314.273;   81.892;   -1.312;  797.837
314.871;   81.551;   -3.942;  589.829
315.468;   79.552;   -2.802;  652.090
316.066;   82.755;   -0.701;  694.427
316.664;   73.937;   -4.362;  656.351
317.261;   79.761;   -2.872;  910.128
317.859;   75.393;   -2.022;  768.735
318.456;   75.382;   -0.531;  830.096
319.054;   70.850;   -3.912;  787.828
319.651;   69.842;   -4.752;  759.928
320.249;   69.693;   -2.602;  810.188
320.846;   67.525;   -0.821;  714.286
321.443;   63.923;   -4.642;  832.135
322.041;   61.226;   -5.002;  812.315
322.638;   59.439;   -3.982;  701.456
323.235;   60.959;   -3.411;  665.683
323.833;   56.968;   -7.361;  740.354
324.430;   52.909;   -8.611;  615.900
325.027;   53.549;   -4.061;  876.855
325.624;   53.053;   -4.031;  644.532
326.221;   50.694;   -7.481;  689.717
326.818;   49.825;   -5.281;  818.332
327.415;   53.805;   -7.460;  748.828
328.012;   53.066;   -5.510;  690.585
328.609;   50.443;   -7.880;  731.389
329.206;   49.499;   -8.331;  778.621
329.803;   50.408;   -5.121;  737.841
330.400;   52.271;   -4.510;  704.260
330.997;   53.292;   -6.441;  817.147
331.594;   52.180;   -8.831;  788.185
332.191;   58.413;   -7.621;  728.722
332.787;   60.323;   -4.591;  844.463
333.384;   58.838;   -7.412;  763.093
333.981;   56.765;   -8.293;  815.687
334.578;   60.684;   -7.052;  708.378
335.174;   64.010;   -3.102;  731.469
335.771;   62.111;   -5.943;  836.456
336.367;   59.266;   -7.393;  710.631
336.964;   63.566;   -4.063;  793.266
337.561;   60.964;   -3.813;  731.112
338.157;   56.156;   -4.654;  911.916
338.754;   54.370;   -7.934;  796.589
339.350;   52.770;   -4.414;  722.493
339.946;   54.721;   -4.664;  773.135
340.543;   45.535;   -6.375;  846.136
341.139;   41.696;   -9.815;  720.836
341.735;   40.491;   -4.526;  772.593
342.332;   37.932;   -4.895;  691.472
342.928;   37.190;   -4.295;  795.394
343.524;   31.432;   -5.476;  761.684
344.120;   29.180;   -5.856;  738.562
344.716;   32.192;   -2.155;  723.717
345.313;   28.927;   -6.275;  795.342
345.909;   23.588;   -8.815;  627.336
346.505;   26.014;   -5.305;  740.247
347.101;   26.649;   -2.674;  827.864
347.697;   26.787;   -4.344;  785.398
348.293;   21.607;   -9.975;  627.244
348.889;   22.790;   -5.774;  745.914
349.485;   21.886;   -5.004;  688.205
350.081;   21.649;   -4.704;  772.592
350.676;   17.363;   -6.635;  691.606
351.272;   22.613;   -4.504;  809.530
351.868;   22.073;   -3.914;  780.497
352.464;   18.041;   -9.044;  723.932
353.059;   14.932;   -8.314;  646.017
353.655;   19.041;   -7.024;  777.063
354.251;   20.198;   -5.343;  759.845
354.846;   13.463;   -8.604;  740.646
355.442;   11.875;   -6.945;  753.071
356.038;   14.549;   -7.564;  751.708
356.633;   14.427;   -5.814;  728.594
357.229;   11.715;   -7.364;  724.757
357.824;   10.054;   -8.024;  703.600
358.420;    9.930;   -9.384;  679.726
359.015;    9.961;   -5.104;  695.357
359.610;    9.868;   -6.854;  763.920
360.206;    4.382;  -10.185;  603.240
360.801;    8.055;   -7.054;  646.503
361.396;   10.487;   -5.034;  725.975
361.992;    4.508;   -8.284;  668.220
362.587;    2.020;   -8.625;  670.160
363.182;    5.285;   -7.674;  689.631
363.777;    5.849;   -5.164;  738.242
364.372;    4.178;   -8.604;  737.314
364.967;    0.589;   -9.055;  680.744
365.563;    5.566;   -6.114;  815.567
366.158;    3.105;   -5.814;  685.161
366.753;    2.456;   -7.854;  649.263
367.348;    1.717;   -7.804;  746.056
367.942;    2.346;   -7.954;  697.298
368.537;    0.705;   -4.984;  754.245
369.132;    0.048;   -8.564;  703.428
369.727;   -4.373;   -8.855;  638.079
370.322;   -1.361;   -6.245;  580.186
370.917;   -1.885;   -6.425;  710.646
371.511;   -0.014;   -6.294;  861.834
372.106;   -2.806;   -7.685;  776.964
372.701;   -6.220;   -7.335;  585.988
373.296;   -0.649;   -4.564;  863.135
373.890;   -6.201;  -10.235;  647.840
374.485;   -7.913;   -7.885;  691.199
375.079;   -2.841;   -7.324;  738.685
375.674;   -2.009;   -3.494;  812.970
376.268;   -7.211;   -8.525;  691.759
376.863;  -13.016;  -10.086;  580.327
377.457;   -5.975;   -7.025;  662.490
378.052;   -7.729;   -3.585;  764.884
378.646;   -9.770;   -7.595;  741.167
379.240;   -9.371;   -8.335;  721.176
379.835;   -7.557;   -5.785;  636.978
380.429;   -9.737;   -4.335;  562.557
381.023;  -10.358;   -6.805;  779.205
381.617;  -12.721;   -9.195;  680.106
382.212;   -9.081;   -6.905;  685.303
382.806;   -8.279;   -3.745;  760.690
383.400;  -13.418;   -7.745;  672.281
383.994;  -13.567;   -9.765;  664.870
384.588;   -8.581;   -6.564;  697.701
385.182;   -8.652;   -5.344;  726.624
385.776;  -10.752;   -8.514;  706.875
386.370;  -14.046;   -9.555;  681.968
386.964;  -11.446;   -8.715;  684.155
387.558;   -9.655;   -6.174;  598.360
388.152;  -14.788;   -8.725;  681.959
388.745;  -11.483;   -7.965;  814.707
389.339;   -9.476;   -5.924;  747.642
389.933;   -8.688;   -5.524;  695.370
390.527;  -10.580;   -7.114;  859.029
391.120;  -17.267;  -10.725;  595.318
391.714;  -13.366;   -8.035;  711.633
392.308;  -10.347;   -3.574;  780.253
392.901;  -14.782;   -7.245;  642.460
393.495;  -15.953;   -9.285;  595.414
394.089;  -13.110;   -5.895;  760.452
394.682;  -14.811;   -4.295;  697.188
395.275;  -15.732;   -9.875;  719.927
395.869;  -16.291;   -8.485;  667.314
396.462;  -14.021;   -7.455;  616.609
397.056;  -11.152;   -5.424;  776.621
397.649;  -16.578;   -6.605;  731.575
398.242;  -12.987;   -8.224;  712.645
398.836;  -11.458;   -7.474;  766.408
399.429;  -13.030;   -7.094;  631.041
400.022;  -18.036;   -9.475;  665.902
400.615;  -14.983;   -7.145;  805.609
401.208;  -12.231;   -7.174;  691.451
401.802;  -14.300;   -5.515;  699.329
402.395;  -16.784;   -9.875;  683.502
402.988;  -16.848;   -8.845;  696.627
403.581;  -13.472;   -8.874;  646.878
404.174;  -11.583;   -5.324;  686.568
404.767;  -14.662;   -9.575;  638.583
405.360;  -17.456;  -10.965;  621.445
405.953;  -10.429;   -8.764;  759.034
406.545;  -11.067;   -7.514;  725.342
407.138;  -16.434;  -10.025;  618.350
407.731;  -13.916;  -10.034;  613.303
408.324;  -10.054;   -9.374;  660.554
408.917;  -10.408;   -6.534;  681.864
409.509;  -13.467;   -8.004;  740.396
410.102;  -14.862;   -9.875;  643.948
410.695;   -7.876;   -8.604;  665.758
411.287;   -9.874;   -6.794;  599.821
411.880;  -11.989;   -9.334;  585.421
412.472;  -13.945;  -10.254;  613.092
413.065;  -11.342;   -6.714;  629.408
413.657;   -9.205;   -7.234;  576.678
414.250;   -9.396;  -10.544;  646.681
414.842;  -11.639;   -9.744;  676.353
415.434;   -7.548;   -6.994;  570.463
416.027;   -3.900;   -5.893;  652.196
416.619;   -6.902;   -7.264;  713.400
417.211;   -7.659;  -10.374;  599.352
417.804;   -3.154;   -7.993;  628.499
418.396;   -7.152;   -7.234;  607.643
418.988;   -5.836;   -9.443;  659.238
419.580;   -9.206;  -10.724;  568.276
420.172;   -5.760;  -10.323;  536.196
420.764;   -1.126;   -8.793;  672.482
421.356;   -4.366;  -11.143;  636.898
421.948;   -4.148;   -8.293;  677.661
422.540;    1.199;   -7.893;  680.027
423.132;    0.830;   -7.082;  600.641
423.724;   -4.262;   -8.653;  561.267
424.316;   -1.256;  -10.213;  621.345
424.908;    3.357;   -9.762;  591.517
425.500;    3.622;   -5.572;  647.978
426.092;    2.549;   -8.422;  648.268
426.683;    2.496;   -9.283;  684.836
427.275;    5.555;   -7.852;  641.471
427.867;    6.910;   -5.272;  668.948
428.458;    6.046;   -7.682;  732.344
429.050;    5.073;  -10.612;  680.749
429.642;    8.157;   -9.882;  743.124
430.233;    8.065;   -6.962;  569.356
430.825;    9.185;   -6.842;  724.809
431.416;    6.082;   -9.672;  698.241
432.008;   10.963;   -6.552;  651.723
432.599;   11.098;   -6.891;  656.073
433.190;    7.275;  -10.912;  637.670
433.782;    6.909;  -11.172;  590.395
434.373;   15.426;   -6.061;  884.765
434.964;   13.016;   -8.251;  602.920
435.556;   10.707;   -9.722;  634.537
436.147;   14.214;   -9.082;  758.490
436.738;   14.614;   -8.041;  701.099
437.329;   19.017;   -7.341;  721.723
437.920;   11.553;   -8.162;  666.688
438.511;   11.871;  -11.802;  564.526
439.103;   19.861;  -10.191;  623.998
439.694;   21.033;   -7.601;  681.583
440.285;   20.912;   -8.541;  764.432
440.876;   18.882;   -9.751;  845.738
441.466;   19.536;   -9.401;  575.162
442.057;   24.485;   -7.760;  665.814
442.648;   22.247;   -9.971;  746.255
443.239;   20.847;  -11.001;  620.477
443.830;   27.286;   -7.990;  704.958
444.421;   27.688;   -7.910;  655.474
445.011;   24.135;   -8.131;  693.619
445.602;   23.438;   -7.111;  743.126
446.193;   26.470;  -10.920;  488.117
446.783;   31.178;   -6.500;  640.397
447.374;   25.062;   -8.671;  692.759
447.964;   25.620;  -10.781;  713.770
448.555;   35.319;   -9.650;  822.742
449.145;   32.285;   -8.660;  662.853
449.736;   31.541;   -8.990;  803.179
450.326;   31.625;   -9.500;  713.626
450.917;   37.675;   -8.680;  675.324
451.507;   36.098;   -7.520;  600.661
452.097;   36.668;   -8.590;  746.267
452.688;   37.189;  -11.340;  742.160
453.278;   38.275;  -10.100;  566.840
453.868;   42.636;   -6.019;  793.550
454.458;   38.758;   -9.440;  651.141
455.048;   40.392;  -10.560;  711.783
455.639;   42.581;  -11.799;  567.096
456.229;   45.756;   -6.899;  710.694
456.819;   46.621;   -7.389;  751.158
457.409;   46.259;  -11.119;  773.993
457.999;   50.751;   -9.289;  737.505
458.589;   50.625;   -6.139;  686.606
459.179;   49.945;   -8.729;  717.658
459.769;   47.686;   -9.789;  627.099
460.358;   53.401;  -10.259;  797.262
460.948;   52.912;   -7.299;  689.503
461.538;   53.435;  -10.289;  660.677
462.128;   52.035;  -11.269;  664.934
462.717;   59.354;   -9.368;  710.326
463.307;   62.698;   -7.908;  705.846
463.897;   57.208;   -9.599;  656.942
464.486;   56.225;   -9.769;  837.128
465.076;   61.917;   -8.048;  733.776
465.666;   65.538;   -9.358;  652.900
466.255;   61.960;   -7.919;  785.651
466.845;   61.032;  -11.689;  666.749
467.434;   65.572;   -7.818;  725.873
468.023;   66.273;   -7.678;  658.357
468.613;   63.340;  -10.939;  713.946
469.202;   66.743;  -10.118;  646.507
469.791;   71.835;   -9.108;  737.811
470.381;   73.950;   -6.058;  742.813
470.970;   72.611;  -10.428;  711.099
471.559;   73.043;  -10.268;  733.291
472.148;   76.072;   -8.448;  675.737
472.738;   79.152;   -6.917;  765.466
473.327;   78.163;  -11.978;  637.529
473.916;   77.181;  -11.888;  737.446
474.505;   82.247;   -9.437;  751.703
475.094;   85.842;   -6.747;  806.570
475.683;   84.284;   -9.367;  797.699
476.272;   85.162;  -12.637;  730.632
476.861;   88.274;  -10.027;  706.754
477.449;   95.680;   -8.716;  728.487
478.038;   88.605;   -9.577;  692.513
478.627;   89.258;   -9.718;  714.852
479.216;   97.071;   -8.947;  769.441
479.805;  100.468;   -6.256;  783.375
480.393;   99.173;   -7.937; 1008.945
480.982;   97.786;   -7.717;  874.501
481.571;  105.359;   -9.266;  858.333
482.159;  105.062;   -7.636;  705.386
482.748;  103.990;   -9.667;  821.385
483.336;  109.499;  -10.376;  858.209
483.925;  110.454;   -7.147;  774.373
484.513;  117.098;   -7.996;  758.962
485.102;  112.976;  -10.027;  810.965
485.690;  121.398;  -10.446; 1011.050
486.278;  124.571;   -8.446;  979.329
486.867;  124.968;   -6.356;  809.662
487.455;  125.763;   -9.136;  898.229
488.043;  127.340;  -10.646;  748.361
488.631;  137.430;   -7.456; 1005.079
489.220;  140.187;   -6.636;  908.626
489.808;  139.798;  -11.036;  741.415
490.396;  147.564;  -10.246;  914.645
490.984;  153.774;   -8.556;  830.161
491.572;  163.736;   -5.886;  940.315
492.160;  168.175;   -9.486;  919.081
492.748;  180.386;  -10.976;  884.341
493.336;  202.609;   -8.776; 1019.693
493.924;  227.696;   -5.465;  958.077
494.512;  252.975;   -9.986; 1066.638
495.100;  287.312;  -10.636; 1103.280
495.687;  341.535;  -10.885; 1206.373
496.275;  401.130;   -8.126; 1150.796
496.863;  468.029;  -10.586; 1281.171
497.451;  563.184;  -11.926; 1386.805
498.038;  691.936;  -10.885; 1556.729
498.626;  795.823;   -6.315; 1741.407
499.214;  947.031;   -7.326; 2016.609
499.801; 1135.338;  -11.906; 2220.633
500.389; 1368.037;  -10.466; 2312.494
500.976; 1648.066;   -5.236; 2744.849
501.564; 2063.829;   -8.936; 3148.565
502.151; 2391.796;  -13.176; 3515.999
502.738; 2779.770;  -10.646; 3971.274
503.326; 3200.454;   -9.525; 4403.796
503.913; 3605.750;  -10.856; 5161.749
504.500; 3976.320;  -11.586; 5986.420
505.088; 4346.864;  -10.336; 6381.201
505.675; 4866.645;   -6.355; 6925.547
506.262; 5519.262;   -9.046; 7619.060
506.849; 6257.529;  -10.416; 8733.969
507.436; 6794.567;  -10.305; 9790.121
508.023; 7330.460;   -5.496; 9985.472
508.610; 7555.664;   -7.856;10434.618
509.197; 8177.484;  -10.097;11198.435
509.784; 9473.192;  -10.886;12391.194
510.371;10674.890;   -9.315;13603.713
510.958;11474.604;   -9.936;14426.586
511.545;12186.945;   -9.326;15243.775
512.132;12943.731;  -10.075;15945.876
512.719;13331.193;   -7.796;16340.369
513.305;14416.696;  -10.606;18011.766
513.892;15144.724;  -11.486;19754.971
514.479;16273.762;   -9.126;20967.805
515.066;17852.719;   -6.026;22299.793
515.652;19653.463;   -8.466;22908.660
516.239;20739.910;  -10.886;23798.875
516.825;21341.725;  -11.496;25567.275
517.412;22125.688;   -5.796;28154.959
517.998;22951.887;  -10.506;28344.111
518.585;23096.264;  -10.076;27134.219
519.171;23789.549;   -8.315;27268.576
519.758;25588.121;   -8.596;28964.129
520.344;27716.893;   -8.466;30664.494
520.930;27493.873;  -11.006;32550.605
521.516;28052.080;  -10.495;35422.895
522.103;29712.059;   -5.526;38280.004
522.689;30058.563;   -8.746;37835.117
523.275;30080.959;  -11.376;37288.613
523.861;32289.064;  -11.156;37281.395
524.447;34042.574;   -8.135;37846.949
525.033;33751.473;   -7.896;38321.949
525.619;34059.844;  -12.476;38579.285
526.205;35473.203;   -9.516;40622.875
526.791;38134.965;   -6.926;42258.836
527.377;38100.230;   -8.346;42966.902
527.963;38829.449;   -8.717;42018.949
528.549;38447.039;  -11.016;42476.828
529.135;37160.227;   -8.536;41854.852
529.721;35855.605;   -9.666;41237.711
530.306;34991.918;  -10.066;41259.445
530.892;34934.684;  -11.356;41506.047
531.478;36174.770;   -6.596;43559.613
532.063;39625.488;   -8.836;47695.563
532.649;41322.586;  -10.047;50808.324
533.235;41525.977;   -9.746;51787.500
533.820;40793.613;   -6.566;52145.035
534.406;42356.648;  -10.817;51133.488
534.991;42552.344;   -9.416;49996.805
535.576;40816.469;   -9.036;48882.852
536.162;41631.066;   -6.156;46942.285
536.747;42773.578;  -11.607;45711.746
537.333;45074.063;  -11.787;48510.180
537.918;48155.031;  -12.437;50439.891
538.503;48120.164;   -7.196;50863.711
539.088;44777.426;  -10.556;50906.922
539.673;44183.324;   -8.767;52621.965
540.259;45208.563;  -10.026;52368.094
540.844;42877.156;   -7.416;50879.109
541.429;44631.297;   -9.467;52077.777
542.014;46529.207;   -9.527;52716.695
542.599;45535.914;   -9.946;52363.281
543.184;42671.551;   -7.927;53187.137
543.769;43238.219;   -9.297;54697.605
544.354;43560.957;  -10.127;53913.914
544.938;42411.723;   -9.267;49680.164
545.523;44005.652;   -6.506;47386.277
546.108;47040.055;   -9.787;49151.949
546.693;48506.723;  -11.587;51384.637
547.278;48928.309;  -10.986;51853.254
547.862;46550.363;   -8.206;51173.750
548.447;42349.492;  -10.067;51691.395
549.031;41399.141;   -9.637;52456.703
549.616;45404.555;   -9.926;52714.516
550.201;45551.121;   -6.347;52414.598
550.785;46649.711;   -7.917;52355.059
551.370;45857.961;  -10.867;54589.453
551.954;44991.332;   -9.047;58267.348
552.538;45958.383;   -7.827;59062.176
553.123;44851.266;  -10.287;58115.285
553.707;42294.844;  -12.178;56556.285
554.291;43804.340;   -8.717;56201.668
554.876;47458.531;   -7.457;55335.762
555.460;47299.488;  -10.387;54155.703
556.044;46932.156;   -9.618;53721.484
556.628;44794.777;  -11.567;53731.016
557.212;43714.051;   -8.097;54312.531
557.796;42870.660;  -11.077;53797.773
558.380;43244.137;  -11.108;56145.984
558.964;43130.285;   -9.057;57277.930
559.548;44461.707;   -6.977;56459.641
560.132;42718.230;  -11.457;54434.543
560.716;40546.547;  -11.378;54800.617
561.300;41132.031;   -9.577;57606.945
561.884;42297.457;   -7.127;58972.445
562.467;40166.676;   -7.118;57327.570
563.051;39630.922;  -13.358;54962.434
563.635;41665.328;  -10.178;52594.473
564.219;42126.426;   -7.837;50610.410
564.802;42713.418;  -11.398;49551.180
565.386;42111.605;  -12.788;48370.953
565.969;41246.660;   -9.077;48178.871
566.553;39727.613;   -6.207;49957.305
567.136;40688.316;   -8.568;50369.594
567.720;38263.750;  -11.868;49492.004
568.303;36347.680;   -8.268;50616.352
568.887;36372.941;   -8.698;50727.148
569.470;37064.473;   -6.808;51698.379
570.053;36413.078;  -13.188;52122.078
570.637;33944.633;  -12.037;52536.438
571.220;33768.816;   -8.577;51186.098
571.803;35077.789;   -8.498;51032.762
572.386;36795.402;  -10.498;49609.887
572.969;38797.234;   -9.388;48285.926
573.552;37633.598;   -8.338;47624.285
574.135;36200.242;   -8.518;45498.641
574.718;33722.527;  -13.628;41970.434
575.301;33250.090;  -10.893;41447.137
575.884;32777.656;   -8.158;40923.836
576.467;34016.594;  -10.328;45267.723
577.050;34951.926;  -13.058;48175.543
577.633;35883.438;   -9.458;47729.328
578.216;35358.809;   -8.928;47579.793
578.799;34552.531;   -9.358;47820.996
579.381;33629.965;  -11.388;48115.551
579.964;30961.887;  -11.718;47333.766
580.547;32983.188;   -8.588;46668.969
581.129;33864.504;   -8.859;44466.141
581.712;34842.508;  -10.729;44164.922
582.294;35278.727;  -11.118;46477.855
582.877;35073.559;   -5.218;48244.254
583.459;33426.234;   -8.679;47437.895
584.042;31375.043;  -10.709;46943.219
584.624;30707.824;  -11.669;46792.227
585.206;30050.420;   -8.218;46557.250
585.789;29243.412;  -10.569;45793.773
586.371;29439.375;  -11.859;43836.391
586.953;27883.568;  -10.719;42972.492
587.536;27699.420;   -7.198;42487.211
588.118;30898.504;   -8.720;42086.414
588.700;30618.672;  -10.439;43389.930
589.282;31275.641;   -9.198;43646.039
589.864;32968.680;   -9.199;43438.109
590.446;34719.840;  -11.319;43151.926
591.028;35028.434;  -11.159;42781.867
591.610;33470.309;  -11.779;42839.098
592.192;30383.492;   -7.668;42820.402
592.774;28962.008;  -11.949;40724.277
593.356;27993.549;  -12.129;39874.789
593.937;26932.727;  -10.669;39980.648
594.519;28999.162;   -6.509;42069.633
595.101;31031.584;  -10.849;42976.031
595.683;31108.844;  -11.679;44084.441
596.264;31752.064;   -9.049;43478.797
596.846;31887.807;   -8.849;43803.672
597.427;32130.287;   -9.570;42986.934
598.009;33375.902;  -12.620;42832.219
598.591;33612.883;  -10.039;42580.086
599.172;33403.676;  -10.369;43061.805
599.753;33645.066;   -9.140;41691.469
600.335;34896.609;  -11.430;40692.520
600.916;33083.555;   -9.939;39982.422
601.498;30904.330;   -8.479;40318.617
602.079;29501.787;  -10.920;40670.609
602.660;28911.984;  -11.480;41450.898
603.241;30626.703;  -11.699;41137.738
603.823;29563.283;   -9.579;38868.797
604.404;28048.891;  -10.620;38182.785
604.985;29816.557;  -10.450;38078.047
605.566;30606.930;   -9.129;38056.633
606.147;30613.475;   -7.510;37020.418
606.728;31817.303;  -10.660;37883.359
607.309;30238.613;  -11.740;38748.273
607.890;30233.818;   -9.759;38850.230
608.471;29867.461;   -8.250;37457.918
609.051;29135.795;   -9.240;36066.457
609.632;27959.492;  -12.120;35991.074
610.213;27856.482;   -9.110;37402.641
610.794;28645.182;   -8.030;38383.363
611.374;28670.891;   -8.110;40562.387
611.955;29854.350;  -13.560;38533.727
612.536;31274.014;  -11.400;36951.789
613.116;30586.705;   -8.070;37197.891
613.697;31011.520;  -10.830;38411.125
614.277;29076.029;  -11.641;38673.938
614.858;29552.674;  -13.310;37075.863
615.438;29352.602;   -7.460;35092.906
616.019;27649.240;   -7.601;33666.301
616.599;27857.648;  -12.020;34189.023
617.179;29376.322;  -11.780;36952.047
617.760;30542.121;   -8.570;39582.574
618.340;31233.510;  -11.471;38943.977
618.920;32087.119;  -11.170;37594.156
619.500;32037.246;  -11.071;37866.938
620.080;30795.104;   -7.750;37869.043
620.660;31683.654;  -12.711;36868.617
621.241;33453.520;  -10.211;36352.309
621.821;34366.098;  -10.961;35459.520
622.401;33193.750;   -7.720;35207.414
622.980;31846.502;   -8.981;35980.422
623.560;30415.760;   -9.331;37351.328
624.140;29004.533;   -9.850;34388.582
624.720;24623.676;   -7.451;32368.764
625.300;21578.781;   -9.070;32638.629
625.880;24821.967;  -12.601;34599.035
626.459;28620.664;  -11.751;36831.738
627.039;31256.531;   -9.281;38299.098
627.619;31162.641;   -8.801;38289.574
628.198;29937.869;  -12.071;37220.695
628.778;29100.172;   -9.461;37632.563
629.357;29515.484;   -8.491;38003.012
629.937;29857.266;   -9.721;38402.039
630.516;29527.549;   -9.951;37868.801
631.096;29548.445;  -11.731;35760.410
631.675;30946.951;   -8.572;35225.219
632.254;35817.344;  -11.282;35130.289
632.834;35778.105;  -13.322;35794.570
633.413;34335.457;  -10.301;35788.922
633.992;32276.490;   -8.582;34532.863
634.571;32447.984;   -8.352;33590.113
635.151;35027.371;  -11.912;34943.863
635.730;34055.340;  -10.511;35352.523
636.309;30740.328;   -7.731;35366.605
636.888;27839.639;   -9.952;36165.637
637.467;27730.246;  -11.672;37515.902
638.046;28968.773;   -8.901;39288.695
638.625;31699.441;   -7.912;38279.699
639.204;31716.791;  -10.022;37741.598
639.782;30722.619;  -12.252;38364.551
640.361;27428.670;  -10.041;36740.621
640.940;24965.084;  -11.161;34950.082
641.519;25852.518;   -9.701;34137.398
642.097;28648.059;  -11.271;35654.258
642.676;30945.844;   -8.651;35637.957
643.255;32485.521;   -8.711;36567.074
643.833;32130.967;   -9.581;37809.434
644.412;32091.533;  -13.711;37337.293
644.990;30837.418;  -11.811;37018.531
645.569;30139.084;   -9.411;36518.469
646.147;29860.756;  -10.291;36186.430
646.726;30572.799;  -12.401;36267.688
647.304;31724.268;  -10.411;36647.625
647.882;32573.953;   -9.651;39286.742
648.461;33907.840;   -9.631;39157.703
649.039;32703.508;  -11.881;35412.883
649.617;31800.756;   -9.661;34744.918
650.195;30797.252;   -9.301;35403.098
650.773;29581.441;  -10.511;35053.797
651.352;27203.570;  -11.521;33756.816
651.930;24756.521;  -12.211;31868.773
652.508;23451.055;   -9.171;33121.551
653.086;27237.164;   -9.371;33564.793
653.663;30584.135;  -13.161;34054.668
654.241;29053.016;  -13.031;35693.309
654.819;29921.029;   -9.371;36422.906
655.397;29724.125;  -10.511;38213.484
655.975;29295.641;  -10.371;39507.625
656.553;29254.318;  -10.051;39498.223
657.130;27998.824;  -10.061;40395.480
657.708;27094.803;   -9.561;39242.020
658.286;27158.729;  -11.511;38920.020
658.863;28536.834;  -10.261;40202.898
659.441;31905.354;   -7.531;39677.938
660.018;32097.943;   -9.501;40413.355
660.596;30655.742;  -13.301;39931.414
661.173;31810.242;  -11.211;39604.531
661.750;32223.889;   -9.951;39700.070
662.328;30951.344;   -9.390;39292.809
662.905;29974.627;  -11.330;38235.648
663.482;26359.816;   -9.050;36212.305
664.060;24393.813;   -8.240;35944.945
664.637;27123.676;  -10.050;35170.785
665.214;28399.408;  -11.760;34197.523
665.791;30177.676;  -10.530;34549.520
666.368;29801.533;   -9.690;35118.578
666.945;30046.932;   -9.320;36019.418
667.522;31370.373;  -11.860;36048.438
668.099;31085.457;  -10.770;36243.914
668.676;29704.518;   -6.260;35958.875
669.253;28395.008;   -7.000;37384.730
669.830;28496.523;  -10.190;36779.629
670.407;28619.654;   -9.550;35231.289
670.984;28388.064;   -9.260;35544.270
671.560;29378.566;   -9.280;35466.867
672.137;29013.406;  -11.810;34280.863
672.714;29941.793;  -11.490;34632.863
673.290;31293.668;   -7.740;35135.422
673.867;31298.080;  -10.660;36114.480
674.443;31355.484;  -12.230;36152.859
675.020;29365.502;  -10.450;35327.238
675.596;29799.545;   -9.260;35795.176
676.173;30344.332;  -10.780;35430.355
676.749;29972.855;  -13.690;33549.516
677.326;29745.643;  -11.980;32210.012
677.902;29523.047;   -8.630;32068.871
678.478;29104.311;  -10.730;32583.891
679.054;28058.838;  -10.520;32088.928
679.631;28249.760;  -11.920;30978.848
680.207;29772.918;   -7.490;33160.887
680.783;31392.922;   -9.860;35570.363
681.359;30547.352;  -13.380;36125.184
681.935;30262.264;  -12.480;35240.922
682.511;30526.635;   -7.900;34429.961
683.087;31081.330;   -7.710;34463.680
683.663;30126.600;  -11.480;34648.898
684.239;28695.459;  -14.090;34546.457
684.815;27924.203;   -7.560;35586.375
685.390;27721.818;   -9.910;35821.895
685.966;28254.463;  -11.159;35085.871
686.542;30441.354;  -11.169;34198.230
687.118;33058.723;   -5.959;32847.707
687.693;34093.887;  -10.329;32794.027
688.269;33825.004;  -12.059;33072.367
688.844;32047.354;  -10.909;33141.664
689.420;30008.951;   -8.019;33965.742
689.995;28302.523;   -8.399;34655.523
690.571;26827.359;  -10.949;33576.742
691.146;26775.219;   -9.619;32657.219
691.722;26901.967;   -8.999;32526.979
692.297;26129.086;  -11.589;33014.617
692.872;27036.861;  -11.739;34012.254
693.448;27092.895;  -11.059;34237.434
694.023;26166.859;  -10.139;34142.672
694.598;27875.449;   -9.029;34132.031
695.173;28849.627;  -13.319;34205.250
695.748;27722.779;  -10.169;32882.488
696.323;27646.514;   -8.339;32864.906
696.898;27961.627;   -8.169;33170.004
697.473;28387.223;  -12.309;32432.984
698.048;27872.469;  -10.989;31649.303
698.623;27400.984;   -9.329;30778.141
699.198;28569.953;   -9.849;31140.119
699.773;30118.729;  -12.329;31764.299
700.348;28941.898;  -10.389;31780.816
700.922;28910.549;   -9.269;32046.375
701.497;30263.615;   -9.329;32603.574
702.072;30892.658;  -10.789;34799.871
702.646;29295.393;  -10.839;35793.172
703.221;26619.744;   -9.099;35201.590
703.795;28355.959;  -10.939;34764.527
704.370;29054.941;  -12.859;34307.367
704.944;29103.113;  -11.559;33509.887
705.519;29546.865;   -7.939;31388.584
706.093;30632.885;  -10.499;31340.104
706.668;31302.963;  -11.289;32630.281
707.242;30289.006;  -11.509;32728.779
707.816;29104.613;   -9.639;32947.238
708.390;27586.072;  -11.429;33277.855
708.965;27790.043;  -11.869;33834.336
709.539;27449.025;  -11.689;33709.273
710.113;27498.900;  -10.478;33044.313
710.687;27347.127;  -10.228;31953.992
711.261;26112.943;  -13.698;30505.949
711.835;25772.793;  -13.378;30262.369
712.409;25707.680;   -9.698;31254.447
712.983;27698.434;  -11.898;32754.986
713.557;29270.191;  -15.138;34018.824
714.131;29332.174;  -14.098;34579.625
714.704;28402.031;   -9.958;33890.262
715.278;25834.648;  -10.028;33531.102
715.852;24365.381;  -11.148;33601.660
716.425;25344.805;   -9.068;33515.117
716.999;26531.758;  -10.038;33185.555
717.573;27394.816;   -9.798;33905.996
718.146;28551.186;  -12.378;35199.293
718.720;28834.746;  -11.918;35060.551
719.293;28726.492;   -8.088;34973.230
719.867;31692.900;  -10.888;36394.449
720.440;31774.379;  -11.938;36663.008
721.013;30129.451;  -12.818;35102.426
721.587;28446.887;  -10.298;33985.266
722.160;27036.473;  -10.048;33524.965
722.733;25885.068;  -12.108;32987.043
723.306;25920.764;  -10.818;33066.301
723.880;28205.086;   -8.908;33399.500
724.453;31138.709;   -9.878;33468.297
725.026;30838.113;  -11.188;33816.637
725.599;27736.182;  -11.678;32797.996
726.172;26895.492;   -9.618;33187.434
726.745;27526.000;   -8.258;35136.613
727.318;28567.514;  -12.978;35751.730
727.891;29653.738;  -12.148;35890.430
728.463;29398.188;   -8.968;34822.090
729.036;27965.066;  -10.188;32895.086
729.609;28431.174;  -11.788;31823.225
730.182;25921.879;  -11.788;31445.283
730.754;23744.686;  -10.268;32373.223
731.327;24147.947;   -9.998;33676.820
731.900;24410.078;  -12.228;33417.000
732.472;24706.387;  -13.848;31978.498
733.045;26093.094;   -8.698;30368.777
733.617;26290.861;  -10.607;30574.215
734.190;26890.523;  -11.507;31280.975
734.762;25080.590;  -13.647;31674.412
735.334;23089.807;   -9.767;31247.291
735.907;23198.180;   -9.897;29876.211
736.479;23675.535;  -11.637;29808.488
737.051;23421.467;   -9.567;30233.547
737.623;23902.328;   -8.187;31469.086
738.195;23866.268;  -11.187;31784.225
738.768;25493.168;  -12.337;32120.523
739.340;26827.922;  -12.227;32094.342
739.912;26406.328;  -11.057;31312.680
740.484;24986.135;  -10.207;31946.238
741.056;23022.643;  -10.047;32984.059
741.628;23908.900;  -13.627;33897.715
742.199;26014.771;   -7.177;33213.016
742.771;24781.646;  -10.797;31369.113
743.343;22751.406;  -11.997;31865.473
743.915;21831.424;  -12.867;32388.631
744.487;21791.277;   -7.617;31079.568
745.058;21957.455;   -9.557;30570.107
745.630;22590.221;   -9.877;29970.127
746.201;24076.445;  -14.177;29186.766
746.773;25142.861;   -9.237;28805.723
747.344;24894.287;   -9.847;29591.223
747.916;22801.855;  -11.657;31412.201
748.487;22480.355;  -10.587;32194.898
749.059;23781.205;   -8.707;32533.719
749.630;24515.129;  -10.537;32158.518
750.201;23532.547;  -11.687;30855.395
750.773;21874.260;  -11.647;28622.555
751.344;21464.404;   -7.147;28405.732
751.915;22259.453;   -9.757;28461.551
752.486;22830.205;  -12.427;27842.850
753.057;21086.357;  -12.227;27845.008
753.628;19718.475;  -10.417;27728.107
754.199;20422.039;  -11.767;27381.086
754.770;21400.168;  -11.187;25882.203
755.341;21625.592;  -10.507;25886.184
755.912;22040.031;   -9.387;26050.861
756.483;21685.615;  -10.647;26798.779
757.054;20016.049;  -11.837;27048.238
757.625;18611.617;  -12.716;26294.838
758.195;18258.244;   -9.666;26142.076
758.766;17823.213;   -8.656;26392.234
759.337;18266.504;  -12.856;26334.594
759.907;19512.914;  -13.366;27579.652
760.478;20459.918;   -8.576;28352.770
761.048;20270.621;  -10.526;27325.088
761.619;19365.166;  -11.116;26460.428
762.189;19292.541;  -12.136;26029.826
762.760;20045.057;   -9.456;26430.145
763.330;21362.152;   -7.136;26670.902
763.900;21206.896;  -11.786;26603.021
764.471;19024.457;  -11.546;25542.740
765.041;17726.393;   -8.096;24358.459
765.611;17397.617;   -8.876;23991.297
766.181;17342.840;  -12.196;24470.236
766.751;18410.420;  -11.636;24845.975
767.321;18458.832;  -10.156;24533.633
767.891;16599.576;  -11.766;24916.492
768.461;15890.137;  -14.936;24776.771
769.031;16232.979;  -12.356;24757.988
769.601;18005.201;   -7.526;24181.088
770.171;18355.609;  -10.766;23670.387
770.741;17231.930;  -13.176;22960.045
771.311;16943.629;  -10.616;22917.523
771.880;17694.387;   -9.576;23562.941
772.450;17886.770;  -10.336;24216.500
773.020;17768.729;  -13.516;24140.398
773.589;16739.252;  -13.466;24414.857
774.159;15842.948;   -8.686;23858.717
774.729;15383.369;   -9.476;22942.135
775.298;15181.497;  -13.666;22324.033
775.867;14807.229;  -11.716;21140.313
776.437;15068.979;   -9.906;20838.092
777.006;14888.129;  -12.166;20599.510
777.576;14361.095;  -12.356;20508.809
778.145;14115.789;  -11.646;20732.947
778.714;14301.453;   -8.226;21062.465
779.283;13971.641;   -9.556;20949.664
779.853;13399.569;  -14.116;20508.623
780.422;13757.614;  -11.506;20649.082
780.991;13350.843;   -9.556;21527.520
781.560;12018.477;   -9.095;22632.658
782.129;11766.776;  -12.135;23048.277
782.698;11732.563;  -10.865;23438.555
783.267;11384.473;   -9.335;23267.734
783.836;11325.500;  -11.045;22415.133
784.404;12298.138;  -13.865;20443.152
784.973;13056.887;  -13.095;19699.150
785.542;13133.587;  -11.575;19763.828
786.111;12857.361;   -9.705;20341.408
786.679;12450.538;  -12.105;20207.967
787.248;12208.559;  -12.455;19516.465
787.817;12042.274;  -11.535;18900.363
788.385;11788.884;   -9.765;17879.121
788.954;11308.278;  -14.005;17658.301
789.522;10597.313;  -11.955;17788.879
790.090;10866.397;  -10.135;18118.277
790.659;11506.057;  -10.975;18338.736
791.227;11214.424;  -13.375;18508.615
791.795;11607.933;  -12.375;17898.254
792.364;11984.026;  -10.725;17295.133
792.932;12413.636;   -9.715;16822.051
793.500;12710.849;  -12.675;17040.148
794.068;12834.987;  -13.495;17179.787
794.636;13018.476;  -10.885;16664.246
795.204;12217.596;  -11.045;16524.545
795.772;12105.583;  -13.175;17274.564
796.340;11671.716;  -12.445;17891.002
796.908;11387.265;   -9.735;17648.561
797.476;11232.254;   -9.815;17064.080
798.044;10835.880;  -13.985;16672.777
798.612;10094.240;  -13.115;17023.996
799.180; 9718.343;  -10.185;16561.615
799.747; 9586.367;   -9.055;15962.773
800.315; 9246.407;  -12.385;15296.992
800.883; 9085.670;  -15.035;14801.771
801.450; 9390.274;  -10.365;14534.430
802.018; 9581.278;   -9.855;14173.248
802.585; 9593.292;  -11.905;14029.547
803.153; 9510.924;  -11.585;13836.846
803.720; 9298.316;   -9.095;13567.324
804.287; 8845.729;   -9.135;13360.622
804.855; 8315.885;  -11.604;13681.981
805.422; 8132.720;  -11.794;13536.560
805.989; 8253.929;  -10.734;13355.958
806.556; 8427.934;  -10.444;13747.896
807.124; 8657.938;  -12.764;13987.376
807.691; 8624.580;  -12.964;14038.674
808.258; 8477.916;  -11.134;14120.152
808.825; 8208.092;   -9.854;13860.111
809.392; 8331.626;  -10.504;13268.790
809.959; 7828.767;  -13.054;12680.389
810.526; 7268.767;   -8.294;12427.308
811.093; 7178.649;   -8.394;12030.105
811.659; 7844.903;  -12.304;11653.664
812.226; 8529.082;  -13.944;11637.183
812.793; 8356.542;  -10.484;11611.521
813.360; 7711.807;  -10.144;11885.181
813.926; 7359.314;  -11.684;12770.539
814.493; 7147.264;  -13.644;12677.638
815.060; 6763.350;   -9.724;11974.336
815.626; 6630.153;   -9.854;11594.715
816.193; 6937.688;  -13.254;11579.474
816.759; 6987.097;  -13.204;11666.972
817.325; 6987.586;   -9.434;11325.530
817.892; 7289.758;  -10.134;11105.369
818.458; 7734.228;  -13.474;10843.928
819.024; 7467.470;  -11.854;10714.406
819.591; 7178.466;  -10.244;10469.165
820.157; 6971.401;  -10.704;10235.523
820.723; 6428.038;  -12.324;10847.563
821.289; 6070.456;   -9.444;11040.980
821.855; 6029.223;   -8.374;10357.100
822.421; 6089.403;  -10.234; 9978.918
822.987; 6120.705;  -13.294; 9754.177
823.553; 5684.448;  -10.884;10065.755
824.119; 5373.134;   -8.884;10036.294
824.685; 5501.284;   -6.784;10029.192
825.251; 5669.882;  -12.004;10199.230
825.816; 5622.652;  -11.474; 9820.189
826.382; 5312.425;   -9.174; 9297.248
826.948; 5375.451;   -9.214; 9381.347
827.513; 5790.169;  -10.774; 9450.726
828.079; 5751.964;  -11.924; 9472.444
828.645; 5146.788;  -10.543; 9292.643
829.210; 4878.031;  -10.533; 9065.341
829.776; 4830.662;  -10.753; 9132.620
830.341; 4722.774;  -10.173; 9092.878
830.906; 4842.561;  -10.743; 9078.557
831.472; 5194.191;  -11.113; 8534.535
832.037; 5073.018;  -10.603; 8677.874
832.602; 4594.624;  -13.323; 8628.692
833.167; 4330.249;  -10.823; 8879.031
833.733; 4258.516;  -10.113; 9189.790
834.298; 4383.227;  -13.583; 9052.608
834.863; 4541.789;  -12.703; 8895.087
835.428; 4577.369;  -10.523; 8824.266
835.993; 4415.458;   -6.963; 8845.385
836.558; 4208.697;  -10.763; 8888.563
837.123; 4242.341;   -9.903; 8966.582
837.688; 4485.955;   -9.913; 8617.860
838.253; 4791.118;  -10.283; 8590.699
838.817; 5014.675;  -12.963; 8443.797
839.382; 4951.372;  -14.243; 8799.356
839.947; 4647.901;  -10.733; 8810.595
840.511; 4357.614;   -9.383; 8796.394
841.076; 3978.404;  -12.563; 8347.231
841.641; 4006.232;  -12.953; 8224.330
842.205; 4133.839;   -7.043; 8223.349
842.770; 4126.553;   -8.163; 8622.107
843.334; 4196.086;  -12.503; 8410.386
843.898; 4139.658;  -11.693; 8337.465
844.463; 4136.422;  -10.203; 8506.283
845.027; 3944.861;   -9.533; 8280.962
845.591; 3758.001;  -13.443; 8231.141
846.156; 3794.814;  -13.143; 7969.179
846.720; 3732.923;   -9.433; 7768.278
847.284; 3621.795;  -11.033; 7630.957
847.848; 3483.355;  -10.403; 7472.395
848.412; 3407.974;  -11.553; 7437.394
848.976; 3462.961;   -8.393; 7674.592
849.540; 3359.202;   -8.713; 7836.011
850.104; 3362.438;  -12.463; 7913.669
850.668; 3726.419;  -12.973; 7694.508
851.232; 3940.375;  -10.793; 7756.887
851.796; 3825.788;  -10.662; 7926.545
852.359; 3507.763;  -13.082; 7827.844
852.923; 3301.440;  -12.192; 7641.163
853.487; 3152.771;  -11.912; 7342.501
854.050; 3148.633;  -10.892; 7042.820
854.614; 3296.584;  -13.992; 7151.338
855.177; 3409.909;  -11.732; 7105.077
855.741; 3443.630;   -8.962; 6989.675
856.304; 3322.312;   -9.442; 6596.634
856.868; 3290.471;  -14.192; 6356.272
857.431; 3413.939;  -12.702; 6468.571
857.995; 3544.304;   -9.942; 6373.210
858.558; 3589.210;   -9.112; 6324.448
859.121; 3324.742;  -12.932; 6408.327
859.684; 3124.623;  -13.442; 6347.886
860.247; 3234.567;  -10.632; 6321.264
860.810; 3302.048;  -11.272; 6301.903
861.374; 3066.524;   -9.832; 6607.881
861.937; 2792.625;  -11.762; 6408.200
862.500; 2779.517;   -9.722; 6572.639
863.062; 2911.220;  -10.512; 6387.297
863.625; 3051.095;  -11.232; 6190.836
864.188; 3220.421;  -14.112; 5807.254
864.751; 3314.970;  -11.302; 5682.413
865.314; 3255.004;  -10.112; 5547.492
865.876; 3008.344;  -12.182; 5500.150
866.439; 2932.438;  -10.722; 5415.909
867.002; 2891.589;   -9.252; 5501.567
867.564; 2723.849;   -9.572; 5413.946
868.127; 2536.005;  -13.142; 5160.325
868.689; 2416.871;  -12.902; 5133.183
869.252; 2318.212;   -9.732; 5252.382
869.814; 2212.643;   -9.432; 5297.141
870.377; 2191.163;  -11.552; 5390.919
870.939; 2233.869;   -9.052; 5599.898
871.501; 2307.190;  -10.982; 5248.336
872.063; 2340.306;  -12.292; 4854.235
872.626; 2281.935;  -14.912; 4817.074
873.188; 2259.583;  -13.112; 4987.732
873.750; 2229.898;  -13.442; 4868.651
874.312; 2135.834;   -9.402; 4779.330
874.874; 2058.908;  -11.062; 4866.348
875.436; 1981.574;  -13.931; 4718.887
875.998; 1971.436;   -9.561; 4660.005
876.560; 2000.651;  -11.321; 4462.964
877.122; 1942.990;  -12.221; 4145.042
877.683; 1825.077;  -12.191; 4056.481
878.245; 1735.338;  -12.101; 3950.740
878.807; 1769.048;   -8.971; 4058.958
879.369; 1800.246;  -12.071; 3954.677
879.930; 1712.810;  -14.621; 3941.495
880.492; 1641.495;  -10.311; 4067.014
881.053; 1622.271;  -10.901; 3859.633
881.615; 1541.386;  -14.411; 3776.071
882.176; 1438.326;  -13.761; 3734.750
882.738; 1370.483;   -9.181; 3678.489
883.299; 1344.453;  -11.791; 3405.407
883.860; 1320.715;  -13.121; 3351.106
884.422; 1305.190;  -11.211; 3394.044
884.983; 1271.680;  -10.091; 3166.443
885.544; 1210.166;   -8.461; 3189.802
886.105; 1137.357;  -12.361; 3160.360
886.666; 1067.513;  -14.141; 3093.059
887.227; 1002.171;  -11.361; 2941.957
887.788;  938.583;  -11.401; 2974.836
888.349;  866.648;  -13.791; 2721.214
888.910;  855.242;  -13.191; 2696.493
889.471;  860.050;   -9.881; 2560.172
890.032;  846.591;   -9.881; 2558.190
890.593;  816.810;  -10.371; 2567.669
891.153;  787.424;  -13.301; 2460.307
891.714;  740.175;  -11.431; 2372.046
892.275;  707.861;  -11.291; 2309.505
892.835;  680.069;  -11.471; 2382.543
893.396;  633.628;  -11.541; 2295.502
893.956;  577.501;  -11.181; 2162.420
894.517;  530.965;  -11.741; 2125.439
895.077;  516.859;  -11.671; 2086.978
895.638;  519.694;  -11.311; 2126.316
896.198;  495.113;   -9.831; 1838.275
896.758;  452.102;   -8.421; 1892.813
897.319;  419.103;  -12.351; 1792.232
897.879;  404.119;  -13.511; 1762.751
898.439;  381.720;  -12.001; 1661.149
898.999;  355.159;  -10.180; 1781.468
899.559;  343.527;  -12.030; 1703.347
900.119;  338.571;  -15.710; 1537.525
900.679;  335.347;   -8.900; 1638.384
901.239;  320.066;   -8.340; 1527.902
901.799;  308.712;  -13.910; 1456.441
902.359;  303.391;  -13.460; 1357.140
902.919;  296.853;  -11.490; 1331.118
903.479;  284.746;  -12.110; 1317.257
904.038;  264.584;  -11.720; 1262.595
904.598;  249.134;  -13.610; 1152.034
905.158;  244.451;  -11.040; 1240.893
905.717;  238.303;  -10.900; 1233.691
906.277;  228.513;  -15.080; 1217.330
906.836;  218.682;  -13.380; 1222.408
907.396;  210.078;  -10.780; 1193.047
907.955;  201.476;   -8.500; 1182.526
908.515;  194.676;  -12.760; 1099.364
909.074;  189.868;  -11.900; 1092.863
909.633;  183.354;   -8.950; 1069.121
910.192;  179.226;   -8.770; 1196.460
910.752;  173.250;  -12.390; 1029.960
911.311;  169.139;  -13.680; 1009.780
911.870;  166.530;  -12.370;  971.460
912.429;  166.743;  -10.900; 1094.080
912.988;  165.072;  -11.690; 1081.060
913.547;  162.023;  -13.240;  940.380
914.106;  158.443;  -11.990;  999.420
914.665;  153.442;   -9.990;  984.020
915.224;  151.870;  -12.880; 1035.760
915.782;  153.346;  -12.350;  922.560
916.341;  153.109;   -9.110; 1049.840
916.900;  147.971;   -9.270;  925.260
917.458;  144.926;  -13.240;  884.220
918.017;  145.579;  -13.550;  942.600
918.576;  145.397;  -12.320;  904.440
919.134;  143.263;  -11.490;  837.980
919.693;  141.189;  -13.670;  893.060
920.251;  141.185;  -15.470;  876.500
920.809;  140.044;  -11.290;  839.580
921.368;  139.713;  -10.210;  885.360
921.926;  137.792;  -12.140;  842.940
922.484;  136.948;  -13.080;  903.360
923.042;  136.205;  -11.720;  880.340
923.601;  138.636;   -7.480;  998.680
924.159;  137.822;  -11.570;  935.560
924.717;  134.331;  -13.840;  841.080
925.275;  135.027;  -10.640;  903.240
925.833;  132.745;  -11.540;  779.320
926.391;  134.516;  -12.960;  938.380
926.949;  132.828;  -14.130;  857.680
927.506;  134.781;  -11.750;  903.500
928.064;  133.533;  -10.250;  877.580
928.622;  131.777;  -13.030;  880.100
929.180;  131.827;  -13.400;  814.180
929.737;  134.158;  -10.700;  808.540
930.295;  136.622;  -10.070;  928.480
930.853;  137.852;  -11.960;  849.100
931.410;  139.605;  -13.120;  821.120
931.968;  139.654;  -10.770;  940.660
932.525;  139.408;  -10.680;  909.380
933.082;  139.201;  -13.130;  811.440
933.640;  140.092;  -13.210;  925.900
934.197;  139.401;  -11.060;  886.360
934.754;  140.104;   -9.580;  897.780
935.312;  141.970;  -14.000;  863.340
935.869;  147.032;  -10.710; 1012.980
936.426;  147.426;   -9.860;  872.800
936.983;  148.920;   -9.710;  889.020
937.540;  147.953;  -13.990;  838.280
938.097;  148.767;  -14.040;  940.120
938.654;  149.827;  -10.310;  898.860
939.211;  151.793;  -10.560;  952.480
939.768;  153.540;  -13.900;  915.420
940.324;  157.855;  -14.760;  904.200
940.881;  159.951;  -10.370;  878.500
941.438;  161.468;   -8.260; 1021.200
941.995;  157.651;  -12.540;  992.560
942.551;  154.741;  -14.670;  875.620
943.108;  153.803;  -10.450;  937.920
943.664;  156.061;  -10.750;  869.340
944.221;  159.054;  -11.550; 1088.140
944.777;  156.722;  -14.770;  869.680
945.334;  157.710;  -12.820;  884.840
945.890;  158.552;  -10.130;  946.480
946.446;  158.127;  -13.470;  947.020
947.003;  160.299;  -12.120;  964.940
947.559;  163.448;   -9.980; 1063.040
948.115;  163.497;   -9.080; 1026.540
948.671;  160.516;  -10.830;  967.300
949.227;  158.226;  -12.440;  859.560
949.783;  156.593;  -12.910;  858.900
950.339;  159.079;  -10.270;  991.000
950.895;  158.353;  -13.630; 1023.840
951.451;  157.310;  -15.100;  925.280
952.007;  157.409;  -11.330;  998.540
952.563;  157.530;  -10.580;  937.780
953.118;  154.000;  -13.440;  904.940
953.674;  154.470;  -12.710;  935.780
954.230;  155.714;  -10.350;  949.640
954.785;  153.046;   -9.190;  936.640
955.341;  150.333;  -11.200;  998.160
955.897;  148.888;  -16.560;  834.660
956.452;  152.123;  -12.570;  953.840
957.008;  150.905;   -7.970; 1083.640
957.563;  148.441;  -11.940; 1009.540
958.118;  143.042;  -13.450;  877.700
958.674;  142.973;  -12.030;  946.780
959.229;  144.261;   -9.410; 1013.980
959.784;  140.980;  -12.000;  832.400
960.339;  141.270;  -14.780; 1001.280
960.894;  138.551;   -9.860;  963.760
961.449;  135.110;   -9.970;  859.960
962.004;  134.310;  -10.900; 1212.840
962.559;  128.095;  -13.150;  860.140
963.114;  126.413;  -13.740;  742.480
963.669;  125.133;   -9.820;  915.500
964.224;  123.660;  -13.890;  874.340
964.779;  123.379;  -12.600;  828.420
965.334;  124.940;  -10.950; 1017.860
965.888;  124.169;  -11.170;  875.360
966.443;  125.922;  -12.540;  972.380
966.998;  128.218;  -15.780;  819.460
967.552;  127.579;   -9.760;  908.380
968.107;  123.656;   -9.060;  868.300
968.661;  123.757;  -11.950;  922.440
969.216;  124.332;  -12.800;  856.280
969.770;  124.327;  -11.210;  917.200
970.324;  122.431;  -11.610;  923.140
970.879;  119.390;  -11.370;  947.180
971.433;  117.028;  -12.540;  952.720
971.987;  113.324;  -11.320;  895.340
972.541;  109.223;  -10.720;  917.100
973.095;  107.860;   -9.680; 1009.460
973.649;  106.382;  -11.440;  809.480
974.203;  106.440;  -11.210;  829.040
974.757;  105.604;  -10.240;  855.220
975.311;  104.789;  -13.720;  872.600
975.865;  104.427;  -13.770;  881.820
976.419;  101.885;  -11.690;  857.400
976.973;   99.994;   -9.510;  849.620
977.526;   98.765;  -12.620;  949.920
978.080;   90.743;  -12.010;  796.780
978.634;   85.353;  -10.170;  921.320
979.187;   77.848;   -9.020;  905.400
979.741;   75.792;   -9.820; 1018.380
980.294;   73.654;  -14.870;  789.160
980.848;   74.105;  -12.380;  717.220
981.401;   77.309;  -10.350;  816.540
981.955;   78.877;  -13.720;  844.300
982.508;   79.760;  -11.490;  746.340
983.061;   82.246;  -10.000;  915.260
983.615;   79.763;  -11.480;  798.800
984.168;   77.119;  -13.220;  770.080
984.721;   76.937;  -13.960;  880.760
985.274;   78.448;  -10.870;  867.500
985.827;   76.868;   -9.790;  834.220
986.380;   74.437;  -13.120;  721.340
986.933;   74.050;  -12.450;  864.800
987.486;   73.951;  -10.210;  861.920
988.039;   73.329;   -8.430;  863.100
988.591;   71.061;  -10.520;  893.260
989.144;   69.731;  -14.860;  737.260
989.697;   69.492;  -13.080;  758.740
990.250;   69.492;  -10.150;  858.100
990.802;   67.585;  -13.430;  755.860
991.355;   69.349;  -12.750;  974.880
991.907;   67.332;  -12.040;  864.320
992.460;   65.315;  -11.330;  753.760
993.012;   64.043;  -13.610;  749.540
993.565;   63.967;  -13.460;  711.360
994.117;   65.649;   -9.360;  950.780
994.669;   61.107;  -11.300;  701.320
995.221;   58.073;  -13.540;  791.920
995.774;   57.082;  -13.430;  787.580
996.326;   57.701;  -12.520;  740.220
996.878;   57.419;  -10.950;  838.420
997.430;   54.091;  -14.300;  699.860
997.982;   54.519;  -13.760;  750.140
998.534;   54.560;  -11.530;  739.060
999.086;   52.492;  -10.310;  738.220
999.638;   51.023;  -12.530;  661.380
1000.190;   50.686;  -11.840;  699.320
1000.741;   51.671;  -10.260;  742.700
1001.293;   50.716;   -8.860;  686.020
1001.845;   48.299;  -13.700;  676.640
1002.396;   49.527;  -12.100;  743.400
1002.948;   49.744;  -12.760;  737.400
1003.500;   47.789;  -10.380;  723.780
1004.051;   47.449;  -11.900;  907.580
1004.603;   45.674;  -12.250;  791.820
1005.154;   43.046;  -13.210;  608.980
1005.705;   42.106;  -10.950;  723.960
1006.257;   40.724;  -13.880;  707.220
1006.808;   41.376;  -12.840;  685.460
1007.359;   41.442;  -10.570;  763.240
1007.910;   39.811;   -9.620;  646.640
1008.461;   39.022;  -13.630;  732.940
1009.013;   37.872;  -17.200;  588.340
1009.564;   40.233;  -10.200;  793.520
1010.115;   37.534;  -12.570;  597.040
1010.665;   36.533;  -15.150;  602.160
1011.216;   36.947;  -14.480;  667.920
1011.767;   36.796;  -11.340;  697.920
1012.318;   36.746;   -9.780;  736.980
1012.869;   34.671;  -12.380;  679.000
1013.419;   34.757;  -15.560;  603.120
1013.970;   36.397;  -11.010;  666.640
1014.521;   34.288;  -11.610;  620.620
1015.071;   33.664;  -13.450;  670.380
1015.622;   34.150;  -13.870;  635.460
1016.172;   34.964;  -11.610;  596.820
1016.723;   33.704;  -12.120;  614.380
1017.273;   32.567;  -13.620;  604.160
1017.823;   32.797;  -14.140;  650.340
1018.374;   33.236;  -12.800;  611.760
1018.924;   32.626;  -12.340;  716.880
1019.474;   32.294;  -11.410;  718.880
1020.024;   31.507;  -14.770;  657.580
1020.574;   33.148;   -9.780;  726.160
1021.124;   32.562;   -8.560;  673.580
1021.674;   30.264;  -15.190;  559.120
1022.224;   32.434;  -13.530;  708.940
1022.774;   32.509;  -13.280;  668.820
1023.324;   31.908;  -10.690;  753.520
1023.874;   32.304;  -10.240;  875.760
1024.423;   30.647;  -12.540;  613.700
1024.973;   30.422;  -10.010;  610.760
1025.523;   29.419;  -10.550;  620.960
1026.072;   29.055;  -13.560;  606.420
1026.622;   28.551;  -15.120;  675.740
1027.172;   30.613;  -11.260;  715.660
1027.721;   28.921;  -11.410;  601.220
1028.270;   28.518;  -13.530;  663.400
1028.820;   28.790;  -13.680;  638.080
1029.369;   29.423;  -13.520;  612.700
1029.918;   28.785;  -10.980;  649.840
1030.468;   27.672;  -13.530;  564.780
1031.017;   28.407;  -13.170;  634.800
1031.566;   27.843;  -12.200;  608.900
1032.115;   28.367;   -9.960;  694.500
1032.664;   26.432;  -13.210;  596.480
1033.213;   28.106;  -12.500;  735.420
1033.762;   27.737;  -11.910;  635.620
1034.311;   26.574;   -9.640;  677.220
1034.860;   26.525;  -13.310;  691.000
1035.408;   27.166;  -11.830;  722.720
1035.957;   27.898;  -12.000;  719.540
1036.506;   26.290;  -11.690;  530.800
1037.055;   27.674;  -10.990;  844.320
1037.603;   26.013;  -15.120;  664.000
1038.152;   25.424;  -12.450;  534.760
1038.700;   25.359;  -10.560;  585.740
1039.249;   24.766;  -11.080;  681.220
1039.797;   25.186;  -12.540;  633.360
1040.345;   25.995;  -11.920;  705.420
1040.894;   25.079;  -11.410;  625.300
1041.442;   23.934;  -14.320;  632.200
1041.990;   23.607;  -16.240;  559.160
1042.538;   23.876;  -11.680;  536.180
1043.087;   23.496;  -10.760;  570.860
1043.635;   24.186;  -11.850;  670.500
1044.183;   23.193;  -15.480;  586.400
1044.731;   23.949;  -11.770;  576.000
1045.279;   22.909;  -13.090;  674.920
1045.827;   24.492;  -12.440;  892.400
1046.374;   21.660;  -13.840;  515.420
1046.922;   22.095;  -13.220;  590.580
1047.470;   24.195;  -10.230;  691.300
1048.018;   21.770;  -14.590;  647.960
1048.565;   23.193;  -12.050;  708.600
1049.113;   22.394;  -11.650;  557.000
1049.660;   21.763;  -10.510;  629.660
1050.208;   21.786;  -13.310;  675.640
1050.755;   20.661;  -15.900;  606.580
1051.303;   22.727;  -11.430;  686.820
1051.850;   21.414;   -8.480;  635.120
1052.397;   19.028;  -15.010;  473.960
1052.945;   20.327;  -13.960;  617.760
1053.492;   21.864;  -13.150;  741.840
1054.039;   22.074;   -9.630;  720.180
1054.586;   20.331;  -13.680;  557.240
1055.133;   21.496;  -14.570;  693.140
1055.680;   20.979;  -13.820;  646.620
1056.227;   19.933;  -11.730;  542.780
1056.774;   21.131;  -12.480;  794.980
1057.321;   18.843;  -13.930;  523.260
1057.868;   20.065;  -11.690;  651.320
1058.415;   20.321;   -9.520;  651.980
1058.961;   19.046;  -13.160;  678.940
1059.508;   19.315;  -12.920;  643.820
1060.055;   19.458;  -11.920;  581.780
1060.601;   20.608;  -11.500;  624.300
1061.148;   18.845;  -14.330;  616.820
1061.694;   18.571;  -16.870;  592.580
1062.241;   19.267;  -10.330;  596.320
1062.787;   18.981;  -10.620;  663.140
1063.334;   19.568;  -10.110;  808.560
1063.880;   18.874;  -13.400;  668.360
1064.426;   19.323;  -10.680;  706.820
1064.972;   18.180;   -9.920;  601.340
1065.518;   15.934;  -10.980;  566.640
1066.065;   18.106;  -14.890;  624.460
1066.611;   17.766;  -12.870;  598.800
1067.157;   18.174;  -12.950;  641.860
1067.703;   16.971;  -13.540;  668.480
1068.249;   17.310;  -13.540;  605.220
1068.794;   17.753;  -12.600;  626.880
1069.340;   16.894;  -10.620;  578.960
1069.886;   16.788;  -12.830;  590.700
1070.432;   15.262;  -14.870;  541.720
1070.977;   16.171;  -11.980;  601.080
1071.523;   16.324;   -8.200;  573.060
1072.068;   16.559;  -12.330;  582.000
1072.614;   15.946;  -16.370;  527.760
1073.160;   17.186;  -11.100;  687.040
1073.705;   15.327;  -10.480;  572.520
1074.250;   14.857;  -14.520;  559.900
1074.796;   16.118;  -11.460;  655.160
1075.341;   17.075;  -11.950;  664.100
1075.886;   16.279;  -11.460;  594.240
1076.431;   14.470;  -13.770;  649.880
1076.976;   15.024;  -12.680;  639.220
1077.521;   15.104;  -13.170;  583.080
1078.067;   14.435;  -10.860;  579.400
1078.612;   14.496;  -13.920;  661.620
1079.156;   13.848;  -13.880;  601.540
1079.701;   15.949;  -13.120;  693.260
1080.246;   15.500;   -9.940;  696.300
1080.791;   14.175;  -14.740;  625.020
1081.336;   14.553;  -13.750;  659.320
1081.880;   14.786;  -13.400;  649.680
1082.425;   13.669;  -12.220;  573.480
1082.970;   14.511;  -11.610;  717.040
1083.514;   13.342;  -13.580;  597.000
1084.059;   13.591;  -12.810;  586.720
1084.603;   13.465;  -12.320;  565.840
1085.147;   12.488;  -13.190;  645.220
1085.692;   13.580;  -12.480;  716.800
1086.236;   12.487;  -13.020;  503.140
1086.780;   14.716;   -9.190;  751.440
1087.325;   12.714;  -12.480;  654.620
1087.869;   12.720;  -12.450;  610.700
1088.413;   14.314;  -12.240;  705.040
1088.957;   12.299;   -9.020;  543.400
1089.501;   12.897;  -10.320;  766.640
1090.045;   11.997;  -12.720;  726.480
1090.589;   11.430;  -13.690;  569.920
1091.133;   12.528;  -10.020;  673.340
1091.676;   11.700;  -12.330;  591.940
1092.220;   11.168;  -14.970;  600.920
1092.764;   13.393;  -12.430;  706.960
1093.307;   13.114;   -9.800;  673.780
1093.851;   10.366;  -14.970;  556.540
1094.395;   11.316;  -15.310;  683.140
1094.938;   11.810;  -10.370;  632.520
1095.482;   11.260;  -11.050;  559.800
1096.025;   11.222;  -11.840;  710.880
1096.568;   11.640;  -12.840;  779.280
1097.112;    9.942;  -14.700;  508.180
1097.655;   10.773;   -8.720;  603.000
1098.198;    9.224;  -13.610;  600.180
1098.741;    9.180;  -13.350;  612.860
1099.285;   11.070;  -11.230;  657.300
1099.828;    9.225;  -11.840;  439.400
1100.371;    9.828;  -10.840;  608.160
1100.914;    9.871;  -14.190;  682.660
1101.457;   10.245;  -11.240;  679.900
1101.999;    9.371;  -11.270;  584.680
1102.542;    9.631;  -11.480;  641.440
1103.085;    9.227;  -11.750;  658.500
1103.628;   10.329;  -11.400;  762.060
1104.170;    9.750;  -10.490;  588.280
1104.713;    9.045;  -10.600;  646.700
1105.256;    8.544;  -14.360;  557.440
1105.798;    9.018;  -13.210;  499.980
1106.341;   10.353;  -10.270;  728.900
1106.883;    7.696;  -12.200;  521.340
1107.425;    8.366;  -13.110;  668.180
1107.968;    8.804;  -12.840;  612.380
1108.510;    9.412;   -6.480;  684.960
1109.052;    6.942;  -13.940;  612.620
1109.594;    7.295;  -13.690;  554.440
1110.136;    8.682;  -11.880;  643.220
1110.679;    8.226;   -9.500;  633.080
1111.221;    8.223;  -14.160;  604.460
1111.763;    7.279;  -13.980;  559.220
1112.304;    7.656;  -13.880;  547.140
1112.846;    7.469;  -12.210;  666.240
1113.388;    9.626;  -11.390;  942.180
1113.930;    7.707;  -14.540;  694.200
1114.472;    7.970;  -12.640;  606.540
1115.013;    6.576;  -11.620;  551.280
1115.555;    5.620;  -13.640;  587.100
1116.097;    5.513;  -15.380;  579.480
1116.638;    7.810;  -12.640;  684.600
1117.180;    7.461;   -9.850;  667.740
1117.721;    6.118;  -13.690;  568.580
1118.262;    7.946;  -12.680;  677.960
1118.804;    8.024;  -12.530;  637.340
1119.345;    6.860;  -11.690;  578.400
1119.886;    7.063;  -13.380;  704.040
1120.427;    5.292;  -14.070;  589.020
1120.969;    6.298;  -13.500;  597.920
1121.510;    6.191;  -11.480;  563.060
1122.051;    6.276;  -12.830;  723.580
1122.592;    4.982;  -14.290;  655.420
1123.133;    4.980;  -12.400;  547.940
1123.673;    7.003;  -10.130;  706.480
1124.214;    4.458;  -12.930;  612.460
1124.755;    5.912;  -14.380;  639.460
1125.296;    6.057;  -14.000;  627.320
1125.836;    7.005;  -10.070;  691.500
1126.377;    4.981;  -12.640;  599.660
1126.918;    4.746;  -12.960;  614.980
1127.458;    5.277;  -13.350;  622.220
1127.999;    5.961;  -10.750;  656.980
1128.539;    4.540;  -12.350;  694.240
1129.079;    4.225;  -14.860;  632.720
1129.620;    4.287;  -13.840;  558.100
1130.160;    4.312;  -12.330;  539.480
1130.700;    4.789;  -14.530;  640.840
1131.240;    5.110;  -12.530;  643.700
1131.781;    4.303;  -14.450;  619.680
1132.321;    4.996;   -9.790;  599.120
1132.861;    2.158;  -14.860;  564.200
1133.401;    2.552;  -14.290;  593.940
1133.941;    4.090;  -11.750;  626.280
1134.481;    3.400;   -9.920;  597.580
1135.020;    2.897;  -12.290;  609.160
1135.560;    3.053;  -11.650;  674.940
1136.100;    3.372;  -16.270;  501.160
1136.640;    3.180;  -10.890;  510.480
1137.179;    2.900;  -14.180;  537.960
1137.719;    2.821;  -16.250;  605.400
1138.258;    3.549;  -14.230;  587.360
1138.798;    3.885;   -9.090;  663.780
1139.337;    1.654;  -15.130;  482.840
1139.877;    2.940;  -13.680;  642.360
1140.416;    5.170;  -11.320;  878.060
1140.955;    2.954;  -10.860;  535.380
1141.494;    2.510;  -12.920;  669.280
1142.034;    1.442;  -13.930;  583.520
1142.573;    3.122;  -11.440;  646.280
1143.112;    2.671;  -12.000;  553.480
1143.651;    2.113;  -13.670;  536.480
1144.190;    2.955;  -12.730;  691.640
1144.729;    2.552;  -14.560;  607.420
1145.267;    3.005;  -11.830;  584.900
1145.806;    2.360;  -12.230;  637.040
1146.345;    1.354;  -14.130;  635.020
1146.884;    2.061;  -11.590;  622.500
1147.422;    2.049;  -12.550;  533.060
1147.961;    2.794;  -11.180;  708.460
1148.500;    2.117;  -11.510;  669.720
1149.038;    3.999;  -11.640;  632.500
1149.577;    2.501;  -10.130;  698.640
1150.115;   -0.087;  -13.970;  452.280
1150.653;    1.261;  -14.520;  607.340
1151.192;    1.543;  -12.810;  552.920
1151.730;    2.045;   -9.100;  652.560
1152.268;    0.771;  -12.220;  589.520
1152.806;    0.426;  -14.140;  571.180
1153.344;    0.038;  -12.350;  577.640
1153.882;    1.756;   -8.980;  600.060
1154.421;   -0.348;  -15.190;  470.620
1154.958;   -0.661;  -15.210;  595.240
1155.496;    2.185;  -12.850;  645.280
1156.034;    1.355;   -9.940;  721.880
1156.572;    1.989;  -13.570;  667.060
1157.110;   -0.510;  -14.590;  473.940
1157.647;    1.357;  -13.030;  676.960
1158.185;    0.580;  -12.140;  564.320
1158.723;   -1.466;  -14.390;  509.200
1159.260;    0.647;  -14.090;  701.700
1159.798;    1.050;  -11.920;  658.160
1160.335;    0.696;  -11.110;  631.820

