
Integration time [ms]:   3.276
Averaging Nr. [scans]: 1000
Smoothing Nr. [pixels]: 0
Data measured with spectrometer [name]: 7414430SP
Wave   ;Sample   ;Dark     ;Reference
[nm]   ;[counts] ;[counts] ;[counts] 

288.544;  150.358;    7.793;  793.890
289.143;  154.551;    7.462;  681.602
289.742;  154.125;    8.602;  828.814
290.341;  139.767;    1.321;  789.841
290.940;  129.007;   -0.709;  730.702
291.538;  129.950;    0.881;  881.108
292.137;  130.421;    0.122;  792.581
292.736;  134.260;   -1.929;  975.101
293.335;  130.324;   -8.229;  735.086
293.934;  131.121;   -5.279;  781.677
294.532;  129.811;   -1.369; 1031.958
295.131;  115.624;   -7.641;  834.394
295.730;  115.415;   -8.420;  809.588
296.328;  116.379;   -5.611;  783.442
296.927;  115.412;   -5.781;  779.652
297.525;  116.099;   -6.361;  781.236
298.124;  106.790;  -11.382;  654.009
298.722;  111.629;   -7.641;  761.933
299.321;  108.474;   -6.811;  708.597
299.919;  106.562;   -6.991;  751.918
300.518;  103.162;  -10.362;  689.338
301.116;  105.620;   -9.581;  691.381
301.715;  104.734;   -4.891;  730.222
302.313;  104.362;   -8.801;  704.943
302.911;   99.235;   -8.522;  733.830
303.509;  105.367;   -6.171;  925.627
304.108;  101.724;   -7.311;  760.383
304.706;  100.485;   -8.321;  801.664
305.304;   96.486;  -10.222;  796.707
305.902;  101.580;   -6.021;  784.484
306.500;   97.443;   -4.971;  728.200
307.098;   95.010;   -7.061;  746.560
307.696;   92.767;   -8.801;  780.432
308.294;   94.538;   -6.411;  731.359
308.892;   96.280;   -2.901;  759.769
309.490;   92.386;   -5.041;  712.161
310.088;   90.554;   -5.002;  788.444
310.686;   94.810;   -2.041;  821.749
311.284;   90.019;   -2.351;  766.040
311.882;   87.613;   -4.422;  731.225
312.480;   85.917;   -4.192;  697.167
313.078;   87.079;   -1.172;  808.331
313.675;   86.725;   -2.601;  691.600
314.273;   82.228;   -1.312;  797.837
314.871;   80.309;   -3.942;  589.829
315.468;   79.644;   -2.802;  652.090
316.066;   81.903;   -0.701;  694.427
316.664;   74.891;   -4.362;  656.351
317.261;   78.860;   -2.872;  910.128
317.859;   75.188;   -2.022;  768.735
318.456;   75.757;   -0.531;  830.096
319.054;   71.342;   -3.912;  787.828
319.651;   70.656;   -4.752;  759.928
320.249;   69.532;   -2.602;  810.188
320.846;   66.415;   -0.821;  714.286
321.443;   64.307;   -4.642;  832.135
322.041;   61.383;   -5.002;  812.315
322.638;   59.279;   -3.982;  701.456
323.235;   60.964;   -3.411;  665.683
323.833;   58.042;   -7.361;  740.354
324.430;   52.354;   -8.611;  615.900
325.027;   54.590;   -4.061;  876.855
325.624;   53.647;   -4.031;  644.532
326.221;   50.402;   -7.481;  689.717
326.818;   50.099;   -5.281;  818.332
327.415;   53.304;   -7.460;  748.828
328.012;   53.343;   -5.510;  690.585
328.609;   51.333;   -7.880;  731.389
329.206;   50.035;   -8.331;  778.621
329.803;   50.158;   -5.121;  737.841
330.400;   51.794;   -4.510;  704.260
330.997;   53.310;   -6.441;  817.147
331.594;   52.306;   -8.831;  788.185
332.191;   58.211;   -7.621;  728.722
332.787;   60.842;   -4.591;  844.463
333.384;   59.340;   -7.412;  763.093
333.981;   56.890;   -8.293;  815.687
334.578;   61.022;   -7.052;  708.378
335.174;   63.537;   -3.102;  731.469
335.771;   62.822;   -5.943;  836.456
336.367;   59.677;   -7.393;  710.631
336.964;   63.625;   -4.063;  793.266
337.561;   61.035;   -3.813;  731.112
338.157;   57.252;   -4.654;  911.916
338.754;   54.986;   -7.934;  796.589
339.350;   52.847;   -4.414;  722.493
339.946;   54.215;   -4.664;  773.135
340.543;   46.211;   -6.375;  846.136
341.139;   41.978;   -9.815;  720.836
341.735;   39.255;   -4.526;  772.593
342.332;   38.052;   -4.895;  691.472
342.928;   38.028;   -4.295;  795.394
343.524;   32.693;   -5.476;  761.684
344.120;   29.377;   -5.856;  738.562
344.716;   32.144;   -2.155;  723.717
345.313;   29.202;   -6.275;  795.342
345.909;   24.176;   -8.815;  627.336
346.505;   26.240;   -5.305;  740.247
347.101;   27.266;   -2.674;  827.864
347.697;   26.610;   -4.344;  785.398
348.293;   21.562;   -9.975;  627.244
348.889;   22.637;   -5.774;  745.914
349.485;   21.472;   -5.004;  688.205
350.081;   22.744;   -4.704;  772.592
350.676;   17.009;   -6.635;  691.606
351.272;   21.615;   -4.504;  809.530
351.868;   21.960;   -3.914;  780.497
352.464;   18.405;   -9.044;  723.932
353.059;   15.025;   -8.314;  646.017
353.655;   19.163;   -7.024;  777.063
354.251;   19.973;   -5.343;  759.845
354.846;   14.425;   -8.604;  740.646
355.442;   11.534;   -6.945;  753.071
356.038;   14.022;   -7.564;  751.708
356.633;   14.401;   -5.814;  728.594
357.229;   11.958;   -7.364;  724.757
357.824;   10.475;   -8.024;  703.600
358.420;   10.060;   -9.384;  679.726
359.015;   10.129;   -5.104;  695.357
359.610;   10.294;   -6.854;  763.920
360.206;    4.588;  -10.185;  603.240
360.801;    6.729;   -7.054;  646.503
361.396;    9.456;   -5.034;  725.975
361.992;    5.809;   -8.284;  668.220
362.587;    2.188;   -8.625;  670.160
363.182;    5.097;   -7.674;  689.631
363.777;    4.919;   -5.164;  738.242
364.372;    5.354;   -8.604;  737.314
364.967;    1.608;   -9.055;  680.744
365.563;    5.932;   -6.114;  815.567
366.158;    2.720;   -5.814;  685.161
366.753;    2.478;   -7.854;  649.263
367.348;    1.280;   -7.804;  746.056
367.942;    1.629;   -7.954;  697.298
368.537;    0.961;   -4.984;  754.245
369.132;   -0.350;   -8.564;  703.428
369.727;   -3.247;   -8.855;  638.079
370.322;   -2.014;   -6.245;  580.186
370.917;   -2.766;   -6.425;  710.646
371.511;    0.264;   -6.294;  861.834
372.106;   -2.990;   -7.685;  776.964
372.701;   -5.838;   -7.335;  585.988
373.296;   -0.855;   -4.564;  863.135
373.890;   -5.275;  -10.235;  647.840
374.485;   -7.893;   -7.885;  691.199
375.079;   -3.515;   -7.324;  738.685
375.674;   -2.329;   -3.494;  812.970
376.268;   -7.074;   -8.525;  691.759
376.863;  -12.356;  -10.086;  580.327
377.457;   -6.297;   -7.025;  662.490
378.052;   -8.288;   -3.585;  764.884
378.646;   -8.950;   -7.595;  741.167
379.240;   -9.082;   -8.335;  721.176
379.835;   -8.511;   -5.785;  636.978
380.429;  -10.362;   -4.335;  562.557
381.023;  -11.127;   -6.805;  779.205
381.617;  -13.439;   -9.195;  680.106
382.212;   -9.255;   -6.905;  685.303
382.806;   -8.357;   -3.745;  760.690
383.400;  -13.026;   -7.745;  672.281
383.994;  -13.969;   -9.765;  664.870
384.588;   -9.544;   -6.564;  697.701
385.182;   -8.436;   -5.344;  726.624
385.776;  -10.346;   -8.514;  706.875
386.370;  -13.457;   -9.555;  681.968
386.964;  -11.903;   -8.715;  684.155
387.558;  -10.472;   -6.174;  598.360
388.152;  -14.227;   -8.725;  681.959
388.745;  -12.693;   -7.965;  814.707
389.339;   -9.563;   -5.924;  747.642
389.933;   -9.273;   -5.524;  695.370
390.527;  -10.196;   -7.114;  859.029
391.120;  -16.797;  -10.725;  595.318
391.714;  -13.713;   -8.035;  711.633
392.308;  -10.855;   -3.574;  780.253
392.901;  -14.426;   -7.245;  642.460
393.495;  -16.387;   -9.285;  595.414
394.089;  -13.934;   -5.895;  760.452
394.682;  -14.921;   -4.295;  697.188
395.275;  -14.940;   -9.875;  719.927
395.869;  -16.572;   -8.485;  667.314
396.462;  -14.081;   -7.455;  616.609
397.056;  -11.005;   -5.424;  776.621
397.649;  -15.589;   -6.605;  731.575
398.242;  -12.966;   -8.224;  712.645
398.836;  -12.462;   -7.474;  766.408
399.429;  -13.282;   -7.094;  631.041
400.022;  -17.602;   -9.475;  665.902
400.615;  -14.261;   -7.145;  805.609
401.208;  -11.693;   -7.174;  691.451
401.802;  -14.760;   -5.515;  699.329
402.395;  -16.073;   -9.875;  683.502
402.988;  -18.123;   -8.845;  696.627
403.581;  -13.370;   -8.874;  646.878
404.174;  -11.038;   -5.324;  686.568
404.767;  -14.758;   -9.575;  638.583
405.360;  -17.044;  -10.965;  621.445
405.953;  -10.970;   -8.764;  759.034
406.545;  -10.841;   -7.514;  725.342
407.138;  -15.373;  -10.025;  618.350
407.731;  -14.461;  -10.034;  613.303
408.324;   -9.713;   -9.374;  660.554
408.917;  -10.678;   -6.534;  681.864
409.509;  -12.534;   -8.004;  740.396
410.102;  -14.537;   -9.875;  643.948
410.695;   -7.995;   -8.604;  665.758
411.287;   -9.711;   -6.794;  599.821
411.880;  -11.323;   -9.334;  585.421
412.472;  -14.824;  -10.254;  613.092
413.065;  -11.155;   -6.714;  629.408
413.657;   -9.126;   -7.234;  576.678
414.250;   -9.282;  -10.544;  646.681
414.842;  -11.014;   -9.744;  676.353
415.434;   -8.137;   -6.994;  570.463
416.027;   -4.994;   -5.893;  652.196
416.619;   -6.892;   -7.264;  713.400
417.211;   -7.244;  -10.374;  599.352
417.804;   -3.792;   -7.993;  628.499
418.396;   -7.774;   -7.234;  607.643
418.988;   -5.159;   -9.443;  659.238
419.580;   -8.557;  -10.724;  568.276
420.172;   -6.780;  -10.323;  536.196
420.764;   -1.796;   -8.793;  672.482
421.356;   -3.367;  -11.143;  636.898
421.948;   -3.894;   -8.293;  677.661
422.540;    1.358;   -7.893;  680.027
423.132;    0.274;   -7.082;  600.641
423.724;   -3.616;   -8.653;  561.267
424.316;   -1.300;  -10.213;  621.345
424.908;    2.348;   -9.762;  591.517
425.500;    2.802;   -5.572;  647.978
426.092;    3.669;   -8.422;  648.268
426.683;    2.275;   -9.283;  684.836
427.275;    5.275;   -7.852;  641.471
427.867;    6.536;   -5.272;  668.948
428.458;    6.923;   -7.682;  732.344
429.050;    5.988;  -10.612;  680.749
429.642;    7.622;   -9.882;  743.124
430.233;    8.088;   -6.962;  569.356
430.825;    9.149;   -6.842;  724.809
431.416;    6.452;   -9.672;  698.241
432.008;   10.586;   -6.552;  651.723
432.599;   10.892;   -6.891;  656.073
433.190;    7.898;  -10.912;  637.670
433.782;    7.320;  -11.172;  590.395
434.373;   14.948;   -6.061;  884.765
434.964;   13.695;   -8.251;  602.920
435.556;   10.968;   -9.722;  634.537
436.147;   14.153;   -9.082;  758.490
436.738;   13.990;   -8.041;  701.099
437.329;   19.617;   -7.341;  721.723
437.920;   12.140;   -8.162;  666.688
438.511;   12.267;  -11.802;  564.526
439.103;   19.317;  -10.191;  623.998
439.694;   20.620;   -7.601;  681.583
440.285;   21.654;   -8.541;  764.432
440.876;   18.896;   -9.751;  845.738
441.466;   19.164;   -9.401;  575.162
442.057;   24.038;   -7.760;  665.814
442.648;   23.300;   -9.971;  746.255
443.239;   20.375;  -11.001;  620.477
443.830;   26.375;   -7.990;  704.958
444.421;   27.920;   -7.910;  655.474
445.011;   24.537;   -8.131;  693.619
445.602;   23.705;   -7.111;  743.126
446.193;   25.946;  -10.920;  488.117
446.783;   30.138;   -6.500;  640.397
447.374;   25.568;   -8.671;  692.759
447.964;   26.373;  -10.781;  713.770
448.555;   34.709;   -9.650;  822.742
449.145;   31.444;   -8.660;  662.853
449.736;   32.652;   -8.990;  803.179
450.326;   32.062;   -9.500;  713.626
450.917;   37.517;   -8.680;  675.324
451.507;   35.816;   -7.520;  600.661
452.097;   36.345;   -8.590;  746.267
452.688;   37.391;  -11.340;  742.160
453.278;   38.520;  -10.100;  566.840
453.868;   42.342;   -6.019;  793.550
454.458;   40.423;   -9.440;  651.141
455.048;   39.802;  -10.560;  711.783
455.639;   41.893;  -11.799;  567.096
456.229;   45.092;   -6.899;  710.694
456.819;   47.905;   -7.389;  751.158
457.409;   47.611;  -11.119;  773.993
457.999;   50.253;   -9.289;  737.505
458.589;   50.092;   -6.139;  686.606
459.179;   50.214;   -8.729;  717.658
459.769;   47.298;   -9.789;  627.099
460.358;   53.457;  -10.259;  797.262
460.948;   52.126;   -7.299;  689.503
461.538;   54.764;  -10.289;  660.677
462.128;   52.416;  -11.269;  664.934
462.717;   59.300;   -9.368;  710.326
463.307;   61.743;   -7.908;  705.846
463.897;   57.970;   -9.599;  656.942
464.486;   56.541;   -9.769;  837.128
465.076;   62.481;   -8.048;  733.776
465.666;   65.216;   -9.358;  652.900
466.255;   62.456;   -7.919;  785.651
466.845;   61.355;  -11.689;  666.749
467.434;   65.857;   -7.818;  725.873
468.023;   65.877;   -7.678;  658.357
468.613;   63.707;  -10.939;  713.946
469.202;   67.042;  -10.118;  646.507
469.791;   71.861;   -9.108;  737.811
470.381;   73.651;   -6.058;  742.813
470.970;   72.484;  -10.428;  711.099
471.559;   73.014;  -10.268;  733.291
472.148;   76.117;   -8.448;  675.737
472.738;   78.638;   -6.917;  765.466
473.327;   77.943;  -11.978;  637.529
473.916;   77.589;  -11.888;  737.446
474.505;   82.377;   -9.437;  751.703
475.094;   84.995;   -6.747;  806.570
475.683;   84.757;   -9.367;  797.699
476.272;   85.674;  -12.637;  730.632
476.861;   87.636;  -10.027;  706.754
477.449;   95.198;   -8.716;  728.487
478.038;   89.341;   -9.577;  692.513
478.627;   90.380;   -9.718;  714.852
479.216;   97.722;   -8.947;  769.441
479.805;   99.665;   -6.256;  783.375
480.393;   99.404;   -7.937; 1008.945
480.982;   98.340;   -7.717;  874.501
481.571;  104.881;   -9.266;  858.333
482.159;  104.507;   -7.636;  705.386
482.748;  104.959;   -9.667;  821.385
483.336;  108.469;  -10.376;  858.209
483.925;  109.749;   -7.147;  774.373
484.513;  116.486;   -7.996;  758.962
485.102;  113.130;  -10.027;  810.965
485.690;  121.497;  -10.446; 1011.050
486.278;  124.117;   -8.446;  979.329
486.867;  125.232;   -6.356;  809.662
487.455;  126.510;   -9.136;  898.229
488.043;  127.245;  -10.646;  748.361
488.631;  136.922;   -7.456; 1005.079
489.220;  140.461;   -6.636;  908.626
489.808;  140.226;  -11.036;  741.415
490.396;  147.990;  -10.246;  914.645
490.984;  154.744;   -8.556;  830.161
491.572;  162.982;   -5.886;  940.315
492.160;  167.825;   -9.486;  919.081
492.748;  179.103;  -10.976;  884.341
493.336;  201.567;   -8.776; 1019.693
493.924;  225.785;   -5.465;  958.077
494.512;  252.875;   -9.986; 1066.638
495.100;  285.847;  -10.636; 1103.280
495.687;  341.533;  -10.885; 1206.373
496.275;  400.970;   -8.126; 1150.796
496.863;  467.213;  -10.586; 1281.171
497.451;  563.089;  -11.926; 1386.805
498.038;  692.394;  -10.885; 1556.729
498.626;  795.109;   -6.315; 1741.407
499.214;  944.652;   -7.326; 2016.609
499.801; 1132.626;  -11.906; 2220.633
500.389; 1361.470;  -10.466; 2312.494
500.976; 1646.891;   -5.236; 2744.849
501.564; 2061.646;   -8.936; 3148.565
502.151; 2396.847;  -13.176; 3515.999
502.738; 2787.830;  -10.646; 3971.274
503.326; 3190.067;   -9.525; 4403.796
503.913; 3599.875;  -10.856; 5161.749
504.500; 3979.782;  -11.586; 5986.420
505.088; 4352.077;  -10.336; 6381.201
505.675; 4855.999;   -6.355; 6925.547
506.262; 5507.074;   -9.046; 7619.060
506.849; 6224.373;  -10.416; 8733.969
507.436; 6755.067;  -10.305; 9790.121
508.023; 7289.497;   -5.496; 9985.472
508.610; 7513.930;   -7.856;10434.618
509.197; 8126.913;  -10.097;11198.435
509.784; 9416.231;  -10.886;12391.194
510.371;10601.647;   -9.315;13603.713
510.958;11410.019;   -9.936;14426.586
511.545;12119.315;   -9.326;15243.775
512.132;12837.232;  -10.075;15945.876
512.719;13293.427;   -7.796;16340.369
513.305;14430.717;  -10.606;18011.766
513.892;15114.052;  -11.486;19754.971
514.479;16293.419;   -9.126;20967.805
515.066;17802.377;   -6.026;22299.793
515.652;19445.320;   -8.466;22908.660
516.239;20659.816;  -10.886;23798.875
516.825;21339.988;  -11.496;25567.275
517.412;22279.949;   -5.796;28154.959
517.998;23044.520;  -10.506;28344.111
518.585;23090.633;  -10.076;27134.219
519.171;23677.381;   -8.315;27268.576
519.758;25472.660;   -8.596;28964.129
520.344;27406.012;   -8.466;30664.494
520.930;27144.611;  -11.006;32550.605
521.516;28134.414;  -10.495;35422.895
522.103;29857.139;   -5.526;38280.004
522.689;30314.479;   -8.746;37835.117
523.275;29980.943;  -11.376;37288.613
523.861;31880.795;  -11.156;37281.395
524.447;33724.531;   -8.135;37846.949
525.033;33694.520;   -7.896;38321.949
525.619;33932.555;  -12.476;38579.285
526.205;35164.109;   -9.516;40622.875
526.791;37793.785;   -6.926;42258.836
527.377;37862.457;   -8.346;42966.902
527.963;38687.320;   -8.717;42018.949
528.549;38042.602;  -11.016;42476.828
529.135;36827.305;   -8.536;41854.852
529.721;35667.250;   -9.666;41237.711
530.306;35069.051;  -10.066;41259.445
530.892;34871.520;  -11.356;41506.047
531.478;35734.383;   -6.596;43559.613
532.063;39044.543;   -8.836;47695.563
532.649;40604.066;  -10.047;50808.324
533.235;41122.570;   -9.746;51787.500
533.820;41110.863;   -6.566;52145.035
534.406;42398.703;  -10.817;51133.488
534.991;42150.742;   -9.416;49996.805
535.576;40554.660;   -9.036;48882.852
536.162;41517.023;   -6.156;46942.285
536.747;42671.328;  -11.607;45711.746
537.333;45195.438;  -11.787;48510.180
537.918;48013.840;  -12.437;50439.891
538.503;47683.387;   -7.196;50863.711
539.088;44421.527;  -10.556;50906.922
539.673;44334.281;   -8.767;52621.965
540.259;45145.613;  -10.026;52368.094
540.844;42795.941;   -7.416;50879.109
541.429;44597.293;   -9.467;52077.777
542.014;46391.922;   -9.527;52716.695
542.599;45256.398;   -9.946;52363.281
543.184;42334.773;   -7.927;53187.137
543.769;43413.105;   -9.297;54697.605
544.354;43840.227;  -10.127;53913.914
544.938;42531.004;   -9.267;49680.164
545.523;44318.098;   -6.506;47386.277
546.108;47284.980;   -9.787;49151.949
546.693;48952.113;  -11.587;51384.637
547.278;49182.813;  -10.986;51853.254
547.862;46458.953;   -8.206;51173.750
548.447;42074.047;  -10.067;51691.395
549.031;41053.777;   -9.637;52456.703
549.616;45504.164;   -9.926;52714.516
550.201;45672.066;   -6.347;52414.598
550.785;47013.996;   -7.917;52355.059
551.370;46070.520;  -10.867;54589.453
551.954;45236.809;   -9.047;58267.348
552.538;46119.195;   -7.827;59062.176
553.123;44622.539;  -10.287;58115.285
553.707;42143.406;  -12.178;56556.285
554.291;43569.059;   -8.717;56201.668
554.876;46732.652;   -7.457;55335.762
555.460;46723.527;  -10.387;54155.703
556.044;46695.406;   -9.618;53721.484
556.628;44925.563;  -11.567;53731.016
557.212;44074.195;   -8.097;54312.531
557.796;42964.434;  -11.077;53797.773
558.380;43172.875;  -11.108;56145.984
558.964;43366.379;   -9.057;57277.930
559.548;44310.320;   -6.977;56459.641
560.132;42441.531;  -11.457;54434.543
560.716;40661.500;  -11.378;54800.617
561.300;41693.582;   -9.577;57606.945
561.884;42951.078;   -7.127;58972.445
562.467;40917.227;   -7.118;57327.570
563.051;40091.285;  -13.358;54962.434
563.635;41581.262;  -10.178;52594.473
564.219;42420.434;   -7.837;50610.410
564.802;43170.273;  -11.398;49551.180
565.386;42623.086;  -12.788;48370.953
565.969;41806.926;   -9.077;48178.871
566.553;40507.945;   -6.207;49957.305
567.136;41519.531;   -8.568;50369.594
567.720;38620.508;  -11.868;49492.004
568.303;36519.426;   -8.268;50616.352
568.887;36392.504;   -8.698;50727.148
569.470;37037.918;   -6.808;51698.379
570.053;36243.316;  -13.188;52122.078
570.637;33890.117;  -12.037;52536.438
571.220;33760.070;   -8.577;51186.098
571.803;34834.629;   -8.498;51032.762
572.386;36711.488;  -10.498;49609.887
572.969;39140.715;   -9.388;48285.926
573.552;37698.148;   -8.338;47624.285
574.135;36277.621;   -8.518;45498.641
574.718;33837.824;  -13.628;41970.434
575.301;33176.863;  -10.893;41447.137
575.884;32515.904;   -8.158;40923.836
576.467;33522.273;  -10.328;45267.723
577.050;34675.895;  -13.058;48175.543
577.633;35636.402;   -9.458;47729.328
578.216;34821.473;   -8.928;47579.793
578.799;33789.684;   -9.358;47820.996
579.381;32487.588;  -11.388;48115.551
579.964;30222.025;  -11.718;47333.766
580.547;32414.863;   -8.588;46668.969
581.129;33756.738;   -8.859;44466.141
581.712;34934.203;  -10.729;44164.922
582.294;35465.113;  -11.118;46477.855
582.877;35428.555;   -5.218;48244.254
583.459;33707.332;   -8.679;47437.895
584.042;31559.367;  -10.709;46943.219
584.624;31262.059;  -11.669;46792.227
585.206;30970.889;   -8.218;46557.250
585.789;30970.105;  -10.569;45793.773
586.371;32521.023;  -11.859;43836.391
586.953;31947.855;  -10.719;42972.492
587.536;30758.311;   -7.198;42487.211
588.118;29467.527;   -8.720;42086.414
588.700;26430.922;  -10.439;43389.930
589.282;27995.984;   -9.198;43646.039
589.864;31583.377;   -9.199;43438.109
590.446;34199.063;  -11.319;43151.926
591.028;34465.137;  -11.159;42781.867
591.610;33161.809;  -11.779;42839.098
592.192;30493.133;   -7.668;42820.402
592.774;29107.166;  -11.949;40724.277
593.356;28162.443;  -12.129;39874.789
593.937;27160.793;  -10.669;39980.648
594.519;29357.615;   -6.509;42069.633
595.101;31293.916;  -10.849;42976.031
595.683;31256.131;  -11.679;44084.441
596.264;31983.496;   -9.049;43478.797
596.846;31830.094;   -8.849;43803.672
597.427;31886.893;   -9.570;42986.934
598.009;33093.234;  -12.620;42832.219
598.591;33541.102;  -10.039;42580.086
599.172;33345.480;  -10.369;43061.805
599.753;33678.105;   -9.140;41691.469
600.335;34853.445;  -11.430;40692.520
600.916;32909.301;   -9.939;39982.422
601.498;30813.225;   -8.479;40318.617
602.079;29321.016;  -10.920;40670.609
602.660;28893.729;  -11.480;41450.898
603.241;30546.109;  -11.699;41137.738
603.823;29170.490;   -9.579;38868.797
604.404;28145.293;  -10.620;38182.785
604.985;30046.477;  -10.450;38078.047
605.566;30408.621;   -9.129;38056.633
606.147;30509.760;   -7.510;37020.418
606.728;31866.428;  -10.660;37883.359
607.309;30371.752;  -11.740;38748.273
607.890;30190.754;   -9.759;38850.230
608.471;29703.201;   -8.250;37457.918
609.051;29019.881;   -9.240;36066.457
609.632;27796.359;  -12.120;35991.074
610.213;27884.691;   -9.110;37402.641
610.794;28806.020;   -8.030;38383.363
611.374;28806.369;   -8.110;40562.387
611.955;29712.262;  -13.560;38533.727
612.536;31166.912;  -11.400;36951.789
613.116;30737.365;   -8.070;37197.891
613.697;31007.924;  -10.830;38411.125
614.277;29210.248;  -11.641;38673.938
614.858;29842.586;  -13.310;37075.863
615.438;29482.197;   -7.460;35092.906
616.019;27465.576;   -7.601;33666.301
616.599;27697.520;  -12.020;34189.023
617.179;29215.316;  -11.780;36952.047
617.760;30335.350;   -8.570;39582.574
618.340;31167.908;  -11.471;38943.977
618.920;31994.535;  -11.170;37594.156
619.500;31973.732;  -11.071;37866.938
620.080;30952.557;   -7.750;37869.043
620.660;32048.629;  -12.711;36868.617
621.241;33858.801;  -10.211;36352.309
621.821;34457.797;  -10.961;35459.520
622.401;33235.934;   -7.720;35207.414
622.980;32022.627;   -8.981;35980.422
623.560;30615.666;   -9.331;37351.328
624.140;29356.900;   -9.850;34388.582
624.720;24841.076;   -7.451;32368.764
625.300;21554.371;   -9.070;32638.629
625.880;24760.881;  -12.601;34599.035
626.459;28734.850;  -11.751;36831.738
627.039;31415.107;   -9.281;38299.098
627.619;31192.822;   -8.801;38289.574
628.198;29696.617;  -12.071;37220.695
628.778;28835.842;   -9.461;37632.563
629.357;29561.902;   -8.491;38003.012
629.937;29786.881;   -9.721;38402.039
630.516;29422.059;   -9.951;37868.801
631.096;29263.703;  -11.731;35760.410
631.675;31191.189;   -8.572;35225.219
632.254;36152.023;  -11.282;35130.289
632.834;35682.070;  -13.322;35794.570
633.413;34143.336;  -10.301;35788.922
633.992;31937.043;   -8.582;34532.863
634.571;32410.674;   -8.352;33590.113
635.151;34979.156;  -11.912;34943.863
635.730;33592.914;  -10.511;35352.523
636.309;30276.137;   -7.731;35366.605
636.888;27697.484;   -9.952;36165.637
637.467;27944.350;  -11.672;37515.902
638.046;29355.992;   -8.901;39288.695
638.625;32267.469;   -7.912;38279.699
639.204;32287.775;  -10.022;37741.598
639.782;31284.016;  -12.252;38364.551
640.361;27581.867;  -10.041;36740.621
640.940;25033.064;  -11.161;34950.082
641.519;25800.984;   -9.701;34137.398
642.097;28547.088;  -11.271;35654.258
642.676;31220.721;   -8.651;35637.957
643.255;32430.283;   -8.711;36567.074
643.833;31795.457;   -9.581;37809.434
644.412;31694.801;  -13.711;37337.293
644.990;30569.471;  -11.811;37018.531
645.569;30341.100;   -9.411;36518.469
646.147;30065.236;  -10.291;36186.430
646.726;30291.723;  -12.401;36267.688
647.304;31459.850;  -10.411;36647.625
647.882;32711.381;   -9.651;39286.742
648.461;34196.316;   -9.631;39157.703
649.039;32695.100;  -11.881;35412.883
649.617;31654.896;   -9.661;34744.918
650.195;30838.863;   -9.301;35403.098
650.773;29532.600;  -10.511;35053.797
651.352;27220.195;  -11.521;33756.816
651.930;24853.891;  -12.211;31868.773
652.508;23247.277;   -9.171;33121.551
653.086;27125.627;   -9.371;33564.793
653.663;30270.049;  -13.161;34054.668
654.241;28977.740;  -13.031;35693.309
654.819;30328.828;   -9.371;36422.906
655.397;30124.807;  -10.511;38213.484
655.975;29469.213;  -10.371;39507.625
656.553;29284.672;  -10.051;39498.223
657.130;28061.424;  -10.061;40395.480
657.708;27318.684;   -9.561;39242.020
658.286;27370.975;  -11.511;38920.020
658.863;28624.527;  -10.261;40202.898
659.441;31950.686;   -7.531;39677.938
660.018;31971.721;   -9.501;40413.355
660.596;30548.408;  -13.301;39931.414
661.173;32028.400;  -11.211;39604.531
661.750;32442.258;   -9.951;39700.070
662.328;31376.520;   -9.390;39292.809
662.905;30473.098;  -11.330;38235.648
663.482;26354.768;   -9.050;36212.305
664.060;24307.840;   -8.240;35944.945
664.637;27024.074;  -10.050;35170.785
665.214;28515.432;  -11.760;34197.523
665.791;30301.953;  -10.530;34549.520
666.368;29644.252;   -9.690;35118.578
666.945;29880.811;   -9.320;36019.418
667.522;31368.723;  -11.860;36048.438
668.099;31124.273;  -10.770;36243.914
668.676;29659.426;   -6.260;35958.875
669.253;28397.023;   -7.000;37384.730
669.830;28667.885;  -10.190;36779.629
670.407;28631.684;   -9.550;35231.289
670.984;28476.494;   -9.260;35544.270
671.560;29328.432;   -9.280;35466.867
672.137;28811.719;  -11.810;34280.863
672.714;29969.447;  -11.490;34632.863
673.290;31349.186;   -7.740;35135.422
673.867;31212.615;  -10.660;36114.480
674.443;31092.551;  -12.230;36152.859
675.020;29012.107;  -10.450;35327.238
675.596;29925.086;   -9.260;35795.176
676.173;30685.227;  -10.780;35430.355
676.749;30219.881;  -13.690;33549.516
677.326;29825.686;  -11.980;32210.012
677.902;29631.803;   -8.630;32068.871
678.478;29032.789;  -10.730;32583.891
679.054;28087.961;  -10.520;32088.928
679.631;28584.139;  -11.920;30978.848
680.207;30152.939;   -7.490;33160.887
680.783;31588.701;   -9.860;35570.363
681.359;30657.834;  -13.380;36125.184
681.935;30434.578;  -12.480;35240.922
682.511;30423.762;   -7.900;34429.961
683.087;30714.229;   -7.710;34463.680
683.663;29901.088;  -11.480;34648.898
684.239;28492.580;  -14.090;34546.457
684.815;27787.996;   -7.560;35586.375
685.390;27799.398;   -9.910;35821.895
685.966;28396.682;  -11.159;35085.871
686.542;30877.365;  -11.169;34198.230
687.118;33385.852;   -5.959;32847.707
687.693;33901.430;  -10.329;32794.027
688.269;33603.039;  -12.059;33072.367
688.844;31864.232;  -10.909;33141.664
689.420;29952.881;   -8.019;33965.742
689.995;28233.789;   -8.399;34655.523
690.571;26953.688;  -10.949;33576.742
691.146;26813.273;   -9.619;32657.219
691.722;26591.906;   -8.999;32526.979
692.297;26134.367;  -11.589;33014.617
692.872;27216.813;  -11.739;34012.254
693.448;27085.289;  -11.059;34237.434
694.023;26104.307;  -10.139;34142.672
694.598;27981.754;   -9.029;34132.031
695.173;28827.715;  -13.319;34205.250
695.748;27891.064;  -10.169;32882.488
696.323;27868.455;   -8.339;32864.906
696.898;28017.096;   -8.169;33170.004
697.473;28169.949;  -12.309;32432.984
698.048;27445.240;  -10.989;31649.303
698.623;26974.404;   -9.329;30778.141
699.198;28364.746;   -9.849;31140.119
699.773;29910.002;  -12.329;31764.299
700.348;28810.291;  -10.389;31780.816
700.922;28810.002;   -9.269;32046.375
701.497;29934.998;   -9.329;32603.574
702.072;30120.002;  -10.789;34799.871
702.646;28677.420;  -10.839;35793.172
703.221;26488.438;   -9.099;35201.590
703.795;28314.398;  -10.939;34764.527
704.370;28853.262;  -12.859;34307.367
704.944;29084.217;  -11.559;33509.887
705.519;29665.553;   -7.939;31388.584
706.093;30801.303;  -10.499;31340.104
706.668;31359.355;  -11.289;32630.281
707.242;30324.281;  -11.509;32728.779
707.816;29103.041;   -9.639;32947.238
708.390;27670.744;  -11.429;33277.855
708.965;27907.105;  -11.869;33834.336
709.539;27645.529;  -11.689;33709.273
710.113;27735.492;  -10.478;33044.313
710.687;27413.787;  -10.228;31953.992
711.261;26082.543;  -13.698;30505.949
711.835;25968.465;  -13.378;30262.369
712.409;26243.783;   -9.698;31254.447
712.983;28204.285;  -11.898;32754.986
713.557;29609.531;  -15.138;34018.824
714.131;29553.162;  -14.098;34579.625
714.704;28432.543;   -9.958;33890.262
715.278;25803.756;  -10.028;33531.102
715.852;24521.744;  -11.148;33601.660
716.425;25601.955;   -9.068;33515.117
716.999;26830.705;  -10.038;33185.555
717.573;27702.430;   -9.798;33905.996
718.146;28616.230;  -12.378;35199.293
718.720;28748.941;  -11.918;35060.551
719.293;28761.936;   -8.088;34973.230
719.867;31716.949;  -10.888;36394.449
720.440;31506.561;  -11.938;36663.008
721.013;29818.268;  -12.818;35102.426
721.587;28216.289;  -10.298;33985.266
722.160;26840.404;  -10.048;33524.965
722.733;25841.014;  -12.108;32987.043
723.306;26129.500;  -10.818;33066.301
723.880;28289.074;   -8.908;33399.500
724.453;30757.910;   -9.878;33468.297
725.026;30108.502;  -11.188;33816.637
725.599;27148.807;  -11.678;32797.996
726.172;26817.936;   -9.618;33187.434
726.745;27691.410;   -8.258;35136.613
727.318;28903.564;  -12.978;35751.730
727.891;29792.984;  -12.148;35890.430
728.463;29438.666;   -8.968;34822.090
729.036;28051.396;  -10.188;32895.086
729.609;28536.553;  -11.788;31823.225
730.182;25854.951;  -11.788;31445.283
730.754;23667.043;  -10.268;32373.223
731.327;24088.871;   -9.998;33676.820
731.900;24333.832;  -12.228;33417.000
732.472;24946.104;  -13.848;31978.498
733.045;26545.176;   -8.698;30368.777
733.617;26547.672;  -10.607;30574.215
734.190;26858.869;  -11.507;31280.975
734.762;24697.299;  -13.647;31674.412
735.334;22697.166;   -9.767;31247.291
735.907;23026.750;   -9.897;29876.211
736.479;23377.510;  -11.637;29808.488
737.051;23148.396;   -9.567;30233.547
737.623;23688.729;   -8.187;31469.086
738.195;23859.381;  -11.187;31784.225
738.768;25798.762;  -12.337;32120.523
739.340;26935.904;  -12.227;32094.342
739.912;26263.857;  -11.057;31312.680
740.484;24810.662;  -10.207;31946.238
741.056;23056.566;  -10.047;32984.059
741.628;24154.430;  -13.627;33897.715
742.199;26297.623;   -7.177;33213.016
742.771;25007.707;  -10.797;31369.113
743.343;22998.139;  -11.997;31865.473
743.915;22022.898;  -12.867;32388.631
744.487;21930.385;   -7.617;31079.568
745.058;21974.508;   -9.557;30570.107
745.630;22571.193;   -9.877;29970.127
746.201;24003.699;  -14.177;29186.766
746.773;25108.361;   -9.237;28805.723
747.344;24921.693;   -9.847;29591.223
747.916;22935.773;  -11.657;31412.201
748.487;22636.410;  -10.587;32194.898
749.059;23850.631;   -8.707;32533.719
749.630;24586.246;  -10.537;32158.518
750.201;23632.283;  -11.687;30855.395
750.773;21982.926;  -11.647;28622.555
751.344;21654.461;   -7.147;28405.732
751.915;22562.129;   -9.757;28461.551
752.486;22857.797;  -12.427;27842.850
753.057;20923.084;  -12.227;27845.008
753.628;19682.902;  -10.417;27728.107
754.199;20559.525;  -11.767;27381.086
754.770;21559.113;  -11.187;25882.203
755.341;21692.318;  -10.507;25886.184
755.912;21964.824;   -9.387;26050.861
756.483;21715.447;  -10.647;26798.779
757.054;19945.859;  -11.837;27048.238
757.625;18437.395;  -12.716;26294.838
758.195;18085.496;   -9.666;26142.076
758.766;17757.170;   -8.656;26392.234
759.337;18363.758;  -12.856;26334.594
759.907;19733.342;  -13.366;27579.652
760.478;20662.164;   -8.576;28352.770
761.048;20308.260;  -10.526;27325.088
761.619;19341.123;  -11.116;26460.428
762.189;19338.719;  -12.136;26029.826
762.760;20220.025;   -9.456;26430.145
763.330;21405.158;   -7.136;26670.902
763.900;21109.920;  -11.786;26603.021
764.471;18786.725;  -11.546;25542.740
765.041;17362.736;   -8.096;24358.459
765.611;17098.145;   -8.876;23991.297
766.181;17351.637;  -12.196;24470.236
766.751;18600.867;  -11.636;24845.975
767.321;18498.283;  -10.156;24533.633
767.891;16424.730;  -11.766;24916.492
768.461;15696.132;  -14.936;24776.771
769.031;16149.295;  -12.356;24757.988
769.601;17931.861;   -7.526;24181.088
770.171;18191.328;  -10.766;23670.387
770.741;17244.395;  -13.176;22960.045
771.311;17142.305;  -10.616;22917.523
771.880;17753.615;   -9.576;23562.941
772.450;17797.094;  -10.336;24216.500
773.020;17689.455;  -13.516;24140.398
773.589;16710.168;  -13.466;24414.857
774.159;15954.417;   -8.686;23858.717
774.729;15623.899;   -9.476;22942.135
775.298;15357.355;  -13.666;22324.033
775.867;14967.754;  -11.716;21140.313
776.437;15184.879;   -9.906;20838.092
777.006;14988.927;  -12.166;20599.510
777.576;14568.365;  -12.356;20508.809
778.145;14369.544;  -11.646;20732.947
778.714;14406.790;   -8.226;21062.465
779.283;13992.248;   -9.556;20949.664
779.853;13448.286;  -14.116;20508.623
780.422;13844.971;  -11.506;20649.082
780.991;13424.436;   -9.556;21527.520
781.560;12113.049;   -9.095;22632.658
782.129;11893.171;  -12.135;23048.277
782.698;11923.087;  -10.865;23438.555
783.267;11529.502;   -9.335;23267.734
783.836;11426.831;  -11.045;22415.133
784.404;12429.057;  -13.865;20443.152
784.973;13135.333;  -13.095;19699.150
785.542;13141.673;  -11.575;19763.828
786.111;12941.465;   -9.705;20341.408
786.679;12495.858;  -12.105;20207.967
787.248;12245.651;  -12.455;19516.465
787.817;12053.883;  -11.535;18900.363
788.385;11705.601;   -9.765;17879.121
788.954;11143.641;  -14.005;17658.301
789.522;10537.759;  -11.955;17788.879
790.090;10948.916;  -10.135;18118.277
790.659;11573.292;  -10.975;18338.736
791.227;11191.087;  -13.375;18508.615
791.795;11529.130;  -12.375;17898.254
792.364;11862.853;  -10.725;17295.133
792.932;12277.215;   -9.715;16822.051
793.500;12579.151;  -12.675;17040.148
794.068;12828.504;  -13.495;17179.787
794.636;13030.216;  -10.885;16664.246
795.204;12263.872;  -11.045;16524.545
795.772;12177.646;  -13.175;17274.564
796.340;11694.718;  -12.445;17891.002
796.908;11442.657;   -9.735;17648.561
797.476;11320.302;   -9.815;17064.080
798.044;10890.700;  -13.985;16672.777
798.612;10153.255;  -13.115;17023.996
799.180; 9771.411;  -10.185;16561.615
799.747; 9606.696;   -9.055;15962.773
800.315; 9311.607;  -12.385;15296.992
800.883; 9127.440;  -15.035;14801.771
801.450; 9372.980;  -10.365;14534.430
802.018; 9540.883;   -9.855;14173.248
802.585; 9542.969;  -11.905;14029.547
803.153; 9475.045;  -11.585;13836.846
803.720; 9246.627;   -9.095;13567.324
804.287; 8723.259;   -9.135;13360.622
804.855; 8201.251;  -11.604;13681.981
805.422; 8107.073;  -11.794;13536.560
805.989; 8217.109;  -10.734;13355.958
806.556; 8420.661;  -10.444;13747.896
807.124; 8673.846;  -12.764;13987.376
807.691; 8651.392;  -12.964;14038.674
808.258; 8469.821;  -11.134;14120.152
808.825; 8117.561;   -9.854;13860.111
809.392; 8219.010;  -10.504;13268.790
809.959; 7774.146;  -13.054;12680.389
810.526; 7250.691;   -8.294;12427.308
811.093; 7202.646;   -8.394;12030.105
811.659; 7854.481;  -12.304;11653.664
812.226; 8455.078;  -13.944;11637.183
812.793; 8210.517;  -10.484;11611.521
813.360; 7561.269;  -10.144;11885.181
813.926; 7230.275;  -11.684;12770.539
814.493; 7031.806;  -13.644;12677.638
815.060; 6622.312;   -9.724;11974.336
815.626; 6533.339;   -9.854;11594.715
816.193; 6896.048;  -13.254;11579.474
816.759; 6945.191;  -13.204;11666.972
817.325; 6986.375;   -9.434;11325.530
817.892; 7343.018;  -10.134;11105.369
818.458; 7791.031;  -13.474;10843.928
819.024; 7444.213;  -11.854;10714.406
819.591; 7152.461;  -10.244;10469.165
820.157; 6928.979;  -10.704;10235.523
820.723; 6352.328;  -12.324;10847.563
821.289; 6023.301;   -9.444;11040.980
821.855; 5993.583;   -8.374;10357.100
822.421; 6033.445;  -10.234; 9978.918
822.987; 6028.824;  -13.294; 9754.177
823.553; 5633.805;  -10.884;10065.755
824.119; 5412.185;   -8.884;10036.294
824.685; 5566.995;   -6.784;10029.192
825.251; 5704.310;  -12.004;10199.230
825.816; 5652.378;  -11.474; 9820.189
826.382; 5355.995;   -9.174; 9297.248
826.948; 5464.355;   -9.214; 9381.347
827.513; 5885.914;  -10.774; 9450.726
828.079; 5781.312;  -11.924; 9472.444
828.645; 5161.835;  -10.543; 9292.643
829.210; 4926.891;  -10.533; 9065.341
829.776; 4875.430;  -10.753; 9132.620
830.341; 4773.985;  -10.173; 9092.878
830.906; 4936.760;  -10.743; 9078.557
831.472; 5287.452;  -11.113; 8534.535
832.037; 5131.309;  -10.603; 8677.874
832.602; 4628.448;  -13.323; 8628.692
833.167; 4358.337;  -10.823; 8879.031
833.733; 4308.370;  -10.113; 9189.790
834.298; 4455.273;  -13.583; 9052.608
834.863; 4610.499;  -12.703; 8895.087
835.428; 4642.596;  -10.523; 8824.266
835.993; 4470.020;   -6.963; 8845.385
836.558; 4235.326;  -10.763; 8888.563
837.123; 4264.851;   -9.903; 8966.582
837.688; 4515.080;   -9.913; 8617.860
838.253; 4783.065;  -10.283; 8590.699
838.817; 4979.625;  -12.963; 8443.797
839.382; 4929.149;  -14.243; 8799.356
839.947; 4640.728;  -10.733; 8810.595
840.511; 4349.061;   -9.383; 8796.394
841.076; 3970.871;  -12.563; 8347.231
841.641; 4006.595;  -12.953; 8224.330
842.205; 4098.728;   -7.043; 8223.349
842.770; 4111.168;   -8.163; 8622.107
843.334; 4228.545;  -12.503; 8410.386
843.898; 4173.709;  -11.693; 8337.465
844.463; 4162.684;  -10.203; 8506.283
845.027; 3965.210;   -9.533; 8280.962
845.591; 3792.658;  -13.443; 8231.141
846.156; 3810.124;  -13.143; 7969.179
846.720; 3730.441;   -9.433; 7768.278
847.284; 3629.155;  -11.033; 7630.957
847.848; 3491.900;  -10.403; 7472.395
848.412; 3394.911;  -11.553; 7437.394
848.976; 3437.206;   -8.393; 7674.592
849.540; 3355.067;   -8.713; 7836.011
850.104; 3395.480;  -12.463; 7913.669
850.668; 3755.958;  -12.973; 7694.508
851.232; 3937.157;  -10.793; 7756.887
851.796; 3805.835;  -10.662; 7926.545
852.359; 3487.044;  -13.082; 7827.844
852.923; 3302.199;  -12.192; 7641.163
853.487; 3156.530;  -11.912; 7342.501
854.050; 3157.334;  -10.892; 7042.820
854.614; 3311.387;  -13.992; 7151.338
855.177; 3426.608;  -11.732; 7105.077
855.741; 3461.765;   -8.962; 6989.675
856.304; 3345.977;   -9.442; 6596.634
856.868; 3317.791;  -14.192; 6356.272
857.431; 3435.996;  -12.702; 6468.571
857.995; 3557.756;   -9.942; 6373.210
858.558; 3587.834;   -9.112; 6324.448
859.121; 3316.520;  -12.932; 6408.327
859.684; 3129.325;  -13.442; 6347.886
860.247; 3226.062;  -10.632; 6321.264
860.810; 3275.169;  -11.272; 6301.903
861.374; 3036.332;   -9.832; 6607.881
861.937; 2767.165;  -11.762; 6408.200
862.500; 2766.990;   -9.722; 6572.639
863.062; 2918.698;  -10.512; 6387.297
863.625; 3058.747;  -11.232; 6190.836
864.188; 3216.710;  -14.112; 5807.254
864.751; 3298.344;  -11.302; 5682.413
865.314; 3222.412;  -10.112; 5547.492
865.876; 2987.030;  -12.182; 5500.150
866.439; 2937.918;  -10.722; 5415.909
867.002; 2897.696;   -9.252; 5501.567
867.564; 2715.329;   -9.572; 5413.946
868.127; 2505.299;  -13.142; 5160.325
868.689; 2386.413;  -12.902; 5133.183
869.252; 2283.008;   -9.732; 5252.382
869.814; 2178.039;   -9.432; 5297.141
870.377; 2174.533;  -11.552; 5390.919
870.939; 2237.230;   -9.052; 5599.898
871.501; 2317.626;  -10.982; 5248.336
872.063; 2337.352;  -12.292; 4854.235
872.626; 2270.113;  -14.912; 4817.074
873.188; 2251.431;  -13.112; 4987.732
873.750; 2222.318;  -13.442; 4868.651
874.312; 2135.706;   -9.402; 4779.330
874.874; 2049.425;  -11.062; 4866.348
875.436; 1970.163;  -13.931; 4718.887
875.998; 1967.227;   -9.561; 4660.005
876.560; 1993.874;  -11.321; 4462.964
877.122; 1933.066;  -12.221; 4145.042
877.683; 1824.978;  -12.191; 4056.481
878.245; 1747.614;  -12.101; 3950.740
878.807; 1785.930;   -8.971; 4058.958
879.369; 1811.637;  -12.071; 3954.677
879.930; 1723.707;  -14.621; 3941.495
880.492; 1654.399;  -10.311; 4067.014
881.053; 1622.650;  -10.901; 3859.633
881.615; 1527.401;  -14.411; 3776.071
882.176; 1428.996;  -13.761; 3734.750
882.738; 1374.445;   -9.181; 3678.489
883.299; 1348.532;  -11.791; 3405.407
883.860; 1332.239;  -13.121; 3351.106
884.422; 1316.984;  -11.211; 3394.044
884.983; 1279.231;  -10.091; 3166.443
885.544; 1212.107;   -8.461; 3189.802
886.105; 1137.115;  -12.361; 3160.360
886.666; 1070.039;  -14.141; 3093.059
887.227; 1007.192;  -11.361; 2941.957
887.788;  940.278;  -11.401; 2974.836
888.349;  870.505;  -13.791; 2721.214
888.910;  860.581;  -13.191; 2696.493
889.471;  861.590;   -9.881; 2560.172
890.032;  842.237;   -9.881; 2558.190
890.593;  814.470;  -10.371; 2567.669
891.153;  787.831;  -13.301; 2460.307
891.714;  742.069;  -11.431; 2372.046
892.275;  709.503;  -11.291; 2309.505
892.835;  679.136;  -11.471; 2382.543
893.396;  630.459;  -11.541; 2295.502
893.956;  574.328;  -11.181; 2162.420
894.517;  529.824;  -11.741; 2125.439
895.077;  519.675;  -11.671; 2086.978
895.638;  522.376;  -11.311; 2126.316
896.198;  496.622;   -9.831; 1838.275
896.758;  453.047;   -8.421; 1892.813
897.319;  420.766;  -12.351; 1792.232
897.879;  404.569;  -13.511; 1762.751
898.439;  381.411;  -12.001; 1661.149
898.999;  354.429;  -10.180; 1781.468
899.559;  344.446;  -12.030; 1703.347
900.119;  339.829;  -15.710; 1537.525
900.679;  335.647;   -8.900; 1638.384
901.239;  320.720;   -8.340; 1527.902
901.799;  309.820;  -13.910; 1456.441
902.359;  304.081;  -13.460; 1357.140
902.919;  296.930;  -11.490; 1331.118
903.479;  284.923;  -12.110; 1317.257
904.038;  263.109;  -11.720; 1262.595
904.598;  248.092;  -13.610; 1152.034
905.158;  244.657;  -11.040; 1240.893
905.717;  238.067;  -10.900; 1233.691
906.277;  227.878;  -15.080; 1217.330
906.836;  217.962;  -13.380; 1222.408
907.396;  209.333;  -10.780; 1193.047
907.955;  201.610;   -8.500; 1182.526
908.515;  196.264;  -12.760; 1099.364
909.074;  189.777;  -11.900; 1092.863
909.633;  183.961;   -8.950; 1069.121
910.192;  179.401;   -8.770; 1196.460
910.752;  173.450;  -12.390; 1029.960
911.311;  169.615;  -13.680; 1009.780
911.870;  166.489;  -12.370;  971.460
912.429;  168.270;  -10.900; 1094.080
912.988;  165.982;  -11.690; 1081.060
913.547;  162.744;  -13.240;  940.380
914.106;  157.801;  -11.990;  999.420
914.665;  153.740;   -9.990;  984.020
915.224;  153.314;  -12.880; 1035.760
915.782;  153.551;  -12.350;  922.560
916.341;  153.490;   -9.110; 1049.840
916.900;  148.328;   -9.270;  925.260
917.458;  146.176;  -13.240;  884.220
918.017;  146.928;  -13.550;  942.600
918.576;  145.866;  -12.320;  904.440
919.134;  144.157;  -11.490;  837.980
919.693;  141.984;  -13.670;  893.060
920.251;  141.102;  -15.470;  876.500
920.809;  138.956;  -11.290;  839.580
921.368;  139.660;  -10.210;  885.360
921.926;  139.147;  -12.140;  842.940
922.484;  137.029;  -13.080;  903.360
923.042;  137.240;  -11.720;  880.340
923.601;  138.975;   -7.480;  998.680
924.159;  138.416;  -11.570;  935.560
924.717;  133.504;  -13.840;  841.080
925.275;  133.839;  -10.640;  903.240
925.833;  133.655;  -11.540;  779.320
926.391;  134.383;  -12.960;  938.380
926.949;  132.712;  -14.130;  857.680
927.506;  133.414;  -11.750;  903.500
928.064;  133.406;  -10.250;  877.580
928.622;  133.042;  -13.030;  880.100
929.180;  132.196;  -13.400;  814.180
929.737;  133.425;  -10.700;  808.540
930.295;  137.396;  -10.070;  928.480
930.853;  138.942;  -11.960;  849.100
931.410;  140.189;  -13.120;  821.120
931.968;  139.196;  -10.770;  940.660
932.525;  139.304;  -10.680;  909.380
933.082;  139.437;  -13.130;  811.440
933.640;  140.268;  -13.210;  925.900
934.197;  138.879;  -11.060;  886.360
934.754;  139.567;   -9.580;  897.780
935.312;  143.078;  -14.000;  863.340
935.869;  146.750;  -10.710; 1012.980
936.426;  147.533;   -9.860;  872.800
936.983;  148.558;   -9.710;  889.020
937.540;  148.160;  -13.990;  838.280
938.097;  147.899;  -14.040;  940.120
938.654;  148.603;  -10.310;  898.860
939.211;  150.595;  -10.560;  952.480
939.768;  153.837;  -13.900;  915.420
940.324;  157.877;  -14.760;  904.200
940.881;  160.146;  -10.370;  878.500
941.438;  161.324;   -8.260; 1021.200
941.995;  156.327;  -12.540;  992.560
942.551;  153.298;  -14.670;  875.620
943.108;  154.466;  -10.450;  937.920
943.664;  156.626;  -10.750;  869.340
944.221;  159.614;  -11.550; 1088.140
944.777;  157.294;  -14.770;  869.680
945.334;  158.016;  -12.820;  884.840
945.890;  159.270;  -10.130;  946.480
946.446;  159.889;  -13.470;  947.020
947.003;  161.344;  -12.120;  964.940
947.559;  164.784;   -9.980; 1063.040
948.115;  163.597;   -9.080; 1026.540
948.671;  161.268;  -10.830;  967.300
949.227;  158.664;  -12.440;  859.560
949.783;  156.614;  -12.910;  858.900
950.339;  159.342;  -10.270;  991.000
950.895;  158.957;  -13.630; 1023.840
951.451;  157.721;  -15.100;  925.280
952.007;  158.416;  -11.330;  998.540
952.563;  158.264;  -10.580;  937.780
953.118;  155.973;  -13.440;  904.940
953.674;  155.085;  -12.710;  935.780
954.230;  155.642;  -10.350;  949.640
954.785;  153.498;   -9.190;  936.640
955.341;  151.294;  -11.200;  998.160
955.897;  149.693;  -16.560;  834.660
956.452;  152.774;  -12.570;  953.840
957.008;  151.540;   -7.970; 1083.640
957.563;  148.244;  -11.940; 1009.540
958.118;  142.480;  -13.450;  877.700
958.674;  143.401;  -12.030;  946.780
959.229;  145.482;   -9.410; 1013.980
959.784;  143.080;  -12.000;  832.400
960.339;  141.780;  -14.780; 1001.280
960.894;  139.640;   -9.860;  963.760
961.449;  134.374;   -9.970;  859.960
962.004;  134.219;  -10.900; 1212.840
962.559;  128.968;  -13.150;  860.140
963.114;  126.683;  -13.740;  742.480
963.669;  126.897;   -9.820;  915.500
964.224;  124.140;  -13.890;  874.340
964.779;  123.567;  -12.600;  828.420
965.334;  124.970;  -10.950; 1017.860
965.888;  124.113;  -11.170;  875.360
966.443;  127.586;  -12.540;  972.380
966.998;  128.151;  -15.780;  819.460
967.552;  127.503;   -9.760;  908.380
968.107;  123.589;   -9.060;  868.300
968.661;  124.638;  -11.950;  922.440
969.216;  125.332;  -12.800;  856.280
969.770;  125.793;  -11.210;  917.200
970.324;  124.470;  -11.610;  923.140
970.879;  120.713;  -11.370;  947.180
971.433;  117.130;  -12.540;  952.720
971.987;  112.456;  -11.320;  895.340
972.541;  109.143;  -10.720;  917.100
973.095;  107.596;   -9.680; 1009.460
973.649;  107.278;  -11.440;  809.480
974.203;  107.053;  -11.210;  829.040
974.757;  107.188;  -10.240;  855.220
975.311;  104.519;  -13.720;  872.600
975.865;   97.292;  -13.770;  881.820
976.419;   88.778;  -11.690;  857.400
976.973;   81.748;   -9.510;  849.620
977.526;   79.791;  -12.620;  949.920
978.080;   77.893;  -12.010;  796.780
978.634;   81.957;  -10.170;  921.320
979.187;   82.071;   -9.020;  905.400
979.741;   83.196;   -9.820; 1018.380
980.294;   81.597;  -14.870;  789.160
980.848;   80.123;  -12.380;  717.220
981.401;   82.711;  -10.350;  816.540
981.955;   85.466;  -13.720;  844.300
982.508;   84.344;  -11.490;  746.340
983.061;   86.479;  -10.000;  915.260
983.615;   82.625;  -11.480;  798.800
984.168;   81.080;  -13.220;  770.080
984.721;   80.844;  -13.960;  880.760
985.274;   80.074;  -10.870;  867.500
985.827;   79.282;   -9.790;  834.220
986.380;   76.722;  -13.120;  721.340
986.933;   76.766;  -12.450;  864.800
987.486;   75.269;  -10.210;  861.920
988.039;   74.541;   -8.430;  863.100
988.591;   73.506;  -10.520;  893.260
989.144;   71.243;  -14.860;  737.260
989.697;   70.273;  -13.080;  758.740
990.250;   71.767;  -10.150;  858.100
990.802;   69.133;  -13.430;  755.860
991.355;   70.858;  -12.750;  974.880
991.907;   68.859;  -12.040;  864.320
992.460;   66.860;  -11.330;  753.760
993.012;   65.808;  -13.610;  749.540
993.565;   64.659;  -13.460;  711.360
994.117;   67.505;   -9.360;  950.780
994.669;   63.851;  -11.300;  701.320
995.221;   61.754;  -13.540;  791.920
995.774;   58.287;  -13.430;  787.580
996.326;   57.200;  -12.520;  740.220
996.878;   55.701;  -10.950;  838.420
997.430;   53.815;  -14.300;  699.860
997.982;   53.144;  -13.760;  750.140
998.534;   54.350;  -11.530;  739.060
999.086;   52.670;  -10.310;  738.220
999.638;   51.433;  -12.530;  661.380
1000.190;   51.353;  -11.840;  699.320
1000.741;   50.412;  -10.260;  742.700
1001.293;   50.694;   -8.860;  686.020
1001.845;   48.814;  -13.700;  676.640
1002.396;   49.325;  -12.100;  743.400
1002.948;   49.464;  -12.760;  737.400
1003.500;   47.505;  -10.380;  723.780
1004.051;   47.768;  -11.900;  907.580
1004.603;   45.959;  -12.250;  791.820
1005.154;   43.326;  -13.210;  608.980
1005.705;   42.312;  -10.950;  723.960
1006.257;   41.135;  -13.880;  707.220
1006.808;   41.103;  -12.840;  685.460
1007.359;   40.611;  -10.570;  763.240
1007.910;   39.678;   -9.620;  646.640
1008.461;   39.551;  -13.630;  732.940
1009.013;   38.677;  -17.200;  588.340
1009.564;   39.490;  -10.200;  793.520
1010.115;   37.546;  -12.570;  597.040
1010.665;   37.349;  -15.150;  602.160
1011.216;   36.953;  -14.480;  667.920
1011.767;   36.975;  -11.340;  697.920
1012.318;   36.415;   -9.780;  736.980
1012.869;   35.040;  -12.380;  679.000
1013.419;   35.071;  -15.560;  603.120
1013.970;   35.621;  -11.010;  666.640
1014.521;   34.527;  -11.610;  620.620
1015.071;   35.108;  -13.450;  670.380
1015.622;   34.097;  -13.870;  635.460
1016.172;   34.401;  -11.610;  596.820
1016.723;   33.885;  -12.120;  614.380
1017.273;   33.191;  -13.620;  604.160
1017.823;   33.434;  -14.140;  650.340
1018.374;   32.774;  -12.800;  611.760
1018.924;   32.299;  -12.340;  716.880
1019.474;   33.375;  -11.410;  718.880
1020.024;   31.793;  -14.770;  657.580
1020.574;   32.678;   -9.780;  726.160
1021.124;   32.370;   -8.560;  673.580
1021.674;   31.206;  -15.190;  559.120
1022.224;   31.947;  -13.530;  708.940
1022.774;   32.304;  -13.280;  668.820
1023.324;   32.209;  -10.690;  753.520
1023.874;   33.537;  -10.240;  875.760
1024.423;   31.028;  -12.540;  613.700
1024.973;   30.133;  -10.010;  610.760
1025.523;   29.696;  -10.550;  620.960
1026.072;   29.542;  -13.560;  606.420
1026.622;   29.111;  -15.120;  675.740
1027.172;   30.391;  -11.260;  715.660
1027.721;   29.264;  -11.410;  601.220
1028.270;   29.414;  -13.530;  663.400
1028.820;   29.917;  -13.680;  638.080
1029.369;   29.274;  -13.520;  612.700
1029.918;   28.711;  -10.980;  649.840
1030.468;   27.429;  -13.530;  564.780
1031.017;   28.376;  -13.170;  634.800
1031.566;   28.185;  -12.200;  608.900
1032.115;   28.477;   -9.960;  694.500
1032.664;   26.801;  -13.210;  596.480
1033.213;   27.669;  -12.500;  735.420
1033.762;   27.505;  -11.910;  635.620
1034.311;   27.247;   -9.640;  677.220
1034.860;   27.462;  -13.310;  691.000
1035.408;   26.667;  -11.830;  722.720
1035.957;   27.322;  -12.000;  719.540
1036.506;   25.236;  -11.690;  530.800
1037.055;   27.946;  -10.990;  844.320
1037.603;   25.931;  -15.120;  664.000
1038.152;   24.776;  -12.450;  534.760
1038.700;   25.458;  -10.560;  585.740
1039.249;   24.915;  -11.080;  681.220
1039.797;   25.604;  -12.540;  633.360
1040.345;   25.257;  -11.920;  705.420
1040.894;   25.000;  -11.410;  625.300
1041.442;   24.506;  -14.320;  632.200
1041.990;   23.367;  -16.240;  559.160
1042.538;   23.392;  -11.680;  536.180
1043.087;   23.568;  -10.760;  570.860
1043.635;   24.498;  -11.850;  670.500
1044.183;   23.808;  -15.480;  586.400
1044.731;   23.573;  -11.770;  576.000
1045.279;   23.678;  -13.090;  674.920
1045.827;   25.094;  -12.440;  892.400
1046.374;   22.320;  -13.840;  515.420
1046.922;   22.259;  -13.220;  590.580
1047.470;   23.872;  -10.230;  691.300
1048.018;   22.951;  -14.590;  647.960
1048.565;   23.368;  -12.050;  708.600
1049.113;   21.965;  -11.650;  557.000
1049.660;   22.307;  -10.510;  629.660
1050.208;   21.946;  -13.310;  675.640
1050.755;   22.008;  -15.900;  606.580
1051.303;   22.420;  -11.430;  686.820
1051.850;   21.754;   -8.480;  635.120
1052.397;   19.591;  -15.010;  473.960
1052.945;   20.603;  -13.960;  617.760
1053.492;   21.768;  -13.150;  741.840
1054.039;   22.232;   -9.630;  720.180
1054.586;   20.278;  -13.680;  557.240
1055.133;   20.608;  -14.570;  693.140
1055.680;   21.457;  -13.820;  646.620
1056.227;   20.038;  -11.730;  542.780
1056.774;   21.195;  -12.480;  794.980
1057.321;   18.980;  -13.930;  523.260
1057.868;   20.318;  -11.690;  651.320
1058.415;   19.957;   -9.520;  651.980
1058.961;   20.007;  -13.160;  678.940
1059.508;   19.800;  -12.920;  643.820
1060.055;   19.945;  -11.920;  581.780
1060.601;   19.839;  -11.500;  624.300
1061.148;   19.835;  -14.330;  616.820
1061.694;   18.334;  -16.870;  592.580
1062.241;   18.834;  -10.330;  596.320
1062.787;   18.895;  -10.620;  663.140
1063.334;   20.347;  -10.110;  808.560
1063.880;   18.386;  -13.400;  668.360
1064.426;   18.775;  -10.680;  706.820
1064.972;   17.651;   -9.920;  601.340
1065.518;   16.692;  -10.980;  566.640
1066.065;   18.327;  -14.890;  624.460
1066.611;   17.701;  -12.870;  598.800
1067.157;   18.370;  -12.950;  641.860
1067.703;   17.499;  -13.540;  668.480
1068.249;   17.252;  -13.540;  605.220
1068.794;   17.819;  -12.600;  626.880
1069.340;   16.787;  -10.620;  578.960
1069.886;   16.862;  -12.830;  590.700
1070.432;   16.198;  -14.870;  541.720
1070.977;   16.371;  -11.980;  601.080
1071.523;   15.894;   -8.200;  573.060
1072.068;   16.308;  -12.330;  582.000
1072.614;   16.018;  -16.370;  527.760
1073.160;   17.511;  -11.100;  687.040
1073.705;   15.767;  -10.480;  572.520
1074.250;   14.959;  -14.520;  559.900
1074.796;   15.906;  -11.460;  655.160
1075.341;   16.963;  -11.950;  664.100
1075.886;   15.350;  -11.460;  594.240
1076.431;   15.828;  -13.770;  649.880
1076.976;   15.094;  -12.680;  639.220
1077.521;   14.864;  -13.170;  583.080
1078.067;   14.154;  -10.860;  579.400
1078.612;   15.148;  -13.920;  661.620
1079.156;   14.744;  -13.880;  601.540
1079.701;   15.536;  -13.120;  693.260
1080.246;   15.781;   -9.940;  696.300
1080.791;   14.371;  -14.740;  625.020
1081.336;   13.920;  -13.750;  659.320
1081.880;   14.684;  -13.400;  649.680
1082.425;   13.321;  -12.220;  573.480
1082.970;   14.874;  -11.610;  717.040
1083.514;   13.654;  -13.580;  597.000
1084.059;   13.576;  -12.810;  586.720
1084.603;   13.567;  -12.320;  565.840
1085.147;   13.429;  -13.190;  645.220
1085.692;   14.493;  -12.480;  716.800
1086.236;   12.475;  -13.020;  503.140
1086.780;   14.487;   -9.190;  751.440
1087.325;   13.112;  -12.480;  654.620
1087.869;   13.215;  -12.450;  610.700
1088.413;   13.420;  -12.240;  705.040
1088.957;   11.819;   -9.020;  543.400
1089.501;   13.846;  -10.320;  766.640
1090.045;   12.222;  -12.720;  726.480
1090.589;   11.024;  -13.690;  569.920
1091.133;   12.494;  -10.020;  673.340
1091.676;   12.482;  -12.330;  591.940
1092.220;   11.531;  -14.970;  600.920
1092.764;   13.667;  -12.430;  706.960
1093.307;   12.770;   -9.800;  673.780
1093.851;   10.569;  -14.970;  556.540
1094.395;   12.106;  -15.310;  683.140
1094.938;   11.810;  -10.370;  632.520
1095.482;   10.950;  -11.050;  559.800
1096.025;   12.143;  -11.840;  710.880
1096.568;   11.985;  -12.840;  779.280
1097.112;   10.085;  -14.700;  508.180
1097.655;   11.229;   -8.720;  603.000
1098.198;   10.180;  -13.610;  600.180
1098.741;   10.418;  -13.350;  612.860
1099.285;   11.435;  -11.230;  657.300
1099.828;    9.256;  -11.840;  439.400
1100.371;    9.905;  -10.840;  608.160
1100.914;   10.179;  -14.190;  682.660
1101.457;   10.431;  -11.240;  679.900
1101.999;    8.964;  -11.270;  584.680
1102.542;    9.783;  -11.480;  641.440
1103.085;    8.986;  -11.750;  658.500
1103.628;   10.652;  -11.400;  762.060
1104.170;    9.573;  -10.490;  588.280
1104.713;    9.449;  -10.600;  646.700
1105.256;    8.988;  -14.360;  557.440
1105.798;    8.290;  -13.210;  499.980
1106.341;   10.235;  -10.270;  728.900
1106.883;    8.648;  -12.200;  521.340
1107.425;    9.143;  -13.110;  668.180
1107.968;    9.285;  -12.840;  612.380
1108.510;    9.127;   -6.480;  684.960
1109.052;    7.767;  -13.940;  612.620
1109.594;    7.750;  -13.690;  554.440
1110.136;    9.389;  -11.880;  643.220
1110.679;    8.389;   -9.500;  633.080
1111.221;    7.954;  -14.160;  604.460
1111.763;    7.804;  -13.980;  559.220
1112.304;    7.861;  -13.880;  547.140
1112.846;    8.222;  -12.210;  666.240
1113.388;   10.309;  -11.390;  942.180
1113.930;    7.445;  -14.540;  694.200
1114.472;    7.706;  -12.640;  606.540
1115.013;    6.697;  -11.620;  551.280
1115.555;    5.788;  -13.640;  587.100
1116.097;    5.806;  -15.380;  579.480
1116.638;    7.463;  -12.640;  684.600
1117.180;    7.816;   -9.850;  667.740
1117.721;    7.593;  -13.690;  568.580
1118.262;    8.006;  -12.680;  677.960
1118.804;    7.582;  -12.530;  637.340
1119.345;    6.371;  -11.690;  578.400
1119.886;    7.252;  -13.380;  704.040
1120.427;    6.145;  -14.070;  589.020
1120.969;    5.800;  -13.500;  597.920
1121.510;    4.897;  -11.480;  563.060
1122.051;    6.054;  -12.830;  723.580
1122.592;    5.386;  -14.290;  655.420
1123.133;    4.940;  -12.400;  547.940
1123.673;    6.857;  -10.130;  706.480
1124.214;    5.600;  -12.930;  612.460
1124.755;    5.890;  -14.380;  639.460
1125.296;    6.185;  -14.000;  627.320
1125.836;    6.676;  -10.070;  691.500
1126.377;    4.804;  -12.640;  599.660
1126.918;    5.690;  -12.960;  614.980
1127.458;    4.615;  -13.350;  622.220
1127.999;    5.446;  -10.750;  656.980
1128.539;    5.692;  -12.350;  694.240
1129.079;    4.190;  -14.860;  632.720
1129.620;    4.317;  -13.840;  558.100
1130.160;    3.859;  -12.330;  539.480
1130.700;    5.004;  -14.530;  640.840
1131.240;    5.450;  -12.530;  643.700
1131.781;    4.396;  -14.450;  619.680
1132.321;    4.827;   -9.790;  599.120
1132.861;    2.865;  -14.860;  564.200
1133.401;    2.491;  -14.290;  593.940
1133.941;    4.175;  -11.750;  626.280
1134.481;    2.684;   -9.920;  597.580
1135.020;    3.219;  -12.290;  609.160
1135.560;    3.989;  -11.650;  674.940
1136.100;    2.980;  -16.270;  501.160
1136.640;    3.266;  -10.890;  510.480
1137.179;    2.744;  -14.180;  537.960
1137.719;    2.804;  -16.250;  605.400
1138.258;    3.642;  -14.230;  587.360
1138.798;    4.001;   -9.090;  663.780
1139.337;    2.163;  -15.130;  482.840
1139.877;    3.584;  -13.680;  642.360
1140.416;    6.150;  -11.320;  878.060
1140.955;    1.975;  -10.860;  535.380
1141.494;    2.633;  -12.920;  669.280
1142.034;    2.303;  -13.930;  583.520
1142.573;    3.618;  -11.440;  646.280
1143.112;    2.375;  -12.000;  553.480
1143.651;    2.209;  -13.670;  536.480
1144.190;    2.969;  -12.730;  691.640
1144.729;    2.097;  -14.560;  607.420
1145.267;    2.335;  -11.830;  584.900
1145.806;    3.154;  -12.230;  637.040
1146.345;    1.413;  -14.130;  635.020
1146.884;    2.238;  -11.590;  622.500
1147.422;    0.988;  -12.550;  533.060
1147.961;    3.056;  -11.180;  708.460
1148.500;    2.175;  -11.510;  669.720
1149.038;    2.831;  -11.640;  632.500
1149.577;    2.312;  -10.130;  698.640
1150.115;   -0.066;  -13.970;  452.280
1150.653;    1.861;  -14.520;  607.340
1151.192;    2.105;  -12.810;  552.920
1151.730;    1.404;   -9.100;  652.560
1152.268;    0.635;  -12.220;  589.520
1152.806;    0.842;  -14.140;  571.180
1153.344;    0.205;  -12.350;  577.640
1153.882;    1.345;   -8.980;  600.060
1154.421;   -0.035;  -15.190;  470.620
1154.958;    0.266;  -15.210;  595.240
1155.496;    2.320;  -12.850;  645.280
1156.034;    1.511;   -9.940;  721.880
1156.572;    1.688;  -13.570;  667.060
1157.110;   -0.624;  -14.590;  473.940
1157.647;    1.787;  -13.030;  676.960
1158.185;   -0.192;  -12.140;  564.320
1158.723;   -0.883;  -14.390;  509.200
1159.260;    0.076;  -14.090;  701.700
1159.798;    1.377;  -11.920;  658.160
1160.335;    0.427;  -11.110;  631.820

