
Integration time [ms]:   3.276
Averaging Nr. [scans]: 1000
Smoothing Nr. [pixels]: 0
Data measured with spectrometer [name]: 7414430SP
Wave   ;Sample   ;Dark     ;Reference
[nm]   ;[counts] ;[counts] ;[counts] 

288.544;  151.546;    7.793;  793.890
289.143;  153.994;    7.462;  681.602
289.742;  155.082;    8.602;  828.814
290.341;  140.403;    1.321;  789.841
290.940;  129.591;   -0.709;  730.702
291.538;  131.044;    0.881;  881.108
292.137;  129.847;    0.122;  792.581
292.736;  134.910;   -1.929;  975.101
293.335;  131.603;   -8.229;  735.086
293.934;  131.171;   -5.279;  781.677
294.532;  130.082;   -1.369; 1031.958
295.131;  115.478;   -7.641;  834.394
295.730;  117.351;   -8.420;  809.588
296.328;  116.027;   -5.611;  783.442
296.927;  115.630;   -5.781;  779.652
297.525;  115.918;   -6.361;  781.236
298.124;  107.434;  -11.382;  654.009
298.722;  110.704;   -7.641;  761.933
299.321;  109.179;   -6.811;  708.597
299.919;  107.207;   -6.991;  751.918
300.518;  104.438;  -10.362;  689.338
301.116;  106.458;   -9.581;  691.381
301.715;  105.661;   -4.891;  730.222
302.313;  104.423;   -8.801;  704.943
302.911;  100.984;   -8.522;  733.830
303.509;  105.264;   -6.171;  925.627
304.108;  103.074;   -7.311;  760.383
304.706;  101.904;   -8.321;  801.664
305.304;   96.523;  -10.222;  796.707
305.902;  102.654;   -6.021;  784.484
306.500;   97.386;   -4.971;  728.200
307.098;   95.863;   -7.061;  746.560
307.696;   93.665;   -8.801;  780.432
308.294;   94.910;   -6.411;  731.359
308.892;   96.278;   -2.901;  759.769
309.490;   93.191;   -5.041;  712.161
310.088;   92.465;   -5.002;  788.444
310.686;   95.923;   -2.041;  821.749
311.284;   91.046;   -2.351;  766.040
311.882;   88.576;   -4.422;  731.225
312.480;   86.104;   -4.192;  697.167
313.078;   87.456;   -1.172;  808.331
313.675;   88.700;   -2.601;  691.600
314.273;   82.949;   -1.312;  797.837
314.871;   82.938;   -3.942;  589.829
315.468;   80.364;   -2.802;  652.090
316.066;   82.874;   -0.701;  694.427
316.664;   76.168;   -4.362;  656.351
317.261;   81.028;   -2.872;  910.128
317.859;   75.941;   -2.022;  768.735
318.456;   76.093;   -0.531;  830.096
319.054;   71.709;   -3.912;  787.828
319.651;   71.804;   -4.752;  759.928
320.249;   70.260;   -2.602;  810.188
320.846;   67.658;   -0.821;  714.286
321.443;   65.993;   -4.642;  832.135
322.041;   62.408;   -5.002;  812.315
322.638;   60.793;   -3.982;  701.456
323.235;   61.453;   -3.411;  665.683
323.833;   58.824;   -7.361;  740.354
324.430;   54.364;   -8.611;  615.900
325.027;   55.574;   -4.061;  876.855
325.624;   54.648;   -4.031;  644.532
326.221;   51.548;   -7.481;  689.717
326.818;   52.254;   -5.281;  818.332
327.415;   54.626;   -7.460;  748.828
328.012;   53.940;   -5.510;  690.585
328.609;   53.004;   -7.880;  731.389
329.206;   51.510;   -8.331;  778.621
329.803;   51.472;   -5.121;  737.841
330.400;   53.896;   -4.510;  704.260
330.997;   55.120;   -6.441;  817.147
331.594;   54.040;   -8.831;  788.185
332.191;   59.144;   -7.621;  728.722
332.787;   61.875;   -4.591;  844.463
333.384;   59.823;   -7.412;  763.093
333.981;   59.610;   -8.293;  815.687
334.578;   61.804;   -7.052;  708.378
335.174;   64.562;   -3.102;  731.469
335.771;   63.779;   -5.943;  836.456
336.367;   62.501;   -7.393;  710.631
336.964;   65.033;   -4.063;  793.266
337.561;   62.605;   -3.813;  731.112
338.157;   58.067;   -4.654;  911.916
338.754;   56.106;   -7.934;  796.589
339.350;   53.569;   -4.414;  722.493
339.946;   55.001;   -4.664;  773.135
340.543;   46.882;   -6.375;  846.136
341.139;   43.237;   -9.815;  720.836
341.735;   40.625;   -4.526;  772.593
342.332;   39.193;   -4.895;  691.472
342.928;   39.877;   -4.295;  795.394
343.524;   33.779;   -5.476;  761.684
344.120;   30.517;   -5.856;  738.562
344.716;   33.807;   -2.155;  723.717
345.313;   30.922;   -6.275;  795.342
345.909;   26.471;   -8.815;  627.336
346.505;   27.440;   -5.305;  740.247
347.101;   28.342;   -2.674;  827.864
347.697;   28.326;   -4.344;  785.398
348.293;   23.659;   -9.975;  627.244
348.889;   23.865;   -5.774;  745.914
349.485;   23.304;   -5.004;  688.205
350.081;   23.917;   -4.704;  772.592
350.676;   19.685;   -6.635;  691.606
351.272;   23.487;   -4.504;  809.530
351.868;   23.927;   -3.914;  780.497
352.464;   20.365;   -9.044;  723.932
353.059;   16.963;   -8.314;  646.017
353.655;   20.413;   -7.024;  777.063
354.251;   21.261;   -5.343;  759.845
354.846;   15.863;   -8.604;  740.646
355.442;   14.004;   -6.945;  753.071
356.038;   15.987;   -7.564;  751.708
356.633;   15.440;   -5.814;  728.594
357.229;   13.434;   -7.364;  724.757
357.824;   12.550;   -8.024;  703.600
358.420;   11.626;   -9.384;  679.726
359.015;   11.947;   -5.104;  695.357
359.610;   12.548;   -6.854;  763.920
360.206;    7.869;  -10.185;  603.240
360.801;    9.551;   -7.054;  646.503
361.396;   11.685;   -5.034;  725.975
361.992;    7.115;   -8.284;  668.220
362.587;    4.797;   -8.625;  670.160
363.182;    6.722;   -7.674;  689.631
363.777;    6.918;   -5.164;  738.242
364.372;    6.949;   -8.604;  737.314
364.967;    3.409;   -9.055;  680.744
365.563;    7.363;   -6.114;  815.567
366.158;    5.039;   -5.814;  685.161
366.753;    5.218;   -7.854;  649.263
367.348;    3.989;   -7.804;  746.056
367.942;    3.448;   -7.954;  697.298
368.537;    2.152;   -4.984;  754.245
369.132;    2.486;   -8.564;  703.428
369.727;   -0.824;   -8.855;  638.079
370.322;    0.863;   -6.245;  580.186
370.917;   -0.750;   -6.425;  710.646
371.511;    2.773;   -6.294;  861.834
372.106;   -0.401;   -7.685;  776.964
372.701;   -3.904;   -7.335;  585.988
373.296;    1.138;   -4.564;  863.135
373.890;   -3.145;  -10.235;  647.840
374.485;   -4.735;   -7.885;  691.199
375.079;   -0.882;   -7.324;  738.685
375.674;    0.156;   -3.494;  812.970
376.268;   -4.669;   -8.525;  691.759
376.863;   -9.420;  -10.086;  580.327
377.457;   -3.332;   -7.025;  662.490
378.052;   -6.178;   -3.585;  764.884
378.646;   -6.018;   -7.595;  741.167
379.240;   -6.513;   -8.335;  721.176
379.835;   -5.944;   -5.785;  636.978
380.429;   -7.861;   -4.335;  562.557
381.023;   -8.004;   -6.805;  779.205
381.617;  -10.114;   -9.195;  680.106
382.212;   -7.123;   -6.905;  685.303
382.806;   -5.416;   -3.745;  760.690
383.400;   -9.956;   -7.745;  672.281
383.994;  -10.840;   -9.765;  664.870
384.588;   -7.370;   -6.564;  697.701
385.182;   -5.451;   -5.344;  726.624
385.776;   -6.798;   -8.514;  706.875
386.370;   -9.752;   -9.555;  681.968
386.964;   -8.454;   -8.715;  684.155
387.558;   -7.480;   -6.174;  598.360
388.152;  -11.100;   -8.725;  681.959
388.745;   -9.238;   -7.965;  814.707
389.339;   -7.083;   -5.924;  747.642
389.933;   -6.259;   -5.524;  695.370
390.527;   -7.922;   -7.114;  859.029
391.120;  -13.098;  -10.725;  595.318
391.714;  -10.982;   -8.035;  711.633
392.308;   -7.431;   -3.574;  780.253
392.901;  -11.313;   -7.245;  642.460
393.495;  -12.454;   -9.285;  595.414
394.089;  -10.688;   -5.895;  760.452
394.682;  -10.940;   -4.295;  697.188
395.275;  -12.606;   -9.875;  719.927
395.869;  -13.002;   -8.485;  667.314
396.462;  -11.984;   -7.455;  616.609
397.056;   -7.930;   -5.424;  776.621
397.649;  -12.585;   -6.605;  731.575
398.242;   -9.491;   -8.224;  712.645
398.836;   -9.306;   -7.474;  766.408
399.429;  -10.139;   -7.094;  631.041
400.022;  -13.282;   -9.475;  665.902
400.615;  -11.164;   -7.145;  805.609
401.208;   -8.888;   -7.174;  691.451
401.802;  -10.883;   -5.515;  699.329
402.395;  -12.321;   -9.875;  683.502
402.988;  -13.381;   -8.845;  696.627
403.581;   -9.988;   -8.874;  646.878
404.174;   -7.977;   -5.324;  686.568
404.767;  -10.726;   -9.575;  638.583
405.360;  -13.711;  -10.965;  621.445
405.953;   -7.560;   -8.764;  759.034
406.545;   -7.659;   -7.514;  725.342
407.138;  -11.584;  -10.025;  618.350
407.731;   -9.812;  -10.034;  613.303
408.324;   -6.404;   -9.374;  660.554
408.917;   -7.037;   -6.534;  681.864
409.509;   -8.818;   -8.004;  740.396
410.102;  -10.591;   -9.875;  643.948
410.695;   -5.059;   -8.604;  665.758
411.287;   -6.362;   -6.794;  599.821
411.880;   -8.140;   -9.334;  585.421
412.472;   -9.646;  -10.254;  613.092
413.065;   -7.362;   -6.714;  629.408
413.657;   -5.712;   -7.234;  576.678
414.250;   -5.304;  -10.544;  646.681
414.842;   -6.728;   -9.744;  676.353
415.434;   -4.578;   -6.994;  570.463
416.027;   -0.619;   -5.893;  652.196
416.619;   -2.259;   -7.264;  713.400
417.211;   -2.109;  -10.374;  599.352
417.804;    0.814;   -7.993;  628.499
418.396;   -3.786;   -7.234;  607.643
418.988;   -1.557;   -9.443;  659.238
419.580;   -3.520;  -10.724;  568.276
420.172;   -2.896;  -10.323;  536.196
420.764;    3.026;   -8.793;  672.482
421.356;    0.481;  -11.143;  636.898
421.948;    0.662;   -8.293;  677.661
422.540;    5.658;   -7.893;  680.027
423.132;    4.786;   -7.082;  600.641
423.724;    1.128;   -8.653;  561.267
424.316;    3.534;  -10.213;  621.345
424.908;    6.874;   -9.762;  591.517
425.500;    7.349;   -5.572;  647.978
426.092;    6.970;   -8.422;  648.268
426.683;    6.837;   -9.283;  684.836
427.275;    9.409;   -7.852;  641.471
427.867;   11.123;   -5.272;  668.948
428.458;   11.198;   -7.682;  732.344
429.050;    9.776;  -10.612;  680.749
429.642;   12.108;   -9.882;  743.124
430.233;   12.920;   -6.962;  569.356
430.825;   14.170;   -6.842;  724.809
431.416;   11.806;   -9.672;  698.241
432.008;   14.470;   -6.552;  651.723
432.599;   16.050;   -6.891;  656.073
433.190;   12.781;  -10.912;  637.670
433.782;   12.555;  -11.172;  590.395
434.373;   19.390;   -6.061;  884.765
434.964;   18.127;   -8.251;  602.920
435.556;   15.662;   -9.722;  634.537
436.147;   19.200;   -9.082;  758.490
436.738;   19.487;   -8.041;  701.099
437.329;   24.163;   -7.341;  721.723
437.920;   17.572;   -8.162;  666.688
438.511;   17.675;  -11.802;  564.526
439.103;   24.083;  -10.191;  623.998
439.694;   25.204;   -7.601;  681.583
440.285;   25.772;   -8.541;  764.432
440.876;   24.777;   -9.751;  845.738
441.466;   24.137;   -9.401;  575.162
442.057;   29.881;   -7.760;  665.814
442.648;   28.031;   -9.971;  746.255
443.239;   26.350;  -11.001;  620.477
443.830;   31.884;   -7.990;  704.958
444.421;   33.155;   -7.910;  655.474
445.011;   29.777;   -8.131;  693.619
445.602;   30.011;   -7.111;  743.126
446.193;   31.993;  -10.920;  488.117
446.783;   36.201;   -6.500;  640.397
447.374;   31.247;   -8.671;  692.759
447.964;   32.370;  -10.781;  713.770
448.555;   40.857;   -9.650;  822.742
449.145;   36.120;   -8.660;  662.853
449.736;   37.762;   -8.990;  803.179
450.326;   38.726;   -9.500;  713.626
450.917;   42.789;   -8.680;  675.324
451.507;   42.597;   -7.520;  600.661
452.097;   42.722;   -8.590;  746.267
452.688;   43.667;  -11.340;  742.160
453.278;   43.688;  -10.100;  566.840
453.868;   48.586;   -6.019;  793.550
454.458;   45.465;   -9.440;  651.141
455.048;   46.571;  -10.560;  711.783
455.639;   48.788;  -11.799;  567.096
456.229;   51.756;   -6.899;  710.694
456.819;   53.681;   -7.389;  751.158
457.409;   54.233;  -11.119;  773.993
457.999;   56.703;   -9.289;  737.505
458.589;   56.455;   -6.139;  686.606
459.179;   56.210;   -8.729;  717.658
459.769;   54.766;   -9.789;  627.099
460.358;   59.262;  -10.259;  797.262
460.948;   59.740;   -7.299;  689.503
461.538;   60.670;  -10.289;  660.677
462.128;   59.418;  -11.269;  664.934
462.717;   65.537;   -9.368;  710.326
463.307;   68.429;   -7.908;  705.846
463.897;   64.269;   -9.599;  656.942
464.486;   64.806;   -9.769;  837.128
465.076;   69.133;   -8.048;  733.776
465.666;   71.975;   -9.358;  652.900
466.255;   69.418;   -7.919;  785.651
466.845;   69.030;  -11.689;  666.749
467.434;   72.160;   -7.818;  725.873
468.023;   73.476;   -7.678;  658.357
468.613;   70.544;  -10.939;  713.946
469.202;   75.251;  -10.118;  646.507
469.791;   79.232;   -9.108;  737.811
470.381;   81.001;   -6.058;  742.813
470.970;   80.063;  -10.428;  711.099
471.559;   81.133;  -10.268;  733.291
472.148;   83.491;   -8.448;  675.737
472.738;   86.880;   -6.917;  765.466
473.327;   86.408;  -11.978;  637.529
473.916;   86.187;  -11.888;  737.446
474.505;   91.002;   -9.437;  751.703
475.094;   93.661;   -6.747;  806.570
475.683;   92.577;   -9.367;  797.699
476.272;   94.415;  -12.637;  730.632
476.861;   96.220;  -10.027;  706.754
477.449;  103.473;   -8.716;  728.487
478.038;   97.995;   -9.577;  692.513
478.627;   99.352;   -9.718;  714.852
479.216;  105.511;   -8.947;  769.441
479.805;  108.712;   -6.256;  783.375
480.393;  108.464;   -7.937; 1008.945
480.982;  108.079;   -7.717;  874.501
481.571;  114.415;   -9.266;  858.333
482.159;  115.426;   -7.636;  705.386
482.748;  115.324;   -9.667;  821.385
483.336;  119.112;  -10.376;  858.209
483.925;  120.712;   -7.147;  774.373
484.513;  126.742;   -7.996;  758.962
485.102;  122.994;  -10.027;  810.965
485.690;  132.161;  -10.446; 1011.050
486.278;  135.077;   -8.446;  979.329
486.867;  135.803;   -6.356;  809.662
487.455;  136.677;   -9.136;  898.229
488.043;  139.283;  -10.646;  748.361
488.631;  147.172;   -7.456; 1005.079
489.220;  151.691;   -6.636;  908.626
489.808;  152.465;  -11.036;  741.415
490.396;  160.122;  -10.246;  914.645
490.984;  167.466;   -8.556;  830.161
491.572;  176.429;   -5.886;  940.315
492.160;  182.522;   -9.486;  919.081
492.748;  196.003;  -10.976;  884.341
493.336;  220.380;   -8.776; 1019.693
493.924;  247.120;   -5.465;  958.077
494.512;  277.647;   -9.986; 1066.638
495.100;  318.387;  -10.636; 1103.280
495.687;  375.789;  -10.885; 1206.373
496.275;  444.738;   -8.126; 1150.796
496.863;  517.539;  -10.586; 1281.171
497.451;  625.650;  -11.926; 1386.805
498.038;  767.819;  -10.885; 1556.729
498.626;  882.817;   -6.315; 1741.407
499.214; 1042.595;   -7.326; 2016.609
499.801; 1260.339;  -11.906; 2220.633
500.389; 1506.505;  -10.466; 2312.494
500.976; 1831.233;   -5.236; 2744.849
501.564; 2284.374;   -8.936; 3148.565
502.151; 2673.581;  -13.176; 3515.999
502.738; 3136.139;  -10.646; 3971.274
503.326; 3552.225;   -9.525; 4403.796
503.913; 3990.817;  -10.856; 5161.749
504.500; 4404.076;  -11.586; 5986.420
505.088; 4799.332;  -10.336; 6381.201
505.675; 5361.909;   -6.355; 6925.547
506.262; 6094.274;   -9.046; 7619.060
506.849; 6873.399;  -10.416; 8733.969
507.436; 7463.509;  -10.305; 9790.121
508.023; 8078.097;   -5.496; 9985.472
508.610; 8290.383;   -7.856;10434.618
509.197; 8944.290;  -10.097;11198.435
509.784;10373.407;  -10.886;12391.194
510.371;11579.520;   -9.315;13603.713
510.958;12361.786;   -9.936;14426.586
511.545;13140.638;   -9.326;15243.775
512.132;14082.126;  -10.075;15945.876
512.719;14735.994;   -7.796;16340.369
513.305;15954.120;  -10.606;18011.766
513.892;16727.717;  -11.486;19754.971
514.479;17948.330;   -9.126;20967.805
515.066;19399.541;   -6.026;22299.793
515.652;21012.432;   -8.466;22908.660
516.239;22421.859;  -10.886;23798.875
516.825;23460.967;  -11.496;25567.275
517.412;24667.416;   -5.796;28154.959
517.998;25374.240;  -10.506;28344.111
518.585;25192.502;  -10.076;27134.219
519.171;25741.293;   -8.315;27268.576
519.758;27963.922;   -8.596;28964.129
520.344;30043.098;   -8.466;30664.494
520.930;29639.912;  -11.006;32550.605
521.516;31045.604;  -10.495;35422.895
522.103;33144.195;   -5.526;38280.004
522.689;33904.512;   -8.746;37835.117
523.275;33200.727;  -11.376;37288.613
523.861;34674.773;  -11.156;37281.395
524.447;36493.844;   -8.135;37846.949
525.033;36298.020;   -7.896;38321.949
525.619;36629.074;  -12.476;38579.285
526.205;38074.703;   -9.516;40622.875
526.791;40824.480;   -6.926;42258.836
527.377;40679.930;   -8.346;42966.902
527.963;41887.660;   -8.717;42018.949
528.549;41019.734;  -11.016;42476.828
529.135;39775.602;   -8.536;41854.852
529.721;38762.492;   -9.666;41237.711
530.306;38238.715;  -10.066;41259.445
530.892;38006.098;  -11.356;41506.047
531.478;38853.145;   -6.596;43559.613
532.063;42254.094;   -8.836;47695.563
532.649;43201.875;  -10.047;50808.324
533.235;44062.559;   -9.746;51787.500
533.820;44931.680;   -6.566;52145.035
534.406;46201.852;  -10.817;51133.488
534.991;45904.492;   -9.416;49996.805
535.576;44270.898;   -9.036;48882.852
536.162;44993.820;   -6.156;46942.285
536.747;46347.742;  -11.607;45711.746
537.333;49523.594;  -11.787;48510.180
537.918;52166.492;  -12.437;50439.891
538.503;51306.941;   -7.196;50863.711
539.088;48139.961;  -10.556;50906.922
539.673;48520.656;   -8.767;52621.965
540.259;49038.359;  -10.026;52368.094
540.844;46154.758;   -7.416;50879.109
541.429;47556.551;   -9.467;52077.777
542.014;49921.871;   -9.527;52716.695
542.599;49211.754;   -9.946;52363.281
543.184;45954.980;   -7.927;53187.137
543.769;47192.801;   -9.297;54697.605
544.354;47500.313;  -10.127;53913.914
544.938;45964.594;   -9.267;49680.164
545.523;47565.156;   -6.506;47386.277
546.108;50215.586;   -9.787;49151.949
546.693;52288.484;  -11.587;51384.637
547.278;52639.051;  -10.986;51853.254
547.862;49297.809;   -8.206;51173.750
548.447;44539.254;  -10.067;51691.395
549.031;43895.074;   -9.637;52456.703
549.616;48968.832;   -9.926;52714.516
550.201;48610.262;   -6.347;52414.598
550.785;49877.477;   -7.917;52355.059
551.370;49196.570;  -10.867;54589.453
551.954;48992.773;   -9.047;58267.348
552.538;49806.242;   -7.827;59062.176
553.123;47969.500;  -10.287;58115.285
553.707;45768.563;  -12.178;56556.285
554.291;47231.082;   -8.717;56201.668
554.876;50139.406;   -7.457;55335.762
555.460;50302.898;  -10.387;54155.703
556.044;50559.773;   -9.618;53721.484
556.628;48442.797;  -11.567;53731.016
557.212;47260.488;   -8.097;54312.531
557.796;45997.430;  -11.077;53797.773
558.380;46040.559;  -11.108;56145.984
558.964;46192.094;   -9.057;57277.930
559.548;46870.039;   -6.977;56459.641
560.132;45003.547;  -11.457;54434.543
560.716;43758.254;  -11.378;54800.617
561.300;45218.961;   -9.577;57606.945
561.884;46320.941;   -7.127;58972.445
562.467;44268.215;   -7.118;57327.570
563.051;43143.637;  -13.358;54962.434
563.635;44300.305;  -10.178;52594.473
564.219;45345.293;   -7.837;50610.410
564.802;46112.133;  -11.398;49551.180
565.386;45624.484;  -12.788;48370.953
565.969;45028.844;   -9.077;48178.871
566.553;44165.223;   -6.207;49957.305
567.136;44954.039;   -8.568;50369.594
567.720;41391.242;  -11.868;49492.004
568.303;39367.383;   -8.268;50616.352
568.887;39283.168;   -8.698;50727.148
569.470;39847.777;   -6.808;51698.379
570.053;38919.672;  -13.188;52122.078
570.637;36417.160;  -12.037;52536.438
571.220;35947.859;   -8.577;51186.098
571.803;36734.727;   -8.498;51032.762
572.386;39290.945;  -10.498;49609.887
572.969;41960.746;   -9.388;48285.926
573.552;40083.262;   -8.338;47624.285
574.135;38685.668;   -8.518;45498.641
574.718;35975.078;  -13.628;41970.434
575.301;35089.230;  -10.893;41447.137
575.884;34203.379;   -8.158;40923.836
576.467;35454.102;  -10.328;45267.723
577.050;37271.691;  -13.058;48175.543
577.633;38423.336;   -9.458;47729.328
578.216;37482.754;   -8.928;47579.793
578.799;36530.984;   -9.358;47820.996
579.381;35320.980;  -11.388;48115.551
579.964;33352.480;  -11.718;47333.766
580.547;35328.410;   -8.588;46668.969
581.129;36259.746;   -8.859;44466.141
581.712;37110.922;  -10.729;44164.922
582.294;37643.191;  -11.118;46477.855
582.877;37746.504;   -5.218;48244.254
583.459;35756.367;   -8.679;47437.895
584.042;33542.172;  -10.709;46943.219
584.624;33718.371;  -11.669;46792.227
585.206;33556.680;   -8.218;46557.250
585.789;34108.402;  -10.569;45793.773
586.371;36425.270;  -11.859;43836.391
586.953;36931.578;  -10.719;42972.492
587.536;37958.586;   -7.198;42487.211
588.118;38186.434;   -8.720;42086.414
588.700;34299.305;  -10.439;43389.930
589.282;33344.109;   -9.198;43646.039
589.864;34439.574;   -9.199;43438.109
590.446;35637.516;  -11.319;43151.926
591.028;35157.512;  -11.159;42781.867
591.610;33843.453;  -11.779;42839.098
592.192;31417.453;   -7.668;42820.402
592.774;30160.588;  -11.949;40724.277
593.356;29192.213;  -12.129;39874.789
593.937;28339.262;  -10.669;39980.648
594.519;30789.771;   -6.509;42069.633
595.101;32785.188;  -10.849;42976.031
595.683;32768.770;  -11.679;44084.441
596.264;33680.008;   -9.049;43478.797
596.846;33140.563;   -8.849;43803.672
597.427;32810.145;   -9.570;42986.934
598.009;33932.523;  -12.620;42832.219
598.591;34223.633;  -10.039;42580.086
599.172;33797.566;  -10.369;43061.805
599.753;33949.414;   -9.140;41691.469
600.335;35297.762;  -11.430;40692.520
600.916;33629.977;   -9.939;39982.422
601.498;31626.611;   -8.479;40318.617
602.079;30090.930;  -10.920;40670.609
602.660;29973.967;  -11.480;41450.898
603.241;31616.051;  -11.699;41137.738
603.823;30122.693;   -9.579;38868.797
604.404;29712.471;  -10.620;38182.785
604.985;31417.219;  -10.450;38078.047
605.566;31176.889;   -9.129;38056.633
606.147;31211.605;   -7.510;37020.418
606.728;32792.672;  -10.660;37883.359
607.309;31424.293;  -11.740;38748.273
607.890;31093.623;   -9.759;38850.230
608.471;30625.674;   -8.250;37457.918
609.051;29957.842;   -9.240;36066.457
609.632;28731.326;  -12.120;35991.074
610.213;29137.994;   -9.110;37402.641
610.794;29932.697;   -8.030;38383.363
611.374;29865.227;   -8.110;40562.387
611.955;30531.701;  -13.560;38533.727
612.536;31863.527;  -11.400;36951.789
613.116;31666.871;   -8.070;37197.891
613.697;31834.479;  -10.830;38411.125
614.277;30206.322;  -11.641;38673.938
614.858;31090.951;  -13.310;37075.863
615.438;30545.889;   -7.460;35092.906
616.019;28034.549;   -7.601;33666.301
616.599;28163.020;  -12.020;34189.023
617.179;29703.170;  -11.780;36952.047
617.760;30741.490;   -8.570;39582.574
618.340;31646.752;  -11.471;38943.977
618.920;32562.564;  -11.170;37594.156
619.500;32695.350;  -11.071;37866.938
620.080;31948.967;   -7.750;37869.043
620.660;33221.336;  -12.711;36868.617
621.241;35157.145;  -10.211;36352.309
621.821;35430.305;  -10.961;35459.520
622.401;33972.750;   -7.720;35207.414
622.980;32774.930;   -8.981;35980.422
623.560;31391.918;   -9.331;37351.328
624.140;30390.313;   -9.850;34388.582
624.720;25421.053;   -7.451;32368.764
625.300;21825.293;   -9.070;32638.629
625.880;25195.639;  -12.601;34599.035
626.459;29452.105;  -11.751;36831.738
627.039;32361.143;   -9.281;38299.098
627.619;32089.357;   -8.801;38289.574
628.198;30339.338;  -12.071;37220.695
628.778;29355.162;   -9.461;37632.563
629.357;30231.783;   -8.491;38003.012
629.937;30612.969;   -9.721;38402.039
630.516;30104.059;   -9.951;37868.801
631.096;29587.297;  -11.731;35760.410
631.675;32138.014;   -8.572;35225.219
632.254;37432.219;  -11.282;35130.289
632.834;36897.449;  -13.322;35794.570
633.413;35160.383;  -10.301;35788.922
633.992;32334.355;   -8.582;34532.863
634.571;32927.965;   -8.352;33590.113
635.151;35336.031;  -11.912;34943.863
635.730;33760.660;  -10.511;35352.523
636.309;30600.797;   -7.731;35366.605
636.888;28317.951;   -9.952;36165.637
637.467;29002.604;  -11.672;37515.902
638.046;30513.078;   -8.901;39288.695
638.625;33414.680;   -7.912;38279.699
639.204;33341.477;  -10.022;37741.598
639.782;32275.938;  -12.252;38364.551
640.361;28220.600;  -10.041;36740.621
640.940;25497.455;  -11.161;34950.082
641.519;26143.982;   -9.701;34137.398
642.097;29115.865;  -11.271;35654.258
642.676;31969.785;   -8.651;35637.957
643.255;32911.477;   -8.711;36567.074
643.833;32054.959;   -9.581;37809.434
644.412;32183.871;  -13.711;37337.293
644.990;31227.834;  -11.811;37018.531
645.569;31319.816;   -9.411;36518.469
646.147;30792.924;  -10.291;36186.430
646.726;30515.352;  -12.401;36267.688
647.304;31368.656;  -10.411;36647.625
647.882;32933.406;   -9.651;39286.742
648.461;34619.148;   -9.631;39157.703
649.039;32876.688;  -11.881;35412.883
649.617;31814.959;   -9.661;34744.918
650.195;31204.018;   -9.301;35403.098
650.773;29778.219;  -10.511;35053.797
651.352;27645.320;  -11.521;33756.816
651.930;25442.316;  -12.211;31868.773
652.508;23644.963;   -9.171;33121.551
653.086;27560.896;   -9.371;33564.793
653.663;30451.211;  -13.161;34054.668
654.241;29311.982;  -13.031;35693.309
654.819;30898.938;   -9.371;36422.906
655.397;30626.988;  -10.511;38213.484
655.975;30083.820;  -10.371;39507.625
656.553;29738.723;  -10.051;39498.223
657.130;28346.121;  -10.061;40395.480
657.708;27824.424;   -9.561;39242.020
658.286;27949.068;  -11.511;38920.020
658.863;29008.379;  -10.261;40202.898
659.441;32243.324;   -7.531;39677.938
660.018;32128.295;   -9.501;40413.355
660.596;30711.799;  -13.301;39931.414
661.173;32477.145;  -11.211;39604.531
661.750;33026.059;   -9.951;39700.070
662.328;32266.596;   -9.390;39292.809
662.905;31265.896;  -11.330;38235.648
663.482;26502.457;   -9.050;36212.305
664.060;24545.164;   -8.240;35944.945
664.637;27620.461;  -10.050;35170.785
665.214;29138.908;  -11.760;34197.523
665.791;30609.748;  -10.530;34549.520
666.368;29642.699;   -9.690;35118.578
666.945;30220.797;   -9.320;36019.418
667.522;31663.760;  -11.860;36048.438
668.099;31473.279;  -10.770;36243.914
668.676;30148.068;   -6.260;35958.875
669.253;28794.070;   -7.000;37384.730
669.830;29066.051;  -10.190;36779.629
670.407;29050.551;   -9.550;35231.289
670.984;29216.510;   -9.260;35544.270
671.560;29896.619;   -9.280;35466.867
672.137;29046.168;  -11.810;34280.863
672.714;30150.348;  -11.490;34632.863
673.290;31219.752;   -7.740;35135.422
673.867;31237.822;  -10.660;36114.480
674.443;30817.000;  -12.230;36152.859
675.020;28702.678;  -10.450;35327.238
675.596;29962.607;   -9.260;35795.176
676.173;30711.484;  -10.780;35430.355
676.749;30256.789;  -13.690;33549.516
677.326;29978.365;  -11.980;32210.012
677.902;29910.098;   -8.630;32068.871
678.478;29304.604;  -10.730;32583.891
679.054;28532.578;  -10.520;32088.928
679.631;28944.623;  -11.920;30978.848
680.207;30342.848;   -7.490;33160.887
680.783;31752.436;   -9.860;35570.363
681.359;30857.018;  -13.380;36125.184
681.935;30642.602;  -12.480;35240.922
682.511;30315.361;   -7.900;34429.961
683.087;30599.291;   -7.710;34463.680
683.663;30033.412;  -11.480;34648.898
684.239;28529.678;  -14.090;34546.457
684.815;27717.240;   -7.560;35586.375
685.390;27767.996;   -9.910;35821.895
685.966;28311.158;  -11.159;35085.871
686.542;31032.535;  -11.169;34198.230
687.118;33396.105;   -5.959;32847.707
687.693;33612.840;  -10.329;32794.027
688.269;33249.551;  -12.059;33072.367
688.844;31348.883;  -10.909;33141.664
689.420;29316.104;   -8.019;33965.742
689.995;27537.387;   -8.399;34655.523
690.571;26308.041;  -10.949;33576.742
691.146;26344.734;   -9.619;32657.219
691.722;26023.008;   -8.999;32526.979
692.297;26003.789;  -11.589;33014.617
692.872;27480.961;  -11.739;34012.254
693.448;27139.527;  -11.059;34237.434
694.023;26146.730;  -10.139;34142.672
694.598;28219.314;   -9.029;34132.031
695.173;28887.076;  -13.319;34205.250
695.748;27878.287;  -10.169;32882.488
696.323;27513.691;   -8.339;32864.906
696.898;27648.764;   -8.169;33170.004
697.473;27815.078;  -12.309;32432.984
698.048;27125.496;  -10.989;31649.303
698.623;26907.117;   -9.329;30778.141
699.198;28555.393;   -9.849;31140.119
699.773;29853.635;  -12.329;31764.299
700.348;28625.355;  -10.389;31780.816
700.922;28460.137;   -9.269;32046.375
701.497;29253.439;   -9.329;32603.574
702.072;29364.719;  -10.789;34799.871
702.646;28101.572;  -10.839;35793.172
703.221;26233.852;   -9.099;35201.590
703.795;28057.873;  -10.939;34764.527
704.370;28393.684;  -12.859;34307.367
704.944;28624.619;  -11.559;33509.887
705.519;29377.328;   -7.939;31388.584
706.093;30660.033;  -10.499;31340.104
706.668;30925.844;  -11.289;32630.281
707.242;29908.869;  -11.509;32728.779
707.816;28743.137;   -9.639;32947.238
708.390;27243.531;  -11.429;33277.855
708.965;27810.816;  -11.869;33834.336
709.539;28107.379;  -11.689;33709.273
710.113;28073.721;  -10.478;33044.313
710.687;27282.332;  -10.228;31953.992
711.261;25679.266;  -13.698;30505.949
711.835;25683.512;  -13.378;30262.369
712.409;26307.156;   -9.698;31254.447
712.983;28238.113;  -11.898;32754.986
713.557;29397.391;  -15.138;34018.824
714.131;29270.965;  -14.098;34579.625
714.704;28300.855;   -9.958;33890.262
715.278;25753.303;  -10.028;33531.102
715.852;24689.566;  -11.148;33601.660
716.425;25866.875;   -9.068;33515.117
716.999;26916.879;  -10.038;33185.555
717.573;27779.004;   -9.798;33905.996
718.146;28743.652;  -12.378;35199.293
718.720;28783.299;  -11.918;35060.551
719.293;28627.934;   -8.088;34973.230
719.867;31458.596;  -10.888;36394.449
720.440;30967.977;  -11.938;36663.008
721.013;29019.260;  -12.818;35102.426
721.587;27596.398;  -10.298;33985.266
722.160;26561.107;  -10.048;33524.965
722.733;25666.418;  -12.108;32987.043
723.306;26070.813;  -10.818;33066.301
723.880;28023.084;   -8.908;33399.500
724.453;29821.205;   -9.878;33468.297
725.026;28970.877;  -11.188;33816.637
725.599;26439.082;  -11.678;32797.996
726.172;26662.926;   -9.618;33187.434
726.745;27765.271;   -8.258;35136.613
727.318;29111.697;  -12.978;35751.730
727.891;29652.781;  -12.148;35890.430
728.463;29048.613;   -8.968;34822.090
729.036;27790.912;  -10.188;32895.086
729.609;28366.953;  -11.788;31823.225
730.182;25533.875;  -11.788;31445.283
730.754;23198.873;  -10.268;32373.223
731.327;23578.402;   -9.998;33676.820
731.900;24080.955;  -12.228;33417.000
732.472;24952.885;  -13.848;31978.498
733.045;26366.115;   -8.698;30368.777
733.617;26296.322;  -10.607;30574.215
734.190;26406.797;  -11.507;31280.975
734.762;23893.951;  -13.647;31674.412
735.334;22091.371;   -9.767;31247.291
735.907;22601.748;   -9.897;29876.211
736.479;22750.189;  -11.637;29808.488
737.051;22455.527;   -9.567;30233.547
737.623;23055.445;   -8.187;31469.086
738.195;23589.965;  -11.187;31784.225
738.768;25760.707;  -12.337;32120.523
739.340;26382.529;  -12.227;32094.342
739.912;25339.340;  -11.057;31312.680
740.484;23968.072;  -10.207;31946.238
741.056;22618.486;  -10.047;32984.059
741.628;23921.410;  -13.627;33897.715
742.199;26106.801;   -7.177;33213.016
742.771;24806.465;  -10.797;31369.113
743.343;22657.813;  -11.997;31865.473
743.915;21650.582;  -12.867;32388.631
744.487;21677.174;   -7.617;31079.568
745.058;21641.482;   -9.557;30570.107
745.630;22183.619;   -9.877;29970.127
746.201;23392.834;  -14.177;29186.766
746.773;24141.262;   -9.237;28805.723
747.344;23963.656;   -9.847;29591.223
747.916;22251.342;  -11.657;31412.201
748.487;22322.730;  -10.587;32194.898
749.059;23724.928;   -8.707;32533.719
749.630;24576.355;  -10.537;32158.518
750.201;23827.590;  -11.687;30855.395
750.773;22025.391;  -11.647;28622.555
751.344;21573.287;   -7.147;28405.732
751.915;22427.852;   -9.757;28461.551
752.486;22392.369;  -12.427;27842.850
753.057;20434.412;  -12.227;27845.008
753.628;19334.074;  -10.417;27728.107
754.199;20274.830;  -11.767;27381.086
754.770;21246.814;  -11.187;25882.203
755.341;21371.494;  -10.507;25886.184
755.912;21492.754;   -9.387;26050.861
756.483;21105.385;  -10.647;26798.779
757.054;19310.305;  -11.837;27048.238
757.625;17840.633;  -12.716;26294.838
758.195;17683.574;   -9.666;26142.076
758.766;17467.453;   -8.656;26392.234
759.337;18055.889;  -12.856;26334.594
759.907;19519.936;  -13.366;27579.652
760.478;20361.420;   -8.576;28352.770
761.048;19735.650;  -10.526;27325.088
761.619;18774.922;  -11.116;26460.428
762.189;18987.063;  -12.136;26029.826
762.760;20168.816;   -9.456;26430.145
763.330;21176.143;   -7.136;26670.902
763.900;20664.564;  -11.786;26603.021
764.471;18190.025;  -11.546;25542.740
765.041;16665.496;   -8.096;24358.459
765.611;16469.963;   -8.876;23991.297
766.181;16911.635;  -12.196;24470.236
766.751;18138.514;  -11.636;24845.975
767.321;17856.404;  -10.156;24533.633
767.891;15660.194;  -11.766;24916.492
768.461;15026.132;  -14.936;24776.771
769.031;15562.412;  -12.356;24757.988
769.601;17208.230;   -7.526;24181.088
770.171;17373.135;  -10.766;23670.387
770.741;16699.529;  -13.176;22960.045
771.311;16877.459;  -10.616;22917.523
771.880;17383.807;   -9.576;23562.941
772.450;17281.729;  -10.336;24216.500
773.020;17298.348;  -13.516;24140.398
773.589;16463.301;  -13.466;24414.857
774.159;15793.167;   -8.686;23858.717
774.729;15443.344;   -9.476;22942.135
775.298;15057.339;  -13.666;22324.033
775.867;14576.546;  -11.716;21140.313
776.437;14656.153;   -9.906;20838.092
777.006;14429.299;  -12.166;20599.510
777.576;14137.669;  -12.356;20508.809
778.145;14137.044;  -11.646;20732.947
778.714;14157.787;   -8.226;21062.465
779.283;13662.211;   -9.556;20949.664
779.853;13174.498;  -14.116;20508.623
780.422;13565.326;  -11.506;20649.082
780.991;13124.279;   -9.556;21527.520
781.560;11854.380;   -9.095;22632.658
782.129;11646.982;  -12.135;23048.277
782.698;11659.728;  -10.865;23438.555
783.267;11284.964;   -9.335;23267.734
783.836;11245.604;  -11.045;22415.133
784.404;12247.741;  -13.865;20443.152
784.973;12883.521;  -13.095;19699.150
785.542;12930.557;  -11.575;19763.828
786.111;12786.955;   -9.705;20341.408
786.679;12298.707;  -12.105;20207.967
787.248;12026.694;  -12.455;19516.465
787.817;11809.544;  -11.535;18900.363
788.385;11382.570;   -9.765;17879.121
788.954;10800.771;  -14.005;17658.301
789.522;10241.445;  -11.955;17788.879
790.090;10669.452;  -10.135;18118.277
790.659;11219.077;  -10.975;18338.736
791.227;10810.657;  -13.375;18508.615
791.795;11197.636;  -12.375;17898.254
792.364;11469.273;  -10.725;17295.133
792.932;11743.937;   -9.715;16822.051
793.500;12036.542;  -12.675;17040.148
794.068;12339.405;  -13.495;17179.787
794.636;12494.818;  -10.885;16664.246
795.204;11847.345;  -11.045;16524.545
795.772;11820.028;  -13.175;17274.564
796.340;11345.987;  -12.445;17891.002
796.908;11140.912;   -9.735;17648.561
797.476;11009.660;   -9.815;17064.080
798.044;10577.659;  -13.985;16672.777
798.612; 9850.411;  -13.115;17023.996
799.180; 9449.697;  -10.185;16561.615
799.747; 9287.254;   -9.055;15962.773
800.315; 9014.361;  -12.385;15296.992
800.883; 8803.462;  -15.035;14801.771
801.450; 8957.490;  -10.365;14534.430
802.018; 9048.432;   -9.855;14173.248
802.585; 9051.320;  -11.905;14029.547
803.153; 9069.674;  -11.585;13836.846
803.720; 8936.396;   -9.095;13567.324
804.287; 8424.499;   -9.135;13360.622
804.855; 7942.652;  -11.604;13681.981
805.422; 7839.186;  -11.794;13536.560
805.989; 7904.275;  -10.734;13355.958
806.556; 8156.151;  -10.444;13747.896
807.124; 8473.515;  -12.764;13987.376
807.691; 8441.142;  -12.964;14038.674
808.258; 8215.586;  -11.134;14120.152
808.825; 7790.643;   -9.854;13860.111
809.392; 7881.805;  -10.504;13268.790
809.959; 7512.266;  -13.054;12680.389
810.526; 7080.439;   -8.294;12427.308
811.093; 7066.496;   -8.394;12030.105
811.659; 7615.882;  -12.304;11653.664
812.226; 8091.045;  -13.944;11637.183
812.793; 7782.755;  -10.484;11611.521
813.360; 7148.226;  -10.144;11885.181
813.926; 6855.681;  -11.684;12770.539
814.493; 6695.125;  -13.644;12677.638
815.060; 6348.156;   -9.724;11974.336
815.626; 6309.894;   -9.854;11594.715
816.193; 6667.947;  -13.254;11579.474
816.759; 6708.053;  -13.204;11666.972
817.325; 6771.771;   -9.434;11325.530
817.892; 7133.087;  -10.134;11105.369
818.458; 7541.001;  -13.474;10843.928
819.024; 7165.301;  -11.854;10714.406
819.591; 6882.061;  -10.244;10469.165
820.157; 6710.387;  -10.704;10235.523
820.723; 6239.588;  -12.324;10847.563
821.289; 5963.165;   -9.444;11040.980
821.855; 5879.400;   -8.374;10357.100
822.421; 5782.174;  -10.234; 9978.918
822.987; 5696.517;  -13.294; 9754.177
823.553; 5334.954;  -10.884;10065.755
824.119; 5168.895;   -8.884;10036.294
824.685; 5315.491;   -6.784;10029.192
825.251; 5441.569;  -12.004;10199.230
825.816; 5396.022;  -11.474; 9820.189
826.382; 5144.445;   -9.174; 9297.248
826.948; 5310.122;   -9.214; 9381.347
827.513; 5687.455;  -10.774; 9450.726
828.079; 5524.933;  -11.924; 9472.444
828.645; 4956.411;  -10.543; 9292.643
829.210; 4806.604;  -10.533; 9065.341
829.776; 4771.451;  -10.753; 9132.620
830.341; 4656.461;  -10.173; 9092.878
830.906; 4821.613;  -10.743; 9078.557
831.472; 5152.906;  -11.113; 8534.535
832.037; 4946.318;  -10.603; 8677.874
832.602; 4422.667;  -13.323; 8628.692
833.167; 4168.516;  -10.823; 8879.031
833.733; 4110.720;  -10.113; 9189.790
834.298; 4235.104;  -13.583; 9052.608
834.863; 4349.996;  -12.703; 8895.087
835.428; 4378.186;  -10.523; 8824.266
835.993; 4255.782;   -6.963; 8845.385
836.558; 4103.464;  -10.763; 8888.563
837.123; 4188.938;   -9.903; 8966.582
837.688; 4425.224;   -9.913; 8617.860
838.253; 4650.881;  -10.283; 8590.699
838.817; 4825.500;  -12.963; 8443.797
839.382; 4765.026;  -14.243; 8799.356
839.947; 4469.330;  -10.733; 8810.595
840.511; 4170.725;   -9.383; 8796.394
841.076; 3798.325;  -12.563; 8347.231
841.641; 3844.900;  -12.953; 8224.330
842.205; 3932.152;   -7.043; 8223.349
842.770; 3974.064;   -8.163; 8622.107
843.334; 4135.567;  -12.503; 8410.386
843.898; 4111.330;  -11.693; 8337.465
844.463; 4104.484;  -10.203; 8506.283
845.027; 3899.906;   -9.533; 8280.962
845.591; 3719.868;  -13.443; 8231.141
846.156; 3706.436;  -13.143; 7969.179
846.720; 3618.747;   -9.433; 7768.278
847.284; 3512.348;  -11.033; 7630.957
847.848; 3378.853;  -10.403; 7472.395
848.412; 3276.708;  -11.553; 7437.394
848.976; 3305.397;   -8.393; 7674.592
849.540; 3238.420;   -8.713; 7836.011
850.104; 3291.740;  -12.463; 7913.669
850.668; 3623.526;  -12.973; 7694.508
851.232; 3763.361;  -10.793; 7756.887
851.796; 3629.392;  -10.662; 7926.545
852.359; 3327.752;  -13.082; 7827.844
852.923; 3164.475;  -12.192; 7641.163
853.487; 3034.920;  -11.912; 7342.501
854.050; 3017.506;  -10.892; 7042.820
854.614; 3141.935;  -13.992; 7151.338
855.177; 3238.901;  -11.732; 7105.077
855.741; 3272.047;   -8.962; 6989.675
856.304; 3186.599;   -9.442; 6596.634
856.868; 3171.281;  -14.192; 6356.272
857.431; 3290.104;  -12.702; 6468.571
857.995; 3415.233;   -9.942; 6373.210
858.558; 3439.212;   -9.112; 6324.448
859.121; 3182.519;  -12.932; 6408.327
859.684; 3011.259;  -13.442; 6347.886
860.247; 3095.914;  -10.632; 6321.264
860.810; 3117.912;  -11.272; 6301.903
861.374; 2878.947;   -9.832; 6607.881
861.937; 2621.817;  -11.762; 6408.200
862.500; 2623.760;   -9.722; 6572.639
863.062; 2776.493;  -10.512; 6387.297
863.625; 2911.472;  -11.232; 6190.836
864.188; 3065.523;  -14.112; 5807.254
864.751; 3148.096;  -11.302; 5682.413
865.314; 3065.907;  -10.112; 5547.492
865.876; 2857.754;  -12.182; 5500.150
866.439; 2836.717;  -10.722; 5415.909
867.002; 2792.729;   -9.252; 5501.567
867.564; 2597.859;   -9.572; 5413.946
868.127; 2383.610;  -13.142; 5160.325
868.689; 2262.944;  -12.902; 5133.183
869.252; 2151.187;   -9.732; 5252.382
869.814; 2048.214;   -9.432; 5297.141
870.377; 2054.161;  -11.552; 5390.919
870.939; 2124.602;   -9.052; 5599.898
871.501; 2201.279;  -10.982; 5248.336
872.063; 2208.190;  -12.292; 4854.235
872.626; 2147.007;  -14.912; 4817.074
873.188; 2142.594;  -13.112; 4987.732
873.750; 2121.541;  -13.442; 4868.651
874.312; 2047.495;   -9.402; 4779.330
874.874; 1963.940;  -11.062; 4866.348
875.436; 1880.870;  -13.931; 4718.887
875.998; 1873.029;   -9.561; 4660.005
876.560; 1895.780;  -11.321; 4462.964
877.122; 1840.494;  -12.221; 4145.042
877.683; 1747.856;  -12.191; 4056.481
878.245; 1676.769;  -12.101; 3950.740
878.807; 1709.503;   -8.971; 4058.958
879.369; 1728.912;  -12.071; 3954.677
879.930; 1649.078;  -14.621; 3941.495
880.492; 1586.870;  -10.311; 4067.014
881.053; 1548.104;  -10.901; 3859.633
881.615; 1444.526;  -14.411; 3776.071
882.176; 1356.592;  -13.761; 3734.750
882.738; 1313.002;   -9.181; 3678.489
883.299; 1290.161;  -11.791; 3405.407
883.860; 1280.850;  -13.121; 3351.106
884.422; 1264.285;  -11.211; 3394.044
884.983; 1222.419;  -10.091; 3166.443
885.544; 1152.622;   -8.461; 3189.802
886.105; 1083.651;  -12.361; 3160.360
886.666; 1024.555;  -14.141; 3093.059
887.227;  967.646;  -11.361; 2941.957
887.788;  905.537;  -11.401; 2974.836
888.349;  838.706;  -13.791; 2721.214
888.910;  833.670;  -13.191; 2696.493
889.471;  835.663;   -9.881; 2560.172
890.032;  816.862;   -9.881; 2558.190
890.593;  789.623;  -10.371; 2567.669
891.153;  766.214;  -13.301; 2460.307
891.714;  722.826;  -11.431; 2372.046
892.275;  686.890;  -11.291; 2309.505
892.835;  650.232;  -11.471; 2382.543
893.396;  599.835;  -11.541; 2295.502
893.956;  543.193;  -11.181; 2162.420
894.517;  505.220;  -11.741; 2125.439
895.077;  498.854;  -11.671; 2086.978
895.638;  500.465;  -11.311; 2126.316
896.198;  475.214;   -9.831; 1838.275
896.758;  433.780;   -8.421; 1892.813
897.319;  403.781;  -12.351; 1792.232
897.879;  389.782;  -13.511; 1762.751
898.439;  365.192;  -12.001; 1661.149
898.999;  340.508;  -10.180; 1781.468
899.559;  329.913;  -12.030; 1703.347
900.119;  326.197;  -15.710; 1537.525
900.679;  322.523;   -8.900; 1638.384
901.239;  308.228;   -8.340; 1527.902
901.799;  297.558;  -13.910; 1456.441
902.359;  293.079;  -13.460; 1357.140
902.919;  285.918;  -11.490; 1331.118
903.479;  273.052;  -12.110; 1317.257
904.038;  253.983;  -11.720; 1262.595
904.598;  240.043;  -13.610; 1152.034
905.158;  236.146;  -11.040; 1240.893
905.717;  229.488;  -10.900; 1233.691
906.277;  218.288;  -15.080; 1217.330
906.836;  209.287;  -13.380; 1222.408
907.396;  201.009;  -10.780; 1193.047
907.955;  194.436;   -8.500; 1182.526
908.515;  189.366;  -12.760; 1099.364
909.074;  183.008;  -11.900; 1092.863
909.633;  177.491;   -8.950; 1069.121
910.192;  173.879;   -8.770; 1196.460
910.752;  168.147;  -12.390; 1029.960
911.311;  163.639;  -13.680; 1009.780
911.870;  161.299;  -12.370;  971.460
912.429;  162.883;  -10.900; 1094.080
912.988;  160.862;  -11.690; 1081.060
913.547;  157.720;  -13.240;  940.380
914.106;  152.205;  -11.990;  999.420
914.665;  149.818;   -9.990;  984.020
915.224;  148.020;  -12.880; 1035.760
915.782;  149.515;  -12.350;  922.560
916.341;  148.432;   -9.110; 1049.840
916.900;  144.341;   -9.270;  925.260
917.458;  141.588;  -13.240;  884.220
918.017;  141.980;  -13.550;  942.600
918.576;  141.920;  -12.320;  904.440
919.134;  139.739;  -11.490;  837.980
919.693;  138.215;  -13.670;  893.060
920.251;  136.784;  -15.470;  876.500
920.809;  135.000;  -11.290;  839.580
921.368;  135.437;  -10.210;  885.360
921.926;  133.925;  -12.140;  842.940
922.484;  133.957;  -13.080;  903.360
923.042;  132.151;  -11.720;  880.340
923.601;  135.011;   -7.480;  998.680
924.159;  133.486;  -11.570;  935.560
924.717;  129.744;  -13.840;  841.080
925.275;  129.513;  -10.640;  903.240
925.833;  128.567;  -11.540;  779.320
926.391;  130.370;  -12.960;  938.380
926.949;  129.220;  -14.130;  857.680
927.506;  129.412;  -11.750;  903.500
928.064;  129.050;  -10.250;  877.580
928.622;  128.588;  -13.030;  880.100
929.180;  127.799;  -13.400;  814.180
929.737;  129.419;  -10.700;  808.540
930.295;  133.042;  -10.070;  928.480
930.853;  134.045;  -11.960;  849.100
931.410;  134.813;  -13.120;  821.120
931.968;  134.723;  -10.770;  940.660
932.525;  134.020;  -10.680;  909.380
933.082;  133.865;  -13.130;  811.440
933.640;  135.880;  -13.210;  925.900
934.197;  132.311;  -11.060;  886.360
934.754;  134.989;   -9.580;  897.780
935.312;  137.090;  -14.000;  863.340
935.869;  141.784;  -10.710; 1012.980
936.426;  141.255;   -9.860;  872.800
936.983;  143.045;   -9.710;  889.020
937.540;  142.234;  -13.990;  838.280
938.097;  141.809;  -14.040;  940.120
938.654;  141.068;  -10.310;  898.860
939.211;  143.149;  -10.560;  952.480
939.768;  147.313;  -13.900;  915.420
940.324;  151.220;  -14.760;  904.200
940.881;  152.192;  -10.370;  878.500
941.438;  152.939;   -8.260; 1021.200
941.995;  148.551;  -12.540;  992.560
942.551;  146.746;  -14.670;  875.620
943.108;  145.980;  -10.450;  937.920
943.664;  148.262;  -10.750;  869.340
944.221;  151.695;  -11.550; 1088.140
944.777;  149.909;  -14.770;  869.680
945.334;  150.868;  -12.820;  884.840
945.890;  150.951;  -10.130;  946.480
946.446;  150.543;  -13.470;  947.020
947.003;  152.372;  -12.120;  964.940
947.559;  155.720;   -9.980; 1063.040
948.115;  155.069;   -9.080; 1026.540
948.671;  153.098;  -10.830;  967.300
949.227;  150.635;  -12.440;  859.560
949.783;  149.046;  -12.910;  858.900
950.339;  150.408;  -10.270;  991.000
950.895;  150.513;  -13.630; 1023.840
951.451;  149.831;  -15.100;  925.280
952.007;  149.946;  -11.330;  998.540
952.563;  148.882;  -10.580;  937.780
953.118;  147.527;  -13.440;  904.940
953.674;  147.098;  -12.710;  935.780
954.230;  146.481;  -10.350;  949.640
954.785;  144.758;   -9.190;  936.640
955.341;  142.389;  -11.200;  998.160
955.897;  141.395;  -16.560;  834.660
956.452;  142.915;  -12.570;  953.840
957.008;  142.311;   -7.970; 1083.640
957.563;  140.264;  -11.940; 1009.540
958.118;  135.540;  -13.450;  877.700
958.674;  136.586;  -12.030;  946.780
959.229;  136.998;   -9.410; 1013.980
959.784;  134.615;  -12.000;  832.400
960.339;  134.842;  -14.780; 1001.280
960.894;  130.332;   -9.860;  963.760
961.449;  126.607;   -9.970;  859.960
962.004;  125.853;  -10.900; 1212.840
962.559;  121.820;  -13.150;  860.140
963.114;  119.104;  -13.740;  742.480
963.669;  118.885;   -9.820;  915.500
964.224;  116.776;  -13.890;  874.340
964.779;  116.007;  -12.600;  828.420
965.334;  116.948;  -10.950; 1017.860
965.888;  116.942;  -11.170;  875.360
966.443;  118.311;  -12.540;  972.380
966.998;  118.205;  -15.780;  819.460
967.552;  117.855;   -9.760;  908.380
968.107;  114.308;   -9.060;  868.300
968.661;  114.629;  -11.950;  922.440
969.216;  116.390;  -12.800;  856.280
969.770;  116.461;  -11.210;  917.200
970.324;  114.643;  -11.610;  923.140
970.879;  111.737;  -11.370;  947.180
971.433;  108.900;  -12.540;  952.720
971.987;  103.673;  -11.320;  895.340
972.541;  100.528;  -10.720;  917.100
973.095;   99.126;   -9.680; 1009.460
973.649;   98.228;  -11.440;  809.480
974.203;   98.009;  -11.210;  829.040
974.757;   97.090;  -10.240;  855.220
975.311;   97.625;  -13.720;  872.600
975.865;   96.978;  -13.770;  881.820
976.419;   96.512;  -11.690;  857.400
976.973;   95.753;   -9.510;  849.620
977.526;   97.023;  -12.620;  949.920
978.080;   96.654;  -12.010;  796.780
978.634;   97.550;  -10.170;  921.320
979.187;   95.285;   -9.020;  905.400
979.741;   92.411;   -9.820; 1018.380
980.294;   89.245;  -14.870;  789.160
980.848;   86.346;  -12.380;  717.220
981.401;   87.967;  -10.350;  816.540
981.955;   89.771;  -13.720;  844.300
982.508;   89.142;  -11.490;  746.340
983.061;   90.015;  -10.000;  915.260
983.615;   85.859;  -11.480;  798.800
984.168;   82.956;  -13.220;  770.080
984.721;   82.217;  -13.960;  880.760
985.274;   82.416;  -10.870;  867.500
985.827;   81.221;   -9.790;  834.220
986.380;   78.709;  -13.120;  721.340
986.933;   77.984;  -12.450;  864.800
987.486;   75.605;  -10.210;  861.920
988.039;   75.371;   -8.430;  863.100
988.591;   73.164;  -10.520;  893.260
989.144;   71.370;  -14.860;  737.260
989.697;   69.963;  -13.080;  758.740
990.250;   70.134;  -10.150;  858.100
990.802;   68.727;  -13.430;  755.860
991.355;   70.898;  -12.750;  974.880
991.907;   68.025;  -12.040;  864.320
992.460;   65.153;  -11.330;  753.760
993.012;   64.805;  -13.610;  749.540
993.565;   64.082;  -13.460;  711.360
994.117;   65.548;   -9.360;  950.780
994.669;   62.450;  -11.300;  701.320
995.221;   60.008;  -13.540;  791.920
995.774;   58.946;  -13.430;  787.580
996.326;   57.202;  -12.520;  740.220
996.878;   56.486;  -10.950;  838.420
997.430;   54.329;  -14.300;  699.860
997.982;   54.637;  -13.760;  750.140
998.534;   54.266;  -11.530;  739.060
999.086;   52.964;  -10.310;  738.220
999.638;   50.154;  -12.530;  661.380
1000.190;   50.520;  -11.840;  699.320
1000.741;   50.432;  -10.260;  742.700
1001.293;   49.807;   -8.860;  686.020
1001.845;   48.320;  -13.700;  676.640
1002.396;   49.682;  -12.100;  743.400
1002.948;   48.637;  -12.760;  737.400
1003.500;   46.335;  -10.380;  723.780
1004.051;   47.507;  -11.900;  907.580
1004.603;   45.318;  -12.250;  791.820
1005.154;   41.817;  -13.210;  608.980
1005.705;   40.861;  -10.950;  723.960
1006.257;   40.207;  -13.880;  707.220
1006.808;   39.913;  -12.840;  685.460
1007.359;   39.594;  -10.570;  763.240
1007.910;   38.746;   -9.620;  646.640
1008.461;   38.232;  -13.630;  732.940
1009.013;   37.336;  -17.200;  588.340
1009.564;   38.725;  -10.200;  793.520
1010.115;   36.179;  -12.570;  597.040
1010.665;   35.872;  -15.150;  602.160
1011.216;   36.847;  -14.480;  667.920
1011.767;   35.991;  -11.340;  697.920
1012.318;   35.640;   -9.780;  736.980
1012.869;   34.404;  -12.380;  679.000
1013.419;   34.263;  -15.560;  603.120
1013.970;   34.144;  -11.010;  666.640
1014.521;   33.136;  -11.610;  620.620
1015.071;   33.730;  -13.450;  670.380
1015.622;   33.629;  -13.870;  635.460
1016.172;   33.149;  -11.610;  596.820
1016.723;   32.253;  -12.120;  614.380
1017.273;   32.036;  -13.620;  604.160
1017.823;   32.986;  -14.140;  650.340
1018.374;   31.617;  -12.800;  611.760
1018.924;   32.036;  -12.340;  716.880
1019.474;   32.369;  -11.410;  718.880
1020.024;   31.295;  -14.770;  657.580
1020.574;   31.371;   -9.780;  726.160
1021.124;   31.854;   -8.560;  673.580
1021.674;   30.377;  -15.190;  559.120
1022.224;   32.077;  -13.530;  708.940
1022.774;   30.886;  -13.280;  668.820
1023.324;   31.114;  -10.690;  753.520
1023.874;   31.596;  -10.240;  875.760
1024.423;   30.076;  -12.540;  613.700
1024.973;   29.513;  -10.010;  610.760
1025.523;   28.264;  -10.550;  620.960
1026.072;   27.640;  -13.560;  606.420
1026.622;   28.416;  -15.120;  675.740
1027.172;   29.089;  -11.260;  715.660
1027.721;   28.259;  -11.410;  601.220
1028.270;   27.823;  -13.530;  663.400
1028.820;   28.983;  -13.680;  638.080
1029.369;   28.201;  -13.520;  612.700
1029.918;   28.045;  -10.980;  649.840
1030.468;   26.694;  -13.530;  564.780
1031.017;   27.968;  -13.170;  634.800
1031.566;   26.803;  -12.200;  608.900
1032.115;   26.750;   -9.960;  694.500
1032.664;   26.047;  -13.210;  596.480
1033.213;   27.185;  -12.500;  735.420
1033.762;   26.652;  -11.910;  635.620
1034.311;   26.688;   -9.640;  677.220
1034.860;   25.996;  -13.310;  691.000
1035.408;   26.473;  -11.830;  722.720
1035.957;   26.477;  -12.000;  719.540
1036.506;   24.546;  -11.690;  530.800
1037.055;   27.175;  -10.990;  844.320
1037.603;   25.492;  -15.120;  664.000
1038.152;   24.016;  -12.450;  534.760
1038.700;   24.753;  -10.560;  585.740
1039.249;   23.999;  -11.080;  681.220
1039.797;   24.673;  -12.540;  633.360
1040.345;   24.125;  -11.920;  705.420
1040.894;   24.086;  -11.410;  625.300
1041.442;   23.160;  -14.320;  632.200
1041.990;   23.010;  -16.240;  559.160
1042.538;   22.837;  -11.680;  536.180
1043.087;   23.019;  -10.760;  570.860
1043.635;   23.326;  -11.850;  670.500
1044.183;   22.964;  -15.480;  586.400
1044.731;   22.451;  -11.770;  576.000
1045.279;   21.910;  -13.090;  674.920
1045.827;   24.232;  -12.440;  892.400
1046.374;   21.993;  -13.840;  515.420
1046.922;   21.305;  -13.220;  590.580
1047.470;   23.153;  -10.230;  691.300
1048.018;   21.379;  -14.590;  647.960
1048.565;   23.358;  -12.050;  708.600
1049.113;   21.084;  -11.650;  557.000
1049.660;   20.869;  -10.510;  629.660
1050.208;   20.916;  -13.310;  675.640
1050.755;   20.916;  -15.900;  606.580
1051.303;   21.215;  -11.430;  686.820
1051.850;   20.379;   -8.480;  635.120
1052.397;   18.332;  -15.010;  473.960
1052.945;   20.071;  -13.960;  617.760
1053.492;   21.291;  -13.150;  741.840
1054.039;   21.583;   -9.630;  720.180
1054.586;   19.965;  -13.680;  557.240
1055.133;   20.325;  -14.570;  693.140
1055.680;   20.242;  -13.820;  646.620
1056.227;   19.109;  -11.730;  542.780
1056.774;   20.860;  -12.480;  794.980
1057.321;   19.392;  -13.930;  523.260
1057.868;   19.306;  -11.690;  651.320
1058.415;   19.380;   -9.520;  651.980
1058.961;   19.043;  -13.160;  678.940
1059.508;   19.439;  -12.920;  643.820
1060.055;   18.738;  -11.920;  581.780
1060.601;   18.699;  -11.500;  624.300
1061.148;   18.375;  -14.330;  616.820
1061.694;   17.504;  -16.870;  592.580
1062.241;   18.924;  -10.330;  596.320
1062.787;   18.590;  -10.620;  663.140
1063.334;   19.784;  -10.110;  808.560
1063.880;   18.095;  -13.400;  668.360
1064.426;   18.276;  -10.680;  706.820
1064.972;   16.408;   -9.920;  601.340
1065.518;   15.770;  -10.980;  566.640
1066.065;   17.771;  -14.890;  624.460
1066.611;   16.824;  -12.870;  598.800
1067.157;   17.414;  -12.950;  641.860
1067.703;   16.677;  -13.540;  668.480
1068.249;   17.058;  -13.540;  605.220
1068.794;   16.469;  -12.600;  626.880
1069.340;   15.710;  -10.620;  578.960
1069.886;   16.229;  -12.830;  590.700
1070.432;   15.138;  -14.870;  541.720
1070.977;   15.683;  -11.980;  601.080
1071.523;   15.767;   -8.200;  573.060
1072.068;   15.826;  -12.330;  582.000
1072.614;   14.794;  -16.370;  527.760
1073.160;   16.526;  -11.100;  687.040
1073.705;   15.128;  -10.480;  572.520
1074.250;   14.171;  -14.520;  559.900
1074.796;   15.899;  -11.460;  655.160
1075.341;   15.836;  -11.950;  664.100
1075.886;   15.301;  -11.460;  594.240
1076.431;   14.488;  -13.770;  649.880
1076.976;   14.732;  -12.680;  639.220
1077.521;   13.869;  -13.170;  583.080
1078.067;   13.259;  -10.860;  579.400
1078.612;   13.776;  -13.920;  661.620
1079.156;   14.724;  -13.880;  601.540
1079.701;   14.992;  -13.120;  693.260
1080.246;   14.778;   -9.940;  696.300
1080.791;   13.717;  -14.740;  625.020
1081.336;   14.313;  -13.750;  659.320
1081.880;   14.489;  -13.400;  649.680
1082.425;   12.451;  -12.220;  573.480
1082.970;   13.971;  -11.610;  717.040
1083.514;   13.292;  -13.580;  597.000
1084.059;   12.354;  -12.810;  586.720
1084.603;   12.279;  -12.320;  565.840
1085.147;   12.465;  -13.190;  645.220
1085.692;   13.996;  -12.480;  716.800
1086.236;   11.597;  -13.020;  503.140
1086.780;   13.553;   -9.190;  751.440
1087.325;   12.328;  -12.480;  654.620
1087.869;   12.746;  -12.450;  610.700
1088.413;   13.429;  -12.240;  705.040
1088.957;   11.014;   -9.020;  543.400
1089.501;   12.944;  -10.320;  766.640
1090.045;   12.707;  -12.720;  726.480
1090.589;   10.614;  -13.690;  569.920
1091.133;   11.843;  -10.020;  673.340
1091.676;   11.553;  -12.330;  591.940
1092.220;   11.410;  -14.970;  600.920
1092.764;   12.203;  -12.430;  706.960
1093.307;   12.007;   -9.800;  673.780
1093.851;    9.989;  -14.970;  556.540
1094.395;   11.910;  -15.310;  683.140
1094.938;   10.674;  -10.370;  632.520
1095.482;   10.395;  -11.050;  559.800
1096.025;   10.829;  -11.840;  710.880
1096.568;   12.094;  -12.840;  779.280
1097.112;    8.891;  -14.700;  508.180
1097.655;   10.798;   -8.720;  603.000
1098.198;    8.936;  -13.610;  600.180
1098.741;    9.910;  -13.350;  612.860
1099.285;   10.368;  -11.230;  657.300
1099.828;    8.735;  -11.840;  439.400
1100.371;    9.142;  -10.840;  608.160
1100.914;   10.976;  -14.190;  682.660
1101.457;    9.600;  -11.240;  679.900
1101.999;    8.786;  -11.270;  584.680
1102.542;    9.048;  -11.480;  641.440
1103.085;    8.959;  -11.750;  658.500
1103.628;    9.900;  -11.400;  762.060
1104.170;    8.864;  -10.490;  588.280
1104.713;    8.914;  -10.600;  646.700
1105.256;    9.052;  -14.360;  557.440
1105.798;    8.083;  -13.210;  499.980
1106.341;    9.291;  -10.270;  728.900
1106.883;    8.053;  -12.200;  521.340
1107.425;    7.772;  -13.110;  668.180
1107.968;    7.755;  -12.840;  612.380
1108.510;    9.574;   -6.480;  684.960
1109.052;    6.986;  -13.940;  612.620
1109.594;    7.185;  -13.690;  554.440
1110.136;    8.766;  -11.880;  643.220
1110.679;    7.101;   -9.500;  633.080
1111.221;    7.982;  -14.160;  604.460
1111.763;    8.037;  -13.980;  559.220
1112.304;    7.448;  -13.880;  547.140
1112.846;    6.858;  -12.210;  666.240
1113.388;   10.033;  -11.390;  942.180
1113.930;    7.754;  -14.540;  694.200
1114.472;    6.558;  -12.640;  606.540
1115.013;    5.751;  -11.620;  551.280
1115.555;    5.870;  -13.640;  587.100
1116.097;    5.528;  -15.380;  579.480
1116.638;    7.131;  -12.640;  684.600
1117.180;    6.834;   -9.850;  667.740
1117.721;    6.167;  -13.690;  568.580
1118.262;    7.299;  -12.680;  677.960
1118.804;    7.323;  -12.530;  637.340
1119.345;    5.591;  -11.690;  578.400
1119.886;    6.570;  -13.380;  704.040
1120.427;    5.917;  -14.070;  589.020
1120.969;    5.464;  -13.500;  597.920
1121.510;    5.534;  -11.480;  563.060
1122.051;    5.944;  -12.830;  723.580
1122.592;    4.851;  -14.290;  655.420
1123.133;    4.429;  -12.400;  547.940
1123.673;    5.861;  -10.130;  706.480
1124.214;    4.227;  -12.930;  612.460
1124.755;    5.854;  -14.380;  639.460
1125.296;    5.430;  -14.000;  627.320
1125.836;    5.284;  -10.070;  691.500
1126.377;    4.738;  -12.640;  599.660
1126.918;    5.436;  -12.960;  614.980
1127.458;    4.702;  -13.350;  622.220
1127.999;    4.796;  -10.750;  656.980
1128.539;    4.466;  -12.350;  694.240
1129.079;    4.246;  -14.860;  632.720
1129.620;    4.281;  -13.840;  558.100
1130.160;    3.722;  -12.330;  539.480
1130.700;    3.769;  -14.530;  640.840
1131.240;    4.814;  -12.530;  643.700
1131.781;    3.941;  -14.450;  619.680
1132.321;    3.942;   -9.790;  599.120
1132.861;    2.849;  -14.860;  564.200
1133.401;    2.982;  -14.290;  593.940
1133.941;    4.559;  -11.750;  626.280
1134.481;    2.801;   -9.920;  597.580
1135.020;    2.725;  -12.290;  609.160
1135.560;    3.379;  -11.650;  674.940
1136.100;    2.376;  -16.270;  501.160
1136.640;    2.649;  -10.890;  510.480
1137.179;    2.511;  -14.180;  537.960
1137.719;    2.989;  -16.250;  605.400
1138.258;    3.452;  -14.230;  587.360
1138.798;    3.174;   -9.090;  663.780
1139.337;    1.702;  -15.130;  482.840
1139.877;    2.904;  -13.680;  642.360
1140.416;    4.480;  -11.320;  878.060
1140.955;    2.054;  -10.860;  535.380
1141.494;    2.483;  -12.920;  669.280
1142.034;    2.268;  -13.930;  583.520
1142.573;    3.073;  -11.440;  646.280
1143.112;    1.733;  -12.000;  553.480
1143.651;    1.907;  -13.670;  536.480
1144.190;    2.749;  -12.730;  691.640
1144.729;    2.221;  -14.560;  607.420
1145.267;    1.949;  -11.830;  584.900
1145.806;    2.921;  -12.230;  637.040
1146.345;    1.500;  -14.130;  635.020
1146.884;    1.863;  -11.590;  622.500
1147.422;    0.704;  -12.550;  533.060
1147.961;    2.255;  -11.180;  708.460
1148.500;    2.078;  -11.510;  669.720
1149.038;    2.334;  -11.640;  632.500
1149.577;    1.851;  -10.130;  698.640
1150.115;   -0.415;  -13.970;  452.280
1150.653;    2.089;  -14.520;  607.340
1151.192;    1.407;  -12.810;  552.920
1151.730;    1.662;   -9.100;  652.560
1152.268;    0.466;  -12.220;  589.520
1152.806;    1.028;  -14.140;  571.180
1153.344;   -0.921;  -12.350;  577.640
1153.882;    0.308;   -8.980;  600.060
1154.421;   -0.781;  -15.190;  470.620
1154.958;    0.538;  -15.210;  595.240
1155.496;    1.277;  -12.850;  645.280
1156.034;    0.340;   -9.940;  721.880
1156.572;    1.680;  -13.570;  667.060
1157.110;   -1.098;  -14.590;  473.940
1157.647;    1.054;  -13.030;  676.960
1158.185;   -0.441;  -12.140;  564.320
1158.723;   -2.284;  -14.390;  509.200
1159.260;    0.613;  -14.090;  701.700
1159.798;    0.469;  -11.920;  658.160
1160.335;   -0.279;  -11.110;  631.820

