
Integration time [ms]:   3.882
Averaging Nr. [scans]: 1000
Smoothing Nr. [pixels]: 0
Data measured with spectrometer [name]: 7414430SP
Wave   ;Sample   ;Dark     ;Reference
[nm]   ;[counts] ;[counts] ;[counts] 

288.544;  122.732;   10.292;  793.890
289.143;  124.529;    4.564;  681.602
289.742;  126.597;    6.144;  828.814
290.341;  114.276;    4.396;  789.841
290.940;  105.497;    0.938;  730.702
291.538;  106.368;   -0.684;  881.108
292.137;  104.482;   -2.845;  792.581
292.736;  108.014;   -0.144;  975.101
293.335;  104.402;   -6.352;  735.086
293.934;  104.937;   -7.642;  781.677
294.532;  105.289;   -4.992; 1031.958
295.131;   92.582;   -5.478;  834.394
295.730;   92.898;   -6.549;  809.588
296.328;   90.532;   -9.558;  783.442
296.927;   90.098;   -8.118;  779.652
297.525;   92.021;   -6.908;  781.236
298.124;   83.161;   -9.195;  654.009
298.722;   87.389;   -8.198;  761.933
299.321;   85.272;   -8.817;  708.597
299.919;   82.533;   -7.716;  751.918
300.518;   80.123;  -10.745;  689.338
301.116;   80.890;   -9.647;  691.381
301.715;   81.615;  -10.828;  730.222
302.313;   80.486;   -6.087;  704.943
302.911;   76.845;   -6.824;  733.830
303.509;   81.300;   -8.807;  925.627
304.108;   79.039;   -8.198;  760.383
304.706;   79.257;   -6.218;  801.664
305.304;   74.341;   -7.185;  796.707
305.902;   79.508;   -8.568;  784.484
306.500;   75.068;   -7.737;  728.200
307.098;   73.839;   -6.026;  746.560
307.696;   73.098;   -7.176;  780.432
308.294;   72.926;   -8.656;  731.359
308.892;   74.868;   -6.838;  759.769
309.490;   70.404;   -2.596;  712.161
310.088;   69.399;   -4.485;  788.444
310.686;   74.312;   -3.907;  821.749
311.284;   70.904;   -2.806;  766.040
311.882;   67.835;   -2.845;  731.225
312.480;   66.161;   -3.274;  697.167
313.078;   66.573;   -3.645;  808.331
313.675;   67.803;   -4.997;  691.600
314.273;   63.388;   -0.894;  797.837
314.871;   62.749;   -2.854;  589.829
315.468;   60.268;   -3.644;  652.090
316.066;   63.588;   -3.947;  694.427
316.664;   56.935;   -1.824;  656.351
317.261;   61.883;    1.565;  910.128
317.859;   58.094;   -3.955;  768.735
318.456;   59.035;   -2.886;  830.096
319.054;   54.846;   -0.995;  787.828
319.651;   53.684;   -1.765;  759.928
320.249;   53.685;   -3.685;  810.188
320.846;   51.914;   -3.736;  714.286
321.443;   49.572;   -2.065;  832.135
322.041;   47.223;   -5.635;  812.315
322.638;   45.153;   -5.985;  701.456
323.235;   47.234;   -6.677;  665.683
323.833;   45.574;   -3.497;  740.354
324.430;   40.949;   -6.756;  615.900
325.027;   43.688;   -7.647;  876.855
325.624;   43.077;   -7.598;  644.532
326.221;   40.461;   -5.848;  689.717
326.818;   40.276;   -5.777;  818.332
327.415;   42.155;   -8.769;  748.828
328.012;   42.458;   -6.299;  690.585
328.609;   40.960;   -6.639;  731.389
329.206;   39.420;   -6.358;  778.621
329.803;   38.305;   -8.698;  737.841
330.400;   40.380;   -8.379;  704.260
330.997;   40.634;   -6.178;  817.147
331.594;   38.798;   -5.646;  788.185
332.191;   42.280;   -6.928;  728.722
332.787;   43.343;   -6.057;  844.463
333.384;   41.240;   -6.445;  763.093
333.981;   40.067;   -8.002;  815.687
334.578;   41.835;   -8.443;  708.378
335.174;   43.208;   -6.053;  731.469
335.771;   43.600;   -5.791;  836.456
336.367;   40.603;   -6.570;  710.631
336.964;   42.463;   -6.741;  793.266
337.561;   42.040;   -5.710;  731.112
338.157;   39.148;   -3.928;  911.916
338.754;   36.484;   -5.577;  796.589
339.350;   34.451;   -9.667;  722.493
339.946;   38.306;   -5.269;  773.135
340.543;   30.616;   -4.485;  846.136
341.139;   26.188;   -7.584;  720.836
341.735;   24.336;   -8.553;  772.593
342.332;   23.489;   -4.984;  691.472
342.928;   24.387;   -3.475;  795.394
343.524;   19.879;   -6.653;  761.684
344.120;   16.332;   -7.173;  738.562
344.716;   19.405;   -4.385;  723.717
345.313;   17.143;   -3.565;  795.342
345.909;   13.624;   -7.495;  627.336
346.505;   15.060;   -8.276;  740.247
347.101;   15.815;   -5.697;  827.864
347.697;   16.548;   -4.767;  785.398
348.293;   11.568;   -7.226;  627.244
348.889;   12.979;   -7.547;  745.914
349.485;   11.709;   -9.147;  688.205
350.081;   13.374;   -6.568;  772.592
350.676;    8.660;   -6.516;  691.606
351.272;   12.521;   -7.378;  809.530
351.868;   12.648;   -6.759;  780.497
352.464;    9.579;   -4.798;  723.932
353.059;    6.440;   -7.977;  646.017
353.655;   10.299;   -8.769;  777.063
354.251;   10.333;   -5.920;  759.845
354.846;    6.304;   -7.647;  740.646
355.442;    4.335;   -6.956;  753.071
356.038;    5.562;   -9.928;  751.708
356.633;    5.221;   -7.698;  728.594
357.229;    4.016;   -6.307;  724.757
357.824;    2.597;   -7.647;  703.600
358.420;    1.637;  -10.047;  679.726
359.015;    1.715;   -7.458;  695.357
359.610;    4.080;   -5.748;  763.920
360.206;   -2.330;   -9.346;  603.240
360.801;    0.251;  -11.268;  646.503
361.396;    3.306;   -8.789;  725.975
361.992;   -0.865;   -6.347;  668.220
362.587;   -3.645;   -6.476;  670.160
363.182;   -1.719;   -9.457;  689.631
363.777;   -0.345;   -7.147;  738.242
364.372;   -0.760;   -5.507;  737.314
364.967;   -4.637;   -6.386;  680.744
365.563;    0.501;   -7.858;  815.567
366.158;   -3.169;   -8.517;  685.161
366.753;   -2.618;   -8.728;  649.263
367.348;   -3.428;   -7.677;  746.056
367.942;   -3.668;  -10.387;  697.298
368.537;   -4.800;   -7.187;  754.245
369.132;   -4.074;   -8.587;  703.428
369.727;   -7.862;   -8.606;  638.079
370.322;   -7.040;  -10.426;  580.186
370.917;   -6.104;   -5.776;  710.646
371.511;   -3.591;   -6.007;  861.834
372.106;   -6.859;   -6.686;  776.964
372.701;  -10.861;   -9.335;  585.988
373.296;   -3.735;   -6.777;  863.135
373.890;   -9.493;   -7.546;  647.840
374.485;  -10.895;   -8.755;  691.199
375.079;   -7.390;   -9.797;  738.685
375.674;   -5.571;   -6.327;  812.970
376.268;  -10.008;   -9.046;  691.759
376.863;  -15.182;   -7.993;  580.327
377.457;   -9.043;   -9.206;  662.490
378.052;  -10.422;   -5.345;  764.884
378.646;  -11.864;   -5.605;  741.167
379.240;  -11.151;   -6.825;  721.176
379.835;  -10.811;  -10.476;  636.978
380.429;  -13.362;   -8.676;  562.557
381.023;  -12.519;   -4.945;  779.205
381.617;  -14.446;   -8.094;  680.106
382.212;  -11.370;  -10.646;  685.303
382.806;  -10.404;   -8.136;  760.690
383.400;  -14.935;   -7.855;  672.281
383.994;  -15.169;   -8.125;  664.870
384.588;  -11.391;   -7.637;  697.701
385.182;   -9.773;   -7.458;  726.624
385.776;  -12.500;   -6.277;  706.875
386.370;  -14.699;   -7.485;  681.968
386.964;  -13.337;   -9.416;  684.155
387.558;  -11.873;   -8.518;  598.360
388.152;  -15.021;   -7.096;  681.959
388.745;  -12.287;   -7.656;  814.707
389.339;  -11.811;   -8.927;  747.642
389.933;   -9.852;   -9.538;  695.370
390.527;  -11.173;   -5.857;  859.029
391.120;  -16.897;   -9.455;  595.318
391.714;  -13.950;   -9.746;  711.633
392.308;  -11.383;   -7.857;  780.253
392.901;  -14.425;   -9.106;  642.460
393.495;  -16.183;  -10.365;  595.414
394.089;  -14.136;   -9.696;  760.452
394.682;  -15.076;   -7.016;  697.188
395.275;  -14.877;   -8.466;  719.927
395.869;  -16.225;   -8.985;  667.314
396.462;  -14.462;  -11.496;  616.609
397.056;  -10.530;   -7.838;  776.621
397.649;  -15.558;   -6.895;  731.575
398.242;  -13.108;   -5.017;  712.645
398.836;  -12.117;   -8.787;  766.408
399.429;  -12.740;   -8.967;  631.041
400.022;  -16.250;   -8.815;  665.902
400.615;  -12.815;   -6.276;  805.609
401.208;  -11.519;   -8.407;  691.451
401.802;  -14.069;   -7.296;  699.329
402.395;  -14.451;   -7.585;  683.502
402.988;  -16.069;   -8.015;  696.627
403.581;  -12.355;   -9.577;  646.878
404.174;  -10.212;   -7.588;  686.568
404.767;  -13.270;   -7.906;  638.583
405.360;  -16.085;   -7.875;  621.445
405.953;  -10.090;   -8.127;  759.034
406.545;   -9.290;   -7.198;  725.342
407.138;  -14.336;   -8.916;  618.350
407.731;  -11.458;   -9.767;  613.303
408.324;   -8.574;  -10.659;  660.554
408.917;   -9.830;   -8.068;  681.864
409.509;  -11.022;   -9.837;  740.396
410.102;  -12.848;   -8.146;  643.948
410.695;   -7.476;   -7.969;  665.758
411.287;   -7.698;   -8.579;  599.821
411.880;   -8.946;   -6.968;  585.421
412.472;  -11.520;   -9.487;  613.092
413.065;   -9.088;  -10.338;  629.408
413.657;   -6.957;   -9.169;  576.678
414.250;   -6.869;  -10.119;  646.681
414.842;   -8.690;   -9.938;  676.353
415.434;   -6.338;  -10.409;  570.463
416.027;   -2.637;   -9.591;  652.196
416.619;   -4.670;   -7.379;  713.400
417.211;   -4.001;   -9.159;  599.352
417.804;   -1.208;   -9.191;  628.499
418.396;   -4.996;   -8.159;  607.643
418.988;   -2.972;   -6.960;  659.238
419.580;   -6.435;  -11.389;  568.276
420.172;   -3.751;  -13.460;  536.196
420.764;    0.615;  -10.701;  672.482
421.356;   -0.160;   -8.961;  636.898
421.948;   -1.323;   -9.770;  677.661
422.540;    3.688;   -8.832;  680.027
423.132;    2.820;   -8.153;  600.641
423.724;   -0.638;   -8.481;  561.267
424.316;    2.207;   -9.261;  621.345
424.908;    5.459;   -9.643;  591.517
425.500;    5.814;   -8.663;  647.978
426.092;    6.622;   -8.503;  648.268
426.683;    6.306;  -10.522;  684.836
427.275;    8.529;  -11.734;  641.471
427.867;   10.073;  -10.264;  668.948
428.458;    9.851;   -7.644;  732.344
429.050;    9.642;   -7.853;  680.749
429.642;   11.409;   -8.904;  743.124
430.233;   11.674;  -10.795;  569.356
430.825;   13.243;   -7.665;  724.809
431.416;   10.562;   -8.843;  698.241
432.008;   14.531;   -9.885;  651.723
432.599;   15.283;   -9.966;  656.073
433.190;   12.067;   -9.164;  637.670
433.782;   11.723;   -8.584;  590.395
434.373;   19.755;   -8.296;  884.765
434.964;   17.259;   -9.896;  602.920
435.556;   14.816;   -8.255;  634.537
436.147;   19.066;   -8.075;  758.490
436.738;   17.834;   -9.716;  701.099
437.329;   23.422;   -7.318;  721.723
437.920;   16.636;   -6.694;  666.688
438.511;   16.266;   -9.644;  564.526
439.103;   23.199;   -9.427;  623.998
439.694;   25.603;  -10.748;  681.583
440.285;   26.206;   -7.997;  764.432
440.876;   24.374;  -10.046;  845.738
441.466;   23.119;  -13.467;  575.162
442.057;   29.163;   -9.329;  665.814
442.648;   27.168;   -7.707;  746.255
443.239;   25.846;   -9.017;  620.477
443.830;   30.461;  -10.279;  704.958
444.421;   33.177;  -12.630;  655.474
445.011;   29.324;   -8.697;  693.619
445.602;   28.882;   -7.787;  743.126
446.193;   30.611;  -13.329;  488.117
446.783;   35.565;   -9.171;  640.397
447.374;   30.393;   -7.457;  692.759
447.964;   32.296;   -9.277;  713.770
448.555;   40.469;   -9.041;  822.742
449.145;   36.196;   -8.969;  662.853
449.736;   37.378;   -6.809;  803.179
450.326;   37.564;   -7.229;  713.626
450.917;   42.275;  -11.391;  675.324
451.507;   41.859;   -9.501;  600.661
452.097;   42.077;   -8.460;  746.267
452.688;   42.568;  -10.080;  742.160
453.278;   43.239;  -12.861;  566.840
453.868;   47.678;   -8.372;  793.550
454.458;   45.195;   -8.131;  651.141
455.048;   45.864;   -8.520;  711.783
455.639;   47.459;  -13.632;  567.096
456.229;   51.010;  -10.143;  710.694
456.819;   52.692;   -9.163;  751.158
457.409;   53.667;   -8.652;  773.993
457.999;   56.415;   -9.933;  737.505
458.589;   55.527;  -10.363;  686.606
459.179;   56.412;  -10.633;  717.658
459.769;   54.638;  -12.442;  627.099
460.358;   58.460;   -9.844;  797.262
460.948;   58.870;   -9.924;  689.503
461.538;   60.455;  -10.484;  660.677
462.128;   58.440;  -10.703;  664.934
462.717;   64.534;  -11.486;  710.326
463.307;   68.212;  -10.767;  705.846
463.897;   64.268;   -8.814;  656.942
464.486;   64.181;   -8.182;  837.128
465.076;   68.195;   -9.985;  733.776
465.666;   71.619;  -10.447;  652.900
466.255;   69.127;   -7.754;  785.651
466.845;   68.361;  -10.884;  666.749
467.434;   71.926;  -12.525;  725.873
468.023;   72.790;  -11.456;  658.357
468.613;   70.511;   -9.173;  713.946
469.202;   75.311;   -9.306;  646.507
469.791;   79.283;   -8.917;  737.811
470.381;   80.635;   -9.657;  742.813
470.970;   80.154;   -9.947;  711.099
471.559;   80.280;   -9.256;  733.291
472.148;   83.092;  -13.397;  675.737
472.738;   86.931;   -9.928;  765.466
473.327;   85.724;  -10.897;  637.529
473.916;   85.834;   -8.526;  737.446
474.505;   89.638;  -11.078;  751.703
475.094;   93.341;   -9.559;  806.570
475.683;   92.540;   -8.838;  797.699
476.272;   94.139;  -10.198;  730.632
476.861;   96.574;  -11.489;  706.754
477.449;  103.521;  -10.721;  728.487
478.038;   97.040;   -9.818;  692.513
478.627;   99.001;   -9.887;  714.852
479.216;  104.792;  -10.030;  769.441
479.805;  107.922;   -9.401;  783.375
480.393;  108.775;   -5.739; 1008.945
480.982;  107.524;   -7.838;  874.501
481.571;  113.845;   -9.111;  858.333
482.159;  113.636;  -10.601;  705.386
482.748;  114.548;   -8.500;  821.385
483.336;  119.670;   -9.241;  858.209
483.925;  120.972;  -10.440;  774.373
484.513;  126.145;  -11.063;  758.962
485.102;  123.096;   -9.540;  810.965
485.690;  133.394;   -6.742; 1011.050
486.278;  134.854;   -8.442;  979.329
486.867;  134.883;  -10.472;  809.662
487.455;  137.571;   -8.811;  898.229
488.043;  139.340;  -10.721;  748.361
488.631;  148.792;  -10.393; 1005.079
489.220;  153.135;  -10.843;  908.626
489.808;  153.441;  -10.572;  741.415
490.396;  162.983;  -10.482;  914.645
490.984;  169.160;  -11.542;  830.161
491.572;  179.467;   -8.463;  940.315
492.160;  189.043;   -8.491;  919.081
492.748;  202.560;   -9.681;  884.341
493.336;  229.452;  -10.493; 1019.693
493.924;  263.793;   -9.354;  958.077
494.512;  303.636;   -9.132; 1066.638
495.100;  346.834;   -9.001; 1103.280
495.687;  406.074;  -11.924; 1206.373
496.275;  491.747;  -11.193; 1150.796
496.863;  584.013;   -9.241; 1281.171
497.451;  700.774;  -11.341; 1386.805
498.038;  821.790;  -11.364; 1556.729
498.626;  942.790;   -8.104; 1741.407
499.214; 1172.528;   -8.842; 2016.609
499.801; 1486.476;  -10.112; 2220.633
500.389; 1735.314;  -11.953; 2312.494
500.976; 1949.410;  -10.023; 2744.849
501.564; 2242.039;   -8.662; 3148.565
502.151; 2706.247;  -10.531; 3515.999
502.738; 3243.273;  -13.853; 3971.274
503.326; 3797.879;  -10.794; 4403.796
503.913; 4449.339;   -8.663; 5161.749
504.500; 5039.011;  -10.172; 5986.420
505.088; 6009.714;  -13.472; 6381.201
505.675; 6783.489;  -10.924; 6925.547
506.262; 7107.394;   -8.551; 7619.060
506.849; 7907.220;  -10.523; 8733.969
507.436; 8916.531;  -10.834; 9790.121
508.023; 9120.502;   -9.093; 9985.472
508.610; 9489.818;  -10.073;10434.618
509.197;10732.803;   -9.500;11198.435
509.784;12710.487;  -13.242;12391.194
510.371;13608.911;  -10.964;13603.713
510.958;14598.735;   -9.772;14426.586
511.545;15274.895;   -7.842;15243.775
512.132;15388.668;  -12.184;15945.876
512.719;17024.131;   -9.733;16340.369
513.305;19553.721;   -9.172;18011.766
513.892;20741.328;   -9.581;19754.971
514.479;21795.313;  -10.253;20967.805
515.066;22069.877;   -8.183;22299.793
515.652;22825.166;   -9.253;22908.660
516.239;24368.102;   -9.412;23798.875
516.825;25524.885;  -11.153;25567.275
517.412;24547.982;  -10.263;28154.959
517.998;23818.896;   -8.802;28344.111
518.585;23884.184;  -10.401;27134.219
519.171;24124.104;  -12.744;27268.576
519.758;24940.783;  -11.793;28964.129
520.344;26452.510;   -8.912;30664.494
520.930;27189.648;  -10.901;32550.605
521.516;26752.336;  -12.034;35422.895
522.103;29689.973;  -10.473;38280.004
522.689;33408.191;   -8.311;37835.117
523.275;36259.586;  -10.691;37288.613
523.861;37804.879;  -11.193;37281.395
524.447;36072.957;  -11.484;37846.949
525.033;36468.238;   -7.702;38321.949
525.619;37415.844;  -11.241;38579.285
526.205;37761.477;  -12.152;40622.875
526.791;38861.516;  -11.423;42258.836
527.377;39782.570;   -7.981;42966.902
527.963;39225.156;   -9.450;42018.949
528.549;39499.770;  -11.351;42476.828
529.135;40806.203;  -10.202;41854.852
529.721;40009.605;   -8.672;41237.711
530.306;37467.602;   -9.111;41259.445
530.892;39805.844;  -11.252;41506.047
531.478;42757.895;  -10.432;43559.613
532.063;44759.523;  -10.721;47695.563
532.649;46632.348;   -7.450;50808.324
533.235;47719.785;  -11.811;51787.500
533.820;46934.742;   -9.383;52145.035
534.406;44103.059;   -9.400;51133.488
534.991;44738.250;   -8.861;49996.805
535.576;46286.012;  -10.612;48882.852
536.162;43375.520;   -7.322;46942.285
536.747;43275.703;   -9.360;45711.746
537.333;45943.117;  -10.450;48510.180
537.918;49126.262;  -12.610;50439.891
538.503;49345.594;  -12.132;50863.711
539.088;46146.586;  -10.831;50906.922
539.673;46217.590;  -11.220;52621.965
540.259;48507.547;  -11.481;52368.094
540.844;48028.848;  -11.462;50879.109
541.429;48884.484;   -7.869;52077.777
542.014;47246.762;  -11.859;52716.695
542.599;44504.141;  -11.061;52363.281
543.184;43884.129;  -12.300;53187.137
543.769;45037.160;   -9.369;54697.605
544.354;45246.918;  -12.020;53913.914
544.938;40747.434;  -10.350;49680.164
545.523;35072.078;  -10.841;47386.277
546.108;35012.184;   -8.579;49151.949
546.693;39356.902;   -8.818;51384.637
547.278;44110.535;  -11.331;51853.254
547.862;45850.418;  -10.292;51173.750
548.447;46903.684;   -8.349;51691.395
549.031;47373.883;  -10.838;52456.703
549.616;49267.211;  -11.681;52714.516
550.201;50144.871;  -11.140;52414.598
550.785;47884.984;   -8.649;52355.059
551.370;49652.910;  -11.889;54589.453
551.954;49837.336;  -11.239;58267.348
552.538;50948.852;   -8.850;59062.176
553.123;52556.730;  -10.829;58115.285
553.707;52852.410;   -8.887;56556.285
554.291;50281.543;  -10.430;56201.668
554.876;50429.145;   -9.799;55335.762
555.460;47642.789;  -10.018;54155.703
556.044;47638.129;   -7.307;53721.484
556.628;49661.883;  -12.229;53731.016
557.212;50223.836;   -9.820;54312.531
557.796;48599.527;   -9.109;53797.773
558.380;47166.922;   -9.707;56145.984
558.964;49564.672;  -10.980;57277.930
559.548;51695.355;  -12.010;56459.641
560.132;52085.824;   -7.928;54434.543
560.716;55184.164;  -10.247;54800.617
561.300;55106.797;  -11.250;57606.945
561.884;52839.871;  -10.568;58972.445
562.467;49939.637;   -9.727;57327.570
563.051;46473.336;  -11.847;54962.434
563.635;46505.934;  -10.747;52594.473
564.219;45382.914;  -13.108;50610.410
564.802;44116.977;  -11.417;49551.180
565.386;42582.004;  -10.457;48370.953
565.969;45923.227;   -8.959;48178.871
566.553;47122.145;  -10.328;49957.305
567.136;46581.898;  -10.257;50369.594
567.720;44887.008;  -10.186;49492.004
568.303;44132.215;  -10.027;50616.352
568.887;45262.902;  -10.397;50727.148
569.470;46695.672;   -8.185;51698.379
570.053;44807.707;  -11.596;52122.078
570.637;43099.340;  -11.378;52536.438
571.220;43315.227;   -9.138;51186.098
571.803;42651.406;   -7.675;51032.762
572.386;41697.102;   -8.976;49609.887
572.969;42387.906;  -12.477;48285.926
573.552;41751.566;   -9.767;47624.285
574.135;39377.746;   -8.175;45498.641
574.718;35432.984;  -11.096;41970.434
575.301;35282.555;  -11.966;41447.137
575.884;35132.125;  -12.836;40923.836
576.467;40441.773;   -9.116;45267.723
577.050;42332.141;  -10.536;48175.543
577.633;40796.160;  -11.027;47729.328
578.216;39869.676;   -9.946;47579.793
578.799;40840.051;   -9.645;47820.996
579.381;40102.090;   -9.446;48115.551
579.964;39616.266;  -12.217;47333.766
580.547;39734.008;  -10.586;46668.969
581.129;39763.582;   -8.374;44466.141
581.712;39332.328;  -10.434;44164.922
582.294;38635.723;  -10.896;46477.855
582.877;39331.125;   -8.906;48244.254
583.459;39491.309;   -9.994;47437.895
584.042;38469.949;  -10.084;46943.219
584.624;36699.973;  -13.534;46792.227
585.206;37254.941;  -12.716;46557.250
585.789;37573.098;  -11.614;45793.773
586.371;36741.176;  -10.203;43836.391
586.953;35560.820;  -10.314;42972.492
587.536;34619.492;   -9.776;42487.211
588.118;34778.043;   -9.821;42086.414
588.700;35644.543;  -10.073;43389.930
589.282;37344.027;  -12.395;43646.039
589.864;38230.266;  -11.514;43438.109
590.446;38902.855;  -10.803;43151.926
591.028;39838.598;  -11.043;42781.867
591.610;38562.246;  -13.244;42839.098
592.192;36299.363;  -11.095;42820.402
592.774;34113.441;  -10.823;40724.277
593.356;33730.781;  -11.052;39874.789
593.937;34832.711;  -11.664;39980.648
594.519;35988.395;  -10.454;42069.633
595.101;35945.156;  -10.322;42976.031
595.683;34910.734;  -10.042;44084.441
596.264;34546.945;  -14.334;43478.797
596.846;35412.504;  -10.863;43803.672
597.427;35752.758;   -9.901;42986.934
598.009;34867.973;  -10.911;42832.219
598.591;33776.684;  -10.483;42580.086
599.172;33212.945;   -9.663;43061.805
599.753;33747.020;  -10.631;41691.469
600.335;34310.297;   -9.371;40692.520
600.916;36564.277;  -13.992;39982.422
601.498;37694.586;   -8.352;40318.617
602.079;36363.145;   -8.411;40670.609
602.660;39130.105;  -10.841;41450.898
603.241;38370.375;  -12.963;41137.738
603.823;34483.512;  -11.523;38868.797
604.404;32202.563;  -11.881;38182.785
604.985;33624.984;  -11.721;38078.047
605.566;34122.320;   -9.293;38056.633
606.147;33165.008;  -10.940;37020.418
606.728;32491.809;  -11.840;37883.359
607.309;31489.135;  -11.781;38748.273
607.890;30988.895;  -11.262;38850.230
608.471;29950.465;  -10.111;37457.918
609.051;30353.027;   -7.709;36066.457
609.632;30716.857;  -12.409;35991.074
610.213;28871.967;  -10.811;37402.641
610.794;28875.811;  -11.630;38383.363
611.374;30068.352;   -8.030;40562.387
611.955;31461.064;  -10.809;38533.727
612.536;33358.754;  -10.531;36951.789
613.116;33881.664;  -12.820;37197.891
613.697;33472.598;  -11.419;38411.125
614.277;32062.201;   -9.768;38673.938
614.858;29907.178;  -10.251;37075.863
615.438;26701.283;  -11.981;35092.906
616.019;26654.477;   -8.978;33666.301
616.599;29180.445;  -12.219;34189.023
617.179;31561.082;  -14.170;36952.047
617.760;33527.133;   -9.211;39582.574
618.340;33612.012;   -9.018;38943.977
618.920;32081.414;   -9.249;37594.156
619.500;32953.973;  -12.728;37866.938
620.080;34631.926;  -12.939;37869.043
620.660;33072.938;  -11.586;36868.617
621.241;32286.195;  -11.538;36352.309
621.821;32388.010;  -11.398;35459.520
622.401;33548.516;  -10.179;35207.414
622.980;32536.877;  -11.587;35980.422
623.560;31458.029;  -12.888;37351.328
624.140;29696.963;  -13.149;34388.582
624.720;25582.885;   -9.928;32368.764
625.300;25455.223;  -10.869;32638.629
625.880;29210.742;   -8.617;34599.035
626.459;32901.977;  -12.138;36831.738
627.039;33572.238;  -12.267;38299.098
627.619;33614.148;   -7.476;38289.574
628.198;34602.141;  -11.347;37220.695
628.778;33453.246;  -11.678;37632.563
629.357;30841.283;  -12.438;38003.012
629.937;29387.623;   -9.576;38402.039
630.516;28432.641;  -11.096;37868.801
631.096;28533.283;  -11.828;35760.410
631.675;29349.156;  -11.565;35225.219
632.254;30005.568;  -11.845;35130.289
632.834;30957.148;  -11.545;35794.570
633.413;32307.000;  -10.887;35788.922
633.992;33630.441;  -10.175;34532.863
634.571;32607.590;   -9.704;33590.113
635.151;30411.680;  -10.815;34943.863
635.730;30582.873;  -11.617;35352.523
636.309;31036.211;  -10.836;35366.605
636.888;32103.902;   -9.755;36165.637
637.467;33094.340;  -11.684;37515.902
638.046;35458.516;  -11.987;39288.695
638.625;35539.102;  -10.455;38279.699
639.204;33603.797;  -11.234;37741.598
639.782;30451.008;  -12.023;38364.551
640.361;30055.766;  -11.506;36740.621
640.940;29946.254;  -12.316;34950.082
641.519;30552.889;  -11.616;34137.398
642.097;33287.633;   -9.266;35654.258
642.676;33862.742;  -12.936;35637.957
643.255;33710.297;   -9.966;36567.074
643.833;33838.973;   -8.916;37809.434
644.412;35269.715;  -10.936;37337.293
644.990;36543.172;  -12.176;37018.531
645.569;35742.102;  -12.246;36518.469
646.147;35021.438;  -12.107;36186.430
646.726;35057.988;  -12.937;36267.688
647.304;38190.066;  -12.547;36647.625
647.882;37986.918;  -12.597;39286.742
648.461;35322.297;   -9.427;39157.703
649.039;32868.828;   -8.937;35412.883
649.617;32157.795;  -11.067;34744.918
650.195;32263.502;  -10.657;35403.098
650.773;31285.770;  -10.097;35053.797
651.352;28989.641;  -11.887;33756.816
651.930;25380.711;  -13.557;31868.773
652.508;23166.447;  -11.767;33121.551
653.086;23794.273;  -10.777;33564.793
653.663;28097.287;  -12.067;34054.668
654.241;31131.156;  -14.918;35693.309
654.819;31251.047;  -11.788;36422.906
655.397;30632.248;  -11.268;38213.484
655.975;31796.332;  -11.738;39507.625
656.553;31538.473;  -11.018;39498.223
657.130;30190.770;  -12.848;40395.480
657.708;29306.678;  -10.098;39242.020
658.286;29439.469;  -11.678;38920.020
658.863;30463.621;  -11.498;40202.898
659.441;31344.996;  -11.008;39677.938
660.018;32298.338;  -11.048;40413.355
660.596;31900.275;  -12.058;39931.414
661.173;31892.680;  -14.158;39604.531
661.750;31757.479;  -12.298;39700.070
662.328;31399.086;  -10.699;39292.809
662.905;29986.908;  -12.119;38235.648
663.482;26263.691;  -11.829;36212.305
664.060;25102.637;  -11.009;35944.945
664.637;27818.889;  -10.369;35170.785
665.214;28779.129;  -10.459;34197.523
665.791;27479.170;  -12.599;34549.520
666.368;27044.107;  -12.919;35118.578
666.945;28488.316;  -10.699;36019.418
667.522;29036.828;  -11.359;36048.438
668.099;29618.949;  -13.529;36243.914
668.676;30790.025;  -10.229;35958.875
669.253;30545.643;   -9.279;37384.730
669.830;30547.746;  -11.370;36779.629
670.407;31990.021;  -10.950;35231.289
670.984;32628.967;  -12.850;35544.270
671.560;32550.129;   -8.440;35466.867
672.137;30906.055;  -13.520;34280.863
672.714;29435.732;  -13.620;34632.863
673.290;29035.928;  -10.450;35135.422
673.867;27871.914;  -10.960;36114.480
674.443;26860.268;  -13.300;36152.859
675.020;27287.482;  -12.370;35327.238
675.596;27027.611;  -11.250;35795.176
676.173;27480.504;  -11.080;35430.355
676.749;28172.699;  -13.220;33549.516
677.326;31182.502;  -13.000;32210.012
677.902;31890.445;  -12.701;32068.871
678.478;30940.264;  -12.801;32583.891
679.054;29999.652;   -8.601;32088.928
679.631;31506.732;  -12.631;30978.848
680.207;31713.588;   -9.451;33160.887
680.783;30296.773;  -11.701;35570.363
681.359;30276.096;  -12.701;36125.184
681.935;28733.137;  -13.271;35240.922
682.511;27485.719;  -10.791;34429.961
683.087;28711.611;  -10.791;34463.680
683.663;29642.268;   -8.121;34648.898
684.239;31178.408;  -13.261;34546.457
684.815;29395.008;  -10.581;35586.375
685.390;26794.271;   -9.961;35821.895
685.966;25764.943;  -11.182;35085.871
686.542;25766.854;  -13.512;34198.230
687.118;26767.398;  -11.472;32847.707
687.693;26889.354;  -10.152;32794.027
688.269;28683.627;  -14.442;33072.367
688.844;29910.680;  -11.852;33141.664
689.420;28034.355;  -13.942;33965.742
689.995;26621.535;   -9.702;34655.523
690.571;26603.988;  -11.312;33576.742
691.146;26399.377;  -14.332;32657.219
691.722;28387.750;  -11.192;32526.979
692.297;29576.531;  -10.962;33014.617
692.872;28063.213;  -11.082;34012.254
693.448;27497.342;  -14.732;34237.434
694.023;27573.713;  -12.363;34142.672
694.598;27888.422;  -12.393;34132.031
695.173;27394.178;  -11.023;34205.250
695.748;27608.629;  -12.743;32882.488
696.323;29295.176;  -11.103;32864.906
696.898;30482.914;   -8.123;33170.004
697.473;30201.773;  -12.603;32432.984
698.048;28739.496;  -12.553;31649.303
698.623;29457.191;  -12.573;30778.141
699.198;31129.672;  -12.743;31140.119
699.773;28930.580;  -12.843;31764.299
700.348;28220.516;  -16.683;31780.816
700.922;28997.162;  -11.403;32046.375
701.497;29729.775;  -11.253;32603.574
702.072;29311.020;  -10.044;34799.871
702.646;27482.680;  -13.054;35793.172
703.221;26342.855;  -11.414;35201.590
703.795;27176.930;  -10.644;34764.527
704.370;28102.395;  -13.484;34307.367
704.944;27883.410;  -12.144;33509.887
705.519;27384.563;  -12.024;31388.584
706.093;26666.188;  -11.234;31340.104
706.668;25292.855;   -9.874;32630.281
707.242;25046.234;  -12.404;32728.779
707.816;24653.324;  -10.644;32947.238
708.390;24922.578;  -11.174;33277.855
708.965;26112.381;  -10.324;33834.336
709.539;25870.557;  -12.014;33709.273
710.113;25997.285;  -12.295;33044.313
710.687;26742.898;  -10.965;31953.992
711.261;27412.998;  -13.685;30505.949
711.835;26687.107;  -15.335;30262.369
712.409;26353.063;  -13.785;31254.447
712.983;27784.424;  -10.525;32754.986
713.557;28901.188;  -13.175;34018.824
714.131;29431.543;  -13.245;34579.625
714.704;30192.613;  -13.175;33890.262
715.278;30709.133;  -11.545;33531.102
715.852;29163.854;  -10.975;33601.660
716.425;28460.650;  -10.075;33515.117
716.999;28185.867;  -12.185;33185.555
717.573;29010.064;   -9.685;33905.996
718.146;30006.250;  -10.516;35199.293
718.720;26506.723;  -12.106;35060.551
719.293;26477.480;  -12.386;34973.230
719.867;28189.459;  -12.456;36394.449
720.440;27169.178;  -10.686;36663.008
721.013;27116.584;  -12.596;35102.426
721.587;27627.361;  -13.956;33985.266
722.160;27374.598;   -9.806;33524.965
722.733;28234.373;  -11.676;32987.043
723.306;28445.385;  -14.276;33066.301
723.880;28333.219;  -12.126;33399.500
724.453;28644.713;  -10.156;33468.297
725.026;27513.311;  -12.956;33816.637
725.599;26015.059;  -11.676;32797.996
726.172;25768.412;  -12.337;33187.434
726.745;27221.828;  -11.277;35136.613
727.318;26231.920;  -11.927;35751.730
727.891;25241.578;  -13.607;35890.430
728.463;25484.910;  -11.327;34822.090
729.036;25731.680;  -11.917;32895.086
729.609;26751.201;  -12.697;31823.225
730.182;27670.984;  -11.787;31445.283
730.754;28447.809;  -12.957;32373.223
731.327;28947.939;  -11.017;33676.820
731.900;27469.891;  -12.797;33417.000
732.472;25682.586;  -10.677;31978.498
733.045;25184.795;  -12.797;30368.777
733.617;25058.432;  -13.908;30574.215
734.190;24640.207;  -12.258;31280.975
734.762;25583.215;  -13.438;31674.412
735.334;25586.615;  -11.758;31247.291
735.907;25712.430;  -11.158;29876.211
736.479;26486.314;  -11.258;29808.488
737.051;28096.561;  -10.918;30233.547
737.623;29276.895;  -11.038;31469.086
738.195;28367.215;  -12.188;31784.225
738.768;25649.682;  -11.378;32120.523
739.340;25447.613;  -12.598;32094.342
739.912;26337.998;  -11.568;31312.680
740.484;26030.117;   -9.348;31946.238
741.056;25281.451;  -12.628;32984.059
741.628;25644.172;  -13.349;33897.715
742.199;26082.459;  -11.309;33213.016
742.771;26891.441;  -12.699;31369.113
743.343;28338.561;  -11.919;31865.473
743.915;28246.357;  -11.679;32388.631
744.487;26876.398;  -12.249;31079.568
745.058;25580.723;  -11.119;30570.107
745.630;24437.438;   -9.439;29970.127
746.201;23927.377;  -11.949;29186.766
746.773;23306.836;  -12.639;28805.723
747.344;22789.293;  -11.039;29591.223
747.916;22103.307;  -12.549;31412.201
748.487;21548.779;  -12.659;32194.898
749.059;21747.643;  -13.059;32533.719
749.630;22040.117;  -12.080;32158.518
750.201;21000.479;  -13.100;30855.395
750.773;19983.529;  -15.310;28622.555
751.344;20305.881;  -12.240;28405.732
751.915;20747.857;  -11.960;28461.551
752.486;20864.508;  -13.200;27842.850
753.057;20222.168;  -15.230;27845.008
753.628;19515.539;  -13.130;27728.107
754.199;19630.309;  -12.720;27381.086
754.770;19660.783;  -10.680;25882.203
755.341;19815.938;  -11.010;25886.184
755.912;19005.441;  -12.990;26050.861
756.483;17943.674;  -11.110;26798.779
757.054;17606.041;  -12.190;27048.238
757.625;17831.320;  -13.981;26294.838
758.195;18465.279;  -11.041;26142.076
758.766;19938.691;  -11.861;26392.234
759.337;20365.467;  -11.461;26334.594
759.907;20131.500;  -15.001;27579.652
760.478;19827.650;   -9.681;28352.770
761.048;19330.354;  -12.421;27325.088
761.619;18596.641;  -11.761;26460.428
762.189;17514.658;  -12.391;26029.826
762.760;17471.127;  -10.201;26430.145
763.330;18564.789;  -10.811;26670.902
763.900;20437.664;  -10.261;26603.021
764.471;19523.520;  -13.061;25542.740
765.041;18762.047;  -11.051;24358.459
765.611;18987.043;  -11.032;23991.297
766.181;18731.781;  -10.532;24470.236
766.751;18054.979;  -13.502;24845.975
767.321;17516.037;  -11.392;24533.633
767.891;17565.334;  -11.522;24916.492
768.461;18366.186;  -13.672;24776.771
769.031;18240.928;  -14.652;24757.988
769.601;17216.346;  -10.182;24181.088
770.171;15397.968;  -11.752;23670.387
770.741;14758.843;  -12.272;22960.045
771.311;14954.098;  -13.112;22917.523
771.880;15044.273;  -14.122;23562.941
772.450;16280.814;  -11.782;24216.500
773.020;17255.320;  -12.642;24140.398
773.589;16082.044;  -13.043;24414.857
774.159;14284.040;  -11.783;23858.717
774.729;13960.551;  -13.473;22942.135
775.298;15483.098;  -14.523;22324.033
775.867;16447.131;  -12.013;21140.313
776.437;15454.665;  -12.113;20838.092
777.006;13909.377;  -13.543;20599.510
777.576;12406.824;  -12.523;20508.809
778.145;12636.040;  -12.173;20732.947
778.714;13820.676;  -12.153;21062.465
779.283;14250.290;  -11.833;20949.664
779.853;14583.279;  -13.483;20508.623
780.422;14902.100;  -12.933;20649.082
780.991;14141.852;  -13.173;21527.520
781.560;12854.602;  -10.224;22632.658
782.129;12793.543;  -12.684;23048.277
782.698;14031.994;  -11.284;23438.555
783.267;14792.922;  -11.684;23267.734
783.836;13867.920;  -10.974;22415.133
784.404;12929.089;  -13.534;20443.152
784.973;13034.863;  -16.734;19699.150
785.542;12977.651;  -12.594;19763.828
786.111;12567.324;  -11.644;20341.408
786.679;13004.084;  -11.384;20207.967
787.248;13557.767;  -12.014;19516.465
787.817;12499.557;  -12.804;18900.363
788.385;11299.281;  -11.994;17879.121
788.954;11266.451;  -12.564;17658.301
789.522;12223.911;  -12.225;17788.879
790.090;12248.863;  -13.775;18118.277
790.659;11531.434;  -12.485;18338.736
791.227;11441.923;  -12.295;18508.615
791.795;11654.634;  -13.415;17898.254
792.364;11275.997;  -12.995;17295.133
792.932;10945.619;   -8.365;16822.051
793.500;10964.982;  -11.925;17040.148
794.068;10959.374;  -13.245;17179.787
794.636;10774.021;  -13.815;16664.246
795.204;10253.514;  -13.375;16524.545
795.772;10340.241;  -12.125;17274.564
796.340;10781.539;  -13.855;17891.002
796.908;10881.871;  -13.456;17648.561
797.476;10281.433;  -13.116;17064.080
798.044; 9996.453;  -13.226;16672.777
798.612;10702.554;  -11.236;17023.996
799.180;11432.499;  -10.476;16561.615
799.747;11380.431;  -11.746;15962.773
800.315;10518.353;  -12.366;15296.992
800.883; 9775.741;  -14.616;14801.771
801.450; 9782.949;  -11.996;14534.430
802.018;10273.943;  -11.206;14173.248
802.585; 9398.277;  -12.466;14029.547
803.153; 8317.096;  -12.846;13836.846
803.720; 8116.175;  -12.136;13567.324
804.287; 8441.543;  -10.966;13360.622
804.855; 8977.438;   -9.797;13681.981
805.422; 8841.888;  -13.037;13536.560
805.989; 8548.238;  -12.697;13355.958
806.556; 8754.180;  -11.737;13747.896
807.124; 9078.812;  -11.997;13987.376
807.691; 8665.107;  -13.997;14038.674
808.258; 8586.085;  -10.927;14120.152
808.825; 9102.398;  -13.727;13860.111
809.392; 9386.783;  -11.847;13268.790
809.959; 8593.725;  -14.217;12680.389
810.526; 7879.615;   -8.277;12427.308
811.093; 7876.686;   -9.647;12030.105
811.659; 7660.450;  -10.987;11653.664
812.226; 7140.410;  -13.447;11637.183
812.793; 7323.443;  -14.418;11611.521
813.360; 7791.327;  -13.908;11885.181
813.926; 7854.654;  -12.918;12770.539
814.493; 7837.921;  -14.888;12677.638
815.060; 7915.427;  -12.758;11974.336
815.626; 8185.159;  -13.478;11594.715
816.193; 8110.167;  -13.898;11579.474
816.759; 7727.453;  -13.588;11666.972
817.325; 7587.176;  -12.018;11325.530
817.892; 7074.119;  -14.068;11105.369
818.458; 6525.776;  -13.458;10843.928
819.024; 6363.451;  -11.968;10714.406
819.591; 6119.533;  -11.028;10469.165
820.157; 5914.142;  -12.088;10235.523
820.723; 5786.632;  -12.599;10847.563
821.289; 6067.869;  -10.419;11040.980
821.855; 6776.709;  -10.939;10357.100
822.421; 7249.646;  -12.539; 9978.918
822.987; 7039.449;  -13.259; 9754.177
823.553; 6449.944;  -15.369;10065.755
824.119; 6207.076;  -10.779;10036.294
824.685; 5781.476;   -9.999;10029.192
825.251; 5436.483;  -11.819;10199.230
825.816; 5215.120;  -13.369; 9820.189
826.382; 5363.166;  -12.679; 9297.248
826.948; 5494.156;  -11.199; 9381.347
827.513; 5341.327;  -11.179; 9450.726
828.079; 5350.487;  -13.489; 9472.444
828.645; 5646.298;  -12.500; 9292.643
829.210; 5826.063;  -15.120; 9065.341
829.776; 5658.191;  -12.590; 9132.620
830.341; 5507.638;  -11.540; 9092.878
830.906; 5601.338;  -12.400; 9078.557
831.472; 5495.384;  -12.720; 8534.535
832.037; 5006.419;  -11.490; 8677.874
832.602; 4564.241;  -14.380; 8628.692
833.167; 4768.455;  -12.780; 8879.031
833.733; 5077.783;  -11.100; 9189.790
834.298; 5342.229;  -12.080; 9052.608
834.863; 5181.956;  -13.910; 8895.087
835.428; 4894.504;  -13.470; 8824.266
835.993; 5222.566;  -11.760; 8845.385
836.558; 5658.216;  -12.731; 8888.563
837.123; 5649.260;  -12.431; 8966.582
837.688; 5305.422;  -11.241; 8617.860
838.253; 4985.504;  -13.681; 8590.699
838.817; 4847.164;  -12.531; 8443.797
839.382; 5113.497;  -12.671; 8799.356
839.947; 5064.878;  -11.541; 8810.595
840.511; 4866.873;  -12.021; 8796.394
841.076; 4773.706;  -13.071; 8347.231
841.641; 4579.915;  -11.411; 8224.330
842.205; 4443.349;  -13.671; 8223.349
842.770; 4493.876;  -11.291; 8622.107
843.334; 4589.436;  -12.951; 8410.386
843.898; 4595.138;  -11.221; 8337.465
844.463; 4495.444;  -11.322; 8506.283
845.027; 4199.000;  -11.412; 8280.962
845.591; 3985.658;  -11.512; 8231.141
846.156; 4191.952;  -14.042; 7969.179
846.720; 4444.082;  -12.152; 7768.278
847.284; 4460.172;  -10.922; 7630.957
847.848; 4186.125;  -10.962; 7472.395
848.412; 3873.094;  -14.612; 7437.394
848.976; 3894.512;  -11.492; 7674.592
849.540; 3936.218;   -9.172; 7836.011
850.104; 4290.027;  -11.232; 7913.669
850.668; 4564.602;  -15.182; 7694.508
851.232; 4216.884;  -15.332; 7756.887
851.796; 4034.031;  -13.703; 7926.545
852.359; 4113.175;  -11.113; 7827.844
852.923; 3952.130;  -11.843; 7641.163
853.487; 3744.047;  -11.173; 7342.501
854.050; 3556.577;  -13.443; 7042.820
854.614; 3487.593;  -13.823; 7151.338
855.177; 3633.293;  -16.393; 7105.077
855.741; 3738.612;  -11.693; 6989.675
856.304; 3710.897;  -10.843; 6596.634
856.868; 3615.767;  -13.783; 6356.272
857.431; 3417.260;  -11.953; 6468.571
857.995; 3296.617;  -13.683; 6373.210
858.558; 3244.433;  -11.433; 6324.448
859.121; 3214.050;  -12.493; 6408.327
859.684; 3292.131;  -12.384; 6347.886
860.247; 3328.366;  -14.774; 6321.264
860.810; 3154.936;  -13.154; 6301.903
861.374; 2990.437;  -11.264; 6607.881
861.937; 2915.127;  -15.424; 6408.200
862.500; 2955.521;  -12.854; 6572.639
863.062; 3029.503;  -12.344; 6387.297
863.625; 3070.290;  -13.314; 6190.836
864.188; 2948.208;  -14.724; 5807.254
864.751; 2893.294;  -13.464; 5682.413
865.314; 2867.132;  -11.684; 5547.492
865.876; 2887.029;  -11.104; 5500.150
866.439; 2978.601;  -12.344; 5415.909
867.002; 2978.787;  -13.494; 5501.567
867.564; 2959.753;  -10.935; 5413.946
868.127; 2831.930;  -12.665; 5160.325
868.689; 2612.246;  -14.515; 5133.183
869.252; 2407.022;  -13.425; 5252.382
869.814; 2165.559;  -11.595; 5297.141
870.377; 1902.906;  -12.175; 5390.919
870.939; 1655.327;  -10.265; 5599.898
871.501; 1584.545;  -12.375; 5248.336
872.063; 1663.444;  -14.355; 4854.235
872.626; 1807.904;  -14.435; 4817.074
873.188; 1847.852;  -12.415; 4987.732
873.750; 1845.691;  -14.555; 4868.651
874.312; 1881.524;  -11.185; 4779.330
874.874; 1897.793;  -12.715; 4866.348
875.436; 1877.897;  -13.196; 4718.887
875.998; 1838.406;  -11.426; 4660.005
876.560; 1805.629;   -9.786; 4462.964
877.122; 1797.049;  -12.796; 4145.042
877.683; 1725.076;  -13.226; 4056.481
878.245; 1598.265;  -12.036; 3950.740
878.807; 1502.648;  -11.536; 4058.958
879.369; 1549.435;  -10.806; 3954.677
879.930; 1708.524;  -13.946; 3941.495
880.492; 1762.764;  -11.876; 4067.014
881.053; 1605.396;  -13.216; 3859.633
881.615; 1504.569;  -12.226; 3776.071
882.176; 1456.910;  -12.946; 3734.750
882.738; 1446.308;  -10.736; 3678.489
883.299; 1416.391;  -12.057; 3405.407
883.860; 1342.973;  -12.677; 3351.106
884.422; 1300.146;  -14.097; 3394.044
884.983; 1249.913;  -13.667; 3166.443
885.544; 1199.049;  -10.717; 3189.802
886.105; 1140.909;  -14.357; 3160.360
886.666; 1077.253;  -14.287; 3093.059
887.227; 1011.265;  -14.297; 2941.957
887.788;  959.814;  -13.137; 2974.836
888.349;  896.049;  -14.637; 2721.214
888.910;  851.703;  -12.247; 2696.493
889.471;  851.820;  -10.577; 2560.172
890.032;  860.141;  -12.937; 2558.190
890.593;  867.508;  -12.487; 2567.669
891.153;  845.595;  -11.898; 2460.307
891.714;  811.688;  -14.278; 2372.046
892.275;  787.865;  -13.308; 2309.505
892.835;  725.414;  -12.058; 2382.543
893.396;  643.034;  -15.268; 2295.502
893.956;  601.070;  -13.278; 2162.420
894.517;  580.673;  -11.968; 2125.439
895.077;  578.331;  -12.798; 2086.978
895.638;  554.048;  -11.908; 2126.316
896.198;  528.332;  -13.288; 1838.275
896.758;  506.951;  -12.198; 1892.813
897.319;  484.350;  -13.048; 1792.232
897.879;  452.013;  -13.718; 1762.751
898.439;  412.033;  -14.138; 1661.149
898.999;  386.802;  -13.659; 1781.468
899.559;  378.481;  -14.699; 1703.347
900.119;  359.523;  -14.339; 1537.525
900.679;  336.412;  -11.789; 1638.384
901.239;  310.609;  -13.629; 1527.902
901.799;  289.285;  -13.679; 1456.441
902.359;  279.161;  -13.679; 1357.140
902.919;  271.724;  -14.159; 1331.118
903.479;  257.907;  -13.419; 1317.257
904.038;  243.198;  -14.899; 1262.595
904.598;  228.634;  -14.339; 1152.034
905.158;  220.315;  -13.959; 1240.893
905.717;  214.704;  -12.749; 1233.691
906.277;  210.342;  -11.889; 1217.330
906.836;  204.997;  -12.870; 1222.408
907.396;  198.754;  -11.790; 1193.047
907.955;  189.951;  -13.750; 1182.526
908.515;  181.465;  -14.760; 1099.364
909.074;  177.755;  -12.540; 1092.863
909.633;  172.145;  -12.120; 1069.121
910.192;  167.248;  -12.550; 1196.460
910.752;  161.775;  -12.760; 1029.960
911.311;  159.419;  -14.750; 1009.780
911.870;  157.746;  -13.860;  971.460
912.429;  157.859;  -13.480; 1094.080
912.988;  156.376;  -12.370; 1081.060
913.547;  153.729;  -14.670;  940.380
914.106;  151.748;  -12.800;  999.420
914.665;  150.068;  -11.370;  984.020
915.224;  147.842;  -11.430; 1035.760
915.782;  144.337;  -12.260;  922.560
916.341;  143.396;  -12.540; 1049.840
916.900;  140.500;  -12.540;  925.260
917.458;  139.445;  -13.480;  884.220
918.017;  139.270;  -12.470;  942.600
918.576;  138.567;  -13.450;  904.440
919.134;  137.411;  -12.890;  837.980
919.693;  136.751;  -15.480;  893.060
920.251;  135.788;  -14.420;  876.500
920.809;  134.780;  -12.170;  839.580
921.368;  133.616;  -13.650;  885.360
921.926;  132.546;  -12.750;  842.940
922.484;  133.070;  -14.150;  903.360
923.042;  132.979;  -15.100;  880.340
923.601;  132.338;  -10.990;  998.680
924.159;  129.710;  -12.470;  935.560
924.717;  126.362;  -15.640;  841.080
925.275;  128.299;  -12.380;  903.240
925.833;  128.347;  -12.710;  779.320
926.391;  133.889;  -11.200;  938.380
926.949;  132.904;  -16.000;  857.680
927.506;  135.943;  -12.260;  903.500
928.064;  137.217;  -11.300;  877.580
928.622;  137.952;  -13.750;  880.100
929.180;  138.482;  -15.290;  814.180
929.737;  139.314;  -14.500;  808.540
930.295;  141.732;  -10.630;  928.480
930.853;  143.001;  -14.590;  849.100
931.410;  143.616;  -14.450;  821.120
931.968;  145.637;  -14.390;  940.660
932.525;  147.343;  -13.050;  909.380
933.082;  151.591;  -15.620;  811.440
933.640;  161.193;  -15.650;  925.900
934.197;  164.990;  -13.610;  886.360
934.754;  166.304;  -13.320;  897.780
935.312;  166.097;  -13.370;  863.340
935.869;  170.474;  -12.780; 1012.980
936.426;  170.818;  -14.480;  872.800
936.983;  173.479;  -13.180;  889.020
937.540;  173.817;  -15.710;  838.280
938.097;  174.193;  -14.980;  940.120
938.654;  171.445;  -13.060;  898.860
939.211;  170.959;  -12.760;  952.480
939.768;  172.352;  -16.230;  915.420
940.324;  177.484;  -10.940;  904.200
940.881;  180.704;  -12.570;  878.500
941.438;  183.697;  -13.650; 1021.200
941.995;  179.241;  -13.300;  992.560
942.551;  177.794;  -15.800;  875.620
943.108;  174.795;  -14.180;  937.920
943.664;  170.920;  -13.890;  869.340
944.221;  170.241;  -12.640; 1088.140
944.777;  170.944;  -14.700;  869.680
945.334;  174.763;  -13.010;  884.840
945.890;  175.678;  -13.480;  946.480
946.446;  172.027;  -14.920;  947.020
947.003;  172.721;  -13.860;  964.940
947.559;  174.266;  -12.000; 1063.040
948.115;  170.570;  -10.510; 1026.540
948.671;  168.038;  -12.760;  967.300
949.227;  166.578;  -15.390;  859.560
949.783;  163.213;  -15.570;  858.900
950.339;  161.767;  -12.800;  991.000
950.895;  160.300;  -13.780; 1023.840
951.451;  155.924;  -13.810;  925.280
952.007;  154.805;  -12.390;  998.540
952.563;  152.535;  -11.980;  937.780
953.118;  149.199;  -14.070;  904.940
953.674;  149.437;  -14.140;  935.780
954.230;  149.941;  -12.680;  949.640
954.785;  151.268;  -12.770;  936.640
955.341;  153.016;  -11.450;  998.160
955.897;  146.835;  -15.350;  834.660
956.452;  145.677;  -14.200;  953.840
957.008;  145.115;  -10.820; 1083.640
957.563;  141.451;  -13.200; 1009.540
958.118;  137.761;  -14.460;  877.700
958.674;  138.005;  -13.840;  946.780
959.229;  140.524;  -10.670; 1013.980
959.784;  141.240;  -17.040;  832.400
960.339;  143.797;  -12.970; 1001.280
960.894;  143.167;  -12.700;  963.760
961.449;  141.690;  -13.790;  859.960
962.004;  146.329;  -11.760; 1212.840
962.559;  143.741;  -14.840;  860.140
963.114;  142.634;  -14.530;  742.480
963.669;  144.931;  -12.780;  915.500
964.224;  141.164;  -14.330;  874.340
964.779;  137.807;  -14.380;  828.420
965.334;  134.835;  -12.460; 1017.860
965.888;  132.316;  -13.490;  875.360
966.443;  132.158;  -14.140;  972.380
966.998;  128.681;  -16.240;  819.460
967.552;  126.941;  -12.730;  908.380
968.107;  123.844;  -14.510;  868.300
968.661;  125.681;  -11.850;  922.440
969.216;  124.365;  -14.370;  856.280
969.770;  122.584;  -13.010;  917.200
970.324;  120.796;  -12.460;  923.140
970.879;  118.698;  -11.580;  947.180
971.433;  119.429;  -13.130;  952.720
971.987;  117.821;  -12.360;  895.340
972.541;  116.952;  -14.330;  917.100
973.095;  116.885;  -13.310; 1009.460
973.649;  115.546;  -15.830;  809.480
974.203;  117.708;  -15.830;  829.040
974.757;  119.394;  -13.480;  855.220
975.311;  117.622;  -13.720;  872.600
975.865;  115.896;  -15.780;  881.820
976.419;  113.219;  -14.290;  857.400
976.973;  111.583;  -13.210;  849.620
977.526;  110.594;  -12.300;  949.920
978.080;  106.900;  -14.840;  796.780
978.634;  106.555;  -13.100;  921.320
979.187;  102.982;  -12.300;  905.400
979.741;  101.019;  -12.020; 1018.380
980.294;   95.030;  -14.590;  789.160
980.848;   91.218;  -14.390;  717.220
981.401;   91.920;  -14.280;  816.540
981.955;   91.080;  -11.920;  844.300
982.508;   88.813;  -15.790;  746.340
983.061;   89.153;  -12.070;  915.260
983.615;   86.715;  -13.260;  798.800
984.168;   83.573;  -15.540;  770.080
984.721;   84.166;  -13.230;  880.760
985.274;   82.700;  -11.820;  867.500
985.827;   80.719;  -13.510;  834.220
986.380;   77.058;  -14.840;  721.340
986.933;   77.531;  -13.970;  864.800
987.486;   76.212;  -12.450;  861.920
988.039;   74.756;  -11.170;  863.100
988.591;   72.321;  -13.070;  893.260
989.144;   68.785;  -15.530;  737.260
989.697;   66.884;  -14.300;  758.740
990.250;   67.379;  -13.310;  858.100
990.802;   64.968;  -14.490;  755.860
991.355;   66.722;  -12.980;  974.880
991.907;   65.447;  -13.715;  864.320
992.460;   64.171;  -14.450;  753.760
993.012;   63.008;  -12.590;  749.540
993.565;   60.675;  -15.180;  711.360
994.117;   61.634;  -11.630;  950.780
994.669;   58.963;  -13.760;  701.320
995.221;   57.573;  -12.710;  791.920
995.774;   57.783;  -14.620;  787.580
996.326;   56.530;  -13.150;  740.220
996.878;   56.959;  -12.880;  838.420
997.430;   55.327;  -14.580;  699.860
997.982;   54.418;  -14.030;  750.140
998.534;   54.308;  -12.190;  739.060
999.086;   52.705;  -12.990;  738.220
999.638;   50.837;  -13.180;  661.380
1000.190;   51.078;  -14.970;  699.320
1000.741;   50.694;  -12.200;  742.700
1001.293;   50.751;  -13.400;  686.020
1001.845;   50.022;  -14.490;  676.640
1002.396;   50.150;  -15.280;  743.400
1002.948;   49.161;  -12.380;  737.400
1003.500;   48.270;  -13.260;  723.780
1004.051;   49.394;  -13.730;  907.580
1004.603;   48.541;  -12.300;  791.820
1005.154;   44.280;  -15.330;  608.980
1005.705;   43.380;  -12.800;  723.960
1006.257;   42.531;  -13.900;  707.220
1006.808;   42.089;  -14.430;  685.460
1007.359;   42.308;  -12.010;  763.240
1007.910;   40.471;  -12.690;  646.640
1008.461;   40.255;  -13.610;  732.940
1009.013;   38.656;  -14.990;  588.340
1009.564;   39.406;  -11.860;  793.520
1010.115;   37.268;  -12.640;  597.040
1010.665;   37.355;  -14.570;  602.160
1011.216;   37.474;  -15.190;  667.920
1011.767;   37.591;  -13.470;  697.920
1012.318;   37.406;  -13.760;  736.980
1012.869;   36.059;  -15.950;  679.000
1013.419;   35.662;  -15.880;  603.120
1013.970;   36.122;  -14.540;  666.640
1014.521;   35.276;  -13.220;  620.620
1015.071;   36.274;  -15.020;  670.380
1015.622;   35.144;  -17.510;  635.460
1016.172;   34.548;  -14.130;  596.820
1016.723;   33.710;  -14.220;  614.380
1017.273;   33.296;  -15.370;  604.160
1017.823;   34.026;  -15.290;  650.340
1018.374;   33.912;  -13.420;  611.760
1018.924;   34.015;  -11.740;  716.880
1019.474;   34.510;  -12.250;  718.880
1020.024;   32.970;  -15.850;  657.580
1020.574;   33.580;  -13.280;  726.160
1021.124;   33.204;  -13.560;  673.580
1021.674;   31.711;  -13.790;  559.120
1022.224;   32.871;  -14.610;  708.940
1022.774;   31.481;  -13.100;  668.820
1023.324;   33.188;  -11.470;  753.520
1023.874;   33.801;  -11.990;  875.760
1024.423;   31.359;  -14.550;  613.700
1024.973;   30.643;  -14.440;  610.760
1025.523;   29.999;  -13.250;  620.960
1026.072;   30.108;  -15.200;  606.420
1026.622;   30.069;  -14.590;  675.740
1027.172;   30.660;  -11.080;  715.660
1027.721;   29.100;  -14.010;  601.220
1028.270;   30.212;  -13.690;  663.400
1028.820;   29.942;  -15.380;  638.080
1029.369;   29.260;  -14.980;  612.700
1029.918;   29.324;  -13.100;  649.840
1030.468;   29.110;  -13.680;  564.780
1031.017;   29.301;  -13.770;  634.800
1031.566;   28.034;  -14.100;  608.900
1032.115;   29.304;  -11.770;  694.500
1032.664;   27.347;  -14.940;  596.480
1033.213;   28.550;  -13.370;  735.420
1033.762;   27.855;  -13.660;  635.620
1034.311;   27.567;  -13.650;  677.220
1034.860;   27.181;  -13.820;  691.000
1035.408;   27.979;  -12.860;  722.720
1035.957;   28.108;  -13.060;  719.540
1036.506;   25.322;  -14.510;  530.800
1037.055;   28.849;  -13.470;  844.320
1037.603;   27.048;  -14.800;  664.000
1038.152;   25.395;  -14.190;  534.760
1038.700;   25.912;  -11.810;  585.740
1039.249;   25.705;  -12.850;  681.220
1039.797;   26.122;  -14.610;  633.360
1040.345;   25.621;  -15.220;  705.420
1040.894;   25.442;  -13.480;  625.300
1041.442;   25.032;  -13.310;  632.200
1041.990;   24.444;  -14.510;  559.160
1042.538;   23.010;  -15.700;  536.180
1043.087;   24.143;  -13.910;  570.860
1043.635;   25.178;  -13.620;  670.500
1044.183;   24.324;  -14.230;  586.400
1044.731;   23.828;  -13.730;  576.000
1045.279;   23.690;  -13.970;  674.920
1045.827;   25.751;  -10.750;  892.400
1046.374;   22.820;  -15.230;  515.420
1046.922;   21.893;  -15.390;  590.580
1047.470;   24.484;  -12.320;  691.300
1048.018;   23.525;  -13.230;  647.960
1048.565;   24.607;  -13.390;  708.600
1049.113;   22.174;  -15.030;  557.000
1049.660;   22.528;  -12.540;  629.660
1050.208;   22.815;  -15.040;  675.640
1050.755;   21.935;  -14.680;  606.580
1051.303;   22.865;  -13.610;  686.820
1051.850;   21.891;  -14.340;  635.120
1052.397;   19.441;  -16.330;  473.960
1052.945;   21.245;  -15.710;  617.760
1053.492;   22.460;  -12.320;  741.840
1054.039;   21.953;  -13.730;  720.180
1054.586;   20.334;  -16.140;  557.240
1055.133;   22.615;  -14.020;  693.140
1055.680;   21.614;  -13.430;  646.620
1056.227;   20.616;  -14.570;  542.780
1056.774;   22.253;  -14.400;  794.980
1057.321;   19.758;  -14.230;  523.260
1057.868;   20.631;  -14.220;  651.320
1058.415;   20.142;  -14.060;  651.980
1058.961;   20.127;  -14.640;  678.940
1059.508;   20.333;  -13.970;  643.820
1060.055;   19.161;  -15.100;  581.780
1060.601;   20.258;  -12.180;  624.300
1061.148;   19.470;  -15.010;  616.820
1061.694;   18.829;  -14.750;  592.580
1062.241;   18.230;  -14.130;  596.320
1062.787;   19.535;  -14.770;  663.140
1063.334;   21.425;  -13.130;  808.560
1063.880;   19.484;  -14.420;  668.360
1064.426;   18.780;  -13.130;  706.820
1064.972;   17.328;  -13.960;  601.340
1065.518;   17.251;  -13.680;  566.640
1066.065;   18.406;  -15.720;  624.460
1066.611;   16.789;  -13.970;  598.800
1067.157;   18.305;  -13.920;  641.860
1067.703;   17.995;  -14.760;  668.480
1068.249;   18.184;  -14.490;  605.220
1068.794;   17.658;  -14.740;  626.880
1069.340;   16.810;  -13.220;  578.960
1069.886;   16.693;  -14.930;  590.700
1070.432;   16.661;  -14.700;  541.720
1070.977;   16.453;  -14.470;  601.080
1071.523;   16.266;  -14.330;  573.060
1072.068;   16.169;  -14.960;  582.000
1072.614;   15.883;  -16.220;  527.760
1073.160;   16.823;  -11.280;  687.040
1073.705;   15.514;  -15.990;  572.520
1074.250;   15.134;  -16.550;  559.900
1074.796;   16.685;  -14.600;  655.160
1075.341;   16.738;  -13.440;  664.100
1075.886;   15.946;  -14.450;  594.240
1076.431;   15.511;  -13.160;  649.880
1076.976;   16.343;  -14.710;  639.220
1077.521;   15.093;  -14.000;  583.080
1078.067;   14.550;  -14.470;  579.400
1078.612;   14.711;  -14.530;  661.620
1079.156;   15.224;  -15.660;  601.540
1079.701;   15.061;  -16.120;  693.260
1080.246;   15.705;  -12.960;  696.300
1080.791;   14.639;  -13.700;  625.020
1081.336;   15.089;  -15.540;  659.320
1081.880;   14.569;  -14.640;  649.680
1082.425;   14.135;  -14.220;  573.480
1082.970;   15.487;  -11.890;  717.040
1083.514;   14.719;  -13.820;  597.000
1084.059;   13.284;  -14.280;  586.720
1084.603;   12.968;  -12.890;  565.840
1085.147;   13.647;  -13.590;  645.220
1085.692;   14.793;  -14.050;  716.800
1086.236;   11.201;  -14.990;  503.140
1086.780;   15.052;  -12.640;  751.440
1087.325;   13.802;  -15.550;  654.620
1087.869;   14.084;  -14.980;  610.700
1088.413;   13.622;  -13.440;  705.040
1088.957;   11.407;  -12.170;  543.400
1089.501;   14.249;  -12.730;  766.640
1090.045;   14.259;  -14.650;  726.480
1090.589;   11.544;  -14.500;  569.920
1091.133;   12.933;  -12.320;  673.340
1091.676;   12.107;  -16.130;  591.940
1092.220;   12.040;  -13.930;  600.920
1092.764;   13.345;  -12.820;  706.960
1093.307;   12.330;  -11.700;  673.780
1093.851;   10.848;  -15.600;  556.540
1094.395;   12.266;  -13.920;  683.140
1094.938;   11.448;  -16.090;  632.520
1095.482;   11.266;  -13.820;  559.800
1096.025;   12.089;  -12.720;  710.880
1096.568;   13.271;  -12.100;  779.280
1097.112;    9.602;  -15.450;  508.180
1097.655;   11.385;  -14.310;  603.000
1098.198;    9.593;  -14.740;  600.180
1098.741;   10.339;  -15.550;  612.860
1099.285;   11.035;  -12.600;  657.300
1099.828;    9.365;  -15.050;  439.400
1100.371;   10.160;  -14.800;  608.160
1100.914;   10.847;  -16.480;  682.660
1101.457;   11.429;  -12.990;  679.900
1101.999;    9.065;  -14.110;  584.680
1102.542;   10.511;  -11.450;  641.440
1103.085;    9.886;  -13.350;  658.500
1103.628;   11.116;  -13.200;  762.060
1104.170;    9.478;  -12.310;  588.280
1104.713;   10.068;  -14.320;  646.700
1105.256;    8.867;  -16.110;  557.440
1105.798;    7.708;  -15.910;  499.980
1106.341;   10.203;  -12.200;  728.900
1106.883;    8.310;  -14.910;  521.340
1107.425;    9.372;  -14.960;  668.180
1107.968;    8.815;  -13.440;  612.380
1108.510;    9.603;  -14.010;  684.960
1109.052;    7.994;  -15.430;  612.620
1109.594;    8.906;  -15.290;  554.440
1110.136;    8.446;  -13.360;  643.220
1110.679;    8.287;  -13.820;  633.080
1111.221;    8.798;  -13.690;  604.460
1111.763;    8.180;  -14.890;  559.220
1112.304;    7.455;  -14.550;  547.140
1112.846;    8.542;  -12.760;  666.240
1113.388;   11.516;  -10.780;  942.180
1113.930;    8.411;  -12.690;  694.200
1114.472;    7.616;  -15.730;  606.540
1115.013;    6.243;  -14.620;  551.280
1115.555;    6.199;  -14.950;  587.100
1116.097;    6.567;  -16.460;  579.480
1116.638;    7.654;  -13.730;  684.600
1117.180;    7.229;  -13.810;  667.740
1117.721;    6.870;  -13.280;  568.580
1118.262;    8.069;  -15.080;  677.960
1118.804;    7.173;  -14.040;  637.340
1119.345;    6.326;  -15.430;  578.400
1119.886;    7.762;  -15.240;  704.040
1120.427;    6.755;  -15.820;  589.020
1120.969;    6.034;  -14.550;  597.920
1121.510;    6.047;  -14.030;  563.060
1122.051;    6.801;  -11.990;  723.580
1122.592;    5.735;  -16.490;  655.420
1123.133;    4.916;  -15.580;  547.940
1123.673;    7.026;  -12.850;  706.480
1124.214;    5.976;  -13.630;  612.460
1124.755;    7.104;  -14.830;  639.460
1125.296;    6.140;  -13.110;  627.320
1125.836;    6.910;  -11.320;  691.500
1126.377;    5.202;  -14.330;  599.660
1126.918;    6.615;  -12.800;  614.980
1127.458;    5.288;  -13.580;  622.220
1127.999;    5.809;  -10.330;  656.980
1128.539;    6.443;  -13.390;  694.240
1129.079;    5.660;  -16.420;  632.720
1129.620;    5.003;  -15.700;  558.100
1130.160;    3.877;  -14.790;  539.480
1130.700;    5.546;  -12.910;  640.840
1131.240;    5.498;  -15.610;  643.700
1131.781;    4.973;  -12.920;  619.680
1132.321;    4.468;  -15.300;  599.120
1132.861;    3.766;  -14.760;  564.200
1133.401;    4.619;  -15.470;  593.940
1133.941;    4.744;  -13.710;  626.280
1134.481;    3.993;  -11.820;  597.580
1135.020;    4.477;  -14.810;  609.160
1135.560;    5.123;  -13.660;  674.940
1136.100;    2.633;  -13.940;  501.160
1136.640;    2.872;  -15.410;  510.480
1137.179;    2.724;  -16.920;  537.960
1137.719;    3.798;  -16.430;  605.400
1138.258;    3.870;  -16.300;  587.360
1138.798;    4.221;  -13.710;  663.780
1139.337;    2.146;  -13.840;  482.840
1139.877;    4.251;  -16.140;  642.360
1140.416;    6.054;  -11.410;  878.060
1140.955;    2.762;  -12.820;  535.380
1141.494;    3.154;  -12.310;  669.280
1142.034;    2.494;  -16.280;  583.520
1142.573;    3.806;  -13.090;  646.280
1143.112;    2.733;  -13.770;  553.480
1143.651;    2.690;  -15.830;  536.480
1144.190;    3.890;  -15.010;  691.640
1144.729;    2.504;  -13.650;  607.420
1145.267;    2.922;  -13.670;  584.900
1145.806;    3.314;  -13.630;  637.040
1146.345;    3.103;  -14.160;  635.020
1146.884;    2.850;  -11.180;  622.500
1147.422;    2.111;  -15.890;  533.060
1147.961;    3.888;  -12.760;  708.460
1148.500;    3.021;  -15.220;  669.720
1149.038;    2.989;  -13.720;  632.500
1149.577;    2.579;  -13.250;  698.640
1150.115;    0.262;  -16.790;  452.280
1150.653;    2.045;  -15.810;  607.340
1151.192;    2.170;  -14.730;  552.920
1151.730;    2.455;  -13.660;  652.560
1152.268;    1.163;  -15.120;  589.520
1152.806;    1.444;  -15.580;  571.180
1153.344;    0.627;  -16.210;  577.640
1153.882;    1.914;  -12.810;  600.060
1154.421;   -0.506;  -14.150;  470.620
1154.958;    0.749;  -15.360;  595.240
1155.496;    2.496;  -14.710;  645.280
1156.034;    2.006;  -13.640;  721.880
1156.572;    2.111;  -13.740;  667.060
1157.110;   -0.182;  -16.960;  473.940
1157.647;    1.486;  -11.940;  676.960
1158.185;    0.681;  -14.090;  564.320
1158.723;    0.002;  -13.610;  509.200
1159.260;    1.257;  -14.760;  701.700
1159.798;    1.375;  -13.700;  658.160
1160.335;    0.441;  -13.820;  631.820

