
Integration time [ms]:   3.882
Averaging Nr. [scans]: 1000
Smoothing Nr. [pixels]: 0
Data measured with spectrometer [name]: 7414430SP
Wave   ;Sample   ;Dark     ;Reference
[nm]   ;[counts] ;[counts] ;[counts] 

288.544;  122.919;   10.292;  793.890
289.143;  125.026;    4.564;  681.602
289.742;  127.316;    6.144;  828.814
290.341;  114.127;    4.396;  789.841
290.940;  104.982;    0.938;  730.702
291.538;  106.668;   -0.684;  881.108
292.137;  105.830;   -2.845;  792.581
292.736;  108.821;   -0.144;  975.101
293.335;  103.296;   -6.352;  735.086
293.934;  105.382;   -7.642;  781.677
294.532;  106.317;   -4.992; 1031.958
295.131;   92.560;   -5.478;  834.394
295.730;   92.737;   -6.549;  809.588
296.328;   90.825;   -9.558;  783.442
296.927;   90.259;   -8.118;  779.652
297.525;   91.742;   -6.908;  781.236
298.124;   82.822;   -9.195;  654.009
298.722;   88.600;   -8.198;  761.933
299.321;   86.084;   -8.817;  708.597
299.919;   83.654;   -7.716;  751.918
300.518;   79.423;  -10.745;  689.338
301.116;   81.151;   -9.647;  691.381
301.715;   82.319;  -10.828;  730.222
302.313;   81.838;   -6.087;  704.943
302.911;   76.513;   -6.824;  733.830
303.509;   82.197;   -8.807;  925.627
304.108;   79.939;   -8.198;  760.383
304.706;   79.661;   -6.218;  801.664
305.304;   74.742;   -7.185;  796.707
305.902;   80.306;   -8.568;  784.484
306.500;   76.228;   -7.737;  728.200
307.098;   74.299;   -6.026;  746.560
307.696;   72.568;   -7.176;  780.432
308.294;   73.013;   -8.656;  731.359
308.892;   75.442;   -6.838;  759.769
309.490;   71.170;   -2.596;  712.161
310.088;   69.590;   -4.485;  788.444
310.686;   74.696;   -3.907;  821.749
311.284;   71.476;   -2.806;  766.040
311.882;   68.514;   -2.845;  731.225
312.480;   64.655;   -3.274;  697.167
313.078;   67.798;   -3.645;  808.331
313.675;   68.259;   -4.997;  691.600
314.273;   64.156;   -0.894;  797.837
314.871;   62.978;   -2.854;  589.829
315.468;   61.371;   -3.644;  652.090
316.066;   64.181;   -3.947;  694.427
316.664;   57.982;   -1.824;  656.351
317.261;   61.382;    1.565;  910.128
317.859;   57.745;   -3.955;  768.735
318.456;   59.524;   -2.886;  830.096
319.054;   55.093;   -0.995;  787.828
319.651;   53.169;   -1.765;  759.928
320.249;   54.293;   -3.685;  810.188
320.846;   52.735;   -3.736;  714.286
321.443;   50.179;   -2.065;  832.135
322.041;   47.736;   -5.635;  812.315
322.638;   46.413;   -5.985;  701.456
323.235;   47.938;   -6.677;  665.683
323.833;   45.822;   -3.497;  740.354
324.430;   40.916;   -6.756;  615.900
325.027;   43.081;   -7.647;  876.855
325.624;   43.817;   -7.598;  644.532
326.221;   41.237;   -5.848;  689.717
326.818;   40.540;   -5.777;  818.332
327.415;   44.298;   -8.769;  748.828
328.012;   42.840;   -6.299;  690.585
328.609;   41.241;   -6.639;  731.389
329.206;   40.236;   -6.358;  778.621
329.803;   38.848;   -8.698;  737.841
330.400;   41.143;   -8.379;  704.260
330.997;   41.425;   -6.178;  817.147
331.594;   38.191;   -5.646;  788.185
332.191;   42.995;   -6.928;  728.722
332.787;   44.730;   -6.057;  844.463
333.384;   41.852;   -6.445;  763.093
333.981;   39.860;   -8.002;  815.687
334.578;   41.964;   -8.443;  708.378
335.174;   44.242;   -6.053;  731.469
335.771;   44.202;   -5.791;  836.456
336.367;   40.419;   -6.570;  710.631
336.964;   43.384;   -6.741;  793.266
337.561;   42.848;   -5.710;  731.112
338.157;   39.768;   -3.928;  911.916
338.754;   36.207;   -5.577;  796.589
339.350;   35.607;   -9.667;  722.493
339.946;   38.713;   -5.269;  773.135
340.543;   31.877;   -4.485;  846.136
341.139;   25.939;   -7.584;  720.836
341.735;   25.905;   -8.553;  772.593
342.332;   25.025;   -4.984;  691.472
342.928;   25.767;   -3.475;  795.394
343.524;   20.107;   -6.653;  761.684
344.120;   17.421;   -7.173;  738.562
344.716;   20.499;   -4.385;  723.717
345.313;   18.729;   -3.565;  795.342
345.909;   13.698;   -7.495;  627.336
346.505;   16.495;   -8.276;  740.247
347.101;   16.715;   -5.697;  827.864
347.697;   17.746;   -4.767;  785.398
348.293;   11.673;   -7.226;  627.244
348.889;   14.250;   -7.547;  745.914
349.485;   12.703;   -9.147;  688.205
350.081;   13.989;   -6.568;  772.592
350.676;    8.745;   -6.516;  691.606
351.272;   13.395;   -7.378;  809.530
351.868;   13.928;   -6.759;  780.497
352.464;   11.517;   -4.798;  723.932
353.059;    6.296;   -7.977;  646.017
353.655;   10.993;   -8.769;  777.063
354.251;   11.904;   -5.920;  759.845
354.846;    6.878;   -7.647;  740.646
355.442;    4.753;   -6.956;  753.071
356.038;    6.130;   -9.928;  751.708
356.633;    6.700;   -7.698;  728.594
357.229;    5.162;   -6.307;  724.757
357.824;    2.817;   -7.647;  703.600
358.420;    2.632;  -10.047;  679.726
359.015;    3.953;   -7.458;  695.357
359.610;    5.031;   -5.748;  763.920
360.206;   -1.856;   -9.346;  603.240
360.801;    1.798;  -11.268;  646.503
361.396;    4.058;   -8.789;  725.975
361.992;   -0.142;   -6.347;  668.220
362.587;   -3.575;   -6.476;  670.160
363.182;   -0.802;   -9.457;  689.631
363.777;   -0.144;   -7.147;  738.242
364.372;    0.229;   -5.507;  737.314
364.967;   -4.146;   -6.386;  680.744
365.563;    1.372;   -7.858;  815.567
366.158;   -2.060;   -8.517;  685.161
366.753;   -1.473;   -8.728;  649.263
367.348;   -3.214;   -7.677;  746.056
367.942;   -3.123;  -10.387;  697.298
368.537;   -3.276;   -7.187;  754.245
369.132;   -3.814;   -8.587;  703.428
369.727;   -7.874;   -8.606;  638.079
370.322;   -6.019;  -10.426;  580.186
370.917;   -5.821;   -5.776;  710.646
371.511;   -2.738;   -6.007;  861.834
372.106;   -6.500;   -6.686;  776.964
372.701;   -9.538;   -9.335;  585.988
373.296;   -3.460;   -6.777;  863.135
373.890;   -7.925;   -7.546;  647.840
374.485;  -10.220;   -8.755;  691.199
375.079;   -6.280;   -9.797;  738.685
375.674;   -5.315;   -6.327;  812.970
376.268;   -9.214;   -9.046;  691.759
376.863;  -14.771;   -7.993;  580.327
377.457;   -7.853;   -9.206;  662.490
378.052;   -9.761;   -5.345;  764.884
378.646;  -10.703;   -5.605;  741.167
379.240;  -11.645;   -6.825;  721.176
379.835;   -9.952;  -10.476;  636.978
380.429;  -12.538;   -8.676;  562.557
381.023;  -10.865;   -4.945;  779.205
381.617;  -14.103;   -8.094;  680.106
382.212;  -10.452;  -10.646;  685.303
382.806;   -9.230;   -8.136;  760.690
383.400;  -13.879;   -7.855;  672.281
383.994;  -14.526;   -8.125;  664.870
384.588;  -10.118;   -7.637;  697.701
385.182;   -8.230;   -7.458;  726.624
385.776;  -10.719;   -6.277;  706.875
386.370;  -14.218;   -7.485;  681.968
386.964;  -12.822;   -9.416;  684.155
387.558;   -9.992;   -8.518;  598.360
388.152;  -14.070;   -7.096;  681.959
388.745;  -12.117;   -7.656;  814.707
389.339;   -9.993;   -8.927;  747.642
389.933;   -9.428;   -9.538;  695.370
390.527;  -10.057;   -5.857;  859.029
391.120;  -16.589;   -9.455;  595.318
391.714;  -13.490;   -9.746;  711.633
392.308;   -9.744;   -7.857;  780.253
392.901;  -13.841;   -9.106;  642.460
393.495;  -15.772;  -10.365;  595.414
394.089;  -12.949;   -9.696;  760.452
394.682;  -14.325;   -7.016;  697.188
395.275;  -14.078;   -8.466;  719.927
395.869;  -15.725;   -8.985;  667.314
396.462;  -13.942;  -11.496;  616.609
397.056;   -9.336;   -7.838;  776.621
397.649;  -14.387;   -6.895;  731.575
398.242;  -12.496;   -5.017;  712.645
398.836;  -11.045;   -8.787;  766.408
399.429;  -11.514;   -8.967;  631.041
400.022;  -14.000;   -8.815;  665.902
400.615;  -12.734;   -6.276;  805.609
401.208;  -11.097;   -8.407;  691.451
401.802;  -12.668;   -7.296;  699.329
402.395;  -13.138;   -7.585;  683.502
402.988;  -15.147;   -8.015;  696.627
403.581;  -11.818;   -9.577;  646.878
404.174;   -9.201;   -7.588;  686.568
404.767;  -11.714;   -7.906;  638.583
405.360;  -14.605;   -7.875;  621.445
405.953;   -8.353;   -8.127;  759.034
406.545;   -8.045;   -7.198;  725.342
407.138;  -13.207;   -8.916;  618.350
407.731;  -12.007;   -9.767;  613.303
408.324;   -7.938;  -10.659;  660.554
408.917;   -7.769;   -8.068;  681.864
409.509;   -9.687;   -9.837;  740.396
410.102;  -11.944;   -8.146;  643.948
410.695;   -6.112;   -7.969;  665.758
411.287;   -6.443;   -8.579;  599.821
411.880;   -7.749;   -6.968;  585.421
412.472;  -11.033;   -9.487;  613.092
413.065;   -7.854;  -10.338;  629.408
413.657;   -5.339;   -9.169;  576.678
414.250;   -4.889;  -10.119;  646.681
414.842;   -7.045;   -9.938;  676.353
415.434;   -5.172;  -10.409;  570.463
416.027;   -1.361;   -9.591;  652.196
416.619;   -2.876;   -7.379;  713.400
417.211;   -4.318;   -9.159;  599.352
417.804;    1.121;   -9.191;  628.499
418.396;   -2.698;   -8.159;  607.643
418.988;   -0.519;   -6.960;  659.238
419.580;   -4.710;  -11.389;  568.276
420.172;   -2.041;  -13.460;  536.196
420.764;    2.664;  -10.701;  672.482
421.356;    1.338;   -8.961;  636.898
421.948;   -0.016;   -9.770;  677.661
422.540;    5.707;   -8.832;  680.027
423.132;    4.385;   -8.153;  600.641
423.724;    1.378;   -8.481;  561.267
424.316;    2.714;   -9.261;  621.345
424.908;    7.264;   -9.643;  591.517
425.500;    7.823;   -8.663;  647.978
426.092;    9.040;   -8.503;  648.268
426.683;    6.517;  -10.522;  684.836
427.275;   10.015;  -11.734;  641.471
427.867;   11.799;  -10.264;  668.948
428.458;   12.334;   -7.644;  732.344
429.050;   10.047;   -7.853;  680.749
429.642;   12.963;   -8.904;  743.124
430.233;   12.917;  -10.795;  569.356
430.825;   15.189;   -7.665;  724.809
431.416;   11.696;   -8.843;  698.241
432.008;   16.691;   -9.885;  651.723
432.599;   16.964;   -9.966;  656.073
433.190;   13.843;   -9.164;  637.670
433.782;   13.108;   -8.584;  590.395
434.373;   21.032;   -8.296;  884.765
434.964;   18.796;   -9.896;  602.920
435.556;   17.219;   -8.255;  634.537
436.147;   19.394;   -8.075;  758.490
436.738;   19.867;   -9.716;  701.099
437.329;   25.482;   -7.318;  721.723
437.920;   18.592;   -6.694;  666.688
438.511;   17.929;   -9.644;  564.526
439.103;   24.730;   -9.427;  623.998
439.694;   27.344;  -10.748;  681.583
440.285;   27.659;   -7.997;  764.432
440.876;   25.926;  -10.046;  845.738
441.466;   24.431;  -13.467;  575.162
442.057;   30.446;   -9.329;  665.814
442.648;   29.807;   -7.707;  746.255
443.239;   26.833;   -9.017;  620.477
443.830;   33.411;  -10.279;  704.958
444.421;   34.938;  -12.630;  655.474
445.011;   31.629;   -8.697;  693.619
445.602;   30.249;   -7.787;  743.126
446.193;   32.565;  -13.329;  488.117
446.783;   37.850;   -9.171;  640.397
447.374;   34.005;   -7.457;  692.759
447.964;   32.651;   -9.277;  713.770
448.555;   41.822;   -9.041;  822.742
449.145;   38.609;   -8.969;  662.853
449.736;   40.184;   -6.809;  803.179
450.326;   39.317;   -7.229;  713.626
450.917;   44.437;  -11.391;  675.324
451.507;   43.520;   -9.501;  600.661
452.097;   44.419;   -8.460;  746.267
452.688;   46.049;  -10.080;  742.160
453.278;   45.494;  -12.861;  566.840
453.868;   50.155;   -8.372;  793.550
454.458;   47.802;   -8.131;  651.141
455.048;   48.247;   -8.520;  711.783
455.639;   49.049;  -13.632;  567.096
456.229;   52.950;  -10.143;  710.694
456.819;   55.440;   -9.163;  751.158
457.409;   55.655;   -8.652;  773.993
457.999;   58.815;   -9.933;  737.505
458.589;   58.520;  -10.363;  686.606
459.179;   58.676;  -10.633;  717.658
459.769;   55.931;  -12.442;  627.099
460.358;   61.495;   -9.844;  797.262
460.948;   60.955;   -9.924;  689.503
461.538;   63.682;  -10.484;  660.677
462.128;   60.951;  -10.703;  664.934
462.717;   67.787;  -11.486;  710.326
463.307;   71.124;  -10.767;  705.846
463.897;   67.004;   -8.814;  656.942
464.486;   66.574;   -8.182;  837.128
465.076;   71.499;   -9.985;  733.776
465.666;   74.410;  -10.447;  652.900
466.255;   72.400;   -7.754;  785.651
466.845;   70.042;  -10.884;  666.749
467.434;   73.795;  -12.525;  725.873
468.023;   75.778;  -11.456;  658.357
468.613;   72.834;   -9.173;  713.946
469.202;   76.839;   -9.306;  646.507
469.791;   81.132;   -8.917;  737.811
470.381;   83.928;   -9.657;  742.813
470.970;   83.909;   -9.947;  711.099
471.559;   83.108;   -9.256;  733.291
472.148;   86.141;  -13.397;  675.737
472.738;   90.005;   -9.928;  765.466
473.327;   87.764;  -10.897;  637.529
473.916;   88.619;   -8.526;  737.446
474.505;   93.161;  -11.078;  751.703
475.094;   96.063;   -9.559;  806.570
475.683;   96.336;   -8.838;  797.699
476.272;   96.439;  -10.198;  730.632
476.861;  100.365;  -11.489;  706.754
477.449;  106.481;  -10.721;  728.487
478.038;  101.161;   -9.818;  692.513
478.627;  100.765;   -9.887;  714.852
479.216;  108.736;  -10.030;  769.441
479.805;  111.399;   -9.401;  783.375
480.393;  112.725;   -5.739; 1008.945
480.982;  111.247;   -7.838;  874.501
481.571;  117.576;   -9.111;  858.333
482.159;  118.300;  -10.601;  705.386
482.748;  117.999;   -8.500;  821.385
483.336;  123.081;   -9.241;  858.209
483.925;  124.118;  -10.440;  774.373
484.513;  130.948;  -11.063;  758.962
485.102;  127.735;   -9.540;  810.965
485.690;  136.502;   -6.742; 1011.050
486.278;  139.342;   -8.442;  979.329
486.867;  139.233;  -10.472;  809.662
487.455;  142.737;   -8.811;  898.229
488.043;  143.293;  -10.721;  748.361
488.631;  153.036;  -10.393; 1005.079
489.220;  158.180;  -10.843;  908.626
489.808;  158.709;  -10.572;  741.415
490.396;  168.418;  -10.482;  914.645
490.984;  175.632;  -11.542;  830.161
491.572;  187.680;   -8.463;  940.315
492.160;  195.095;   -8.491;  919.081
492.748;  210.183;   -9.681;  884.341
493.336;  236.951;  -10.493; 1019.693
493.924;  271.920;   -9.354;  958.077
494.512;  313.765;   -9.132; 1066.638
495.100;  359.240;   -9.001; 1103.280
495.687;  420.482;  -11.924; 1206.373
496.275;  511.924;  -11.193; 1150.796
496.863;  609.197;   -9.241; 1281.171
497.451;  730.835;  -11.341; 1386.805
498.038;  861.801;  -11.364; 1556.729
498.626;  984.366;   -8.104; 1741.407
499.214; 1217.892;   -8.842; 2016.609
499.801; 1538.060;  -10.112; 2220.633
500.389; 1799.016;  -11.953; 2312.494
500.976; 2015.405;  -10.023; 2744.849
501.564; 2300.463;   -8.662; 3148.565
502.151; 2756.735;  -10.531; 3515.999
502.738; 3305.198;  -13.853; 3971.274
503.326; 3885.979;  -10.794; 4403.796
503.913; 4501.867;   -8.663; 5161.749
504.500; 5109.723;  -10.172; 5986.420
505.088; 6130.022;  -13.472; 6381.201
505.675; 6922.323;  -10.924; 6925.547
506.262; 7209.801;   -8.551; 7619.060
506.849; 8029.620;  -10.523; 8733.969
507.436; 9132.181;  -10.834; 9790.121
508.023; 9461.018;   -9.093; 9985.472
508.610; 9896.728;  -10.073;10434.618
509.197;11209.116;   -9.500;11198.435
509.784;13279.555;  -13.242;12391.194
510.371;14283.771;  -10.964;13603.713
510.958;15196.432;   -9.772;14426.586
511.545;15865.992;   -7.842;15243.775
512.132;15918.877;  -12.184;15945.876
512.719;17587.879;   -9.733;16340.369
513.305;20453.543;   -9.172;18011.766
513.892;21740.602;   -9.581;19754.971
514.479;22795.816;  -10.253;20967.805
515.066;23101.615;   -8.183;22299.793
515.652;23957.520;   -9.253;22908.660
516.239;25678.893;   -9.412;23798.875
516.825;27100.982;  -11.153;25567.275
517.412;26346.307;  -10.263;28154.959
517.998;25665.297;   -8.802;28344.111
518.585;25838.338;  -10.401;27134.219
519.171;26529.311;  -12.744;27268.576
519.758;28514.014;  -11.793;28964.129
520.344;31878.986;   -8.912;30664.494
520.930;34600.164;  -10.901;32550.605
521.516;33930.199;  -12.034;35422.895
522.103;35046.996;  -10.473;38280.004
522.689;36925.965;   -8.311;37835.117
523.275;38254.578;  -10.691;37288.613
523.861;38966.242;  -11.193;37281.395
524.447;36548.098;  -11.484;37846.949
525.033;36753.242;   -7.702;38321.949
525.619;37496.965;  -11.241;38579.285
526.205;37732.320;  -12.152;40622.875
526.791;38754.184;  -11.423;42258.836
527.377;39748.570;   -7.981;42966.902
527.963;39434.156;   -9.450;42018.949
528.549;39626.051;  -11.351;42476.828
529.135;40929.438;  -10.202;41854.852
529.721;40838.918;   -8.672;41237.711
530.306;38790.508;   -9.111;41259.445
530.892;40802.410;  -11.252;41506.047
531.478;43583.090;  -10.432;43559.613
532.063;45387.387;  -10.721;47695.563
532.649;47104.406;   -7.450;50808.324
533.235;48472.563;  -11.811;51787.500
533.820;47726.414;   -9.383;52145.035
534.406;44903.191;   -9.400;51133.488
534.991;44909.086;   -8.861;49996.805
535.576;46545.871;  -10.612;48882.852
536.162;43866.617;   -7.322;46942.285
536.747;43772.621;   -9.360;45711.746
537.333;46178.512;  -10.450;48510.180
537.918;49530.277;  -12.610;50439.891
538.503;49953.129;  -12.132;50863.711
539.088;46774.199;  -10.831;50906.922
539.673;46677.164;  -11.220;52621.965
540.259;49438.297;  -11.481;52368.094
540.844;48999.395;  -11.462;50879.109
541.429;50036.086;   -7.869;52077.777
542.014;48571.832;  -11.859;52716.695
542.599;46173.441;  -11.061;52363.281
543.184;46143.926;  -12.300;53187.137
543.769;47724.594;   -9.369;54697.605
544.354;48597.676;  -12.020;53913.914
544.938;44910.391;  -10.350;49680.164
545.523;41700.434;  -10.841;47386.277
546.108;44679.750;   -8.579;49151.949
546.693;47905.758;   -8.818;51384.637
547.278;48551.742;  -11.331;51853.254
547.862;47254.051;  -10.292;51173.750
548.447;46882.949;   -8.349;51691.395
549.031;46962.805;  -10.838;52456.703
549.616;48404.027;  -11.681;52714.516
550.201;49729.738;  -11.140;52414.598
550.785;47473.230;   -8.649;52355.059
551.370;48802.262;  -11.889;54589.453
551.954;49381.938;  -11.239;58267.348
552.538;50979.230;   -8.850;59062.176
553.123;53045.371;  -10.829;58115.285
553.707;53505.012;   -8.887;56556.285
554.291;50682.270;  -10.430;56201.668
554.876;50457.598;   -9.799;55335.762
555.460;47796.637;  -10.018;54155.703
556.044;47606.348;   -7.307;53721.484
556.628;50043.160;  -12.229;53731.016
557.212;50908.211;   -9.820;54312.531
557.796;49313.309;   -9.109;53797.773
558.380;47274.426;   -9.707;56145.984
558.964;49611.867;  -10.980;57277.930
559.548;52345.262;  -12.010;56459.641
560.132;52808.156;   -7.928;54434.543
560.716;55937.262;  -10.247;54800.617
561.300;56336.094;  -11.250;57606.945
561.884;54239.602;  -10.568;58972.445
562.467;51868.914;   -9.727;57327.570
563.051;48285.480;  -11.847;54962.434
563.635;47828.805;  -10.747;52594.473
564.219;46613.156;  -13.108;50610.410
564.802;45134.582;  -11.417;49551.180
565.386;43374.230;  -10.457;48370.953
565.969;46562.809;   -8.959;48178.871
566.553;47799.695;  -10.328;49957.305
567.136;47382.230;  -10.257;50369.594
567.720;46033.434;  -10.186;49492.004
568.303;45247.168;  -10.027;50616.352
568.887;46325.793;  -10.397;50727.148
569.470;47908.645;   -8.185;51698.379
570.053;46048.160;  -11.596;52122.078
570.637;44083.699;  -11.378;52536.438
571.220;44134.430;   -9.138;51186.098
571.803;43485.832;   -7.675;51032.762
572.386;42279.457;   -8.976;49609.887
572.969;43045.754;  -12.477;48285.926
573.552;42708.074;   -9.767;47624.285
574.135;40495.242;   -8.175;45498.641
574.718;36176.059;  -11.096;41970.434
575.301;35684.051;  -11.966;41447.137
575.884;35192.047;  -12.836;40923.836
576.467;40668.195;   -9.116;45267.723
577.050;42824.051;  -10.536;48175.543
577.633;41664.840;  -11.027;47729.328
578.216;40276.016;   -9.946;47579.793
578.799;40874.809;   -9.645;47820.996
579.381;40325.352;   -9.446;48115.551
579.964;39989.496;  -12.217;47333.766
580.547;40404.637;  -10.586;46668.969
581.129;40405.863;   -8.374;44466.141
581.712;39942.227;  -10.434;44164.922
582.294;39354.781;  -10.896;46477.855
582.877;39987.418;   -8.906;48244.254
583.459;40179.730;   -9.994;47437.895
584.042;39250.875;  -10.084;46943.219
584.624;37655.281;  -13.534;46792.227
585.206;37917.996;  -12.716;46557.250
585.789;38310.668;  -11.614;45793.773
586.371;37473.469;  -10.203;43836.391
586.953;35966.258;  -10.314;42972.492
587.536;34712.160;   -9.776;42487.211
588.118;35113.270;   -9.821;42086.414
588.700;36187.445;  -10.073;43389.930
589.282;37883.859;  -12.395;43646.039
589.864;38298.074;  -11.514;43438.109
590.446;38918.141;  -10.803;43151.926
591.028;40105.352;  -11.043;42781.867
591.610;39127.656;  -13.244;42839.098
592.192;36509.293;  -11.095;42820.402
592.774;34041.410;  -10.823;40724.277
593.356;33435.578;  -11.052;39874.789
593.937;34828.578;  -11.664;39980.648
594.519;36524.672;  -10.454;42069.633
595.101;36687.523;  -10.322;42976.031
595.683;35603.395;  -10.042;44084.441
596.264;34865.547;  -14.334;43478.797
596.846;35539.234;  -10.863;43803.672
597.427;36055.660;   -9.901;42986.934
598.009;35484.863;  -10.911;42832.219
598.591;34663.367;  -10.483;42580.086
599.172;33874.270;   -9.663;43061.805
599.753;33828.969;  -10.631;41691.469
600.335;34113.672;   -9.371;40692.520
600.916;36223.996;  -13.992;39982.422
601.498;37604.203;   -8.352;40318.617
602.079;36054.750;   -8.411;40670.609
602.660;38737.500;  -10.841;41450.898
603.241;38506.867;  -12.963;41137.738
603.823;34894.805;  -11.523;38868.797
604.404;32477.836;  -11.881;38182.785
604.985;33815.488;  -11.721;38078.047
605.566;34684.148;   -9.293;38056.633
606.147;33786.563;  -10.940;37020.418
606.728;32964.402;  -11.840;37883.359
607.309;31951.342;  -11.781;38748.273
607.890;31564.682;  -11.262;38850.230
608.471;30432.664;  -10.111;37457.918
609.051;30709.633;   -7.709;36066.457
609.632;31221.754;  -12.409;35991.074
610.213;29466.629;  -10.811;37402.641
610.794;29499.170;  -11.630;38383.363
611.374;30784.035;   -8.030;40562.387
611.955;32067.508;  -10.809;38533.727
612.536;33870.309;  -10.531;36951.789
613.116;34381.262;  -12.820;37197.891
613.697;33870.824;  -11.419;38411.125
614.277;32587.459;   -9.768;38673.938
614.858;30757.996;  -10.251;37075.863
615.438;27343.125;  -11.981;35092.906
616.019;27096.727;   -8.978;33666.301
616.599;30007.477;  -12.219;34189.023
617.179;32536.723;  -14.170;36952.047
617.760;34496.477;   -9.211;39582.574
618.340;34739.996;   -9.018;38943.977
618.920;33107.402;   -9.249;37594.156
619.500;33629.367;  -12.728;37866.938
620.080;35587.602;  -12.939;37869.043
620.660;34024.461;  -11.586;36868.617
621.241;32935.805;  -11.538;36352.309
621.821;32954.563;  -11.398;35459.520
622.401;34128.266;  -10.179;35207.414
622.980;33474.063;  -11.587;35980.422
623.560;32256.363;  -12.888;37351.328
624.140;30297.926;  -13.149;34388.582
624.720;25971.527;   -9.928;32368.764
625.300;25857.754;  -10.869;32638.629
625.880;29925.426;   -8.617;34599.035
626.459;33890.719;  -12.138;36831.738
627.039;34726.723;  -12.267;38299.098
627.619;34701.402;   -7.476;38289.574
628.198;35612.707;  -11.347;37220.695
628.778;34601.582;  -11.678;37632.563
629.357;32015.803;  -12.438;38003.012
629.937;30328.598;   -9.576;38402.039
630.516;29360.672;  -11.096;37868.801
631.096;29296.900;  -11.828;35760.410
631.675;30091.348;  -11.565;35225.219
632.254;30776.094;  -11.845;35130.289
632.834;31734.691;  -11.545;35794.570
633.413;32897.570;  -10.887;35788.922
633.992;34441.195;  -10.175;34532.863
634.571;33426.129;   -9.704;33590.113
635.151;31018.324;  -10.815;34943.863
635.730;31077.738;  -11.617;35352.523
636.309;31307.113;  -10.836;35366.605
636.888;32230.545;   -9.755;36165.637
637.467;33131.227;  -11.684;37515.902
638.046;35419.324;  -11.987;39288.695
638.625;35702.895;  -10.455;38279.699
639.204;33877.336;  -11.234;37741.598
639.782;30570.275;  -12.023;38364.551
640.361;29724.000;  -11.506;36740.621
640.940;29764.795;  -12.316;34950.082
641.519;30758.729;  -11.616;34137.398
642.097;33701.664;   -9.266;35654.258
642.676;34063.977;  -12.936;35637.957
643.255;33718.078;   -9.966;36567.074
643.833;33860.230;   -8.916;37809.434
644.412;35108.977;  -10.936;37337.293
644.990;36411.313;  -12.176;37018.531
645.569;35836.004;  -12.246;36518.469
646.147;35190.422;  -12.107;36186.430
646.726;35141.480;  -12.937;36267.688
647.304;38273.137;  -12.547;36647.625
647.882;38338.176;  -12.597;39286.742
648.461;35796.781;   -9.427;39157.703
649.039;33301.531;   -8.937;35412.883
649.617;32224.979;  -11.067;34744.918
650.195;32282.168;  -10.657;35403.098
650.773;31433.037;  -10.097;35053.797
651.352;29175.289;  -11.887;33756.816
651.930;25302.166;  -13.557;31868.773
652.508;22928.959;  -11.767;33121.551
653.086;23750.316;  -10.777;33564.793
653.663;27847.932;  -12.067;34054.668
654.241;30883.527;  -14.918;35693.309
654.819;31292.729;  -11.788;36422.906
655.397;30684.492;  -11.268;38213.484
655.975;31833.934;  -11.738;39507.625
656.553;31569.344;  -11.018;39498.223
657.130;30286.504;  -12.848;40395.480
657.708;29522.156;  -10.098;39242.020
658.286;29751.209;  -11.678;38920.020
658.863;30709.244;  -11.498;40202.898
659.441;31615.463;  -11.008;39677.938
660.018;32625.857;  -11.048;40413.355
660.596;32464.088;  -12.058;39931.414
661.173;32360.121;  -14.158;39604.531
661.750;32061.137;  -12.298;39700.070
662.328;31616.285;  -10.699;39292.809
662.905;30141.904;  -12.119;38235.648
663.482;26269.201;  -11.829;36212.305
664.060;25217.502;  -11.009;35944.945
664.637;27920.209;  -10.369;35170.785
665.214;28701.082;  -10.459;34197.523
665.791;27418.881;  -12.599;34549.520
666.368;27017.543;  -12.919;35118.578
666.945;28668.508;  -10.699;36019.418
667.522;29332.576;  -11.359;36048.438
668.099;29804.676;  -13.529;36243.914
668.676;30699.783;  -10.229;35958.875
669.253;30466.904;   -9.279;37384.730
669.830;30147.238;  -11.370;36779.629
670.407;31453.086;  -10.950;35231.289
670.984;32225.170;  -12.850;35544.270
671.560;32125.584;   -8.440;35466.867
672.137;30428.584;  -13.520;34280.863
672.714;28871.795;  -13.620;34632.863
673.290;28622.365;  -10.450;35135.422
673.867;27621.926;  -10.960;36114.480
674.443;26462.828;  -13.300;36152.859
675.020;26932.662;  -12.370;35327.238
675.596;26806.197;  -11.250;35795.176
676.173;27258.787;  -11.080;35430.355
676.749;27847.752;  -13.220;33549.516
677.326;30878.633;  -13.000;32210.012
677.902;31835.531;  -12.701;32068.871
678.478;31144.471;  -12.801;32583.891
679.054;30260.119;   -8.601;32088.928
679.631;31701.221;  -12.631;30978.848
680.207;31824.510;   -9.451;33160.887
680.783;30186.293;  -11.701;35570.363
681.359;30101.787;  -12.701;36125.184
681.935;29034.570;  -13.271;35240.922
682.511;27689.430;  -10.791;34429.961
683.087;28683.389;  -10.791;34463.680
683.663;29469.242;   -8.121;34648.898
684.239;31052.301;  -13.261;34546.457
684.815;29517.861;  -10.581;35586.375
685.390;26887.359;   -9.961;35821.895
685.966;25801.697;  -11.182;35085.871
686.542;25592.270;  -13.512;34198.230
687.118;26358.109;  -11.472;32847.707
687.693;26545.430;  -10.152;32794.027
688.269;28239.766;  -14.442;33072.367
688.844;29587.236;  -11.852;33141.664
689.420;27681.744;  -13.942;33965.742
689.995;26164.244;   -9.702;34655.523
690.571;26169.230;  -11.312;33576.742
691.146;25896.863;  -14.332;32657.219
691.722;27726.551;  -11.192;32526.979
692.297;29183.529;  -10.962;33014.617
692.872;27844.740;  -11.082;34012.254
693.448;27322.842;  -14.732;34237.434
694.023;27320.645;  -12.363;34142.672
694.598;27705.605;  -12.393;34132.031
695.173;27054.043;  -11.023;34205.250
695.748;27064.023;  -12.743;32882.488
696.323;28639.662;  -11.103;32864.906
696.898;29898.213;   -8.123;33170.004
697.473;29700.303;  -12.603;32432.984
698.048;28425.203;  -12.553;31649.303
698.623;29159.652;  -12.573;30778.141
699.198;31161.891;  -12.743;31140.119
699.773;28992.186;  -12.843;31764.299
700.348;28207.221;  -16.683;31780.816
700.922;28880.852;  -11.403;32046.375
701.497;29656.664;  -11.253;32603.574
702.072;29481.668;  -10.044;34799.871
702.646;27926.203;  -13.054;35793.172
703.221;26617.787;  -11.414;35201.590
703.795;27328.244;  -10.644;34764.527
704.370;28466.016;  -13.484;34307.367
704.944;28328.373;  -12.144;33509.887
705.519;27722.188;  -12.024;31388.584
706.093;26790.914;  -11.234;31340.104
706.668;25295.945;   -9.874;32630.281
707.242;24857.629;  -12.404;32728.779
707.816;24620.750;  -10.644;32947.238
708.390;24797.586;  -11.174;33277.855
708.965;25891.275;  -10.324;33834.336
709.539;25524.408;  -12.014;33709.273
710.113;25409.701;  -12.295;33044.313
710.687;26001.896;  -10.965;31953.992
711.261;26562.586;  -13.685;30505.949
711.835;25888.250;  -15.335;30262.369
712.409;25362.691;  -13.785;31254.447
712.983;26689.611;  -10.525;32754.986
713.557;28004.158;  -13.175;34018.824
714.131;28623.543;  -13.245;34579.625
714.704;29591.803;  -13.175;33890.262
715.278;30639.186;  -11.545;33531.102
715.852;29396.721;  -10.975;33601.660
716.425;28571.369;  -10.075;33515.117
716.999;28278.182;  -12.185;33185.555
717.573;29013.996;   -9.685;33905.996
718.146;30291.012;  -10.516;35199.293
718.720;26871.377;  -12.106;35060.551
719.293;26574.029;  -12.386;34973.230
719.867;28689.945;  -12.456;36394.449
720.440;27946.725;  -10.686;36663.008
721.013;27861.145;  -12.596;35102.426
721.587;28312.068;  -13.956;33985.266
722.160;27909.797;   -9.806;33524.965
722.733;28430.150;  -11.676;32987.043
723.306;28534.830;  -14.276;33066.301
723.880;28587.514;  -12.126;33399.500
724.453;29156.574;  -10.156;33468.297
725.026;27934.053;  -12.956;33816.637
725.599;26268.807;  -11.676;32797.996
726.172;25794.668;  -12.337;33187.434
726.745;27185.078;  -11.277;35136.613
727.318;26413.340;  -11.927;35751.730
727.891;25327.992;  -13.607;35890.430
728.463;25417.369;  -11.327;34822.090
729.036;25313.264;  -11.917;32895.086
729.609;26160.939;  -12.697;31823.225
730.182;27126.717;  -11.787;31445.283
730.754;28007.764;  -12.957;32373.223
731.327;28599.664;  -11.017;33676.820
731.900;27207.549;  -12.797;33417.000
732.472;25361.576;  -10.677;31978.498
733.045;24854.746;  -12.797;30368.777
733.617;25000.146;  -13.908;30574.215
734.190;24662.406;  -12.258;31280.975
734.762;25623.307;  -13.438;31674.412
735.334;25737.482;  -11.758;31247.291
735.907;25767.500;  -11.158;29876.211
736.479;26540.398;  -11.258;29808.488
737.051;28156.453;  -10.918;30233.547
737.623;29254.551;  -11.038;31469.086
738.195;28505.475;  -12.188;31784.225
738.768;25669.404;  -11.378;32120.523
739.340;25182.363;  -12.598;32094.342
739.912;26231.582;  -11.568;31312.680
740.484;26112.168;   -9.348;31946.238
741.056;25358.553;  -12.628;32984.059
741.628;25637.607;  -13.349;33897.715
742.199;26031.963;  -11.309;33213.016
742.771;26556.514;  -12.699;31369.113
743.343;28102.432;  -11.919;31865.473
743.915;28141.658;  -11.679;32388.631
744.487;26684.984;  -12.249;31079.568
745.058;25244.607;  -11.119;30570.107
745.630;24132.152;   -9.439;29970.127
746.201;23833.375;  -11.949;29186.766
746.773;23330.885;  -12.639;28805.723
747.344;22753.160;  -11.039;29591.223
747.916;21944.553;  -12.549;31412.201
748.487;21229.625;  -12.659;32194.898
749.059;21274.307;  -13.059;32533.719
749.630;21909.371;  -12.080;32158.518
750.201;21090.752;  -13.100;30855.395
750.773;19971.230;  -15.310;28622.555
751.344;20096.035;  -12.240;28405.732
751.915;20396.400;  -11.960;28461.551
752.486;20497.438;  -13.200;27842.850
753.057;20133.670;  -15.230;27845.008
753.628;19675.854;  -13.130;27728.107
754.199;19705.486;  -12.720;27381.086
754.770;19576.553;  -10.680;25882.203
755.341;19644.225;  -11.010;25886.184
755.912;18927.672;  -12.990;26050.861
756.483;17836.492;  -11.110;26798.779
757.054;17444.988;  -12.190;27048.238
757.625;17629.896;  -13.981;26294.838
758.195;18039.447;  -11.041;26142.076
758.766;19365.133;  -11.861;26392.234
759.337;19913.176;  -11.461;26334.594
759.907;19882.484;  -15.001;27579.652
760.478;19614.695;   -9.681;28352.770
761.048;19149.287;  -12.421;27325.088
761.619;18475.104;  -11.761;26460.428
762.189;17332.061;  -12.391;26029.826
762.760;17160.018;  -10.201;26430.145
763.330;18197.570;  -10.811;26670.902
763.900;20258.947;  -10.261;26603.021
764.471;19537.846;  -13.061;25542.740
765.041;18430.453;  -11.051;24358.459
765.611;18598.004;  -11.032;23991.297
766.181;18509.521;  -10.532;24470.236
766.751;18155.604;  -13.502;24845.975
767.321;18001.943;  -11.392;24533.633
767.891;18169.385;  -11.522;24916.492
768.461;18869.119;  -13.672;24776.771
769.031;18588.301;  -14.652;24757.988
769.601;17534.646;  -10.182;24181.088
770.171;15696.188;  -11.752;23670.387
770.741;14782.248;  -12.272;22960.045
771.311;14937.422;  -13.112;22917.523
771.880;14981.039;  -14.122;23562.941
772.450;16045.430;  -11.782;24216.500
773.020;17202.195;  -12.642;24140.398
773.589;16228.137;  -13.043;24414.857
774.159;14433.204;  -11.783;23858.717
774.729;13899.936;  -13.473;22942.135
775.298;15215.821;  -14.523;22324.033
775.867;16163.294;  -12.013;21140.313
776.437;15211.984;  -12.113;20838.092
777.006;13694.479;  -13.543;20599.510
777.576;12237.546;  -12.523;20508.809
778.145;12286.461;  -12.173;20732.947
778.714;13472.502;  -12.153;21062.465
779.283;13896.669;  -11.833;20949.664
779.853;14282.914;  -13.483;20508.623
780.422;14719.315;  -12.933;20649.082
780.991;14089.463;  -13.173;21527.520
781.560;12726.709;  -10.224;22632.658
782.129;12516.787;  -12.684;23048.277
782.698;13707.252;  -11.284;23438.555
783.267;14543.594;  -11.684;23267.734
783.836;13650.189;  -10.974;22415.133
784.404;12642.767;  -13.534;20443.152
784.973;12751.207;  -16.734;19699.150
785.542;12757.407;  -12.594;19763.828
786.111;12342.982;  -11.644;20341.408
786.679;12729.332;  -11.384;20207.967
787.248;13362.418;  -12.014;19516.465
787.817;12393.692;  -12.804;18900.363
788.385;11267.361;  -11.994;17879.121
788.954;11272.536;  -12.564;17658.301
789.522;12298.053;  -12.225;17788.879
790.090;12378.925;  -13.775;18118.277
790.659;11568.236;  -12.485;18338.736
791.227;11326.473;  -12.295;18508.615
791.795;11496.754;  -13.415;17898.254
792.364;11086.778;  -12.995;17295.133
792.932;10730.223;   -8.365;16822.051
793.500;10767.015;  -11.925;17040.148
794.068;10804.210;  -13.245;17179.787
794.636;10686.138;  -13.815;16664.246
795.204;10148.579;  -13.375;16524.545
795.772;10192.044;  -12.125;17274.564
796.340;10663.501;  -13.855;17891.002
796.908;10859.339;  -13.456;17648.561
797.476;10277.535;  -13.116;17064.080
798.044; 9934.259;  -13.226;16672.777
798.612;10646.399;  -11.236;17023.996
799.180;11499.958;  -10.476;16561.615
799.747;11555.177;  -11.746;15962.773
800.315;10673.180;  -12.366;15296.992
800.883; 9857.756;  -14.616;14801.771
801.450; 9725.058;  -11.996;14534.430
802.018;10233.647;  -11.206;14173.248
802.585; 9481.803;  -12.466;14029.547
803.153; 8414.149;  -12.846;13836.846
803.720; 8189.443;  -12.136;13567.324
804.287; 8416.246;  -10.966;13360.622
804.855; 8886.677;   -9.797;13681.981
805.422; 8768.064;  -13.037;13536.560
805.989; 8453.121;  -12.697;13355.958
806.556; 8647.711;  -11.737;13747.896
807.124; 8957.699;  -11.997;13987.376
807.691; 8536.756;  -13.997;14038.674
808.258; 8430.953;  -10.927;14120.152
808.825; 8937.933;  -13.727;13860.111
809.392; 9261.594;  -11.847;13268.790
809.959; 8517.504;  -14.217;12680.389
810.526; 7767.073;   -8.277;12427.308
811.093; 7747.511;   -9.647;12030.105
811.659; 7586.318;  -10.987;11653.664
812.226; 7050.219;  -13.447;11637.183
812.793; 7152.841;  -14.418;11611.521
813.360; 7598.993;  -13.908;11885.181
813.926; 7680.699;  -12.918;12770.539
814.493; 7624.953;  -14.888;12677.638
815.060; 7684.882;  -12.758;11974.336
815.626; 7948.025;  -13.478;11594.715
816.193; 7918.354;  -13.898;11579.474
816.759; 7593.569;  -13.588;11666.972
817.325; 7501.719;  -12.018;11325.530
817.892; 7047.036;  -14.068;11105.369
818.458; 6438.023;  -13.458;10843.928
819.024; 6221.337;  -11.968;10714.406
819.591; 5950.236;  -11.028;10469.165
820.157; 5733.125;  -12.088;10235.523
820.723; 5618.240;  -12.599;10847.563
821.289; 5870.139;  -10.419;11040.980
821.855; 6585.294;  -10.939;10357.100
822.421; 7114.405;  -12.539; 9978.918
822.987; 6965.031;  -13.259; 9754.177
823.553; 6350.199;  -15.369;10065.755
824.119; 6093.042;  -10.779;10036.294
824.685; 5652.580;   -9.999;10029.192
825.251; 5278.630;  -11.819;10199.230
825.816; 5049.816;  -13.369; 9820.189
826.382; 5177.830;  -12.679; 9297.248
826.948; 5350.500;  -11.199; 9381.347
827.513; 5212.618;  -11.179; 9450.726
828.079; 5184.189;  -13.489; 9472.444
828.645; 5462.371;  -12.500; 9292.643
829.210; 5682.967;  -15.120; 9065.341
829.776; 5554.841;  -12.590; 9132.620
830.341; 5417.966;  -11.540; 9092.878
830.906; 5490.492;  -12.400; 9078.557
831.472; 5386.360;  -12.720; 8534.535
832.037; 4926.291;  -11.490; 8677.874
832.602; 4475.126;  -14.380; 8628.692
833.167; 4646.683;  -12.780; 8879.031
833.733; 4924.162;  -11.100; 9189.790
834.298; 5169.615;  -12.080; 9052.608
834.863; 5068.911;  -13.910; 8895.087
835.428; 4785.366;  -13.470; 8824.266
835.993; 5083.592;  -11.760; 8845.385
836.558; 5522.831;  -12.731; 8888.563
837.123; 5556.741;  -12.431; 8966.582
837.688; 5253.318;  -11.241; 8617.860
838.253; 4933.589;  -13.681; 8590.699
838.817; 4744.292;  -12.531; 8443.797
839.382; 4963.582;  -12.671; 8799.356
839.947; 4918.683;  -11.541; 8810.595
840.511; 4707.642;  -12.021; 8796.394
841.076; 4615.681;  -13.071; 8347.231
841.641; 4442.124;  -11.411; 8224.330
842.205; 4294.657;  -13.671; 8223.349
842.770; 4339.125;  -11.291; 8622.107
843.334; 4452.541;  -12.951; 8410.386
843.898; 4498.025;  -11.221; 8337.465
844.463; 4425.554;  -11.322; 8506.283
845.027; 4149.578;  -11.412; 8280.962
845.591; 3908.896;  -11.512; 8231.141
846.156; 4064.795;  -14.042; 7969.179
846.720; 4300.404;  -12.152; 7768.278
847.284; 4316.710;  -10.922; 7630.957
847.848; 4038.766;  -10.962; 7472.395
848.412; 3713.012;  -14.612; 7437.394
848.976; 3730.780;  -11.492; 7674.592
849.540; 3776.999;   -9.172; 7836.011
850.104; 4117.999;  -11.232; 7913.669
850.668; 4427.306;  -15.182; 7694.508
851.232; 4118.807;  -15.332; 7756.887
851.796; 3924.938;  -13.703; 7926.545
852.359; 3997.864;  -11.113; 7827.844
852.923; 3875.582;  -11.843; 7641.163
853.487; 3690.635;  -11.173; 7342.501
854.050; 3493.943;  -13.443; 7042.820
854.614; 3385.662;  -13.823; 7151.338
855.177; 3486.640;  -16.393; 7105.077
855.741; 3591.121;  -11.693; 6989.675
856.304; 3574.353;  -10.843; 6596.634
856.868; 3485.573;  -13.783; 6356.272
857.431; 3283.834;  -11.953; 6468.571
857.995; 3151.318;  -13.683; 6373.210
858.558; 3105.951;  -11.433; 6324.448
859.121; 3070.305;  -12.493; 6408.327
859.684; 3123.619;  -12.384; 6347.886
860.247; 3144.523;  -14.774; 6321.264
860.810; 2986.910;  -13.154; 6301.903
861.374; 2841.653;  -11.264; 6607.881
861.937; 2773.277;  -15.424; 6408.200
862.500; 2798.294;  -12.854; 6572.639
863.062; 2845.673;  -12.344; 6387.297
863.625; 2858.360;  -13.314; 6190.836
864.188; 2726.976;  -14.724; 5807.254
864.751; 2672.694;  -13.464; 5682.413
865.314; 2657.388;  -11.684; 5547.492
865.876; 2692.137;  -11.104; 5500.150
866.439; 2797.243;  -12.344; 5415.909
867.002; 2799.297;  -13.494; 5501.567
867.564; 2800.171;  -10.935; 5413.946
868.127; 2729.785;  -12.665; 5160.325
868.689; 2623.825;  -14.515; 5133.183
869.252; 2634.898;  -13.425; 5252.382
869.814; 2669.424;  -11.595; 5297.141
870.377; 2666.837;  -12.175; 5390.919
870.939; 2541.409;  -10.265; 5599.898
871.501; 2446.788;  -12.375; 5248.336
872.063; 2403.854;  -14.355; 4854.235
872.626; 2411.786;  -14.435; 4817.074
873.188; 2324.039;  -12.415; 4987.732
873.750; 2268.217;  -14.555; 4868.651
874.312; 2292.990;  -11.185; 4779.330
874.874; 2277.928;  -12.715; 4866.348
875.436; 2174.598;  -13.196; 4718.887
875.998; 2062.892;  -11.426; 4660.005
876.560; 1979.382;   -9.786; 4462.964
877.122; 1944.087;  -12.796; 4145.042
877.683; 1867.591;  -13.226; 4056.481
878.245; 1728.363;  -12.036; 3950.740
878.807; 1606.309;  -11.536; 4058.958
879.369; 1625.013;  -10.806; 3954.677
879.930; 1767.361;  -13.946; 3941.495
880.492; 1838.505;  -11.876; 4067.014
881.053; 1691.714;  -13.216; 3859.633
881.615; 1572.700;  -12.226; 3776.071
882.176; 1511.694;  -12.946; 3734.750
882.738; 1504.410;  -10.736; 3678.489
883.299; 1471.041;  -12.057; 3405.407
883.860; 1384.249;  -12.677; 3351.106
884.422; 1330.452;  -14.097; 3394.044
884.983; 1276.107;  -13.667; 3166.443
885.544; 1216.346;  -10.717; 3189.802
886.105; 1158.674;  -14.357; 3160.360
886.666; 1094.477;  -14.287; 3093.059
887.227; 1026.035;  -14.297; 2941.957
887.788;  972.589;  -13.137; 2974.836
888.349;  910.833;  -14.637; 2721.214
888.910;  859.660;  -12.247; 2696.493
889.471;  859.905;  -10.577; 2560.172
890.032;  869.073;  -12.937; 2558.190
890.593;  870.504;  -12.487; 2567.669
891.153;  849.782;  -11.898; 2460.307
891.714;  818.698;  -14.278; 2372.046
892.275;  793.327;  -13.308; 2309.505
892.835;  733.014;  -12.058; 2382.543
893.396;  650.965;  -15.268; 2295.502
893.956;  604.879;  -13.278; 2162.420
894.517;  583.694;  -11.968; 2125.439
895.077;  582.858;  -12.798; 2086.978
895.638;  557.899;  -11.908; 2126.316
896.198;  533.906;  -13.288; 1838.275
896.758;  513.186;  -12.198; 1892.813
897.319;  488.386;  -13.048; 1792.232
897.879;  454.315;  -13.718; 1762.751
898.439;  416.603;  -14.138; 1661.149
898.999;  388.653;  -13.659; 1781.468
899.559;  376.743;  -14.699; 1703.347
900.119;  358.148;  -14.339; 1537.525
900.679;  336.313;  -11.789; 1638.384
901.239;  309.376;  -13.629; 1527.902
901.799;  288.654;  -13.679; 1456.441
902.359;  279.200;  -13.679; 1357.140
902.919;  271.109;  -14.159; 1331.118
903.479;  258.133;  -13.419; 1317.257
904.038;  242.003;  -14.899; 1262.595
904.598;  227.278;  -14.339; 1152.034
905.158;  219.589;  -13.959; 1240.893
905.717;  213.677;  -12.749; 1233.691
906.277;  210.144;  -11.889; 1217.330
906.836;  203.157;  -12.870; 1222.408
907.396;  198.521;  -11.790; 1193.047
907.955;  189.434;  -13.750; 1182.526
908.515;  181.000;  -14.760; 1099.364
909.074;  176.523;  -12.540; 1092.863
909.633;  172.445;  -12.120; 1069.121
910.192;  167.341;  -12.550; 1196.460
910.752;  161.581;  -12.760; 1029.960
911.311;  157.875;  -14.750; 1009.780
911.870;  156.367;  -13.860;  971.460
912.429;  157.490;  -13.480; 1094.080
912.988;  156.265;  -12.370; 1081.060
913.547;  152.603;  -14.670;  940.380
914.106;  150.900;  -12.800;  999.420
914.665;  149.247;  -11.370;  984.020
915.224;  147.320;  -11.430; 1035.760
915.782;  143.458;  -12.260;  922.560
916.341;  143.618;  -12.540; 1049.840
916.900;  140.234;  -12.540;  925.260
917.458;  138.004;  -13.480;  884.220
918.017;  138.142;  -12.470;  942.600
918.576;  138.370;  -13.450;  904.440
919.134;  136.349;  -12.890;  837.980
919.693;  136.223;  -15.480;  893.060
920.251;  134.305;  -14.420;  876.500
920.809;  134.067;  -12.170;  839.580
921.368;  132.496;  -13.650;  885.360
921.926;  130.717;  -12.750;  842.940
922.484;  129.718;  -14.150;  903.360
923.042;  129.900;  -15.100;  880.340
923.601;  132.631;  -10.990;  998.680
924.159;  132.650;  -12.470;  935.560
924.717;  132.111;  -15.640;  841.080
925.275;  134.042;  -12.380;  903.240
925.833;  132.894;  -12.710;  779.320
926.391;  136.618;  -11.200;  938.380
926.949;  136.254;  -16.000;  857.680
927.506;  137.557;  -12.260;  903.500
928.064;  139.694;  -11.300;  877.580
928.622;  139.361;  -13.750;  880.100
929.180;  138.362;  -15.290;  814.180
929.737;  140.118;  -14.500;  808.540
930.295;  142.252;  -10.630;  928.480
930.853;  143.136;  -14.590;  849.100
931.410;  142.847;  -14.450;  821.120
931.968;  146.953;  -14.390;  940.660
932.525;  147.405;  -13.050;  909.380
933.082;  150.770;  -15.620;  811.440
933.640;  159.193;  -15.650;  925.900
934.197;  164.272;  -13.610;  886.360
934.754;  166.583;  -13.320;  897.780
935.312;  166.102;  -13.370;  863.340
935.869;  169.370;  -12.780; 1012.980
936.426;  170.784;  -14.480;  872.800
936.983;  173.191;  -13.180;  889.020
937.540;  173.185;  -15.710;  838.280
938.097;  172.436;  -14.980;  940.120
938.654;  170.321;  -13.060;  898.860
939.211;  169.570;  -12.760;  952.480
939.768;  170.067;  -16.230;  915.420
940.324;  173.874;  -10.940;  904.200
940.881;  179.745;  -12.570;  878.500
941.438;  181.639;  -13.650; 1021.200
941.995;  178.610;  -13.300;  992.560
942.551;  177.105;  -15.800;  875.620
943.108;  174.992;  -14.180;  937.920
943.664;  170.223;  -13.890;  869.340
944.221;  169.253;  -12.640; 1088.140
944.777;  168.967;  -14.700;  869.680
945.334;  172.931;  -13.010;  884.840
945.890;  172.794;  -13.480;  946.480
946.446;  170.453;  -14.920;  947.020
947.003;  171.573;  -13.860;  964.940
947.559;  172.977;  -12.000; 1063.040
948.115;  169.958;  -10.510; 1026.540
948.671;  166.705;  -12.760;  967.300
949.227;  164.601;  -15.390;  859.560
949.783;  162.025;  -15.570;  858.900
950.339;  162.006;  -12.800;  991.000
950.895;  158.992;  -13.780; 1023.840
951.451;  155.941;  -13.810;  925.280
952.007;  154.513;  -12.390;  998.540
952.563;  152.275;  -11.980;  937.780
953.118;  149.245;  -14.070;  904.940
953.674;  148.398;  -14.140;  935.780
954.230;  148.418;  -12.680;  949.640
954.785;  150.632;  -12.770;  936.640
955.341;  151.135;  -11.450;  998.160
955.897;  145.255;  -15.350;  834.660
956.452;  144.438;  -14.200;  953.840
957.008;  144.055;  -10.820; 1083.640
957.563;  140.638;  -13.200; 1009.540
958.118;  135.453;  -14.460;  877.700
958.674;  136.266;  -13.840;  946.780
959.229;  138.974;  -10.670; 1013.980
959.784;  139.157;  -17.040;  832.400
960.339;  140.763;  -12.970; 1001.280
960.894;  141.190;  -12.700;  963.760
961.449;  139.516;  -13.790;  859.960
962.004;  143.139;  -11.760; 1212.840
962.559;  141.493;  -14.840;  860.140
963.114;  141.851;  -14.530;  742.480
963.669;  142.692;  -12.780;  915.500
964.224;  140.867;  -14.330;  874.340
964.779;  136.905;  -14.380;  828.420
965.334;  134.134;  -12.460; 1017.860
965.888;  130.193;  -13.490;  875.360
966.443;  130.841;  -14.140;  972.380
966.998;  127.083;  -16.240;  819.460
967.552;  125.289;  -12.730;  908.380
968.107;  122.933;  -14.510;  868.300
968.661;  123.990;  -11.850;  922.440
969.216;  120.724;  -14.370;  856.280
969.770;  120.559;  -13.010;  917.200
970.324;  118.003;  -12.460;  923.140
970.879;  117.551;  -11.580;  947.180
971.433;  116.756;  -13.130;  952.720
971.987;  115.318;  -12.360;  895.340
972.541;  115.469;  -14.330;  917.100
973.095;  114.446;  -13.310; 1009.460
973.649;  113.211;  -15.830;  809.480
974.203;  116.224;  -15.830;  829.040
974.757;  117.159;  -13.480;  855.220
975.311;  116.863;  -13.720;  872.600
975.865;  114.005;  -15.780;  881.820
976.419;  110.316;  -14.290;  857.400
976.973;  108.778;  -13.210;  849.620
977.526;  108.270;  -12.300;  949.920
978.080;  104.388;  -14.840;  796.780
978.634;  104.504;  -13.100;  921.320
979.187;  101.651;  -12.300;  905.400
979.741;   99.348;  -12.020; 1018.380
980.294;   93.082;  -14.590;  789.160
980.848;   89.331;  -14.390;  717.220
981.401;   89.895;  -14.280;  816.540
981.955;   90.170;  -11.920;  844.300
982.508;   86.021;  -15.790;  746.340
983.061;   86.995;  -12.070;  915.260
983.615;   84.909;  -13.260;  798.800
984.168;   82.487;  -15.540;  770.080
984.721;   82.524;  -13.230;  880.760
985.274;   81.272;  -11.820;  867.500
985.827;   79.147;  -13.510;  834.220
986.380;   75.525;  -14.840;  721.340
986.933;   76.003;  -13.970;  864.800
987.486;   75.094;  -12.450;  861.920
988.039;   72.973;  -11.170;  863.100
988.591;   70.119;  -13.070;  893.260
989.144;   67.119;  -15.530;  737.260
989.697;   65.661;  -14.300;  758.740
990.250;   65.874;  -13.310;  858.100
990.802;   64.136;  -14.490;  755.860
991.355;   65.509;  -12.980;  974.880
991.907;   63.715;  -13.715;  864.320
992.460;   61.922;  -14.450;  753.760
993.012;   60.816;  -12.590;  749.540
993.565;   59.239;  -15.180;  711.360
994.117;   61.108;  -11.630;  950.780
994.669;   58.088;  -13.760;  701.320
995.221;   56.570;  -12.710;  791.920
995.774;   55.527;  -14.620;  787.580
996.326;   55.166;  -13.150;  740.220
996.878;   55.191;  -12.880;  838.420
997.430;   54.023;  -14.580;  699.860
997.982;   53.146;  -14.030;  750.140
998.534;   53.183;  -12.190;  739.060
999.086;   51.427;  -12.990;  738.220
999.638;   50.243;  -13.180;  661.380
1000.190;   49.048;  -14.970;  699.320
1000.741;   49.802;  -12.200;  742.700
1001.293;   49.967;  -13.400;  686.020
1001.845;   48.668;  -14.490;  676.640
1002.396;   48.889;  -15.280;  743.400
1002.948;   48.397;  -12.380;  737.400
1003.500;   47.650;  -13.260;  723.780
1004.051;   48.608;  -13.730;  907.580
1004.603;   47.392;  -12.300;  791.820
1005.154;   43.195;  -15.330;  608.980
1005.705;   43.335;  -12.800;  723.960
1006.257;   42.300;  -13.900;  707.220
1006.808;   41.146;  -14.430;  685.460
1007.359;   40.819;  -12.010;  763.240
1007.910;   39.351;  -12.690;  646.640
1008.461;   39.556;  -13.610;  732.940
1009.013;   37.597;  -14.990;  588.340
1009.564;   39.004;  -11.860;  793.520
1010.115;   36.706;  -12.640;  597.040
1010.665;   36.804;  -14.570;  602.160
1011.216;   36.864;  -15.190;  667.920
1011.767;   36.845;  -13.470;  697.920
1012.318;   37.253;  -13.760;  736.980
1012.869;   36.039;  -15.950;  679.000
1013.419;   35.310;  -15.880;  603.120
1013.970;   36.090;  -14.540;  666.640
1014.521;   34.871;  -13.220;  620.620
1015.071;   34.652;  -15.020;  670.380
1015.622;   34.272;  -17.510;  635.460
1016.172;   34.253;  -14.130;  596.820
1016.723;   33.905;  -14.220;  614.380
1017.273;   33.607;  -15.370;  604.160
1017.823;   33.631;  -15.290;  650.340
1018.374;   33.056;  -13.420;  611.760
1018.924;   32.617;  -11.740;  716.880
1019.474;   32.642;  -12.250;  718.880
1020.024;   31.279;  -15.850;  657.580
1020.574;   32.660;  -13.280;  726.160
1021.124;   32.954;  -13.560;  673.580
1021.674;   31.285;  -13.790;  559.120
1022.224;   32.464;  -14.610;  708.940
1022.774;   32.049;  -13.100;  668.820
1023.324;   32.734;  -11.470;  753.520
1023.874;   33.109;  -11.990;  875.760
1024.423;   29.857;  -14.550;  613.700
1024.973;   30.397;  -14.440;  610.760
1025.523;   30.301;  -13.250;  620.960
1026.072;   29.479;  -15.200;  606.420
1026.622;   29.432;  -14.590;  675.740
1027.172;   30.296;  -11.080;  715.660
1027.721;   29.182;  -14.010;  601.220
1028.270;   29.148;  -13.690;  663.400
1028.820;   28.401;  -15.380;  638.080
1029.369;   28.931;  -14.980;  612.700
1029.918;   29.132;  -13.100;  649.840
1030.468;   28.453;  -13.680;  564.780
1031.017;   28.488;  -13.770;  634.800
1031.566;   27.251;  -14.100;  608.900
1032.115;   27.643;  -11.770;  694.500
1032.664;   27.207;  -14.940;  596.480
1033.213;   27.678;  -13.370;  735.420
1033.762;   27.174;  -13.660;  635.620
1034.311;   26.456;  -13.650;  677.220
1034.860;   27.445;  -13.820;  691.000
1035.408;   26.585;  -12.860;  722.720
1035.957;   27.537;  -13.060;  719.540
1036.506;   24.930;  -14.510;  530.800
1037.055;   28.335;  -13.470;  844.320
1037.603;   25.900;  -14.800;  664.000
1038.152;   24.572;  -14.190;  534.760
1038.700;   25.529;  -11.810;  585.740
1039.249;   24.189;  -12.850;  681.220
1039.797;   24.627;  -14.610;  633.360
1040.345;   25.420;  -15.220;  705.420
1040.894;   24.787;  -13.480;  625.300
1041.442;   24.523;  -13.310;  632.200
1041.990;   22.988;  -14.510;  559.160
1042.538;   23.118;  -15.700;  536.180
1043.087;   23.423;  -13.910;  570.860
1043.635;   24.327;  -13.620;  670.500
1044.183;   23.314;  -14.230;  586.400
1044.731;   23.563;  -13.730;  576.000
1045.279;   23.301;  -13.970;  674.920
1045.827;   26.033;  -10.750;  892.400
1046.374;   21.353;  -15.230;  515.420
1046.922;   22.007;  -15.390;  590.580
1047.470;   23.573;  -12.320;  691.300
1048.018;   22.661;  -13.230;  647.960
1048.565;   23.261;  -13.390;  708.600
1049.113;   21.414;  -15.030;  557.000
1049.660;   22.273;  -12.540;  629.660
1050.208;   22.634;  -15.040;  675.640
1050.755;   20.728;  -14.680;  606.580
1051.303;   21.991;  -13.610;  686.820
1051.850;   21.211;  -14.340;  635.120
1052.397;   18.789;  -16.330;  473.960
1052.945;   19.732;  -15.710;  617.760
1053.492;   21.770;  -12.320;  741.840
1054.039;   22.200;  -13.730;  720.180
1054.586;   20.183;  -16.140;  557.240
1055.133;   20.370;  -14.020;  693.140
1055.680;   21.217;  -13.430;  646.620
1056.227;   20.242;  -14.570;  542.780
1056.774;   21.496;  -14.400;  794.980
1057.321;   19.216;  -14.230;  523.260
1057.868;   20.089;  -14.220;  651.320
1058.415;   19.200;  -14.060;  651.980
1058.961;   19.886;  -14.640;  678.940
1059.508;   19.148;  -13.970;  643.820
1060.055;   18.488;  -15.100;  581.780
1060.601;   20.168;  -12.180;  624.300
1061.148;   19.023;  -15.010;  616.820
1061.694;   17.524;  -14.750;  592.580
1062.241;   18.605;  -14.130;  596.320
1062.787;   18.448;  -14.770;  663.140
1063.334;   19.918;  -13.130;  808.560
1063.880;   18.255;  -14.420;  668.360
1064.426;   19.401;  -13.130;  706.820
1064.972;   17.023;  -13.960;  601.340
1065.518;   16.259;  -13.680;  566.640
1066.065;   16.705;  -15.720;  624.460
1066.611;   16.687;  -13.970;  598.800
1067.157;   17.922;  -13.920;  641.860
1067.703;   17.559;  -14.760;  668.480
1068.249;   16.589;  -14.490;  605.220
1068.794;   17.926;  -14.740;  626.880
1069.340;   16.343;  -13.220;  578.960
1069.886;   16.827;  -14.930;  590.700
1070.432;   15.574;  -14.700;  541.720
1070.977;   15.364;  -14.470;  601.080
1071.523;   16.493;  -14.330;  573.060
1072.068;   16.378;  -14.960;  582.000
1072.614;   15.156;  -16.220;  527.760
1073.160;   16.019;  -11.280;  687.040
1073.705;   15.110;  -15.990;  572.520
1074.250;   15.501;  -16.550;  559.900
1074.796;   15.751;  -14.600;  655.160
1075.341;   16.350;  -13.440;  664.100
1075.886;   15.366;  -14.450;  594.240
1076.431;   15.225;  -13.160;  649.880
1076.976;   14.733;  -14.710;  639.220
1077.521;   14.502;  -14.000;  583.080
1078.067;   13.932;  -14.470;  579.400
1078.612;   15.376;  -14.530;  661.620
1079.156;   13.513;  -15.660;  601.540
1079.701;   15.194;  -16.120;  693.260
1080.246;   15.066;  -12.960;  696.300
1080.791;   14.284;  -13.700;  625.020
1081.336;   14.328;  -15.540;  659.320
1081.880;   14.570;  -14.640;  649.680
1082.425;   13.424;  -14.220;  573.480
1082.970;   15.571;  -11.890;  717.040
1083.514;   12.776;  -13.820;  597.000
1084.059;   13.102;  -14.280;  586.720
1084.603;   13.288;  -12.890;  565.840
1085.147;   12.570;  -13.590;  645.220
1085.692;   14.252;  -14.050;  716.800
1086.236;   11.755;  -14.990;  503.140
1086.780;   14.290;  -12.640;  751.440
1087.325;   13.326;  -15.550;  654.620
1087.869;   11.975;  -14.980;  610.700
1088.413;   13.670;  -13.440;  705.040
1088.957;   11.367;  -12.170;  543.400
1089.501;   13.682;  -12.730;  766.640
1090.045;   13.073;  -14.650;  726.480
1090.589;   10.641;  -14.500;  569.920
1091.133;   12.601;  -12.320;  673.340
1091.676;   11.844;  -16.130;  591.940
1092.220;   10.942;  -13.930;  600.920
1092.764;   13.135;  -12.820;  706.960
1093.307;   12.136;  -11.700;  673.780
1093.851;   11.338;  -15.600;  556.540
1094.395;   11.314;  -13.920;  683.140
1094.938;   11.431;  -16.090;  632.520
1095.482;   11.290;  -13.820;  559.800
1096.025;   11.668;  -12.720;  710.880
1096.568;   11.869;  -12.100;  779.280
1097.112;    8.924;  -15.450;  508.180
1097.655;   10.844;  -14.310;  603.000
1098.198;    9.735;  -14.740;  600.180
1098.741;    9.726;  -15.550;  612.860
1099.285;   10.726;  -12.600;  657.300
1099.828;    8.448;  -15.050;  439.400
1100.371;   10.270;  -14.800;  608.160
1100.914;    9.827;  -16.480;  682.660
1101.457;   10.515;  -12.990;  679.900
1101.999;    9.499;  -14.110;  584.680
1102.542;    9.898;  -11.450;  641.440
1103.085;    9.051;  -13.350;  658.500
1103.628;   10.173;  -13.200;  762.060
1104.170;    9.525;  -12.310;  588.280
1104.713;    8.948;  -14.320;  646.700
1105.256;    7.950;  -16.110;  557.440
1105.798;    7.266;  -15.910;  499.980
1106.341;   10.335;  -12.200;  728.900
1106.883;    8.233;  -14.910;  521.340
1107.425;    8.514;  -14.960;  668.180
1107.968;    8.834;  -13.440;  612.380
1108.510;    9.662;  -14.010;  684.960
1109.052;    7.550;  -15.430;  612.620
1109.594;    7.568;  -15.290;  554.440
1110.136;    8.484;  -13.360;  643.220
1110.679;    7.878;  -13.820;  633.080
1111.221;    8.482;  -13.690;  604.460
1111.763;    7.043;  -14.890;  559.220
1112.304;    6.834;  -14.550;  547.140
1112.846;    8.689;  -12.760;  666.240
1113.388;   10.655;  -10.780;  942.180
1113.930;    8.091;  -12.690;  694.200
1114.472;    6.889;  -15.730;  606.540
1115.013;    5.692;  -14.620;  551.280
1115.555;    5.838;  -14.950;  587.100
1116.097;    5.513;  -16.460;  579.480
1116.638;    6.803;  -13.730;  684.600
1117.180;    7.509;  -13.810;  667.740
1117.721;    6.251;  -13.280;  568.580
1118.262;    6.807;  -15.080;  677.960
1118.804;    7.489;  -14.040;  637.340
1119.345;    6.024;  -15.430;  578.400
1119.886;    7.407;  -15.240;  704.040
1120.427;    5.761;  -15.820;  589.020
1120.969;    5.878;  -14.550;  597.920
1121.510;    4.848;  -14.030;  563.060
1122.051;    6.730;  -11.990;  723.580
1122.592;    5.196;  -16.490;  655.420
1123.133;    4.628;  -15.580;  547.940
1123.673;    5.907;  -12.850;  706.480
1124.214;    5.848;  -13.630;  612.460
1124.755;    5.659;  -14.830;  639.460
1125.296;    5.646;  -13.110;  627.320
1125.836;    6.663;  -11.320;  691.500
1126.377;    4.952;  -14.330;  599.660
1126.918;    5.137;  -12.800;  614.980
1127.458;    5.145;  -13.580;  622.220
1127.999;    5.868;  -10.330;  656.980
1128.539;    5.679;  -13.390;  694.240
1129.079;    4.113;  -16.420;  632.720
1129.620;    4.376;  -15.700;  558.100
1130.160;    3.724;  -14.790;  539.480
1130.700;    4.560;  -12.910;  640.840
1131.240;    4.449;  -15.610;  643.700
1131.781;    4.048;  -12.920;  619.680
1132.321;    3.692;  -15.300;  599.120
1132.861;    3.380;  -14.760;  564.200
1133.401;    2.961;  -15.470;  593.940
1133.941;    4.687;  -13.710;  626.280
1134.481;    3.326;  -11.820;  597.580
1135.020;    3.438;  -14.810;  609.160
1135.560;    3.611;  -13.660;  674.940
1136.100;    2.544;  -13.940;  501.160
1136.640;    2.815;  -15.410;  510.480
1137.179;    2.963;  -16.920;  537.960
1137.719;    2.811;  -16.430;  605.400
1138.258;    3.225;  -16.300;  587.360
1138.798;    4.005;  -13.710;  663.780
1139.337;    2.486;  -13.840;  482.840
1139.877;    3.168;  -16.140;  642.360
1140.416;    5.218;  -11.410;  878.060
1140.955;    1.816;  -12.820;  535.380
1141.494;    3.264;  -12.310;  669.280
1142.034;    1.295;  -16.280;  583.520
1142.573;    3.117;  -13.090;  646.280
1143.112;    2.145;  -13.770;  553.480
1143.651;    2.530;  -15.830;  536.480
1144.190;    2.454;  -15.010;  691.640
1144.729;    1.903;  -13.650;  607.420
1145.267;    3.373;  -13.670;  584.900
1145.806;    3.233;  -13.630;  637.040
1146.345;    2.130;  -14.160;  635.020
1146.884;    2.017;  -11.180;  622.500
1147.422;    1.596;  -15.890;  533.060
1147.961;    2.988;  -12.760;  708.460
1148.500;    2.525;  -15.220;  669.720
1149.038;    2.672;  -13.720;  632.500
1149.577;    2.869;  -13.250;  698.640
1150.115;    0.154;  -16.790;  452.280
1150.653;    0.774;  -15.810;  607.340
1151.192;    2.095;  -14.730;  552.920
1151.730;    2.003;  -13.660;  652.560
1152.268;    0.903;  -15.120;  589.520
1152.806;    0.286;  -15.580;  571.180
1153.344;    0.370;  -16.210;  577.640
1153.882;    1.399;  -12.810;  600.060
1154.421;   -0.829;  -14.150;  470.620
1154.958;    0.113;  -15.360;  595.240
1155.496;    2.255;  -14.710;  645.280
1156.034;    1.577;  -13.640;  721.880
1156.572;    2.098;  -13.740;  667.060
1157.110;   -0.643;  -16.960;  473.940
1157.647;    1.241;  -11.940;  676.960
1158.185;   -0.179;  -14.090;  564.320
1158.723;   -0.360;  -13.610;  509.200
1159.260;    0.997;  -14.760;  701.700
1159.798;    1.342;  -13.700;  658.160
1160.335;    0.188;  -13.820;  631.820

