
Integration time [ms]:   3.276
Averaging Nr. [scans]: 1000
Smoothing Nr. [pixels]: 0
Data measured with spectrometer [name]: 7414430SP
Wave   ;Sample   ;Dark     ;Reference
[nm]   ;[counts] ;[counts] ;[counts] 

288.544;  150.238;    7.793;  793.890
289.143;  155.367;    7.462;  681.602
289.742;  154.913;    8.602;  828.814
290.341;  140.556;    1.321;  789.841
290.940;  129.748;   -0.709;  730.702
291.538;  129.396;    0.881;  881.108
292.137;  130.970;    0.122;  792.581
292.736;  135.405;   -1.929;  975.101
293.335;  131.683;   -8.229;  735.086
293.934;  132.039;   -5.279;  781.677
294.532;  130.075;   -1.369; 1031.958
295.131;  115.879;   -7.641;  834.394
295.730;  116.322;   -8.420;  809.588
296.328;  115.986;   -5.611;  783.442
296.927;  116.834;   -5.781;  779.652
297.525;  117.756;   -6.361;  781.236
298.124;  107.792;  -11.382;  654.009
298.722;  110.549;   -7.641;  761.933
299.321;  109.036;   -6.811;  708.597
299.919;  107.532;   -6.991;  751.918
300.518;  104.107;  -10.362;  689.338
301.116;  106.012;   -9.581;  691.381
301.715;  105.106;   -4.891;  730.222
302.313;  104.438;   -8.801;  704.943
302.911;  100.077;   -8.522;  733.830
303.509;  104.769;   -6.171;  925.627
304.108;  102.685;   -7.311;  760.383
304.706;  102.367;   -8.321;  801.664
305.304;   96.992;  -10.222;  796.707
305.902;  101.491;   -6.021;  784.484
306.500;   96.793;   -4.971;  728.200
307.098;   95.812;   -7.061;  746.560
307.696;   94.529;   -8.801;  780.432
308.294;   94.651;   -6.411;  731.359
308.892;   95.989;   -2.901;  759.769
309.490;   92.755;   -5.041;  712.161
310.088;   90.741;   -5.002;  788.444
310.686;   95.338;   -2.041;  821.749
311.284;   90.440;   -2.351;  766.040
311.882;   88.655;   -4.422;  731.225
312.480;   85.173;   -4.192;  697.167
313.078;   86.506;   -1.172;  808.331
313.675;   87.498;   -2.601;  691.600
314.273;   82.888;   -1.312;  797.837
314.871;   82.148;   -3.942;  589.829
315.468;   80.201;   -2.802;  652.090
316.066;   83.903;   -0.701;  694.427
316.664;   75.597;   -4.362;  656.351
317.261;   80.159;   -2.872;  910.128
317.859;   75.591;   -2.022;  768.735
318.456;   75.786;   -0.531;  830.096
319.054;   71.969;   -3.912;  787.828
319.651;   70.750;   -4.752;  759.928
320.249;   69.529;   -2.602;  810.188
320.846;   67.255;   -0.821;  714.286
321.443;   64.667;   -4.642;  832.135
322.041;   62.420;   -5.002;  812.315
322.638;   59.991;   -3.982;  701.456
323.235;   61.375;   -3.411;  665.683
323.833;   57.535;   -7.361;  740.354
324.430;   53.888;   -8.611;  615.900
325.027;   54.617;   -4.061;  876.855
325.624;   53.593;   -4.031;  644.532
326.221;   51.264;   -7.481;  689.717
326.818;   50.938;   -5.281;  818.332
327.415;   54.610;   -7.460;  748.828
328.012;   53.365;   -5.510;  690.585
328.609;   52.232;   -7.880;  731.389
329.206;   50.477;   -8.331;  778.621
329.803;   50.639;   -5.121;  737.841
330.400;   52.212;   -4.510;  704.260
330.997;   54.816;   -6.441;  817.147
331.594;   53.355;   -8.831;  788.185
332.191;   57.952;   -7.621;  728.722
332.787;   60.837;   -4.591;  844.463
333.384;   59.623;   -7.412;  763.093
333.981;   58.482;   -8.293;  815.687
334.578;   61.651;   -7.052;  708.378
335.174;   63.894;   -3.102;  731.469
335.771;   63.470;   -5.943;  836.456
336.367;   60.699;   -7.393;  710.631
336.964;   64.355;   -4.063;  793.266
337.561;   61.578;   -3.813;  731.112
338.157;   57.671;   -4.654;  911.916
338.754;   55.461;   -7.934;  796.589
339.350;   54.150;   -4.414;  722.493
339.946;   55.626;   -4.664;  773.135
340.543;   47.359;   -6.375;  846.136
341.139;   41.705;   -9.815;  720.836
341.735;   40.037;   -4.526;  772.593
342.332;   38.603;   -4.895;  691.472
342.928;   39.136;   -4.295;  795.394
343.524;   32.152;   -5.476;  761.684
344.120;   29.297;   -5.856;  738.562
344.716;   32.865;   -2.155;  723.717
345.313;   30.015;   -6.275;  795.342
345.909;   24.631;   -8.815;  627.336
346.505;   26.724;   -5.305;  740.247
347.101;   27.014;   -2.674;  827.864
347.697;   27.180;   -4.344;  785.398
348.293;   21.669;   -9.975;  627.244
348.889;   22.787;   -5.774;  745.914
349.485;   21.908;   -5.004;  688.205
350.081;   23.250;   -4.704;  772.592
350.676;   17.641;   -6.635;  691.606
351.272;   22.170;   -4.504;  809.530
351.868;   21.789;   -3.914;  780.497
352.464;   19.257;   -9.044;  723.932
353.059;   14.760;   -8.314;  646.017
353.655;   18.326;   -7.024;  777.063
354.251;   19.539;   -5.343;  759.845
354.846;   14.429;   -8.604;  740.646
355.442;   12.374;   -6.945;  753.071
356.038;   14.304;   -7.564;  751.708
356.633;   14.593;   -5.814;  728.594
357.229;   12.132;   -7.364;  724.757
357.824;   10.118;   -8.024;  703.600
358.420;    9.071;   -9.384;  679.726
359.015;    9.429;   -5.104;  695.357
359.610;   10.743;   -6.854;  763.920
360.206;    4.971;  -10.185;  603.240
360.801;    7.816;   -7.054;  646.503
361.396;    9.606;   -5.034;  725.975
361.992;    4.813;   -8.284;  668.220
362.587;    2.784;   -8.625;  670.160
363.182;    4.851;   -7.674;  689.631
363.777;    5.481;   -5.164;  738.242
364.372;    5.324;   -8.604;  737.314
364.967;    1.550;   -9.055;  680.744
365.563;    5.315;   -6.114;  815.567
366.158;    3.291;   -5.814;  685.161
366.753;    3.622;   -7.854;  649.263
367.348;    1.906;   -7.804;  746.056
367.942;    1.082;   -7.954;  697.298
368.537;    0.685;   -4.984;  754.245
369.132;    0.621;   -8.564;  703.428
369.727;   -3.499;   -8.855;  638.079
370.322;   -2.325;   -6.245;  580.186
370.917;   -2.197;   -6.425;  710.646
371.511;    0.271;   -6.294;  861.834
372.106;   -2.557;   -7.685;  776.964
372.701;   -5.629;   -7.335;  585.988
373.296;   -0.779;   -4.564;  863.135
373.890;   -5.469;  -10.235;  647.840
374.485;   -7.372;   -7.885;  691.199
375.079;   -3.585;   -7.324;  738.685
375.674;   -2.856;   -3.494;  812.970
376.268;   -7.073;   -8.525;  691.759
376.863;  -12.260;  -10.086;  580.327
377.457;   -6.614;   -7.025;  662.490
378.052;   -8.464;   -3.585;  764.884
378.646;   -8.663;   -7.595;  741.167
379.240;   -8.709;   -8.335;  721.176
379.835;   -8.262;   -5.785;  636.978
380.429;  -10.292;   -4.335;  562.557
381.023;   -9.661;   -6.805;  779.205
381.617;  -12.236;   -9.195;  680.106
382.212;   -9.883;   -6.905;  685.303
382.806;   -9.235;   -3.745;  760.690
383.400;  -12.567;   -7.745;  672.281
383.994;  -13.638;   -9.765;  664.870
384.588;   -9.612;   -6.564;  697.701
385.182;   -8.928;   -5.344;  726.624
385.776;  -10.413;   -8.514;  706.875
386.370;  -13.754;   -9.555;  681.968
386.964;  -11.823;   -8.715;  684.155
387.558;  -10.746;   -6.174;  598.360
388.152;  -13.634;   -8.725;  681.959
388.745;  -11.884;   -7.965;  814.707
389.339;  -10.511;   -5.924;  747.642
389.933;   -9.560;   -5.524;  695.370
390.527;  -10.490;   -7.114;  859.029
391.120;  -16.412;  -10.725;  595.318
391.714;  -13.824;   -8.035;  711.633
392.308;  -10.663;   -3.574;  780.253
392.901;  -14.554;   -7.245;  642.460
393.495;  -16.430;   -9.285;  595.414
394.089;  -14.217;   -5.895;  760.452
394.682;  -14.829;   -4.295;  697.188
395.275;  -15.237;   -9.875;  719.927
395.869;  -16.422;   -8.485;  667.314
396.462;  -15.148;   -7.455;  616.609
397.056;  -11.515;   -5.424;  776.621
397.649;  -15.448;   -6.605;  731.575
398.242;  -13.355;   -8.224;  712.645
398.836;  -12.115;   -7.474;  766.408
399.429;  -12.905;   -7.094;  631.041
400.022;  -16.802;   -9.475;  665.902
400.615;  -14.104;   -7.145;  805.609
401.208;  -12.735;   -7.174;  691.451
401.802;  -15.245;   -5.515;  699.329
402.395;  -15.664;   -9.875;  683.502
402.988;  -16.588;   -8.845;  696.627
403.581;  -13.552;   -8.874;  646.878
404.174;  -11.691;   -5.324;  686.568
404.767;  -14.855;   -9.575;  638.583
405.360;  -16.420;  -10.965;  621.445
405.953;  -11.542;   -8.764;  759.034
406.545;  -10.814;   -7.514;  725.342
407.138;  -15.094;  -10.025;  618.350
407.731;  -14.640;  -10.034;  613.303
408.324;  -10.413;   -9.374;  660.554
408.917;  -11.509;   -6.534;  681.864
409.509;  -12.512;   -8.004;  740.396
410.102;  -15.333;   -9.875;  643.948
410.695;   -8.883;   -8.604;  665.758
411.287;   -9.015;   -6.794;  599.821
411.880;  -10.738;   -9.334;  585.421
412.472;  -13.876;  -10.254;  613.092
413.065;  -10.950;   -6.714;  629.408
413.657;   -8.773;   -7.234;  576.678
414.250;   -8.944;  -10.544;  646.681
414.842;  -11.220;   -9.744;  676.353
415.434;   -8.797;   -6.994;  570.463
416.027;   -4.785;   -5.893;  652.196
416.619;   -7.179;   -7.264;  713.400
417.211;   -8.015;  -10.374;  599.352
417.804;   -3.806;   -7.993;  628.499
418.396;   -7.704;   -7.234;  607.643
418.988;   -5.832;   -9.443;  659.238
419.580;   -9.246;  -10.724;  568.276
420.172;   -6.701;  -10.323;  536.196
420.764;   -2.587;   -8.793;  672.482
421.356;   -3.642;  -11.143;  636.898
421.948;   -4.212;   -8.293;  677.661
422.540;    0.781;   -7.893;  680.027
423.132;    0.387;   -7.082;  600.641
423.724;   -3.275;   -8.653;  561.267
424.316;   -1.383;  -10.213;  621.345
424.908;    1.500;   -9.762;  591.517
425.500;    3.192;   -5.572;  647.978
426.092;    2.885;   -8.422;  648.268
426.683;    2.696;   -9.283;  684.836
427.275;    4.615;   -7.852;  641.471
427.867;    6.367;   -5.272;  668.948
428.458;    7.227;   -7.682;  732.344
429.050;    5.596;  -10.612;  680.749
429.642;    7.685;   -9.882;  743.124
430.233;    8.909;   -6.962;  569.356
430.825;    9.703;   -6.842;  724.809
431.416;    6.855;   -9.672;  698.241
432.008;    9.732;   -6.552;  651.723
432.599;   10.977;   -6.891;  656.073
433.190;    8.377;  -10.912;  637.670
433.782;    8.057;  -11.172;  590.395
434.373;   15.383;   -6.061;  884.765
434.964;   13.991;   -8.251;  602.920
435.556;   11.136;   -9.722;  634.537
436.147;   14.146;   -9.082;  758.490
436.738;   13.486;   -8.041;  701.099
437.329;   19.374;   -7.341;  721.723
437.920;   11.971;   -8.162;  666.688
438.511;   11.657;  -11.802;  564.526
439.103;   19.097;  -10.191;  623.998
439.694;   20.399;   -7.601;  681.583
440.285;   20.937;   -8.541;  764.432
440.876;   19.397;   -9.751;  845.738
441.466;   19.042;   -9.401;  575.162
442.057;   24.068;   -7.760;  665.814
442.648;   22.594;   -9.971;  746.255
443.239;   21.844;  -11.001;  620.477
443.830;   26.426;   -7.990;  704.958
444.421;   27.719;   -7.910;  655.474
445.011;   24.341;   -8.131;  693.619
445.602;   24.066;   -7.111;  743.126
446.193;   25.655;  -10.920;  488.117
446.783;   31.077;   -6.500;  640.397
447.374;   25.964;   -8.671;  692.759
447.964;   26.667;  -10.781;  713.770
448.555;   34.450;   -9.650;  822.742
449.145;   31.464;   -8.660;  662.853
449.736;   31.592;   -8.990;  803.179
450.326;   32.524;   -9.500;  713.626
450.917;   36.894;   -8.680;  675.324
451.507;   36.172;   -7.520;  600.661
452.097;   36.872;   -8.590;  746.267
452.688;   37.575;  -11.340;  742.160
453.278;   37.865;  -10.100;  566.840
453.868;   41.509;   -6.019;  793.550
454.458;   38.928;   -9.440;  651.141
455.048;   40.365;  -10.560;  711.783
455.639;   41.606;  -11.799;  567.096
456.229;   45.413;   -6.899;  710.694
456.819;   46.936;   -7.389;  751.158
457.409;   46.982;  -11.119;  773.993
457.999;   50.343;   -9.289;  737.505
458.589;   50.508;   -6.139;  686.606
459.179;   49.776;   -8.729;  717.658
459.769;   47.841;   -9.789;  627.099
460.358;   52.650;  -10.259;  797.262
460.948;   53.199;   -7.299;  689.503
461.538;   54.082;  -10.289;  660.677
462.128;   52.226;  -11.269;  664.934
462.717;   59.715;   -9.368;  710.326
463.307;   62.525;   -7.908;  705.846
463.897;   58.015;   -9.599;  656.942
464.486;   56.908;   -9.769;  837.128
465.076;   62.602;   -8.048;  733.776
465.666;   65.024;   -9.358;  652.900
466.255;   63.212;   -7.919;  785.651
466.845;   62.456;  -11.689;  666.749
467.434;   64.576;   -7.818;  725.873
468.023;   65.983;   -7.678;  658.357
468.613;   64.343;  -10.939;  713.946
469.202;   67.499;  -10.118;  646.507
469.791;   71.610;   -9.108;  737.811
470.381;   74.099;   -6.058;  742.813
470.970;   74.152;  -10.428;  711.099
471.559;   73.430;  -10.268;  733.291
472.148;   76.663;   -8.448;  675.737
472.738;   79.408;   -6.917;  765.466
473.327;   77.802;  -11.978;  637.529
473.916;   77.819;  -11.888;  737.446
474.505;   82.372;   -9.437;  751.703
475.094;   85.510;   -6.747;  806.570
475.683;   85.032;   -9.367;  797.699
476.272;   85.383;  -12.637;  730.632
476.861;   88.176;  -10.027;  706.754
477.449;   95.132;   -8.716;  728.487
478.038;   88.983;   -9.577;  692.513
478.627;   91.023;   -9.718;  714.852
479.216;   96.848;   -8.947;  769.441
479.805;  100.127;   -6.256;  783.375
480.393;   98.937;   -7.937; 1008.945
480.982;   98.568;   -7.717;  874.501
481.571;  104.996;   -9.266;  858.333
482.159;  105.643;   -7.636;  705.386
482.748;  105.237;   -9.667;  821.385
483.336;  109.972;  -10.376;  858.209
483.925;  110.497;   -7.147;  774.373
484.513;  117.654;   -7.996;  758.962
485.102;  113.519;  -10.027;  810.965
485.690;  122.427;  -10.446; 1011.050
486.278;  124.323;   -8.446;  979.329
486.867;  125.037;   -6.356;  809.662
487.455;  126.525;   -9.136;  898.229
488.043;  128.012;  -10.646;  748.361
488.631;  136.320;   -7.456; 1005.079
489.220;  141.184;   -6.636;  908.626
489.808;  140.247;  -11.036;  741.415
490.396;  148.365;  -10.246;  914.645
490.984;  154.901;   -8.556;  830.161
491.572;  164.318;   -5.886;  940.315
492.160;  170.240;   -9.486;  919.081
492.748;  182.535;  -10.976;  884.341
493.336;  204.769;   -8.776; 1019.693
493.924;  231.255;   -5.465;  958.077
494.512;  258.109;   -9.986; 1066.638
495.100;  294.928;  -10.636; 1103.280
495.687;  348.620;  -10.885; 1206.373
496.275;  407.730;   -8.126; 1150.796
496.863;  473.336;  -10.586; 1281.171
497.451;  570.394;  -11.926; 1386.805
498.038;  702.466;  -10.885; 1556.729
498.626;  809.532;   -6.315; 1741.407
499.214;  943.434;   -7.326; 2016.609
499.801; 1129.484;  -11.906; 2220.633
500.389; 1375.174;  -10.466; 2312.494
500.976; 1686.002;   -5.236; 2744.849
501.564; 2085.312;   -8.936; 3148.565
502.151; 2442.675;  -13.176; 3515.999
502.738; 2889.601;  -10.646; 3971.274
503.326; 3276.170;   -9.525; 4403.796
503.913; 3646.397;  -10.856; 5161.749
504.500; 3945.163;  -11.586; 5986.420
505.088; 4366.571;  -10.336; 6381.201
505.675; 4875.997;   -6.355; 6925.547
506.262; 5504.568;   -9.046; 7619.060
506.849; 6217.601;  -10.416; 8733.969
507.436; 6671.297;  -10.305; 9790.121
508.023; 7188.661;   -5.496; 9985.472
508.610; 7449.446;   -7.856;10434.618
509.197; 8091.654;  -10.097;11198.435
509.784; 9482.622;  -10.886;12391.194
510.371;10424.889;   -9.315;13603.713
510.958;11108.606;   -9.936;14426.586
511.545;11891.410;   -9.326;15243.775
512.132;12769.290;  -10.075;15945.876
512.719;13361.911;   -7.796;16340.369
513.305;14214.830;  -10.606;18011.766
513.892;14907.660;  -11.486;19754.971
514.479;16356.193;   -9.126;20967.805
515.066;17837.801;   -6.026;22299.793
515.652;18964.197;   -8.466;22908.660
516.239;20095.104;  -10.886;23798.875
516.825;21174.836;  -11.496;25567.275
517.412;22220.463;   -5.796;28154.959
517.998;23007.236;  -10.506;28344.111
518.585;23022.607;  -10.076;27134.219
519.171;23234.572;   -8.315;27268.576
519.758;24319.311;   -8.596;28964.129
520.344;26089.898;   -8.466;30664.494
520.930;26522.070;  -11.006;32550.605
521.516;28234.396;  -10.495;35422.895
522.103;30761.676;   -5.526;38280.004
522.689;31757.029;   -8.746;37835.117
523.275;31377.246;  -11.376;37288.613
523.861;31965.707;  -11.156;37281.395
524.447;32979.539;   -8.135;37846.949
525.033;32538.719;   -7.896;38321.949
525.619;32868.668;  -12.476;38579.285
526.205;34712.129;   -9.516;40622.875
526.791;37406.484;   -6.926;42258.836
527.377;37411.430;   -8.346;42966.902
527.963;39227.066;   -8.717;42018.949
528.549;37925.973;  -11.016;42476.828
529.135;36414.023;   -8.536;41854.852
529.721;35996.641;   -9.666;41237.711
530.306;35479.598;  -10.066;41259.445
530.892;35601.023;  -11.356;41506.047
531.478;36746.352;   -6.596;43559.613
532.063;39093.945;   -8.836;47695.563
532.649;39309.352;  -10.047;50808.324
533.235;40652.508;   -9.746;51787.500
533.820;42094.152;   -6.566;52145.035
534.406;42924.156;  -10.817;51133.488
534.991;42407.398;   -9.416;49996.805
535.576;41316.738;   -9.036;48882.852
536.162;41757.508;   -6.156;46942.285
536.747;42830.094;  -11.607;45711.746
537.333;46257.113;  -11.787;48510.180
537.918;49299.422;  -12.437;50439.891
538.503;48054.863;   -7.196;50863.711
539.088;45121.469;  -10.556;50906.922
539.673;45155.930;   -8.767;52621.965
540.259;44834.313;  -10.026;52368.094
540.844;42134.035;   -7.416;50879.109
541.429;42659.613;   -9.467;52077.777
542.014;45911.285;   -9.527;52716.695
542.599;46013.414;   -9.946;52363.281
543.184;43214.023;   -7.927;53187.137
543.769;44125.293;   -9.297;54697.605
544.354;43879.719;  -10.127;53913.914
544.938;43141.887;   -9.267;49680.164
545.523;45263.379;   -6.506;47386.277
546.108;47304.496;   -9.787;49151.949
546.693;49515.770;  -11.587;51384.637
547.278;49463.969;  -10.986;51853.254
547.862;46262.156;   -8.206;51173.750
548.447;41810.863;  -10.067;51691.395
549.031;41105.055;   -9.637;52456.703
549.616;45612.941;   -9.926;52714.516
550.201;44768.410;   -6.347;52414.598
550.785;45529.020;   -7.917;52355.059
551.370;45183.988;  -10.867;54589.453
551.954;45473.539;   -9.047;58267.348
552.538;46879.926;   -7.827;59062.176
553.123;45201.879;  -10.287;58115.285
553.707;42839.605;  -12.178;56556.285
554.291;43270.207;   -8.717;56201.668
554.876;44822.566;   -7.457;55335.762
555.460;45638.035;  -10.387;54155.703
556.044;47388.246;   -9.618;53721.484
556.628;45525.285;  -11.567;53731.016
557.212;44252.023;   -8.097;54312.531
557.796;42668.770;  -11.077;53797.773
558.380;42708.320;  -11.108;56145.984
558.964;43480.246;   -9.057;57277.930
559.548;44336.066;   -6.977;56459.641
560.132;42460.633;  -11.457;54434.543
560.716;41467.426;  -11.378;54800.617
561.300;42450.313;   -9.577;57606.945
561.884;43608.215;   -7.127;58972.445
562.467;42686.680;   -7.118;57327.570
563.051;41952.633;  -13.358;54962.434
563.635;42069.652;  -10.178;52594.473
564.219;42504.148;   -7.837;50610.410
564.802;43301.285;  -11.398;49551.180
565.386;43639.605;  -12.788;48370.953
565.969;43364.590;   -9.077;48178.871
566.553;42511.883;   -6.207;49957.305
567.136;42526.215;   -8.568;50369.594
567.720;38813.918;  -11.868;49492.004
568.303;37135.016;   -8.268;50616.352
568.887;37177.262;   -8.698;50727.148
569.470;37384.199;   -6.808;51698.379
570.053;36360.691;  -13.188;52122.078
570.637;35027.742;  -12.037;52536.438
571.220;34492.824;   -8.577;51186.098
571.803;34493.348;   -8.498;51032.762
572.386;36384.672;  -10.498;49609.887
572.969;39028.262;   -9.388;48285.926
573.552;37476.324;   -8.338;47624.285
574.135;36410.305;   -8.518;45498.641
574.718;33625.180;  -13.628;41970.434
575.301;31747.252;  -10.893;41447.137
575.884;29869.322;   -8.158;40923.836
576.467;30411.496;  -10.328;45267.723
577.050;33025.688;  -13.058;48175.543
577.633;35755.660;   -9.458;47729.328
578.216;35496.352;   -8.928;47579.793
578.799;34862.191;   -9.358;47820.996
579.381;33507.680;  -11.388;48115.551
579.964;32023.809;  -11.718;47333.766
580.547;33475.242;   -8.588;46668.969
581.129;34210.020;   -8.859;44466.141
581.712;34497.828;  -10.729;44164.922
582.294;35302.434;  -11.118;46477.855
582.877;35658.648;   -5.218;48244.254
583.459;33558.109;   -8.679;47437.895
584.042;31910.119;  -10.709;46943.219
584.624;32578.717;  -11.669;46792.227
585.206;31985.855;   -8.218;46557.250
585.789;32053.619;  -10.569;45793.773
586.371;34642.051;  -11.859;43836.391
586.953;35175.801;  -10.719;42972.492
587.536;36006.508;   -7.198;42487.211
588.118;35760.043;   -8.720;42086.414
588.700;32163.605;  -10.439;43389.930
589.282;30937.658;   -9.198;43646.039
589.864;31034.299;   -9.199;43438.109
590.446;30948.980;  -11.319;43151.926
591.028;29043.057;  -11.159;42781.867
591.610;27356.916;  -11.779;42839.098
592.192;26449.965;   -7.668;42820.402
592.774;27268.229;  -11.949;40724.277
593.356;27479.963;  -12.129;39874.789
593.937;27446.615;  -10.669;39980.648
594.519;29708.568;   -6.509;42069.633
595.101;32044.441;  -10.849;42976.031
595.683;32186.557;  -11.679;44084.441
596.264;33164.922;   -9.049;43478.797
596.846;31969.352;   -8.849;43803.672
597.427;31281.621;   -9.570;42986.934
598.009;32981.656;  -12.620;42832.219
598.591;33400.484;  -10.039;42580.086
599.172;32549.697;  -10.369;43061.805
599.753;32576.877;   -9.140;41691.469
600.335;34341.664;  -11.430;40692.520
600.916;33044.387;   -9.939;39982.422
601.498;30432.330;   -8.479;40318.617
602.079;28992.984;  -10.920;40670.609
602.660;28934.781;  -11.480;41450.898
603.241;30043.352;  -11.699;41137.738
603.823;28985.496;   -9.579;38868.797
604.404;29005.867;  -10.620;38182.785
604.985;30372.340;  -10.450;38078.047
605.566;29536.734;   -9.129;38056.633
606.147;29448.463;   -7.510;37020.418
606.728;31690.586;  -10.660;37883.359
607.309;30881.234;  -11.740;38748.273
607.890;30106.727;   -9.759;38850.230
608.471;29792.750;   -8.250;37457.918
609.051;29052.412;   -9.240;36066.457
609.632;28017.148;  -12.120;35991.074
610.213;28879.150;   -9.110;37402.641
610.794;29420.520;   -8.030;38383.363
611.374;28645.246;   -8.110;40562.387
611.955;29025.416;  -13.560;38533.727
612.536;30622.527;  -11.400;36951.789
613.116;30346.520;   -8.070;37197.891
613.697;30565.379;  -10.830;38411.125
614.277;29056.764;  -11.641;38673.938
614.858;29845.242;  -13.310;37075.863
615.438;29362.641;   -7.460;35092.906
616.019;26708.426;   -7.601;33666.301
616.599;27273.162;  -12.020;34189.023
617.179;29123.758;  -11.780;36952.047
617.760;29920.580;   -8.570;39582.574
618.340;31204.986;  -11.471;38943.977
618.920;32675.291;  -11.170;37594.156
619.500;32224.471;  -11.071;37866.938
620.080;31453.225;   -7.750;37869.043
620.660;32506.441;  -12.711;36868.617
621.241;33504.035;  -10.211;36352.309
621.821;33486.625;  -10.961;35459.520
622.401;33011.277;   -7.720;35207.414
622.980;32119.818;   -8.981;35980.422
623.560;30588.039;   -9.331;37351.328
624.140;29869.084;   -9.850;34388.582
624.720;25065.289;   -7.451;32368.764
625.300;21382.465;   -9.070;32638.629
625.880;24671.430;  -12.601;34599.035
626.459;28553.063;  -11.751;36831.738
627.039;31476.982;   -9.281;38299.098
627.619;31394.916;   -8.801;38289.574
628.198;29634.080;  -12.071;37220.695
628.778;28928.453;   -9.461;37632.563
629.357;29845.742;   -8.491;38003.012
629.937;29841.180;   -9.721;38402.039
630.516;29066.842;   -9.951;37868.801
631.096;28828.875;  -11.731;35760.410
631.675;31886.516;   -8.572;35225.219
632.254;37018.750;  -11.282;35130.289
632.834;36344.305;  -13.322;35794.570
633.413;34510.680;  -10.301;35788.922
633.992;31547.895;   -8.582;34532.863
634.571;32713.154;   -8.352;33590.113
635.151;35335.688;  -11.912;34943.863
635.730;33632.641;  -10.511;35352.523
636.309;30405.959;   -7.731;35366.605
636.888;28007.104;   -9.952;36165.637
637.467;28736.848;  -11.672;37515.902
638.046;30719.252;   -8.901;39288.695
638.625;33901.957;   -7.912;38279.699
639.204;33658.348;  -10.022;37741.598
639.782;31624.969;  -12.252;38364.551
640.361;27773.715;  -10.041;36740.621
640.940;24865.768;  -11.161;34950.082
641.519;25226.740;   -9.701;34137.398
642.097;28024.645;  -11.271;35654.258
642.676;31097.641;   -8.651;35637.957
643.255;32067.633;   -8.711;36567.074
643.833;31112.537;   -9.581;37809.434
644.412;31554.639;  -13.711;37337.293
644.990;30994.453;  -11.811;37018.531
645.569;30938.701;   -9.411;36518.469
646.147;29742.754;  -10.291;36186.430
646.726;28751.441;  -12.401;36267.688
647.304;29984.031;  -10.411;36647.625
647.882;32049.449;   -9.651;39286.742
648.461;33609.746;   -9.631;39157.703
649.039;32185.527;  -11.881;35412.883
649.617;31671.266;   -9.661;34744.918
650.195;31460.775;   -9.301;35403.098
650.773;30273.938;  -10.511;35053.797
651.352;27797.070;  -11.521;33756.816
651.930;25452.068;  -12.211;31868.773
652.508;23669.012;   -9.171;33121.551
653.086;27426.904;   -9.371;33564.793
653.663;30447.887;  -13.161;34054.668
654.241;29367.158;  -13.031;35693.309
654.819;31035.746;   -9.371;36422.906
655.397;30873.760;  -10.511;38213.484
655.975;30713.832;  -10.371;39507.625
656.553;30834.543;  -10.051;39498.223
657.130;29060.803;  -10.061;40395.480
657.708;28411.881;   -9.561;39242.020
658.286;28346.797;  -11.511;38920.020
658.863;29501.494;  -10.261;40202.898
659.441;32137.285;   -7.531;39677.938
660.018;31224.328;   -9.501;40413.355
660.596;30304.219;  -13.301;39931.414
661.173;32463.066;  -11.211;39604.531
661.750;32693.572;   -9.951;39700.070
662.328;31713.801;   -9.390;39292.809
662.905;30874.447;  -11.330;38235.648
663.482;26437.861;   -9.050;36212.305
664.060;24375.236;   -8.240;35944.945
664.637;26949.869;  -10.050;35170.785
665.214;28956.025;  -11.760;34197.523
665.791;30731.678;  -10.530;34549.520
666.368;29329.105;   -9.690;35118.578
666.945;29909.408;   -9.320;36019.418
667.522;31597.707;  -11.860;36048.438
668.099;31980.320;  -10.770;36243.914
668.676;31348.760;   -6.260;35958.875
669.253;29629.566;   -7.000;37384.730
669.830;29873.994;  -10.190;36779.629
670.407;29540.805;   -9.550;35231.289
670.984;29870.223;   -9.260;35544.270
671.560;30142.408;   -9.280;35466.867
672.137;28743.832;  -11.810;34280.863
672.714;29627.139;  -11.490;34632.863
673.290;29931.822;   -7.740;35135.422
673.867;29970.873;  -10.660;36114.480
674.443;30241.965;  -12.230;36152.859
675.020;28729.475;  -10.450;35327.238
675.596;29900.953;   -9.260;35795.176
676.173;30356.738;  -10.780;35430.355
676.749;29905.127;  -13.690;33549.516
677.326;30117.695;  -11.980;32210.012
677.902;30311.637;   -8.630;32068.871
678.478;29589.930;  -10.730;32583.891
679.054;29424.191;  -10.520;32088.928
679.631;30208.818;  -11.920;30978.848
680.207;31076.314;   -7.490;33160.887
680.783;32365.539;   -9.860;35570.363
681.359;31571.193;  -13.380;36125.184
681.935;30696.502;  -12.480;35240.922
682.511;29369.389;   -7.900;34429.961
683.087;29182.227;   -7.710;34463.680
683.663;29124.342;  -11.480;34648.898
684.239;28354.297;  -14.090;34546.457
684.815;28033.068;   -7.560;35586.375
685.390;28408.775;   -9.910;35821.895
685.966;28909.189;  -11.159;35085.871
686.542;31705.691;  -11.169;34198.230
687.118;33790.195;   -5.959;32847.707
687.693;33829.336;  -10.329;32794.027
688.269;33123.609;  -12.059;33072.367
688.844;30945.723;  -10.909;33141.664
689.420;28870.785;   -8.019;33965.742
689.995;26638.219;   -8.399;34655.523
690.571;25522.633;  -10.949;33576.742
691.146;26123.408;   -9.619;32657.219
691.722;25386.422;   -8.999;32526.979
692.297;25340.322;  -11.589;33014.617
692.872;27419.602;  -11.739;34012.254
693.448;26797.811;  -11.059;34237.434
694.023;25920.730;  -10.139;34142.672
694.598;28130.773;   -9.029;34132.031
695.173;28344.164;  -13.319;34205.250
695.748;27836.797;  -10.169;32882.488
696.323;27684.908;   -8.339;32864.906
696.898;27594.664;   -8.169;33170.004
697.473;27251.410;  -12.309;32432.984
698.048;26975.111;  -10.989;31649.303
698.623;27461.346;   -9.329;30778.141
699.198;29510.785;   -9.849;31140.119
699.773;30346.623;  -12.329;31764.299
700.348;28808.549;  -10.389;31780.816
700.922;28891.797;   -9.269;32046.375
701.497;29319.688;   -9.329;32603.574
702.072;29280.051;  -10.789;34799.871
702.646;28315.475;  -10.839;35793.172
703.221;26349.123;   -9.099;35201.590
703.795;28393.938;  -10.939;34764.527
704.370;28927.148;  -12.859;34307.367
704.944;29388.670;  -11.559;33509.887
705.519;30591.008;   -7.939;31388.584
706.093;31746.576;  -10.499;31340.104
706.668;31793.512;  -11.289;32630.281
707.242;30347.936;  -11.509;32728.779
707.816;28761.783;   -9.639;32947.238
708.390;27445.213;  -11.429;33277.855
708.965;28519.910;  -11.869;33834.336
709.539;29228.959;  -11.689;33709.273
710.113;29692.350;  -10.478;33044.313
710.687;28753.373;  -10.228;31953.992
711.261;26473.508;  -13.698;30505.949
711.835;26311.416;  -13.378;30262.369
712.409;27390.256;   -9.698;31254.447
712.983;28927.598;  -11.898;32754.986
713.557;29756.336;  -15.138;34018.824
714.131;29587.920;  -14.098;34579.625
714.704;28790.717;   -9.958;33890.262
715.278;26388.918;  -10.028;33531.102
715.852;25751.932;  -11.148;33601.660
716.425;26664.104;   -9.068;33515.117
716.999;27137.604;  -10.038;33185.555
717.573;28081.115;   -9.798;33905.996
718.146;29264.830;  -12.378;35199.293
718.720;28720.646;  -11.918;35060.551
719.293;28080.832;   -8.088;34973.230
719.867;30977.412;  -10.888;36394.449
720.440;30918.568;  -11.938;36663.008
721.013;29488.715;  -12.818;35102.426
721.587;28178.238;  -10.298;33985.266
722.160;26657.430;  -10.048;33524.965
722.733;25812.586;  -12.108;32987.043
723.306;26637.053;  -10.818;33066.301
723.880;28757.059;   -8.908;33399.500
724.453;30293.750;   -9.878;33468.297
725.026;29072.463;  -11.188;33816.637
725.599;26499.811;  -11.678;32797.996
726.172;27100.430;   -9.618;33187.434
726.745;28572.971;   -8.258;35136.613
727.318;30291.586;  -12.978;35751.730
727.891;30830.193;  -12.148;35890.430
728.463;30563.770;   -8.968;34822.090
729.036;29434.625;  -10.188;32895.086
729.609;29559.602;  -11.788;31823.225
730.182;26106.693;  -11.788;31445.283
730.754;23642.182;  -10.268;32373.223
731.327;23798.805;   -9.998;33676.820
731.900;23907.459;  -12.228;33417.000
732.472;25367.096;  -13.848;31978.498
733.045;27528.563;   -8.698;30368.777
733.617;27512.826;  -10.607;30574.215
734.190;26929.816;  -11.507;31280.975
734.762;23989.051;  -13.647;31674.412
735.334;22475.117;   -9.767;31247.291
735.907;23060.811;   -9.897;29876.211
736.479;22677.201;  -11.637;29808.488
737.051;22267.424;   -9.567;30233.547
737.623;23758.246;   -8.187;31469.086
738.195;25008.053;  -11.187;31784.225
738.768;26888.049;  -12.337;32120.523
739.340;26639.494;  -12.227;32094.342
739.912;25191.119;  -11.057;31312.680
740.484;24058.201;  -10.207;31946.238
741.056;23173.693;  -10.047;32984.059
741.628;24971.777;  -13.627;33897.715
742.199;27301.721;   -7.177;33213.016
742.771;25609.992;  -10.797;31369.113
743.343;23171.861;  -11.997;31865.473
743.915;21971.193;  -12.867;32388.631
744.487;22173.432;   -7.617;31079.568
745.058;22352.367;   -9.557;30570.107
745.630;23121.789;   -9.877;29970.127
746.201;24085.408;  -14.177;29186.766
746.773;24281.945;   -9.237;28805.723
747.344;24050.902;   -9.847;29591.223
747.916;22687.178;  -11.657;31412.201
748.487;22637.947;  -10.587;32194.898
749.059;23981.744;   -8.707;32533.719
749.630;25121.123;  -10.537;32158.518
750.201;24248.883;  -11.687;30855.395
750.773;22465.646;  -11.647;28622.555
751.344;22545.199;   -7.147;28405.732
751.915;23590.953;   -9.757;28461.551
752.486;22724.033;  -12.427;27842.850
753.057;20316.520;  -12.227;27845.008
753.628;19201.061;  -10.417;27728.107
754.199;20514.820;  -11.767;27381.086
754.770;21736.838;  -11.187;25882.203
755.341;21676.797;  -10.507;25886.184
755.912;21806.406;   -9.387;26050.861
756.483;21139.855;  -10.647;26798.779
757.054;19238.697;  -11.837;27048.238
757.625;17979.193;  -12.716;26294.838
758.195;17769.332;   -9.666;26142.076
758.766;17408.865;   -8.656;26392.234
759.337;18364.488;  -12.856;26334.594
759.907;20410.986;  -13.366;27579.652
760.478;21284.988;   -8.576;28352.770
761.048;20646.322;  -10.526;27325.088
761.619;19853.648;  -11.116;26460.428
762.189;19762.648;  -12.136;26029.826
762.760;20801.975;   -9.456;26430.145
763.330;21902.404;   -7.136;26670.902
763.900;21167.850;  -11.786;26603.021
764.471;18353.158;  -11.546;25542.740
765.041;17072.895;   -8.096;24358.459
765.611;17303.254;   -8.876;23991.297
766.181;17848.053;  -12.196;24470.236
766.751;18714.443;  -11.636;24845.975
767.321;18547.191;  -10.156;24533.633
767.891;16474.545;  -11.766;24916.492
768.461;15838.256;  -14.936;24776.771
769.031;16308.856;  -12.356;24757.988
769.601;18044.869;   -7.526;24181.088
770.171;18060.898;  -10.766;23670.387
770.741;17228.385;  -13.176;22960.045
771.311;17441.807;  -10.616;22917.523
771.880;17718.828;   -9.576;23562.941
772.450;17165.053;  -10.336;24216.500
773.020;17178.240;  -13.516;24140.398
773.589;16910.652;  -13.466;24414.857
774.159;16545.963;   -8.686;23858.717
774.729;16104.244;   -9.476;22942.135
775.298;15481.148;  -13.666;22324.033
775.867;15057.541;  -11.716;21140.313
776.437;15042.505;   -9.906;20838.092
777.006;14624.835;  -12.166;20599.510
777.576;14578.035;  -12.356;20508.809
778.145;14828.725;  -11.646;20732.947
778.714;14727.338;   -8.226;21062.465
779.283;13919.448;   -9.556;20949.664
779.853;13577.422;  -14.116;20508.623
780.422;14057.993;  -11.506;20649.082
780.991;13592.092;   -9.556;21527.520
781.560;12512.849;   -9.095;22632.658
782.129;12310.210;  -12.135;23048.277
782.698;12291.807;  -10.865;23438.555
783.267;11953.788;   -9.335;23267.734
783.836;11914.175;  -11.045;22415.133
784.404;12913.290;  -13.865;20443.152
784.973;13297.925;  -13.095;19699.150
785.542;13124.361;  -11.575;19763.828
786.111;13013.211;   -9.705;20341.408
786.679;12641.257;  -12.105;20207.967
787.248;12449.370;  -12.455;19516.465
787.817;12201.026;  -11.535;18900.363
788.385;11748.304;   -9.765;17879.121
788.954;11092.620;  -14.005;17658.301
789.522;10645.988;  -11.955;17788.879
790.090;11245.165;  -10.135;18118.277
790.659;11624.302;  -10.975;18338.736
791.227;11039.077;  -13.375;18508.615
791.795;11499.057;  -12.375;17898.254
792.364;11844.190;  -10.725;17295.133
792.932;12092.500;   -9.715;16822.051
793.500;12296.865;  -12.675;17040.148
794.068;12591.715;  -13.495;17179.787
794.636;12767.211;  -10.885;16664.246
795.204;12274.797;  -11.045;16524.545
795.772;12271.938;  -13.175;17274.564
796.340;11784.325;  -12.445;17891.002
796.908;11637.868;   -9.735;17648.561
797.476;11595.807;   -9.815;17064.080
798.044;11137.422;  -13.985;16672.777
798.612;10277.129;  -13.115;17023.996
799.180; 9935.619;  -10.185;16561.615
799.747; 9833.616;   -9.055;15962.773
800.315; 9530.349;  -12.385;15296.992
800.883; 9175.305;  -15.035;14801.771
801.450; 9111.104;  -10.365;14534.430
802.018; 9120.535;   -9.855;14173.248
802.585; 9165.826;  -11.905;14029.547
803.153; 9251.552;  -11.585;13836.846
803.720; 9201.668;   -9.095;13567.324
804.287; 8860.394;   -9.135;13360.622
804.855; 8408.540;  -11.604;13681.981
805.422; 8282.845;  -11.794;13536.560
805.989; 8259.543;  -10.734;13355.958
806.556; 8436.655;  -10.444;13747.896
807.124; 8748.334;  -12.764;13987.376
807.691; 8686.539;  -12.964;14038.674
808.258; 8474.046;  -11.134;14120.152
808.825; 8121.039;   -9.854;13860.111
809.392; 8170.418;  -10.504;13268.790
809.959; 7703.928;  -13.054;12680.389
810.526; 7296.792;   -8.294;12427.308
811.093; 7321.322;   -8.394;12030.105
811.659; 7858.726;  -12.304;11653.664
812.226; 8246.128;  -13.944;11637.183
812.793; 7880.009;  -10.484;11611.521
813.360; 7246.948;  -10.144;11885.181
813.926; 6886.868;  -11.684;12770.539
814.493; 6663.304;  -13.644;12677.638
815.060; 6338.885;   -9.724;11974.336
815.626; 6413.333;   -9.854;11594.715
816.193; 6866.770;  -13.254;11579.474
816.759; 6925.924;  -13.204;11666.972
817.325; 7052.860;   -9.434;11325.530
817.892; 7408.867;  -10.134;11105.369
818.458; 7823.369;  -13.474;10843.928
819.024; 7458.006;  -11.854;10714.406
819.591; 7099.177;  -10.244;10469.165
820.157; 6822.733;  -10.704;10235.523
820.723; 6308.838;  -12.324;10847.563
821.289; 6035.020;   -9.444;11040.980
821.855; 5973.492;   -8.374;10357.100
822.421; 5987.427;  -10.234; 9978.918
822.987; 5921.832;  -13.294; 9754.177
823.553; 5580.101;  -10.884;10065.755
824.119; 5407.645;   -8.884;10036.294
824.685; 5487.809;   -6.784;10029.192
825.251; 5566.773;  -12.004;10199.230
825.816; 5524.865;  -11.474; 9820.189
826.382; 5333.575;   -9.174; 9297.248
826.948; 5564.332;   -9.214; 9381.347
827.513; 5969.978;  -10.774; 9450.726
828.079; 5766.465;  -11.924; 9472.444
828.645; 5202.158;  -10.543; 9292.643
829.210; 5136.549;  -10.533; 9065.341
829.776; 5117.355;  -10.753; 9132.620
830.341; 4964.097;  -10.173; 9092.878
830.906; 5134.129;  -10.743; 9078.557
831.472; 5484.944;  -11.113; 8534.535
832.037; 5239.330;  -10.603; 8677.874
832.602; 4661.856;  -13.323; 8628.692
833.167; 4335.360;  -10.823; 8879.031
833.733; 4270.879;  -10.113; 9189.790
834.298; 4373.985;  -13.583; 9052.608
834.863; 4381.677;  -12.703; 8895.087
835.428; 4351.922;  -10.523; 8824.266
835.993; 4273.239;   -6.963; 8845.385
836.558; 4173.716;  -10.763; 8888.563
837.123; 4321.687;   -9.903; 8966.582
837.688; 4534.379;   -9.913; 8617.860
838.253; 4721.580;  -10.283; 8590.699
838.817; 4919.732;  -12.963; 8443.797
839.382; 4857.628;  -14.243; 8799.356
839.947; 4547.293;  -10.733; 8810.595
840.511; 4223.029;   -9.383; 8796.394
841.076; 3862.511;  -12.563; 8347.231
841.641; 3909.642;  -12.953; 8224.330
842.205; 3978.346;   -7.043; 8223.349
842.770; 4107.721;   -8.163; 8622.107
843.334; 4369.150;  -12.503; 8410.386
843.898; 4380.325;  -11.693; 8337.465
844.463; 4411.705;  -10.203; 8506.283
845.027; 4143.699;   -9.533; 8280.962
845.591; 3921.728;  -13.443; 8231.141
846.156; 3905.249;  -13.143; 7969.179
846.720; 3764.151;   -9.433; 7768.278
847.284; 3633.653;  -11.033; 7630.957
847.848; 3461.591;  -10.403; 7472.395
848.412; 3365.050;  -11.553; 7437.394
848.976; 3429.417;   -8.393; 7674.592
849.540; 3396.583;   -8.713; 7836.011
850.104; 3494.273;  -12.463; 7913.669
850.668; 3834.738;  -12.973; 7694.508
851.232; 3941.722;  -10.793; 7756.887
851.796; 3757.021;  -10.662; 7926.545
852.359; 3434.979;  -13.082; 7827.844
852.923; 3291.902;  -12.192; 7641.163
853.487; 3141.834;  -11.912; 7342.501
854.050; 3073.618;  -10.892; 7042.820
854.614; 3198.290;  -13.992; 7151.338
855.177; 3309.841;  -11.732; 7105.077
855.741; 3359.613;   -8.962; 6989.675
856.304; 3265.106;   -9.442; 6596.634
856.868; 3198.069;  -14.192; 6356.272
857.431; 3317.528;  -12.702; 6468.571
857.995; 3444.626;   -9.942; 6373.210
858.558; 3458.465;   -9.112; 6324.448
859.121; 3191.419;  -12.932; 6408.327
859.684; 3072.876;  -13.442; 6347.886
860.247; 3191.157;  -10.632; 6321.264
860.810; 3167.258;  -11.272; 6301.903
861.374; 2916.309;   -9.832; 6607.881
861.937; 2664.093;  -11.762; 6408.200
862.500; 2638.341;   -9.722; 6572.639
863.062; 2795.294;  -10.512; 6387.297
863.625; 2967.043;  -11.232; 6190.836
864.188; 3129.582;  -14.112; 5807.254
864.751; 3187.274;  -11.302; 5682.413
865.314; 3072.987;  -10.112; 5547.492
865.876; 2896.335;  -12.182; 5500.150
866.439; 2907.701;  -10.722; 5415.909
867.002; 2863.827;   -9.252; 5501.567
867.564; 2639.410;   -9.572; 5413.946
868.127; 2409.544;  -13.142; 5160.325
868.689; 2318.407;  -12.902; 5133.183
869.252; 2249.525;   -9.732; 5252.382
869.814; 2166.900;   -9.432; 5297.141
870.377; 2187.571;  -11.552; 5390.919
870.939; 2263.227;   -9.052; 5599.898
871.501; 2318.262;  -10.982; 5248.336
872.063; 2323.425;  -12.292; 4854.235
872.626; 2285.990;  -14.912; 4817.074
873.188; 2289.927;  -13.112; 4987.732
873.750; 2244.688;  -13.442; 4868.651
874.312; 2149.979;   -9.402; 4779.330
874.874; 2057.057;  -11.062; 4866.348
875.436; 1978.393;  -13.931; 4718.887
875.998; 1974.088;   -9.561; 4660.005
876.560; 1983.659;  -11.321; 4462.964
877.122; 1928.672;  -12.221; 4145.042
877.683; 1839.354;  -12.191; 4056.481
878.245; 1767.293;  -12.101; 3950.740
878.807; 1795.181;   -8.971; 4058.958
879.369; 1808.202;  -12.071; 3954.677
879.930; 1711.171;  -14.621; 3941.495
880.492; 1652.919;  -10.311; 4067.014
881.053; 1620.808;  -10.901; 3859.633
881.615; 1503.595;  -14.411; 3776.071
882.176; 1417.840;  -13.761; 3734.750
882.738; 1388.490;   -9.181; 3678.489
883.299; 1364.390;  -11.791; 3405.407
883.860; 1362.090;  -13.121; 3351.106
884.422; 1368.382;  -11.211; 3394.044
884.983; 1321.290;  -10.091; 3166.443
885.544; 1223.350;   -8.461; 3189.802
886.105; 1143.345;  -12.361; 3160.360
886.666; 1079.384;  -14.141; 3093.059
887.227; 1018.844;  -11.361; 2941.957
887.788;  949.100;  -11.401; 2974.836
888.349;  888.372;  -13.791; 2721.214
888.910;  890.860;  -13.191; 2696.493
889.471;  900.761;   -9.881; 2560.172
890.032;  885.374;   -9.881; 2558.190
890.593;  858.078;  -10.371; 2567.669
891.153;  827.099;  -13.301; 2460.307
891.714;  778.012;  -11.431; 2372.046
892.275;  738.136;  -11.291; 2309.505
892.835;  697.284;  -11.471; 2382.543
893.396;  637.810;  -11.541; 2295.502
893.956;  579.638;  -11.181; 2162.420
894.517;  543.999;  -11.741; 2125.439
895.077;  538.300;  -11.671; 2086.978
895.638;  537.785;  -11.311; 2126.316
896.198;  508.096;   -9.831; 1838.275
896.758;  463.380;   -8.421; 1892.813
897.319;  430.300;  -12.351; 1792.232
897.879;  412.022;  -13.511; 1762.751
898.439;  385.220;  -12.001; 1661.149
898.999;  359.315;  -10.180; 1781.468
899.559;  348.965;  -12.030; 1703.347
900.119;  343.532;  -15.710; 1537.525
900.679;  342.239;   -8.900; 1638.384
901.239;  329.033;   -8.340; 1527.902
901.799;  317.368;  -13.910; 1456.441
902.359;  310.573;  -13.460; 1357.140
902.919;  303.535;  -11.490; 1331.118
903.479;  289.899;  -12.110; 1317.257
904.038;  267.409;  -11.720; 1262.595
904.598;  251.253;  -13.610; 1152.034
905.158;  246.708;  -11.040; 1240.893
905.717;  239.387;  -10.900; 1233.691
906.277;  227.355;  -15.080; 1217.330
906.836;  217.904;  -13.380; 1222.408
907.396;  210.775;  -10.780; 1193.047
907.955;  203.516;   -8.500; 1182.526
908.515;  197.722;  -12.760; 1099.364
909.074;  191.743;  -11.900; 1092.863
909.633;  185.252;   -8.950; 1069.121
910.192;  179.939;   -8.770; 1196.460
910.752;  174.892;  -12.390; 1029.960
911.311;  170.397;  -13.680; 1009.780
911.870;  168.227;  -12.370;  971.460
912.429;  169.311;  -10.900; 1094.080
912.988;  168.137;  -11.690; 1081.060
913.547;  162.485;  -13.240;  940.380
914.106;  157.269;  -11.990;  999.420
914.665;  154.073;   -9.990;  984.020
915.224;  153.803;  -12.880; 1035.760
915.782;  154.002;  -12.350;  922.560
916.341;  152.969;   -9.110; 1049.840
916.900;  148.949;   -9.270;  925.260
917.458;  146.876;  -13.240;  884.220
918.017;  146.077;  -13.550;  942.600
918.576;  146.141;  -12.320;  904.440
919.134;  143.793;  -11.490;  837.980
919.693;  141.083;  -13.670;  893.060
920.251;  140.076;  -15.470;  876.500
920.809;  139.089;  -11.290;  839.580
921.368;  137.991;  -10.210;  885.360
921.926;  137.769;  -12.140;  842.940
922.484;  136.552;  -13.080;  903.360
923.042;  135.098;  -11.720;  880.340
923.601;  138.856;   -7.480;  998.680
924.159;  136.195;  -11.570;  935.560
924.717;  133.418;  -13.840;  841.080
925.275;  133.573;  -10.640;  903.240
925.833;  132.775;  -11.540;  779.320
926.391;  133.857;  -12.960;  938.380
926.949;  132.167;  -14.130;  857.680
927.506;  132.623;  -11.750;  903.500
928.064;  132.930;  -10.250;  877.580
928.622;  131.969;  -13.030;  880.100
929.180;  131.251;  -13.400;  814.180
929.737;  133.373;  -10.700;  808.540
930.295;  136.635;  -10.070;  928.480
930.853;  138.481;  -11.960;  849.100
931.410;  139.302;  -13.120;  821.120
931.968;  138.703;  -10.770;  940.660
932.525;  138.064;  -10.680;  909.380
933.082;  138.375;  -13.130;  811.440
933.640;  139.737;  -13.210;  925.900
934.197;  137.152;  -11.060;  886.360
934.754;  138.914;   -9.580;  897.780
935.312;  141.532;  -14.000;  863.340
935.869;  145.660;  -10.710; 1012.980
936.426;  146.374;   -9.860;  872.800
936.983;  146.465;   -9.710;  889.020
937.540;  146.050;  -13.990;  838.280
938.097;  145.183;  -14.040;  940.120
938.654;  145.938;  -10.310;  898.860
939.211;  148.511;  -10.560;  952.480
939.768;  152.845;  -13.900;  915.420
940.324;  156.370;  -14.760;  904.200
940.881;  156.979;  -10.370;  878.500
941.438;  158.027;   -8.260; 1021.200
941.995;  153.134;  -12.540;  992.560
942.551;  150.115;  -14.670;  875.620
943.108;  150.961;  -10.450;  937.920
943.664;  153.308;  -10.750;  869.340
944.221;  156.273;  -11.550; 1088.140
944.777;  155.182;  -14.770;  869.680
945.334;  156.834;  -12.820;  884.840
945.890;  159.467;  -10.130;  946.480
946.446;  160.413;  -13.470;  947.020
947.003;  161.636;  -12.120;  964.940
947.559;  163.544;   -9.980; 1063.040
948.115;  162.563;   -9.080; 1026.540
948.671;  160.303;  -10.830;  967.300
949.227;  157.526;  -12.440;  859.560
949.783;  154.265;  -12.910;  858.900
950.339;  155.976;  -10.270;  991.000
950.895;  156.510;  -13.630; 1023.840
951.451;  157.168;  -15.100;  925.280
952.007;  157.813;  -11.330;  998.540
952.563;  159.205;  -10.580;  937.780
953.118;  159.461;  -13.440;  904.940
953.674;  158.195;  -12.710;  935.780
954.230;  157.417;  -10.350;  949.640
954.785;  155.659;   -9.190;  936.640
955.341;  154.065;  -11.200;  998.160
955.897;  150.941;  -16.560;  834.660
956.452;  152.775;  -12.570;  953.840
957.008;  153.002;   -7.970; 1083.640
957.563;  149.977;  -11.940; 1009.540
958.118;  144.659;  -13.450;  877.700
958.674;  145.908;  -12.030;  946.780
959.229;  147.031;   -9.410; 1013.980
959.784;  145.912;  -12.000;  832.400
960.339;  143.547;  -14.780; 1001.280
960.894;  139.874;   -9.860;  963.760
961.449;  135.113;   -9.970;  859.960
962.004;  136.159;  -10.900; 1212.840
962.559;  130.670;  -13.150;  860.140
963.114;  128.739;  -13.740;  742.480
963.669;  127.870;   -9.820;  915.500
964.224;  126.586;  -13.890;  874.340
964.779;  124.598;  -12.600;  828.420
965.334;  126.792;  -10.950; 1017.860
965.888;  126.969;  -11.170;  875.360
966.443;  132.421;  -12.540;  972.380
966.998;  133.073;  -15.780;  819.460
967.552;  133.423;   -9.760;  908.380
968.107;  127.439;   -9.060;  868.300
968.661;  124.089;  -11.950;  922.440
969.216;  117.000;  -12.800;  856.280
969.770;  107.813;  -11.210;  917.200
970.324;   97.823;  -11.610;  923.140
970.879;   91.077;  -11.370;  947.180
971.433;   87.885;  -12.540;  952.720
971.987;   87.360;  -11.320;  895.340
972.541;   87.828;  -10.720;  917.100
973.095;   91.152;   -9.680; 1009.460
973.649;   91.868;  -11.440;  809.480
974.203;   92.505;  -11.210;  829.040
974.757;   93.267;  -10.240;  855.220
975.311;   94.437;  -13.720;  872.600
975.865;   94.256;  -13.770;  881.820
976.419;   93.533;  -11.690;  857.400
976.973;   94.142;   -9.510;  849.620
977.526;   96.137;  -12.620;  949.920
978.080;   95.742;  -12.010;  796.780
978.634;   98.062;  -10.170;  921.320
979.187;   95.166;   -9.020;  905.400
979.741;   93.529;   -9.820; 1018.380
980.294;   88.391;  -14.870;  789.160
980.848;   87.297;  -12.380;  717.220
981.401;   89.732;  -10.350;  816.540
981.955;   91.329;  -13.720;  844.300
982.508;   90.585;  -11.490;  746.340
983.061;   91.336;  -10.000;  915.260
983.615;   87.721;  -11.480;  798.800
984.168;   84.374;  -13.220;  770.080
984.721;   83.908;  -13.960;  880.760
985.274;   83.268;  -10.870;  867.500
985.827;   81.987;   -9.790;  834.220
986.380;   80.004;  -13.120;  721.340
986.933;   79.210;  -12.450;  864.800
987.486;   77.894;  -10.210;  861.920
988.039;   76.830;   -8.430;  863.100
988.591;   74.777;  -10.520;  893.260
989.144;   73.102;  -14.860;  737.260
989.697;   71.754;  -13.080;  758.740
990.250;   71.786;  -10.150;  858.100
990.802;   72.105;  -13.430;  755.860
991.355;   73.624;  -12.750;  974.880
991.907;   70.797;  -12.040;  864.320
992.460;   67.970;  -11.330;  753.760
993.012;   68.544;  -13.610;  749.540
993.565;   66.906;  -13.460;  711.360
994.117;   67.813;   -9.360;  950.780
994.669;   64.489;  -11.300;  701.320
995.221;   62.839;  -13.540;  791.920
995.774;   60.479;  -13.430;  787.580
996.326;   59.398;  -12.520;  740.220
996.878;   59.553;  -10.950;  838.420
997.430;   57.716;  -14.300;  699.860
997.982;   56.586;  -13.760;  750.140
998.534;   56.477;  -11.530;  739.060
999.086;   54.467;  -10.310;  738.220
999.638;   54.198;  -12.530;  661.380
1000.190;   52.945;  -11.840;  699.320
1000.741;   52.870;  -10.260;  742.700
1001.293;   52.313;   -8.860;  686.020
1001.845;   49.851;  -13.700;  676.640
1002.396;   48.698;  -12.100;  743.400
1002.948;   47.244;  -12.760;  737.400
1003.500;   45.805;  -10.380;  723.780
1004.051;   46.883;  -11.900;  907.580
1004.603;   46.020;  -12.250;  791.820
1005.154;   42.055;  -13.210;  608.980
1005.705;   41.705;  -10.950;  723.960
1006.257;   41.620;  -13.880;  707.220
1006.808;   40.930;  -12.840;  685.460
1007.359;   40.078;  -10.570;  763.240
1007.910;   39.187;   -9.620;  646.640
1008.461;   39.416;  -13.630;  732.940
1009.013;   38.017;  -17.200;  588.340
1009.564;   39.500;  -10.200;  793.520
1010.115;   37.535;  -12.570;  597.040
1010.665;   37.199;  -15.150;  602.160
1011.216;   37.636;  -14.480;  667.920
1011.767;   36.869;  -11.340;  697.920
1012.318;   37.003;   -9.780;  736.980
1012.869;   35.686;  -12.380;  679.000
1013.419;   35.654;  -15.560;  603.120
1013.970;   36.135;  -11.010;  666.640
1014.521;   34.625;  -11.610;  620.620
1015.071;   35.118;  -13.450;  670.380
1015.622;   35.049;  -13.870;  635.460
1016.172;   34.266;  -11.610;  596.820
1016.723;   33.735;  -12.120;  614.380
1017.273;   33.843;  -13.620;  604.160
1017.823;   33.391;  -14.140;  650.340
1018.374;   33.639;  -12.800;  611.760
1018.924;   33.056;  -12.340;  716.880
1019.474;   33.526;  -11.410;  718.880
1020.024;   31.542;  -14.770;  657.580
1020.574;   32.131;   -9.780;  726.160
1021.124;   32.376;   -8.560;  673.580
1021.674;   30.892;  -15.190;  559.120
1022.224;   32.312;  -13.530;  708.940
1022.774;   31.907;  -13.280;  668.820
1023.324;   31.995;  -10.690;  753.520
1023.874;   33.651;  -10.240;  875.760
1024.423;   31.461;  -12.540;  613.700
1024.973;   30.833;  -10.010;  610.760
1025.523;   30.498;  -10.550;  620.960
1026.072;   29.353;  -13.560;  606.420
1026.622;   29.830;  -15.120;  675.740
1027.172;   29.959;  -11.260;  715.660
1027.721;   28.833;  -11.410;  601.220
1028.270;   29.948;  -13.530;  663.400
1028.820;   29.378;  -13.680;  638.080
1029.369;   29.315;  -13.520;  612.700
1029.918;   28.866;  -10.980;  649.840
1030.468;   28.505;  -13.530;  564.780
1031.017;   29.170;  -13.170;  634.800
1031.566;   27.704;  -12.200;  608.900
1032.115;   28.060;   -9.960;  694.500
1032.664;   26.956;  -13.210;  596.480
1033.213;   27.863;  -12.500;  735.420
1033.762;   27.817;  -11.910;  635.620
1034.311;   26.486;   -9.640;  677.220
1034.860;   27.736;  -13.310;  691.000
1035.408;   27.904;  -11.830;  722.720
1035.957;   27.810;  -12.000;  719.540
1036.506;   25.407;  -11.690;  530.800
1037.055;   27.919;  -10.990;  844.320
1037.603;   26.340;  -15.120;  664.000
1038.152;   24.549;  -12.450;  534.760
1038.700;   25.716;  -10.560;  585.740
1039.249;   25.326;  -11.080;  681.220
1039.797;   25.747;  -12.540;  633.360
1040.345;   25.009;  -11.920;  705.420
1040.894;   24.608;  -11.410;  625.300
1041.442;   25.241;  -14.320;  632.200
1041.990;   23.629;  -16.240;  559.160
1042.538;   23.524;  -11.680;  536.180
1043.087;   23.800;  -10.760;  570.860
1043.635;   24.205;  -11.850;  670.500
1044.183;   23.784;  -15.480;  586.400
1044.731;   23.609;  -11.770;  576.000
1045.279;   23.378;  -13.090;  674.920
1045.827;   24.754;  -12.440;  892.400
1046.374;   22.553;  -13.840;  515.420
1046.922;   22.286;  -13.220;  590.580
1047.470;   23.656;  -10.230;  691.300
1048.018;   22.639;  -14.590;  647.960
1048.565;   24.252;  -12.050;  708.600
1049.113;   21.960;  -11.650;  557.000
1049.660;   22.319;  -10.510;  629.660
1050.208;   22.733;  -13.310;  675.640
1050.755;   21.836;  -15.900;  606.580
1051.303;   22.315;  -11.430;  686.820
1051.850;   21.259;   -8.480;  635.120
1052.397;   19.802;  -15.010;  473.960
1052.945;   20.829;  -13.960;  617.760
1053.492;   22.135;  -13.150;  741.840
1054.039;   22.617;   -9.630;  720.180
1054.586;   20.641;  -13.680;  557.240
1055.133;   21.866;  -14.570;  693.140
1055.680;   21.477;  -13.820;  646.620
1056.227;   20.095;  -11.730;  542.780
1056.774;   22.180;  -12.480;  794.980
1057.321;   19.342;  -13.930;  523.260
1057.868;   19.727;  -11.690;  651.320
1058.415;   19.787;   -9.520;  651.980
1058.961;   19.947;  -13.160;  678.940
1059.508;   19.871;  -12.920;  643.820
1060.055;   20.023;  -11.920;  581.780
1060.601;   20.533;  -11.500;  624.300
1061.148;   19.533;  -14.330;  616.820
1061.694;   18.851;  -16.870;  592.580
1062.241;   19.338;  -10.330;  596.320
1062.787;   19.791;  -10.620;  663.140
1063.334;   21.157;  -10.110;  808.560
1063.880;   19.419;  -13.400;  668.360
1064.426;   18.961;  -10.680;  706.820
1064.972;   17.833;   -9.920;  601.340
1065.518;   17.287;  -10.980;  566.640
1066.065;   18.334;  -14.890;  624.460
1066.611;   17.083;  -12.870;  598.800
1067.157;   18.660;  -12.950;  641.860
1067.703;   18.039;  -13.540;  668.480
1068.249;   17.699;  -13.540;  605.220
1068.794;   17.995;  -12.600;  626.880
1069.340;   16.124;  -10.620;  578.960
1069.886;   16.905;  -12.830;  590.700
1070.432;   15.850;  -14.870;  541.720
1070.977;   15.996;  -11.980;  601.080
1071.523;   16.523;   -8.200;  573.060
1072.068;   16.661;  -12.330;  582.000
1072.614;   16.079;  -16.370;  527.760
1073.160;   16.881;  -11.100;  687.040
1073.705;   15.767;  -10.480;  572.520
1074.250;   15.876;  -14.520;  559.900
1074.796;   16.777;  -11.460;  655.160
1075.341;   16.725;  -11.950;  664.100
1075.886;   16.136;  -11.460;  594.240
1076.431;   14.897;  -13.770;  649.880
1076.976;   15.377;  -12.680;  639.220
1077.521;   15.335;  -13.170;  583.080
1078.067;   14.300;  -10.860;  579.400
1078.612;   15.459;  -13.920;  661.620
1079.156;   14.964;  -13.880;  601.540
1079.701;   15.468;  -13.120;  693.260
1080.246;   14.849;   -9.940;  696.300
1080.791;   14.604;  -14.740;  625.020
1081.336;   15.308;  -13.750;  659.320
1081.880;   14.967;  -13.400;  649.680
1082.425;   13.984;  -12.220;  573.480
1082.970;   15.261;  -11.610;  717.040
1083.514;   14.329;  -13.580;  597.000
1084.059;   13.394;  -12.810;  586.720
1084.603;   12.858;  -12.320;  565.840
1085.147;   13.647;  -13.190;  645.220
1085.692;   14.269;  -12.480;  716.800
1086.236;   11.964;  -13.020;  503.140
1086.780;   14.459;   -9.190;  751.440
1087.325;   13.949;  -12.480;  654.620
1087.869;   13.521;  -12.450;  610.700
1088.413;   14.123;  -12.240;  705.040
1088.957;   11.411;   -9.020;  543.400
1089.501;   14.258;  -10.320;  766.640
1090.045;   13.102;  -12.720;  726.480
1090.589;   11.681;  -13.690;  569.920
1091.133;   12.836;  -10.020;  673.340
1091.676;   12.425;  -12.330;  591.940
1092.220;   11.771;  -14.970;  600.920
1092.764;   13.517;  -12.430;  706.960
1093.307;   12.421;   -9.800;  673.780
1093.851;   10.875;  -14.970;  556.540
1094.395;   12.033;  -15.310;  683.140
1094.938;   11.594;  -10.370;  632.520
1095.482;   11.801;  -11.050;  559.800
1096.025;   11.991;  -11.840;  710.880
1096.568;   12.652;  -12.840;  779.280
1097.112;    9.389;  -14.700;  508.180
1097.655;   10.732;   -8.720;  603.000
1098.198;    9.869;  -13.610;  600.180
1098.741;   10.365;  -13.350;  612.860
1099.285;   11.515;  -11.230;  657.300
1099.828;    8.986;  -11.840;  439.400
1100.371;   10.675;  -10.840;  608.160
1100.914;   10.555;  -14.190;  682.660
1101.457;   10.536;  -11.240;  679.900
1101.999;    9.056;  -11.270;  584.680
1102.542;   10.131;  -11.480;  641.440
1103.085;   10.097;  -11.750;  658.500
1103.628;   10.866;  -11.400;  762.060
1104.170;    9.311;  -10.490;  588.280
1104.713;    9.382;  -10.600;  646.700
1105.256;    8.787;  -14.360;  557.440
1105.798;    8.157;  -13.210;  499.980
1106.341;    9.943;  -10.270;  728.900
1106.883;    9.270;  -12.200;  521.340
1107.425;    9.465;  -13.110;  668.180
1107.968;    9.227;  -12.840;  612.380
1108.510;    9.089;   -6.480;  684.960
1109.052;    7.901;  -13.940;  612.620
1109.594;    8.112;  -13.690;  554.440
1110.136;    8.486;  -11.880;  643.220
1110.679;    8.025;   -9.500;  633.080
1111.221;    8.790;  -14.160;  604.460
1111.763;    8.330;  -13.980;  559.220
1112.304;    7.155;  -13.880;  547.140
1112.846;    8.577;  -12.210;  666.240
1113.388;   11.079;  -11.390;  942.180
1113.930;    7.778;  -14.540;  694.200
1114.472;    7.617;  -12.640;  606.540
1115.013;    5.930;  -11.620;  551.280
1115.555;    6.801;  -13.640;  587.100
1116.097;    6.319;  -15.380;  579.480
1116.638;    7.376;  -12.640;  684.600
1117.180;    7.162;   -9.850;  667.740
1117.721;    7.243;  -13.690;  568.580
1118.262;    7.626;  -12.680;  677.960
1118.804;    8.110;  -12.530;  637.340
1119.345;    6.129;  -11.690;  578.400
1119.886;    7.411;  -13.380;  704.040
1120.427;    6.888;  -14.070;  589.020
1120.969;    5.691;  -13.500;  597.920
1121.510;    5.234;  -11.480;  563.060
1122.051;    6.002;  -12.830;  723.580
1122.592;    5.897;  -14.290;  655.420
1123.133;    4.381;  -12.400;  547.940
1123.673;    7.075;  -10.130;  706.480
1124.214;    5.595;  -12.930;  612.460
1124.755;    6.242;  -14.380;  639.460
1125.296;    6.068;  -14.000;  627.320
1125.836;    5.662;  -10.070;  691.500
1126.377;    5.869;  -12.640;  599.660
1126.918;    5.388;  -12.960;  614.980
1127.458;    5.272;  -13.350;  622.220
1127.999;    5.315;  -10.750;  656.980
1128.539;    5.477;  -12.350;  694.240
1129.079;    4.718;  -14.860;  632.720
1129.620;    4.193;  -13.840;  558.100
1130.160;    4.277;  -12.330;  539.480
1130.700;    5.051;  -14.530;  640.840
1131.240;    4.927;  -12.530;  643.700
1131.781;    3.712;  -14.450;  619.680
1132.321;    4.163;   -9.790;  599.120
1132.861;    3.083;  -14.860;  564.200
1133.401;    3.480;  -14.290;  593.940
1133.941;    3.763;  -11.750;  626.280
1134.481;    3.137;   -9.920;  597.580
1135.020;    3.770;  -12.290;  609.160
1135.560;    3.876;  -11.650;  674.940
1136.100;    2.789;  -16.270;  501.160
1136.640;    2.500;  -10.890;  510.480
1137.179;    3.198;  -14.180;  537.960
1137.719;    3.106;  -16.250;  605.400
1138.258;    4.282;  -14.230;  587.360
1138.798;    3.291;   -9.090;  663.780
1139.337;    2.171;  -15.130;  482.840
1139.877;    3.891;  -13.680;  642.360
1140.416;    4.628;  -11.320;  878.060
1140.955;    1.887;  -10.860;  535.380
1141.494;    3.205;  -12.920;  669.280
1142.034;    2.777;  -13.930;  583.520
1142.573;    3.362;  -11.440;  646.280
1143.112;    1.917;  -12.000;  553.480
1143.651;    2.120;  -13.670;  536.480
1144.190;    3.605;  -12.730;  691.640
1144.729;    3.357;  -14.560;  607.420
1145.267;    2.783;  -11.830;  584.900
1145.806;    2.547;  -12.230;  637.040
1146.345;    1.449;  -14.130;  635.020
1146.884;    2.237;  -11.590;  622.500
1147.422;    1.430;  -12.550;  533.060
1147.961;    3.367;  -11.180;  708.460
1148.500;    2.829;  -11.510;  669.720
1149.038;    2.391;  -11.640;  632.500
1149.577;    2.882;  -10.130;  698.640
1150.115;    0.441;  -13.970;  452.280
1150.653;    2.020;  -14.520;  607.340
1151.192;    1.964;  -12.810;  552.920
1151.730;    1.794;   -9.100;  652.560
1152.268;    1.574;  -12.220;  589.520
1152.806;    0.917;  -14.140;  571.180
1153.344;   -0.209;  -12.350;  577.640
1153.882;    1.038;   -8.980;  600.060
1154.421;   -0.490;  -15.190;  470.620
1154.958;   -0.049;  -15.210;  595.240
1155.496;    1.578;  -12.850;  645.280
1156.034;    0.938;   -9.940;  721.880
1156.572;    2.213;  -13.570;  667.060
1157.110;   -0.406;  -14.590;  473.940
1157.647;    1.359;  -13.030;  676.960
1158.185;    0.839;  -12.140;  564.320
1158.723;   -0.613;  -14.390;  509.200
1159.260;    0.824;  -14.090;  701.700
1159.798;    1.123;  -11.920;  658.160
1160.335;    0.921;  -11.110;  631.820

