
Integration time [ms]:   3.276
Averaging Nr. [scans]: 1000
Smoothing Nr. [pixels]: 0
Data measured with spectrometer [name]: 7414430SP
Wave   ;Sample   ;Dark     ;Reference
[nm]   ;[counts] ;[counts] ;[counts] 

288.544;  150.375;    7.793;  793.890
289.143;  154.231;    7.462;  681.602
289.742;  154.761;    8.602;  828.814
290.341;  140.070;    1.321;  789.841
290.940;  129.162;   -0.709;  730.702
291.538;  130.425;    0.881;  881.108
292.137;  130.069;    0.122;  792.581
292.736;  134.404;   -1.929;  975.101
293.335;  132.072;   -8.229;  735.086
293.934;  132.519;   -5.279;  781.677
294.532;  130.243;   -1.369; 1031.958
295.131;  116.354;   -7.641;  834.394
295.730;  115.974;   -8.420;  809.588
296.328;  115.712;   -5.611;  783.442
296.927;  116.115;   -5.781;  779.652
297.525;  116.933;   -6.361;  781.236
298.124;  107.801;  -11.382;  654.009
298.722;  111.265;   -7.641;  761.933
299.321;  108.738;   -6.811;  708.597
299.919;  106.971;   -6.991;  751.918
300.518;  103.771;  -10.362;  689.338
301.116;  105.659;   -9.581;  691.381
301.715;  105.735;   -4.891;  730.222
302.313;  104.458;   -8.801;  704.943
302.911;   99.580;   -8.522;  733.830
303.509;  105.079;   -6.171;  925.627
304.108;  103.041;   -7.311;  760.383
304.706;  102.404;   -8.321;  801.664
305.304;   96.260;  -10.222;  796.707
305.902;  101.757;   -6.021;  784.484
306.500;   97.292;   -4.971;  728.200
307.098;   95.348;   -7.061;  746.560
307.696;   94.111;   -8.801;  780.432
308.294;   94.356;   -6.411;  731.359
308.892;   95.867;   -2.901;  759.769
309.490;   92.702;   -5.041;  712.161
310.088;   91.740;   -5.002;  788.444
310.686;   95.518;   -2.041;  821.749
311.284;   90.677;   -2.351;  766.040
311.882;   88.408;   -4.422;  731.225
312.480;   85.950;   -4.192;  697.167
313.078;   87.149;   -1.172;  808.331
313.675;   88.232;   -2.601;  691.600
314.273;   82.368;   -1.312;  797.837
314.871;   82.810;   -3.942;  589.829
315.468;   80.640;   -2.802;  652.090
316.066;   83.449;   -0.701;  694.427
316.664;   75.295;   -4.362;  656.351
317.261;   79.561;   -2.872;  910.128
317.859;   74.787;   -2.022;  768.735
318.456;   75.675;   -0.531;  830.096
319.054;   71.679;   -3.912;  787.828
319.651;   71.362;   -4.752;  759.928
320.249;   69.190;   -2.602;  810.188
320.846;   67.489;   -0.821;  714.286
321.443;   65.184;   -4.642;  832.135
322.041;   62.744;   -5.002;  812.315
322.638;   59.411;   -3.982;  701.456
323.235;   60.789;   -3.411;  665.683
323.833;   58.448;   -7.361;  740.354
324.430;   53.604;   -8.611;  615.900
325.027;   53.705;   -4.061;  876.855
325.624;   53.746;   -4.031;  644.532
326.221;   50.786;   -7.481;  689.717
326.818;   50.792;   -5.281;  818.332
327.415;   53.589;   -7.460;  748.828
328.012;   53.317;   -5.510;  690.585
328.609;   52.048;   -7.880;  731.389
329.206;   50.266;   -8.331;  778.621
329.803;   50.252;   -5.121;  737.841
330.400;   53.154;   -4.510;  704.260
330.997;   54.446;   -6.441;  817.147
331.594;   52.945;   -8.831;  788.185
332.191;   58.054;   -7.621;  728.722
332.787;   60.509;   -4.591;  844.463
333.384;   59.922;   -7.412;  763.093
333.981;   58.244;   -8.293;  815.687
334.578;   61.384;   -7.052;  708.378
335.174;   64.485;   -3.102;  731.469
335.771;   64.155;   -5.943;  836.456
336.367;   59.970;   -7.393;  710.631
336.964;   64.981;   -4.063;  793.266
337.561;   62.453;   -3.813;  731.112
338.157;   57.864;   -4.654;  911.916
338.754;   55.647;   -7.934;  796.589
339.350;   53.562;   -4.414;  722.493
339.946;   56.035;   -4.664;  773.135
340.543;   46.894;   -6.375;  846.136
341.139;   41.601;   -9.815;  720.836
341.735;   39.629;   -4.526;  772.593
342.332;   38.767;   -4.895;  691.472
342.928;   38.850;   -4.295;  795.394
343.524;   32.356;   -5.476;  761.684
344.120;   28.789;   -5.856;  738.562
344.716;   32.414;   -2.155;  723.717
345.313;   30.418;   -6.275;  795.342
345.909;   24.524;   -8.815;  627.336
346.505;   26.425;   -5.305;  740.247
347.101;   27.283;   -2.674;  827.864
347.697;   27.794;   -4.344;  785.398
348.293;   22.461;   -9.975;  627.244
348.889;   22.857;   -5.774;  745.914
349.485;   22.146;   -5.004;  688.205
350.081;   22.758;   -4.704;  772.592
350.676;   18.556;   -6.635;  691.606
351.272;   22.601;   -4.504;  809.530
351.868;   22.095;   -3.914;  780.497
352.464;   18.783;   -9.044;  723.932
353.059;   15.320;   -8.314;  646.017
353.655;   19.474;   -7.024;  777.063
354.251;   19.822;   -5.343;  759.845
354.846;   14.493;   -8.604;  740.646
355.442;   12.626;   -6.945;  753.071
356.038;   14.824;   -7.564;  751.708
356.633;   15.318;   -5.814;  728.594
357.229;   11.784;   -7.364;  724.757
357.824;   10.613;   -8.024;  703.600
358.420;    9.750;   -9.384;  679.726
359.015;   10.197;   -5.104;  695.357
359.610;   10.861;   -6.854;  763.920
360.206;    5.216;  -10.185;  603.240
360.801;    8.037;   -7.054;  646.503
361.396;   10.176;   -5.034;  725.975
361.992;    5.727;   -8.284;  668.220
362.587;    2.438;   -8.625;  670.160
363.182;    5.085;   -7.674;  689.631
363.777;    5.689;   -5.164;  738.242
364.372;    5.801;   -8.604;  737.314
364.967;    1.229;   -9.055;  680.744
365.563;    5.891;   -6.114;  815.567
366.158;    3.113;   -5.814;  685.161
366.753;    3.077;   -7.854;  649.263
367.348;    1.992;   -7.804;  746.056
367.942;    1.372;   -7.954;  697.298
368.537;    0.857;   -4.984;  754.245
369.132;    0.303;   -8.564;  703.428
369.727;   -3.347;   -8.855;  638.079
370.322;   -2.066;   -6.245;  580.186
370.917;   -1.784;   -6.425;  710.646
371.511;    0.995;   -6.294;  861.834
372.106;   -2.703;   -7.685;  776.964
372.701;   -6.140;   -7.335;  585.988
373.296;   -0.490;   -4.564;  863.135
373.890;   -5.085;  -10.235;  647.840
374.485;   -6.951;   -7.885;  691.199
375.079;   -4.738;   -7.324;  738.685
375.674;   -2.292;   -3.494;  812.970
376.268;   -6.165;   -8.525;  691.759
376.863;  -12.190;  -10.086;  580.327
377.457;   -5.227;   -7.025;  662.490
378.052;   -8.100;   -3.585;  764.884
378.646;   -8.538;   -7.595;  741.167
379.240;   -9.280;   -8.335;  721.176
379.835;   -7.855;   -5.785;  636.978
380.429;  -10.368;   -4.335;  562.557
381.023;   -9.955;   -6.805;  779.205
381.617;  -12.755;   -9.195;  680.106
382.212;   -9.055;   -6.905;  685.303
382.806;   -8.097;   -3.745;  760.690
383.400;  -12.251;   -7.745;  672.281
383.994;  -12.702;   -9.765;  664.870
384.588;   -9.407;   -6.564;  697.701
385.182;   -8.531;   -5.344;  726.624
385.776;   -9.620;   -8.514;  706.875
386.370;  -12.162;   -9.555;  681.968
386.964;  -12.193;   -8.715;  684.155
387.558;   -9.836;   -6.174;  598.360
388.152;  -13.465;   -8.725;  681.959
388.745;  -11.865;   -7.965;  814.707
389.339;  -10.051;   -5.924;  747.642
389.933;   -8.996;   -5.524;  695.370
390.527;   -9.878;   -7.114;  859.029
391.120;  -16.859;  -10.725;  595.318
391.714;  -12.856;   -8.035;  711.633
392.308;  -10.782;   -3.574;  780.253
392.901;  -13.498;   -7.245;  642.460
393.495;  -15.587;   -9.285;  595.414
394.089;  -13.839;   -5.895;  760.452
394.682;  -13.847;   -4.295;  697.188
395.275;  -15.163;   -9.875;  719.927
395.869;  -15.724;   -8.485;  667.314
396.462;  -14.555;   -7.455;  616.609
397.056;  -10.802;   -5.424;  776.621
397.649;  -15.193;   -6.605;  731.575
398.242;  -12.893;   -8.224;  712.645
398.836;  -11.893;   -7.474;  766.408
399.429;  -13.002;   -7.094;  631.041
400.022;  -16.020;   -9.475;  665.902
400.615;  -13.950;   -7.145;  805.609
401.208;  -12.642;   -7.174;  691.451
401.802;  -14.450;   -5.515;  699.329
402.395;  -15.806;   -9.875;  683.502
402.988;  -16.573;   -8.845;  696.627
403.581;  -13.133;   -8.874;  646.878
404.174;  -10.303;   -5.324;  686.568
404.767;  -14.724;   -9.575;  638.583
405.360;  -16.904;  -10.965;  621.445
405.953;  -10.778;   -8.764;  759.034
406.545;  -10.693;   -7.514;  725.342
407.138;  -15.456;  -10.025;  618.350
407.731;  -13.333;  -10.034;  613.303
408.324;   -9.985;   -9.374;  660.554
408.917;   -9.855;   -6.534;  681.864
409.509;  -12.815;   -8.004;  740.396
410.102;  -14.312;   -9.875;  643.948
410.695;   -8.647;   -8.604;  665.758
411.287;   -9.344;   -6.794;  599.821
411.880;  -10.546;   -9.334;  585.421
412.472;  -13.375;  -10.254;  613.092
413.065;  -10.559;   -6.714;  629.408
413.657;   -9.098;   -7.234;  576.678
414.250;   -8.888;  -10.544;  646.681
414.842;  -10.927;   -9.744;  676.353
415.434;   -8.463;   -6.994;  570.463
416.027;   -4.474;   -5.893;  652.196
416.619;   -6.850;   -7.264;  713.400
417.211;   -6.718;  -10.374;  599.352
417.804;   -3.464;   -7.993;  628.499
418.396;   -6.873;   -7.234;  607.643
418.988;   -4.670;   -9.443;  659.238
419.580;   -8.569;  -10.724;  568.276
420.172;   -6.997;  -10.323;  536.196
420.764;   -1.690;   -8.793;  672.482
421.356;   -2.990;  -11.143;  636.898
421.948;   -4.297;   -8.293;  677.661
422.540;    0.739;   -7.893;  680.027
423.132;    0.176;   -7.082;  600.641
423.724;   -2.707;   -8.653;  561.267
424.316;   -1.222;  -10.213;  621.345
424.908;    2.366;   -9.762;  591.517
425.500;    2.666;   -5.572;  647.978
426.092;    3.848;   -8.422;  648.268
426.683;    1.734;   -9.283;  684.836
427.275;    5.317;   -7.852;  641.471
427.867;    7.204;   -5.272;  668.948
428.458;    7.753;   -7.682;  732.344
429.050;    5.322;  -10.612;  680.749
429.642;    8.064;   -9.882;  743.124
430.233;    8.616;   -6.962;  569.356
430.825;    9.736;   -6.842;  724.809
431.416;    6.922;   -9.672;  698.241
432.008;   10.970;   -6.552;  651.723
432.599;   11.108;   -6.891;  656.073
433.190;    8.676;  -10.912;  637.670
433.782;    7.568;  -11.172;  590.395
434.373;   14.945;   -6.061;  884.765
434.964;   13.612;   -8.251;  602.920
435.556;   11.624;   -9.722;  634.537
436.147;   14.535;   -9.082;  758.490
436.738;   14.596;   -8.041;  701.099
437.329;   19.731;   -7.341;  721.723
437.920;   12.224;   -8.162;  666.688
438.511;   12.252;  -11.802;  564.526
439.103;   18.988;  -10.191;  623.998
439.694;   21.244;   -7.601;  681.583
440.285;   21.905;   -8.541;  764.432
440.876;   19.503;   -9.751;  845.738
441.466;   19.631;   -9.401;  575.162
442.057;   23.924;   -7.760;  665.814
442.648;   22.885;   -9.971;  746.255
443.239;   21.157;  -11.001;  620.477
443.830;   26.670;   -7.990;  704.958
444.421;   28.553;   -7.910;  655.474
445.011;   24.739;   -8.131;  693.619
445.602;   24.927;   -7.111;  743.126
446.193;   26.460;  -10.920;  488.117
446.783;   31.149;   -6.500;  640.397
447.374;   26.213;   -8.671;  692.759
447.964;   26.432;  -10.781;  713.770
448.555;   34.683;   -9.650;  822.742
449.145;   31.437;   -8.660;  662.853
449.736;   32.164;   -8.990;  803.179
450.326;   32.384;   -9.500;  713.626
450.917;   37.801;   -8.680;  675.324
451.507;   36.371;   -7.520;  600.661
452.097;   36.846;   -8.590;  746.267
452.688;   38.125;  -11.340;  742.160
453.278;   37.430;  -10.100;  566.840
453.868;   42.142;   -6.019;  793.550
454.458;   40.311;   -9.440;  651.141
455.048;   40.086;  -10.560;  711.783
455.639;   42.034;  -11.799;  567.096
456.229;   45.174;   -6.899;  710.694
456.819;   46.810;   -7.389;  751.158
457.409;   46.718;  -11.119;  773.993
457.999;   49.919;   -9.289;  737.505
458.589;   50.155;   -6.139;  686.606
459.179;   50.516;   -8.729;  717.658
459.769;   48.004;   -9.789;  627.099
460.358;   53.122;  -10.259;  797.262
460.948;   53.260;   -7.299;  689.503
461.538;   54.208;  -10.289;  660.677
462.128;   52.969;  -11.269;  664.934
462.717;   59.008;   -9.368;  710.326
463.307;   61.664;   -7.908;  705.846
463.897;   57.735;   -9.599;  656.942
464.486;   57.115;   -9.769;  837.128
465.076;   62.440;   -8.048;  733.776
465.666;   65.404;   -9.358;  652.900
466.255;   62.737;   -7.919;  785.651
466.845;   62.499;  -11.689;  666.749
467.434;   65.505;   -7.818;  725.873
468.023;   66.546;   -7.678;  658.357
468.613;   63.435;  -10.939;  713.946
469.202;   67.980;  -10.118;  646.507
469.791;   72.356;   -9.108;  737.811
470.381;   73.856;   -6.058;  742.813
470.970;   74.000;  -10.428;  711.099
471.559;   73.211;  -10.268;  733.291
472.148;   76.043;   -8.448;  675.737
472.738;   78.092;   -6.917;  765.466
473.327;   77.941;  -11.978;  637.529
473.916;   78.538;  -11.888;  737.446
474.505;   83.106;   -9.437;  751.703
475.094;   85.054;   -6.747;  806.570
475.683;   84.765;   -9.367;  797.699
476.272;   84.578;  -12.637;  730.632
476.861;   88.430;  -10.027;  706.754
477.449;   95.438;   -8.716;  728.487
478.038;   89.015;   -9.577;  692.513
478.627;   90.354;   -9.718;  714.852
479.216;   97.056;   -8.947;  769.441
479.805;   99.691;   -6.256;  783.375
480.393;  100.169;   -7.937; 1008.945
480.982;   99.783;   -7.717;  874.501
481.571;  105.319;   -9.266;  858.333
482.159;  105.818;   -7.636;  705.386
482.748;  104.949;   -9.667;  821.385
483.336;  110.600;  -10.376;  858.209
483.925;  110.632;   -7.147;  774.373
484.513;  117.911;   -7.996;  758.962
485.102;  113.350;  -10.027;  810.965
485.690;  123.098;  -10.446; 1011.050
486.278;  124.472;   -8.446;  979.329
486.867;  125.075;   -6.356;  809.662
487.455;  126.447;   -9.136;  898.229
488.043;  127.846;  -10.646;  748.361
488.631;  137.415;   -7.456; 1005.079
489.220;  140.983;   -6.636;  908.626
489.808;  140.357;  -11.036;  741.415
490.396;  148.952;  -10.246;  914.645
490.984;  153.809;   -8.556;  830.161
491.572;  164.475;   -5.886;  940.315
492.160;  171.053;   -9.486;  919.081
492.748;  181.736;  -10.976;  884.341
493.336;  205.430;   -8.776; 1019.693
493.924;  232.541;   -5.465;  958.077
494.512;  259.363;   -9.986; 1066.638
495.100;  296.156;  -10.636; 1103.280
495.687;  349.437;  -10.885; 1206.373
496.275;  408.045;   -8.126; 1150.796
496.863;  477.720;  -10.586; 1281.171
497.451;  578.443;  -11.926; 1386.805
498.038;  709.698;  -10.885; 1556.729
498.626;  815.567;   -6.315; 1741.407
499.214;  953.988;   -7.326; 2016.609
499.801; 1148.517;  -11.906; 2220.633
500.389; 1393.550;  -10.466; 2312.494
500.976; 1702.708;   -5.236; 2744.849
501.564; 2095.136;   -8.936; 3148.565
502.151; 2451.647;  -13.176; 3515.999
502.738; 2914.523;  -10.646; 3971.274
503.326; 3306.808;   -9.525; 4403.796
503.913; 3681.667;  -10.856; 5161.749
504.500; 3998.463;  -11.586; 5986.420
505.088; 4467.585;  -10.336; 6381.201
505.675; 4965.819;   -6.355; 6925.547
506.262; 5576.582;   -9.046; 7619.060
506.849; 6283.600;  -10.416; 8733.969
507.436; 6738.841;  -10.305; 9790.121
508.023; 7272.582;   -5.496; 9985.472
508.610; 7523.289;   -7.856;10434.618
509.197; 8106.756;  -10.097;11198.435
509.784; 9451.550;  -10.886;12391.194
510.371;10362.782;   -9.315;13603.713
510.958;11139.900;   -9.936;14426.586
511.545;12010.348;   -9.326;15243.775
512.132;12840.725;  -10.075;15945.876
512.719;13423.810;   -7.796;16340.369
513.305;14227.493;  -10.606;18011.766
513.892;15072.875;  -11.486;19754.971
514.479;16546.678;   -9.126;20967.805
515.066;17950.600;   -6.026;22299.793
515.652;19002.805;   -8.466;22908.660
516.239;20034.740;  -10.886;23798.875
516.825;21064.613;  -11.496;25567.275
517.412;22172.943;   -5.796;28154.959
517.998;23050.740;  -10.506;28344.111
518.585;23020.918;  -10.076;27134.219
519.171;23167.674;   -8.315;27268.576
519.758;24368.277;   -8.596;28964.129
520.344;26230.283;   -8.466;30664.494
520.930;26522.691;  -11.006;32550.605
521.516;27983.641;  -10.495;35422.895
522.103;30360.473;   -5.526;38280.004
522.689;31272.096;   -8.746;37835.117
523.275;30955.006;  -11.376;37288.613
523.861;31373.895;  -11.156;37281.395
524.447;32164.604;   -8.135;37846.949
525.033;31498.311;   -7.896;38321.949
525.619;31511.781;  -12.476;38579.285
526.205;32408.480;   -9.516;40622.875
526.791;33194.793;   -6.926;42258.836
527.377;30995.324;   -8.346;42966.902
527.963;32858.348;   -8.717;42018.949
528.549;34612.973;  -11.016;42476.828
529.135;35741.078;   -8.536;41854.852
529.721;36340.820;   -9.666;41237.711
530.306;36059.660;  -10.066;41259.445
530.892;36207.434;  -11.356;41506.047
531.478;37425.305;   -6.596;43559.613
532.063;39633.988;   -8.836;47695.563
532.649;39585.320;  -10.047;50808.324
533.235;40720.453;   -9.746;51787.500
533.820;42192.949;   -6.566;52145.035
534.406;42943.320;  -10.817;51133.488
534.991;42121.496;   -9.416;49996.805
535.576;40655.168;   -9.036;48882.852
536.162;40912.707;   -6.156;46942.285
536.747;41782.969;  -11.607;45711.746
537.333;44355.801;  -11.787;48510.180
537.918;46303.426;  -12.437;50439.891
538.503;43419.352;   -7.196;50863.711
539.088;38202.617;  -10.556;50906.922
539.673;36101.582;   -8.767;52621.965
540.259;36609.000;  -10.026;52368.094
540.844;37557.379;   -7.416;50879.109
541.429;41376.906;   -9.467;52077.777
542.014;46880.254;   -9.527;52716.695
542.599;47851.371;   -9.946;52363.281
543.184;45097.961;   -7.927;53187.137
543.769;46201.754;   -9.297;54697.605
544.354;45845.391;  -10.127;53913.914
544.938;44843.871;   -9.267;49680.164
545.523;46816.457;   -6.506;47386.277
546.108;49077.824;   -9.787;49151.949
546.693;51083.367;  -11.587;51384.637
547.278;51119.004;  -10.986;51853.254
547.862;47604.801;   -8.206;51173.750
548.447;42851.066;  -10.067;51691.395
549.031;42452.766;   -9.637;52456.703
549.616;47051.133;   -9.926;52714.516
550.201;46027.512;   -6.347;52414.598
550.785;46684.988;   -7.917;52355.059
551.370;46254.035;  -10.867;54589.453
551.954;46586.141;   -9.047;58267.348
552.538;47954.410;   -7.827;59062.176
553.123;46306.410;  -10.287;58115.285
553.707;43926.414;  -12.178;56556.285
554.291;44735.070;   -8.717;56201.668
554.876;46576.594;   -7.457;55335.762
555.460;47206.043;  -10.387;54155.703
556.044;48813.801;   -9.618;53721.484
556.628;46915.391;  -11.567;53731.016
557.212;45309.082;   -8.097;54312.531
557.796;43279.051;  -11.077;53797.773
558.380;43558.238;  -11.108;56145.984
558.964;45035.160;   -9.057;57277.930
559.548;45918.441;   -6.977;56459.641
560.132;43777.016;  -11.457;54434.543
560.716;42646.965;  -11.378;54800.617
561.300;43424.207;   -9.577;57606.945
561.884;44677.945;   -7.127;58972.445
562.467;43633.117;   -7.118;57327.570
563.051;42661.844;  -13.358;54962.434
563.635;42614.867;  -10.178;52594.473
564.219;43354.445;   -7.837;50610.410
564.802;44478.824;  -11.398;49551.180
565.386;44599.508;  -12.788;48370.953
565.969;44025.383;   -9.077;48178.871
566.553;43262.020;   -6.207;49957.305
567.136;43467.246;   -8.568;50369.594
567.720;39644.863;  -11.868;49492.004
568.303;38208.836;   -8.268;50616.352
568.887;38144.590;   -8.698;50727.148
569.470;38164.738;   -6.808;51698.379
570.053;37117.723;  -13.188;52122.078
570.637;35857.660;  -12.037;52536.438
571.220;35318.418;   -8.577;51186.098
571.803;35131.598;   -8.498;51032.762
572.386;36976.508;  -10.498;49609.887
572.969;39775.418;   -9.388;48285.926
573.552;38711.434;   -8.338;47624.285
574.135;37671.426;   -8.518;45498.641
574.718;34993.418;  -13.628;41970.434
575.301;33708.043;  -10.893;41447.137
575.884;32422.670;   -8.158;40923.836
576.467;33517.742;  -10.328;45267.723
577.050;35989.883;  -13.058;48175.543
577.633;37697.172;   -9.458;47729.328
578.216;36572.832;   -8.928;47579.793
578.799;35400.797;   -9.358;47820.996
579.381;33748.141;  -11.388;48115.551
579.964;32152.293;  -11.718;47333.766
580.547;33539.691;   -8.588;46668.969
581.129;34499.727;   -8.859;44466.141
581.712;35051.492;  -10.729;44164.922
582.294;35860.168;  -11.118;46477.855
582.877;35995.242;   -5.218;48244.254
583.459;34082.145;   -8.679;47437.895
584.042;32383.441;  -10.709;46943.219
584.624;32966.309;  -11.669;46792.227
585.206;32610.096;   -8.218;46557.250
585.789;32701.887;  -10.569;45793.773
586.371;35358.922;  -11.859;43836.391
586.953;36094.961;  -10.719;42972.492
587.536;37301.305;   -7.198;42487.211
588.118;37157.910;   -8.720;42086.414
588.700;33229.977;  -10.439;43389.930
589.282;32336.959;   -9.198;43646.039
589.864;33408.785;   -9.199;43438.109
590.446;34659.105;  -11.319;43151.926
591.028;34383.633;  -11.159;42781.867
591.610;33454.723;  -11.779;42839.098
592.192;30762.969;   -7.668;42820.402
592.774;29102.504;  -11.949;40724.277
593.356;27970.207;  -12.129;39874.789
593.937;27615.412;  -10.669;39980.648
594.519;29732.512;   -6.509;42069.633
595.101;31889.193;  -10.849;42976.031
595.683;32186.230;  -11.679;44084.441
596.264;33256.281;   -9.049;43478.797
596.846;31963.398;   -8.849;43803.672
597.427;31252.859;   -9.570;42986.934
598.009;33080.281;  -12.620;42832.219
598.591;33362.633;  -10.039;42580.086
599.172;32448.129;  -10.369;43061.805
599.753;32340.555;   -9.140;41691.469
600.335;34377.359;  -11.430;40692.520
600.916;33196.488;   -9.939;39982.422
601.498;30487.273;   -8.479;40318.617
602.079;29170.912;  -10.920;40670.609
602.660;29292.879;  -11.480;41450.898
603.241;30301.414;  -11.699;41137.738
603.823;29197.875;   -9.579;38868.797
604.404;29160.748;  -10.620;38182.785
604.985;30488.959;  -10.450;38078.047
605.566;29594.477;   -9.129;38056.633
606.147;29509.777;   -7.510;37020.418
606.728;31601.244;  -10.660;37883.359
607.309;30589.816;  -11.740;38748.273
607.890;29789.314;   -9.759;38850.230
608.471;29544.264;   -8.250;37457.918
609.051;28959.459;   -9.240;36066.457
609.632;28183.605;  -12.120;35991.074
610.213;29076.525;   -9.110;37402.641
610.794;29489.920;   -8.030;38383.363
611.374;28834.842;   -8.110;40562.387
611.955;29375.504;  -13.560;38533.727
612.536;31013.008;  -11.400;36951.789
613.116;30497.277;   -8.070;37197.891
613.697;30598.303;  -10.830;38411.125
614.277;29177.770;  -11.641;38673.938
614.858;30056.848;  -13.310;37075.863
615.438;29491.027;   -7.460;35092.906
616.019;26622.912;   -7.601;33666.301
616.599;27090.234;  -12.020;34189.023
617.179;29233.221;  -11.780;36952.047
617.760;30155.766;   -8.570;39582.574
618.340;31278.355;  -11.471;38943.977
618.920;32772.113;  -11.170;37594.156
619.500;32543.893;  -11.071;37866.938
620.080;31633.021;   -7.750;37869.043
620.660;32526.701;  -12.711;36868.617
621.241;33342.539;  -10.211;36352.309
621.821;33369.438;  -10.961;35459.520
622.401;32968.758;   -7.720;35207.414
622.980;32000.574;   -8.981;35980.422
623.560;30526.969;   -9.331;37351.328
624.140;29887.123;   -9.850;34388.582
624.720;25044.844;   -7.451;32368.764
625.300;21409.537;   -9.070;32638.629
625.880;24583.875;  -12.601;34599.035
626.459;28384.900;  -11.751;36831.738
627.039;31428.127;   -9.281;38299.098
627.619;31236.082;   -8.801;38289.574
628.198;29462.281;  -12.071;37220.695
628.778;28719.656;   -9.461;37632.563
629.357;29599.145;   -8.491;38003.012
629.937;29539.217;   -9.721;38402.039
630.516;29048.338;   -9.951;37868.801
631.096;28936.166;  -11.731;35760.410
631.675;31966.393;   -8.572;35225.219
632.254;37047.957;  -11.282;35130.289
632.834;36192.656;  -13.322;35794.570
633.413;34128.457;  -10.301;35788.922
633.992;31235.033;   -8.582;34532.863
634.571;32620.941;   -8.352;33590.113
635.151;35192.730;  -11.912;34943.863
635.730;33419.273;  -10.511;35352.523
636.309;30120.072;   -7.731;35366.605
636.888;27863.232;   -9.952;36165.637
637.467;28664.979;  -11.672;37515.902
638.046;30716.244;   -8.901;39288.695
638.625;33903.590;   -7.912;38279.699
639.204;33562.621;  -10.022;37741.598
639.782;31486.363;  -12.252;38364.551
640.361;27842.682;  -10.041;36740.621
640.940;24954.398;  -11.161;34950.082
641.519;25348.736;   -9.701;34137.398
642.097;27815.840;  -11.271;35654.258
642.676;30650.568;   -8.651;35637.957
643.255;31827.625;   -8.711;36567.074
643.833;31097.516;   -9.581;37809.434
644.412;31558.955;  -13.711;37337.293
644.990;30769.809;  -11.811;37018.531
645.569;30634.523;   -9.411;36518.469
646.147;29700.266;  -10.291;36186.430
646.726;28868.428;  -12.401;36267.688
647.304;30169.986;  -10.411;36647.625
647.882;32137.641;   -9.651;39286.742
648.461;33485.645;   -9.631;39157.703
649.039;31878.904;  -11.881;35412.883
649.617;31032.324;   -9.661;34744.918
650.195;30942.723;   -9.301;35403.098
650.773;29980.277;  -10.511;35053.797
651.352;27561.490;  -11.521;33756.816
651.930;25368.650;  -12.211;31868.773
652.508;23721.311;   -9.171;33121.551
653.086;27519.809;   -9.371;33564.793
653.663;30591.313;  -13.161;34054.668
654.241;29398.430;  -13.031;35693.309
654.819;31065.270;   -9.371;36422.906
655.397;30951.199;  -10.511;38213.484
655.975;30714.701;  -10.371;39507.625
656.553;30856.818;  -10.051;39498.223
657.130;29042.285;  -10.061;40395.480
657.708;28358.443;   -9.561;39242.020
658.286;28266.930;  -11.511;38920.020
658.863;29435.523;  -10.261;40202.898
659.441;32172.598;   -7.531;39677.938
660.018;31260.076;   -9.501;40413.355
660.596;30161.311;  -13.301;39931.414
661.173;32136.975;  -11.211;39604.531
661.750;32284.357;   -9.951;39700.070
662.328;31555.488;   -9.390;39292.809
662.905;30881.666;  -11.330;38235.648
663.482;26438.236;   -9.050;36212.305
664.060;24531.588;   -8.240;35944.945
664.637;27309.953;  -10.050;35170.785
665.214;29388.459;  -11.760;34197.523
665.791;31169.186;  -10.530;34549.520
666.368;29457.143;   -9.690;35118.578
666.945;29960.682;   -9.320;36019.418
667.522;31724.668;  -11.860;36048.438
668.099;32200.895;  -10.770;36243.914
668.676;31512.750;   -6.260;35958.875
669.253;29682.688;   -7.000;37384.730
669.830;29918.395;  -10.190;36779.629
670.407;29511.125;   -9.550;35231.289
670.984;29741.959;   -9.260;35544.270
671.560;29806.570;   -9.280;35466.867
672.137;28465.143;  -11.810;34280.863
672.714;29231.395;  -11.490;34632.863
673.290;29403.771;   -7.740;35135.422
673.867;29822.789;  -10.660;36114.480
674.443;30180.342;  -12.230;36152.859
675.020;28473.840;  -10.450;35327.238
675.596;29594.516;   -9.260;35795.176
676.173;30102.279;  -10.780;35430.355
676.749;29878.803;  -13.690;33549.516
677.326;30275.084;  -11.980;32210.012
677.902;30518.201;   -8.630;32068.871
678.478;29662.525;  -10.730;32583.891
679.054;29433.166;  -10.520;32088.928
679.631;30209.305;  -11.920;30978.848
680.207;30930.020;   -7.490;33160.887
680.783;32070.557;   -9.860;35570.363
681.359;31256.539;  -13.380;36125.184
681.935;30489.307;  -12.480;35240.922
682.511;29415.602;   -7.900;34429.961
683.087;29464.535;   -7.710;34463.680
683.663;29509.516;  -11.480;34648.898
684.239;28599.688;  -14.090;34546.457
684.815;28021.006;   -7.560;35586.375
685.390;28560.801;   -9.910;35821.895
685.966;29003.330;  -11.159;35085.871
686.542;31596.373;  -11.169;34198.230
687.118;33707.914;   -5.959;32847.707
687.693;33788.895;  -10.329;32794.027
688.269;32846.023;  -12.059;33072.367
688.844;30404.215;  -10.909;33141.664
689.420;28138.424;   -8.019;33965.742
689.995;26011.855;   -8.399;34655.523
690.571;25091.549;  -10.949;33576.742
691.146;25752.127;   -9.619;32657.219
691.722;25096.039;   -8.999;32526.979
692.297;25166.281;  -11.589;33014.617
692.872;27183.441;  -11.739;34012.254
693.448;26584.494;  -11.059;34237.434
694.023;25914.670;  -10.139;34142.672
694.598;28225.213;   -9.029;34132.031
695.173;28268.027;  -13.319;34205.250
695.748;27519.799;  -10.169;32882.488
696.323;27147.291;   -8.339;32864.906
696.898;27164.828;   -8.169;33170.004
697.473;27150.943;  -12.309;32432.984
698.048;27006.320;  -10.989;31649.303
698.623;27428.203;   -9.329;30778.141
699.198;29538.771;   -9.849;31140.119
699.773;30325.906;  -12.329;31764.299
700.348;28751.197;  -10.389;31780.816
700.922;28872.008;   -9.269;32046.375
701.497;29269.010;   -9.329;32603.574
702.072;29317.102;  -10.789;34799.871
702.646;28418.877;  -10.839;35793.172
703.221;26353.416;   -9.099;35201.590
703.795;28177.889;  -10.939;34764.527
704.370;28675.277;  -12.859;34307.367
704.944;29251.648;  -11.559;33509.887
705.519;30493.533;   -7.939;31388.584
706.093;31454.609;  -10.499;31340.104
706.668;31379.568;  -11.289;32630.281
707.242;29997.994;  -11.509;32728.779
707.816;28584.744;   -9.639;32947.238
708.390;27351.697;  -11.429;33277.855
708.965;28486.648;  -11.869;33834.336
709.539;29282.629;  -11.689;33709.273
710.113;29643.014;  -10.478;33044.313
710.687;28661.432;  -10.228;31953.992
711.261;26355.324;  -13.698;30505.949
711.835;26057.625;  -13.378;30262.369
712.409;27113.699;   -9.698;31254.447
712.983;28778.551;  -11.898;32754.986
713.557;29526.367;  -15.138;34018.824
714.131;29311.852;  -14.098;34579.625
714.704;28738.246;   -9.958;33890.262
715.278;26441.900;  -10.028;33531.102
715.852;25708.541;  -11.148;33601.660
716.425;26414.932;   -9.068;33515.117
716.999;26875.609;  -10.038;33185.555
717.573;28014.457;   -9.798;33905.996
718.146;29267.660;  -12.378;35199.293
718.720;28718.412;  -11.918;35060.551
719.293;28113.309;   -8.088;34973.230
719.867;31018.988;  -10.888;36394.449
720.440;30849.477;  -11.938;36663.008
721.013;29373.021;  -12.818;35102.426
721.587;28106.836;  -10.298;33985.266
722.160;26417.678;  -10.048;33524.965
722.733;25377.889;  -12.108;32987.043
723.306;26051.285;  -10.818;33066.301
723.880;28152.398;   -8.908;33399.500
724.453;29899.543;   -9.878;33468.297
725.026;28882.803;  -11.188;33816.637
725.599;26356.695;  -11.678;32797.996
726.172;26900.434;   -9.618;33187.434
726.745;28363.760;   -8.258;35136.613
727.318;30027.141;  -12.978;35751.730
727.891;30483.289;  -12.148;35890.430
728.463;30196.016;   -8.968;34822.090
729.036;29198.150;  -10.188;32895.086
729.609;29539.418;  -11.788;31823.225
730.182;26131.021;  -11.788;31445.283
730.754;23712.615;  -10.268;32373.223
731.327;23872.688;   -9.998;33676.820
731.900;24001.586;  -12.228;33417.000
732.472;25422.389;  -13.848;31978.498
733.045;27541.100;   -8.698;30368.777
733.617;27394.934;  -10.607;30574.215
734.190;26686.537;  -11.507;31280.975
734.762;23593.316;  -13.647;31674.412
735.334;22124.469;   -9.767;31247.291
735.907;22861.211;   -9.897;29876.211
736.479;22609.793;  -11.637;29808.488
737.051;22246.699;   -9.567;30233.547
737.623;23833.418;   -8.187;31469.086
738.195;25074.762;  -11.187;31784.225
738.768;26658.002;  -12.337;32120.523
739.340;26305.484;  -12.227;32094.342
739.912;24973.768;  -11.057;31312.680
740.484;23954.340;  -10.207;31946.238
741.056;23088.945;  -10.047;32984.059
741.628;24861.336;  -13.627;33897.715
742.199;27253.506;   -7.177;33213.016
742.771;25581.096;  -10.797;31369.113
743.343;23058.854;  -11.997;31865.473
743.915;21776.754;  -12.867;32388.631
744.487;21955.842;   -7.617;31079.568
745.058;22163.744;   -9.557;30570.107
745.630;22769.127;   -9.877;29970.127
746.201;23622.926;  -14.177;29186.766
746.773;23913.693;   -9.237;28805.723
747.344;23884.879;   -9.847;29591.223
747.916;22674.117;  -11.657;31412.201
748.487;22654.943;  -10.587;32194.898
749.059;23987.688;   -8.707;32533.719
749.630;25150.463;  -10.537;32158.518
750.201;24194.186;  -11.687;30855.395
750.773;22284.176;  -11.647;28622.555
751.344;22227.746;   -7.147;28405.732
751.915;23143.070;   -9.757;28461.551
752.486;22206.012;  -12.427;27842.850
753.057;19993.945;  -12.227;27845.008
753.628;19013.715;  -10.417;27728.107
754.199;20322.660;  -11.767;27381.086
754.770;21484.127;  -11.187;25882.203
755.341;21379.666;  -10.507;25886.184
755.912;21608.252;   -9.387;26050.861
756.483;21015.510;  -10.647;26798.779
757.054;19098.432;  -11.837;27048.238
757.625;17860.330;  -12.716;26294.838
758.195;17641.066;   -9.666;26142.076
758.766;17305.160;   -8.656;26392.234
759.337;18270.256;  -12.856;26334.594
759.907;20263.367;  -13.366;27579.652
760.478;21086.467;   -8.576;28352.770
761.048;20341.389;  -10.526;27325.088
761.619;19521.773;  -11.116;26460.428
762.189;19509.363;  -12.136;26029.826
762.760;20553.330;   -9.456;26430.145
763.330;21683.082;   -7.136;26670.902
763.900;20996.875;  -11.786;26603.021
764.471;18219.475;  -11.546;25542.740
765.041;16911.203;   -8.096;24358.459
765.611;17168.412;   -8.876;23991.297
766.181;17766.738;  -12.196;24470.236
766.751;18506.123;  -11.636;24845.975
767.321;18268.281;  -10.156;24533.633
767.891;16273.669;  -11.766;24916.492
768.461;15708.263;  -14.936;24776.771
769.031;16130.811;  -12.356;24757.988
769.601;17816.947;   -7.526;24181.088
770.171;17913.928;  -10.766;23670.387
770.741;17214.791;  -13.176;22960.045
771.311;17471.924;  -10.616;22917.523
771.880;17736.447;   -9.576;23562.941
772.450;17114.129;  -10.336;24216.500
773.020;16995.705;  -13.516;24140.398
773.589;16602.125;  -13.466;24414.857
774.159;16146.020;   -8.686;23858.717
774.729;15823.450;   -9.476;22942.135
775.298;15356.124;  -13.666;22324.033
775.867;14900.593;  -11.716;21140.313
776.437;14785.542;   -9.906;20838.092
777.006;14422.475;  -12.166;20599.510
777.576;14452.540;  -12.356;20508.809
778.145;14783.375;  -11.646;20732.947
778.714;14682.919;   -8.226;21062.465
779.283;13856.023;   -9.556;20949.664
779.853;13525.493;  -14.116;20508.623
780.422;14039.989;  -11.506;20649.082
780.991;13543.922;   -9.556;21527.520
781.560;12456.134;   -9.095;22632.658
782.129;12277.436;  -12.135;23048.277
782.698;12285.633;  -10.865;23438.555
783.267;11958.592;   -9.335;23267.734
783.836;11858.354;  -11.045;22415.133
784.404;12723.434;  -13.865;20443.152
784.973;13078.896;  -13.095;19699.150
785.542;12978.628;  -11.575;19763.828
786.111;12935.000;   -9.705;20341.408
786.679;12563.999;  -12.105;20207.967
787.248;12324.582;  -12.455;19516.465
787.817;12006.713;  -11.535;18900.363
788.385;11497.570;   -9.765;17879.121
788.954;10885.126;  -14.005;17658.301
789.522;10506.584;  -11.955;17788.879
790.090;11132.126;  -10.135;18118.277
790.659;11481.578;  -10.975;18338.736
791.227;10860.479;  -13.375;18508.615
791.795;11369.766;  -12.375;17898.254
792.364;11751.394;  -10.725;17295.133
792.932;11961.617;   -9.715;16822.051
793.500;12117.318;  -12.675;17040.148
794.068;12386.571;  -13.495;17179.787
794.636;12526.952;  -10.885;16664.246
795.204;12046.096;  -11.045;16524.545
795.772;12063.508;  -13.175;17274.564
796.340;11547.716;  -12.445;17891.002
796.908;11371.803;   -9.735;17648.561
797.476;11395.380;   -9.815;17064.080
798.044;11000.354;  -13.985;16672.777
798.612;10153.146;  -13.115;17023.996
799.180; 9816.107;  -10.185;16561.615
799.747; 9728.343;   -9.055;15962.773
800.315; 9408.814;  -12.385;15296.992
800.883; 9040.763;  -15.035;14801.771
801.450; 8993.901;  -10.365;14534.430
802.018; 9003.615;   -9.855;14173.248
802.585; 9011.442;  -11.905;14029.547
803.153; 9099.262;  -11.585;13836.846
803.720; 9135.016;   -9.095;13567.324
804.287; 8813.498;   -9.135;13360.622
804.855; 8332.858;  -11.604;13681.981
805.422; 8188.658;  -11.794;13536.560
805.989; 8168.691;  -10.734;13355.958
806.556; 8345.571;  -10.444;13747.896
807.124; 8657.004;  -12.764;13987.376
807.691; 8568.568;  -12.964;14038.674
808.258; 8340.192;  -11.134;14120.152
808.825; 8006.950;   -9.854;13860.111
809.392; 8086.831;  -10.504;13268.790
809.959; 7671.682;  -13.054;12680.389
810.526; 7268.425;   -8.294;12427.308
811.093; 7302.046;   -8.394;12030.105
811.659; 7863.559;  -12.304;11653.664
812.226; 8275.846;  -13.944;11637.183
812.793; 7918.907;  -10.484;11611.521
813.360; 7260.883;  -10.144;11885.181
813.926; 6842.358;  -11.684;12770.539
814.493; 6582.394;  -13.644;12677.638
815.060; 6241.293;   -9.724;11974.336
815.626; 6332.932;   -9.854;11594.715
816.193; 6786.238;  -13.254;11579.474
816.759; 6832.563;  -13.204;11666.972
817.325; 6965.784;   -9.434;11325.530
817.892; 7354.771;  -10.134;11105.369
818.458; 7753.989;  -13.474;10843.928
819.024; 7385.099;  -11.854;10714.406
819.591; 7044.994;  -10.244;10469.165
820.157; 6763.871;  -10.704;10235.523
820.723; 6234.058;  -12.324;10847.563
821.289; 5981.592;   -9.444;11040.980
821.855; 5923.182;   -8.374;10357.100
822.421; 5947.932;  -10.234; 9978.918
822.987; 5898.384;  -13.294; 9754.177
823.553; 5575.533;  -10.884;10065.755
824.119; 5403.417;   -8.884;10036.294
824.685; 5477.701;   -6.784;10029.192
825.251; 5546.472;  -12.004;10199.230
825.816; 5505.282;  -11.474; 9820.189
826.382; 5333.913;   -9.174; 9297.248
826.948; 5580.944;   -9.214; 9381.347
827.513; 5965.770;  -10.774; 9450.726
828.079; 5731.449;  -11.924; 9472.444
828.645; 5161.053;  -10.543; 9292.643
829.210; 5111.643;  -10.533; 9065.341
829.776; 5079.065;  -10.753; 9132.620
830.341; 4922.769;  -10.173; 9092.878
830.906; 5090.414;  -10.743; 9078.557
831.472; 5459.662;  -11.113; 8534.535
832.037; 5222.070;  -10.603; 8677.874
832.602; 4643.671;  -13.323; 8628.692
833.167; 4311.655;  -10.823; 8879.031
833.733; 4251.051;  -10.113; 9189.790
834.298; 4358.188;  -13.583; 9052.608
834.863; 4368.807;  -12.703; 8895.087
835.428; 4330.246;  -10.523; 8824.266
835.993; 4240.888;   -6.963; 8845.385
836.558; 4133.985;  -10.763; 8888.563
837.123; 4282.273;   -9.903; 8966.582
837.688; 4481.904;   -9.913; 8617.860
838.253; 4668.660;  -10.283; 8590.699
838.817; 4868.619;  -12.963; 8443.797
839.382; 4800.477;  -14.243; 8799.356
839.947; 4502.433;  -10.733; 8810.595
840.511; 4206.887;   -9.383; 8796.394
841.076; 3854.700;  -12.563; 8347.231
841.641; 3897.080;  -12.953; 8224.330
842.205; 3955.197;   -7.043; 8223.349
842.770; 4071.752;   -8.163; 8622.107
843.334; 4322.320;  -12.503; 8410.386
843.898; 4320.589;  -11.693; 8337.465
844.463; 4345.167;  -10.203; 8506.283
845.027; 4083.187;   -9.533; 8280.962
845.591; 3877.674;  -13.443; 8231.141
846.156; 3897.844;  -13.143; 7969.179
846.720; 3794.888;   -9.433; 7768.278
847.284; 3672.769;  -11.033; 7630.957
847.848; 3497.619;  -10.403; 7472.395
848.412; 3398.376;  -11.553; 7437.394
848.976; 3447.445;   -8.393; 7674.592
849.540; 3402.301;   -8.713; 7836.011
850.104; 3483.971;  -12.463; 7913.669
850.668; 3819.984;  -12.973; 7694.508
851.232; 3936.242;  -10.793; 7756.887
851.796; 3762.256;  -10.662; 7926.545
852.359; 3445.813;  -13.082; 7827.844
852.923; 3297.827;  -12.192; 7641.163
853.487; 3142.025;  -11.912; 7342.501
854.050; 3082.280;  -10.892; 7042.820
854.614; 3205.252;  -13.992; 7151.338
855.177; 3300.337;  -11.732; 7105.077
855.741; 3341.857;   -8.962; 6989.675
856.304; 3240.606;   -9.442; 6596.634
856.868; 3175.503;  -14.192; 6356.272
857.431; 3279.795;  -12.702; 6468.571
857.995; 3379.370;   -9.942; 6373.210
858.558; 3397.005;   -9.112; 6324.448
859.121; 3164.189;  -12.932; 6408.327
859.684; 3071.676;  -13.442; 6347.886
860.247; 3209.628;  -10.632; 6321.264
860.810; 3182.090;  -11.272; 6301.903
861.374; 2930.561;   -9.832; 6607.881
861.937; 2675.544;  -11.762; 6408.200
862.500; 2653.122;   -9.722; 6572.639
863.062; 2802.477;  -10.512; 6387.297
863.625; 2974.148;  -11.232; 6190.836
864.188; 3140.629;  -14.112; 5807.254
864.751; 3193.794;  -11.302; 5682.413
865.314; 3080.272;  -10.112; 5547.492
865.876; 2905.176;  -12.182; 5500.150
866.439; 2916.398;  -10.722; 5415.909
867.002; 2867.587;   -9.252; 5501.567
867.564; 2645.129;   -9.572; 5413.946
868.127; 2430.834;  -13.142; 5160.325
868.689; 2349.866;  -12.902; 5133.183
869.252; 2274.851;   -9.732; 5252.382
869.814; 2187.705;   -9.432; 5297.141
870.377; 2202.840;  -11.552; 5390.919
870.939; 2281.195;   -9.052; 5599.898
871.501; 2336.610;  -10.982; 5248.336
872.063; 2342.769;  -12.292; 4854.235
872.626; 2308.407;  -14.912; 4817.074
873.188; 2315.032;  -13.112; 4987.732
873.750; 2275.177;  -13.442; 4868.651
874.312; 2185.683;   -9.402; 4779.330
874.874; 2100.462;  -11.062; 4866.348
875.436; 2016.995;  -13.931; 4718.887
875.998; 2013.055;   -9.561; 4660.005
876.560; 2025.397;  -11.321; 4462.964
877.122; 1962.268;  -12.221; 4145.042
877.683; 1865.145;  -12.191; 4056.481
878.245; 1801.468;  -12.101; 3950.740
878.807; 1881.043;   -8.971; 4058.958
879.369; 2003.600;  -12.071; 3954.677
879.930; 2013.182;  -14.621; 3941.495
880.492; 1955.859;  -10.311; 4067.014
881.053; 1753.037;  -10.901; 3859.633
881.615; 1340.217;  -14.411; 3776.071
882.176;  992.005;  -13.761; 3734.750
882.738;  832.363;   -9.181; 3678.489
883.299;  820.170;  -11.791; 3405.407
883.860;  878.634;  -13.121; 3351.106
884.422;  944.427;  -11.211; 3394.044
884.983;  969.873;  -10.091; 3166.443
885.544;  950.388;   -8.461; 3189.802
886.105;  926.248;  -12.361; 3160.360
886.666;  902.943;  -14.141; 3093.059
887.227;  874.468;  -11.361; 2941.957
887.788;  833.155;  -11.401; 2974.836
888.349;  792.895;  -13.791; 2721.214
888.910;  803.253;  -13.191; 2696.493
889.471;  818.112;   -9.881; 2560.172
890.032;  809.393;   -9.881; 2558.190
890.593;  791.737;  -10.371; 2567.669
891.153;  770.406;  -13.301; 2460.307
891.714;  727.213;  -11.431; 2372.046
892.275;  691.595;  -11.291; 2309.505
892.835;  655.790;  -11.471; 2382.543
893.396;  602.412;  -11.541; 2295.502
893.956;  548.961;  -11.181; 2162.420
894.517;  515.939;  -11.741; 2125.439
895.077;  512.356;  -11.671; 2086.978
895.638;  513.513;  -11.311; 2126.316
896.198;  485.640;   -9.831; 1838.275
896.758;  444.660;   -8.421; 1892.813
897.319;  413.258;  -12.351; 1792.232
897.879;  395.448;  -13.511; 1762.751
898.439;  370.147;  -12.001; 1661.149
898.999;  346.397;  -10.180; 1781.468
899.559;  339.072;  -12.030; 1703.347
900.119;  335.115;  -15.710; 1537.525
900.679;  330.449;   -8.900; 1638.384
901.239;  318.545;   -8.340; 1527.902
901.799;  308.574;  -13.910; 1456.441
902.359;  302.442;  -13.460; 1357.140
902.919;  294.945;  -11.490; 1331.118
903.479;  282.606;  -12.110; 1317.257
904.038;  261.401;  -11.720; 1262.595
904.598;  245.178;  -13.610; 1152.034
905.158;  241.049;  -11.040; 1240.893
905.717;  233.110;  -10.900; 1233.691
906.277;  222.920;  -15.080; 1217.330
906.836;  213.546;  -13.380; 1222.408
907.396;  205.786;  -10.780; 1193.047
907.955;  200.566;   -8.500; 1182.526
908.515;  194.470;  -12.760; 1099.364
909.074;  188.612;  -11.900; 1092.863
909.633;  181.699;   -8.950; 1069.121
910.192;  177.403;   -8.770; 1196.460
910.752;  171.620;  -12.390; 1029.960
911.311;  166.654;  -13.680; 1009.780
911.870;  161.605;  -12.370;  971.460
912.429;  160.477;  -10.900; 1094.080
912.988;  158.157;  -11.690; 1081.060
913.547;  153.940;  -13.240;  940.380
914.106;  150.446;  -11.990;  999.420
914.665;  148.836;   -9.990;  984.020
915.224;  148.717;  -12.880; 1035.760
915.782;  148.931;  -12.350;  922.560
916.341;  147.480;   -9.110; 1049.840
916.900;  144.918;   -9.270;  925.260
917.458;  143.362;  -13.240;  884.220
918.017;  143.323;  -13.550;  942.600
918.576;  142.584;  -12.320;  904.440
919.134;  139.895;  -11.490;  837.980
919.693;  138.309;  -13.670;  893.060
920.251;  137.689;  -15.470;  876.500
920.809;  136.027;  -11.290;  839.580
921.368;  136.399;  -10.210;  885.360
921.926;  134.656;  -12.140;  842.940
922.484;  134.414;  -13.080;  903.360
923.042;  133.090;  -11.720;  880.340
923.601;  136.158;   -7.480;  998.680
924.159;  134.426;  -11.570;  935.560
924.717;  130.979;  -13.840;  841.080
925.275;  130.981;  -10.640;  903.240
925.833;  131.299;  -11.540;  779.320
926.391;  132.659;  -12.960;  938.380
926.949;  129.593;  -14.130;  857.680
927.506;  130.419;  -11.750;  903.500
928.064;  130.477;  -10.250;  877.580
928.622;  129.632;  -13.030;  880.100
929.180;  128.809;  -13.400;  814.180
929.737;  130.127;  -10.700;  808.540
930.295;  133.615;  -10.070;  928.480
930.853;  135.636;  -11.960;  849.100
931.410;  136.031;  -13.120;  821.120
931.968;  135.374;  -10.770;  940.660
932.525;  134.631;  -10.680;  909.380
933.082;  135.682;  -13.130;  811.440
933.640;  136.186;  -13.210;  925.900
934.197;  134.151;  -11.060;  886.360
934.754;  135.907;   -9.580;  897.780
935.312;  138.379;  -14.000;  863.340
935.869;  142.530;  -10.710; 1012.980
936.426;  142.578;   -9.860;  872.800
936.983;  143.077;   -9.710;  889.020
937.540;  143.385;  -13.990;  838.280
938.097;  142.045;  -14.040;  940.120
938.654;  142.082;  -10.310;  898.860
939.211;  145.068;  -10.560;  952.480
939.768;  147.728;  -13.900;  915.420
940.324;  152.204;  -14.760;  904.200
940.881;  152.005;  -10.370;  878.500
941.438;  153.274;   -8.260; 1021.200
941.995;  149.710;  -12.540;  992.560
942.551;  146.339;  -14.670;  875.620
943.108;  146.411;  -10.450;  937.920
943.664;  149.422;  -10.750;  869.340
944.221;  152.385;  -11.550; 1088.140
944.777;  150.797;  -14.770;  869.680
945.334;  152.027;  -12.820;  884.840
945.890;  154.324;  -10.130;  946.480
946.446;  154.814;  -13.470;  947.020
947.003;  155.619;  -12.120;  964.940
947.559;  157.167;   -9.980; 1063.040
948.115;  156.869;   -9.080; 1026.540
948.671;  154.501;  -10.830;  967.300
949.227;  151.460;  -12.440;  859.560
949.783;  148.771;  -12.910;  858.900
950.339;  150.337;  -10.270;  991.000
950.895;  150.869;  -13.630; 1023.840
951.451;  151.173;  -15.100;  925.280
952.007;  152.285;  -11.330;  998.540
952.563;  153.546;  -10.580;  937.780
953.118;  153.343;  -13.440;  904.940
953.674;  151.638;  -12.710;  935.780
954.230;  150.964;  -10.350;  949.640
954.785;  148.580;   -9.190;  936.640
955.341;  145.795;  -11.200;  998.160
955.897;  144.582;  -16.560;  834.660
956.452;  145.486;  -12.570;  953.840
957.008;  143.986;   -7.970; 1083.640
957.563;  142.483;  -11.940; 1009.540
958.118;  138.131;  -13.450;  877.700
958.674;  138.413;  -12.030;  946.780
959.229;  139.624;   -9.410; 1013.980
959.784;  137.533;  -12.000;  832.400
960.339;  135.597;  -14.780; 1001.280
960.894;  132.026;   -9.860;  963.760
961.449;  128.171;   -9.970;  859.960
962.004;  128.180;  -10.900; 1212.840
962.559;  123.786;  -13.150;  860.140
963.114;  121.535;  -13.740;  742.480
963.669;  120.902;   -9.820;  915.500
964.224;  119.992;  -13.890;  874.340
964.779;  118.535;  -12.600;  828.420
965.334;  120.160;  -10.950; 1017.860
965.888;  120.215;  -11.170;  875.360
966.443;  121.418;  -12.540;  972.380
966.998;  120.767;  -15.780;  819.460
967.552;  119.853;   -9.760;  908.380
968.107;  116.094;   -9.060;  868.300
968.661;  117.822;  -11.950;  922.440
969.216;  117.185;  -12.800;  856.280
969.770;  118.697;  -11.210;  917.200
970.324;  117.719;  -11.610;  923.140
970.879;  114.101;  -11.370;  947.180
971.433;  111.123;  -12.540;  952.720
971.987;  105.282;  -11.320;  895.340
972.541;  102.728;  -10.720;  917.100
973.095;  103.118;   -9.680; 1009.460
973.649;  101.734;  -11.440;  809.480
974.203;  100.161;  -11.210;  829.040
974.757;  100.400;  -10.240;  855.220
975.311;  101.458;  -13.720;  872.600
975.865;  100.532;  -13.770;  881.820
976.419;   98.106;  -11.690;  857.400
976.973;   98.478;   -9.510;  849.620
977.526;  100.730;  -12.620;  949.920
978.080;  100.231;  -12.010;  796.780
978.634;  100.797;  -10.170;  921.320
979.187;   98.377;   -9.020;  905.400
979.741;   95.304;   -9.820; 1018.380
980.294;   91.406;  -14.870;  789.160
980.848;   89.213;  -12.380;  717.220
981.401;   91.346;  -10.350;  816.540
981.955;   92.975;  -13.720;  844.300
982.508;   91.631;  -11.490;  746.340
983.061;   91.490;  -10.000;  915.260
983.615;   88.066;  -11.480;  798.800
984.168;   86.133;  -13.220;  770.080
984.721;   84.657;  -13.960;  880.760
985.274;   83.579;  -10.870;  867.500
985.827;   82.736;   -9.790;  834.220
986.380;   80.151;  -13.120;  721.340
986.933;   80.690;  -12.450;  864.800
987.486;   77.310;  -10.210;  861.920
988.039;   76.599;   -8.430;  863.100
988.591;   74.936;  -10.520;  893.260
989.144;   72.894;  -14.860;  737.260
989.697;   71.228;  -13.080;  758.740
990.250;   72.143;  -10.150;  858.100
990.802;   71.953;  -13.430;  755.860
991.355;   72.109;  -12.750;  974.880
991.907;   70.047;  -12.040;  864.320
992.460;   67.985;  -11.330;  753.760
993.012;   66.568;  -13.610;  749.540
993.565;   65.812;  -13.460;  711.360
994.117;   66.939;   -9.360;  950.780
994.669;   63.386;  -11.300;  701.320
995.221;   61.532;  -13.540;  791.920
995.774;   59.947;  -13.430;  787.580
996.326;   58.256;  -12.520;  740.220
996.878;   58.375;  -10.950;  838.420
997.430;   56.247;  -14.300;  699.860
997.982;   55.349;  -13.760;  750.140
998.534;   54.726;  -11.530;  739.060
999.086;   53.463;  -10.310;  738.220
999.638;   52.586;  -12.530;  661.380
1000.190;   51.838;  -11.840;  699.320
1000.741;   51.150;  -10.260;  742.700
1001.293;   50.978;   -8.860;  686.020
1001.845;   48.975;  -13.700;  676.640
1002.396;   49.789;  -12.100;  743.400
1002.948;   48.731;  -12.760;  737.400
1003.500;   47.287;  -10.380;  723.780
1004.051;   48.294;  -11.900;  907.580
1004.603;   46.446;  -12.250;  791.820
1005.154;   42.691;  -13.210;  608.980
1005.705;   42.581;  -10.950;  723.960
1006.257;   41.794;  -13.880;  707.220
1006.808;   40.986;  -12.840;  685.460
1007.359;   40.198;  -10.570;  763.240
1007.910;   38.822;   -9.620;  646.640
1008.461;   38.786;  -13.630;  732.940
1009.013;   37.427;  -17.200;  588.340
1009.564;   39.094;  -10.200;  793.520
1010.115;   37.169;  -12.570;  597.040
1010.665;   36.607;  -15.150;  602.160
1011.216;   36.922;  -14.480;  667.920
1011.767;   36.167;  -11.340;  697.920
1012.318;   36.528;   -9.780;  736.980
1012.869;   35.593;  -12.380;  679.000
1013.419;   34.776;  -15.560;  603.120
1013.970;   34.989;  -11.010;  666.640
1014.521;   34.627;  -11.610;  620.620
1015.071;   34.611;  -13.450;  670.380
1015.622;   34.324;  -13.870;  635.460
1016.172;   33.535;  -11.610;  596.820
1016.723;   32.853;  -12.120;  614.380
1017.273;   33.308;  -13.620;  604.160
1017.823;   33.335;  -14.140;  650.340
1018.374;   32.348;  -12.800;  611.760
1018.924;   32.987;  -12.340;  716.880
1019.474;   32.191;  -11.410;  718.880
1020.024;   31.900;  -14.770;  657.580
1020.574;   32.316;   -9.780;  726.160
1021.124;   32.223;   -8.560;  673.580
1021.674;   30.950;  -15.190;  559.120
1022.224;   32.775;  -13.530;  708.940
1022.774;   31.388;  -13.280;  668.820
1023.324;   31.912;  -10.690;  753.520
1023.874;   33.310;  -10.240;  875.760
1024.423;   30.699;  -12.540;  613.700
1024.973;   30.081;  -10.010;  610.760
1025.523;   30.203;  -10.550;  620.960
1026.072;   28.867;  -13.560;  606.420
1026.622;   29.694;  -15.120;  675.740
1027.172;   30.459;  -11.260;  715.660
1027.721;   28.467;  -11.410;  601.220
1028.270;   29.740;  -13.530;  663.400
1028.820;   29.714;  -13.680;  638.080
1029.369;   27.982;  -13.520;  612.700
1029.918;   28.636;  -10.980;  649.840
1030.468;   28.193;  -13.530;  564.780
1031.017;   28.847;  -13.170;  634.800
1031.566;   26.828;  -12.200;  608.900
1032.115;   28.002;   -9.960;  694.500
1032.664;   26.569;  -13.210;  596.480
1033.213;   28.036;  -12.500;  735.420
1033.762;   27.278;  -11.910;  635.620
1034.311;   27.097;   -9.640;  677.220
1034.860;   26.897;  -13.310;  691.000
1035.408;   27.900;  -11.830;  722.720
1035.957;   27.099;  -12.000;  719.540
1036.506;   24.895;  -11.690;  530.800
1037.055;   27.271;  -10.990;  844.320
1037.603;   25.993;  -15.120;  664.000
1038.152;   24.386;  -12.450;  534.760
1038.700;   24.937;  -10.560;  585.740
1039.249;   24.586;  -11.080;  681.220
1039.797;   25.578;  -12.540;  633.360
1040.345;   24.972;  -11.920;  705.420
1040.894;   24.561;  -11.410;  625.300
1041.442;   24.661;  -14.320;  632.200
1041.990;   23.558;  -16.240;  559.160
1042.538;   23.451;  -11.680;  536.180
1043.087;   23.769;  -10.760;  570.860
1043.635;   24.948;  -11.850;  670.500
1044.183;   23.657;  -15.480;  586.400
1044.731;   23.424;  -11.770;  576.000
1045.279;   22.648;  -13.090;  674.920
1045.827;   24.570;  -12.440;  892.400
1046.374;   22.426;  -13.840;  515.420
1046.922;   21.691;  -13.220;  590.580
1047.470;   23.114;  -10.230;  691.300
1048.018;   22.954;  -14.590;  647.960
1048.565;   23.026;  -12.050;  708.600
1049.113;   22.017;  -11.650;  557.000
1049.660;   22.340;  -10.510;  629.660
1050.208;   21.921;  -13.310;  675.640
1050.755;   20.504;  -15.900;  606.580
1051.303;   22.059;  -11.430;  686.820
1051.850;   21.160;   -8.480;  635.120
1052.397;   19.455;  -15.010;  473.960
1052.945;   20.767;  -13.960;  617.760
1053.492;   22.313;  -13.150;  741.840
1054.039;   21.776;   -9.630;  720.180
1054.586;   20.540;  -13.680;  557.240
1055.133;   21.328;  -14.570;  693.140
1055.680;   20.918;  -13.820;  646.620
1056.227;   19.874;  -11.730;  542.780
1056.774;   21.735;  -12.480;  794.980
1057.321;   19.334;  -13.930;  523.260
1057.868;   19.631;  -11.690;  651.320
1058.415;   19.398;   -9.520;  651.980
1058.961;   20.159;  -13.160;  678.940
1059.508;   19.990;  -12.920;  643.820
1060.055;   19.154;  -11.920;  581.780
1060.601;   19.149;  -11.500;  624.300
1061.148;   19.443;  -14.330;  616.820
1061.694;   18.842;  -16.870;  592.580
1062.241;   18.903;  -10.330;  596.320
1062.787;   18.903;  -10.620;  663.140
1063.334;   20.123;  -10.110;  808.560
1063.880;   18.689;  -13.400;  668.360
1064.426;   18.049;  -10.680;  706.820
1064.972;   17.082;   -9.920;  601.340
1065.518;   16.643;  -10.980;  566.640
1066.065;   18.373;  -14.890;  624.460
1066.611;   16.969;  -12.870;  598.800
1067.157;   17.813;  -12.950;  641.860
1067.703;   17.844;  -13.540;  668.480
1068.249;   17.528;  -13.540;  605.220
1068.794;   17.261;  -12.600;  626.880
1069.340;   15.734;  -10.620;  578.960
1069.886;   17.251;  -12.830;  590.700
1070.432;   16.205;  -14.870;  541.720
1070.977;   15.595;  -11.980;  601.080
1071.523;   16.205;   -8.200;  573.060
1072.068;   16.480;  -12.330;  582.000
1072.614;   16.728;  -16.370;  527.760
1073.160;   16.775;  -11.100;  687.040
1073.705;   15.028;  -10.480;  572.520
1074.250;   15.600;  -14.520;  559.900
1074.796;   16.444;  -11.460;  655.160
1075.341;   15.905;  -11.950;  664.100
1075.886;   16.426;  -11.460;  594.240
1076.431;   15.154;  -13.770;  649.880
1076.976;   14.947;  -12.680;  639.220
1077.521;   14.518;  -13.170;  583.080
1078.067;   14.162;  -10.860;  579.400
1078.612;   15.213;  -13.920;  661.620
1079.156;   14.744;  -13.880;  601.540
1079.701;   15.187;  -13.120;  693.260
1080.246;   15.321;   -9.940;  696.300
1080.791;   14.662;  -14.740;  625.020
1081.336;   15.558;  -13.750;  659.320
1081.880;   14.129;  -13.400;  649.680
1082.425;   13.450;  -12.220;  573.480
1082.970;   14.725;  -11.610;  717.040
1083.514;   13.656;  -13.580;  597.000
1084.059;   12.431;  -12.810;  586.720
1084.603;   13.115;  -12.320;  565.840
1085.147;   13.060;  -13.190;  645.220
1085.692;   14.262;  -12.480;  716.800
1086.236;   11.960;  -13.020;  503.140
1086.780;   14.365;   -9.190;  751.440
1087.325;   13.537;  -12.480;  654.620
1087.869;   13.208;  -12.450;  610.700
1088.413;   13.362;  -12.240;  705.040
1088.957;   11.620;   -9.020;  543.400
1089.501;   13.948;  -10.320;  766.640
1090.045;   12.604;  -12.720;  726.480
1090.589;   10.924;  -13.690;  569.920
1091.133;   11.960;  -10.020;  673.340
1091.676;   12.519;  -12.330;  591.940
1092.220;   12.070;  -14.970;  600.920
1092.764;   12.888;  -12.430;  706.960
1093.307;   12.615;   -9.800;  673.780
1093.851;   10.268;  -14.970;  556.540
1094.395;   12.442;  -15.310;  683.140
1094.938;   11.037;  -10.370;  632.520
1095.482;   11.221;  -11.050;  559.800
1096.025;   11.521;  -11.840;  710.880
1096.568;   12.662;  -12.840;  779.280
1097.112;    9.070;  -14.700;  508.180
1097.655;   11.167;   -8.720;  603.000
1098.198;   10.221;  -13.610;  600.180
1098.741;    9.823;  -13.350;  612.860
1099.285;   10.509;  -11.230;  657.300
1099.828;    8.500;  -11.840;  439.400
1100.371;   10.665;  -10.840;  608.160
1100.914;   10.471;  -14.190;  682.660
1101.457;    9.700;  -11.240;  679.900
1101.999;    8.582;  -11.270;  584.680
1102.542;   10.084;  -11.480;  641.440
1103.085;    9.578;  -11.750;  658.500
1103.628;   10.283;  -11.400;  762.060
1104.170;    9.494;  -10.490;  588.280
1104.713;   10.056;  -10.600;  646.700
1105.256;    9.126;  -14.360;  557.440
1105.798;    7.180;  -13.210;  499.980
1106.341;   10.130;  -10.270;  728.900
1106.883;    8.900;  -12.200;  521.340
1107.425;    9.129;  -13.110;  668.180
1107.968;    8.429;  -12.840;  612.380
1108.510;    9.307;   -6.480;  684.960
1109.052;    7.993;  -13.940;  612.620
1109.594;    7.804;  -13.690;  554.440
1110.136;    8.641;  -11.880;  643.220
1110.679;    7.799;   -9.500;  633.080
1111.221;    8.070;  -14.160;  604.460
1111.763;    7.677;  -13.980;  559.220
1112.304;    7.062;  -13.880;  547.140
1112.846;    8.154;  -12.210;  666.240
1113.388;   10.410;  -11.390;  942.180
1113.930;    7.995;  -14.540;  694.200
1114.472;    6.541;  -12.640;  606.540
1115.013;    5.342;  -11.620;  551.280
1115.555;    6.937;  -13.640;  587.100
1116.097;    6.054;  -15.380;  579.480
1116.638;    6.904;  -12.640;  684.600
1117.180;    7.193;   -9.850;  667.740
1117.721;    6.772;  -13.690;  568.580
1118.262;    7.324;  -12.680;  677.960
1118.804;    7.432;  -12.530;  637.340
1119.345;    6.021;  -11.690;  578.400
1119.886;    7.325;  -13.380;  704.040
1120.427;    5.895;  -14.070;  589.020
1120.969;    5.160;  -13.500;  597.920
1121.510;    5.015;  -11.480;  563.060
1122.051;    6.282;  -12.830;  723.580
1122.592;    5.408;  -14.290;  655.420
1123.133;    4.538;  -12.400;  547.940
1123.673;    6.634;  -10.130;  706.480
1124.214;    6.089;  -12.930;  612.460
1124.755;    6.792;  -14.380;  639.460
1125.296;    4.845;  -14.000;  627.320
1125.836;    5.909;  -10.070;  691.500
1126.377;    5.135;  -12.640;  599.660
1126.918;    5.328;  -12.960;  614.980
1127.458;    4.804;  -13.350;  622.220
1127.999;    5.637;  -10.750;  656.980
1128.539;    5.606;  -12.350;  694.240
1129.079;    5.340;  -14.860;  632.720
1129.620;    4.382;  -13.840;  558.100
1130.160;    4.140;  -12.330;  539.480
1130.700;    5.331;  -14.530;  640.840
1131.240;    5.429;  -12.530;  643.700
1131.781;    4.393;  -14.450;  619.680
1132.321;    4.701;   -9.790;  599.120
1132.861;    3.465;  -14.860;  564.200
1133.401;    3.352;  -14.290;  593.940
1133.941;    3.801;  -11.750;  626.280
1134.481;    3.074;   -9.920;  597.580
1135.020;    3.657;  -12.290;  609.160
1135.560;    4.514;  -11.650;  674.940
1136.100;    2.499;  -16.270;  501.160
1136.640;    2.588;  -10.890;  510.480
1137.179;    3.713;  -14.180;  537.960
1137.719;    3.560;  -16.250;  605.400
1138.258;    3.299;  -14.230;  587.360
1138.798;    3.347;   -9.090;  663.780
1139.337;    2.559;  -15.130;  482.840
1139.877;    3.734;  -13.680;  642.360
1140.416;    4.472;  -11.320;  878.060
1140.955;    2.654;  -10.860;  535.380
1141.494;    2.967;  -12.920;  669.280
1142.034;    2.118;  -13.930;  583.520
1142.573;    2.917;  -11.440;  646.280
1143.112;    1.957;  -12.000;  553.480
1143.651;    2.529;  -13.670;  536.480
1144.190;    3.468;  -12.730;  691.640
1144.729;    2.178;  -14.560;  607.420
1145.267;    2.779;  -11.830;  584.900
1145.806;    4.000;  -12.230;  637.040
1146.345;    1.965;  -14.130;  635.020
1146.884;    1.369;  -11.590;  622.500
1147.422;    1.325;  -12.550;  533.060
1147.961;    3.365;  -11.180;  708.460
1148.500;    2.791;  -11.510;  669.720
1149.038;    2.785;  -11.640;  632.500
1149.577;    2.297;  -10.130;  698.640
1150.115;    0.391;  -13.970;  452.280
1150.653;    1.754;  -14.520;  607.340
1151.192;    1.791;  -12.810;  552.920
1151.730;    1.769;   -9.100;  652.560
1152.268;    1.091;  -12.220;  589.520
1152.806;    1.151;  -14.140;  571.180
1153.344;   -0.241;  -12.350;  577.640
1153.882;    1.152;   -8.980;  600.060
1154.421;   -0.403;  -15.190;  470.620
1154.958;    0.260;  -15.210;  595.240
1155.496;    1.965;  -12.850;  645.280
1156.034;    0.939;   -9.940;  721.880
1156.572;    1.687;  -13.570;  667.060
1157.110;   -0.076;  -14.590;  473.940
1157.647;    0.714;  -13.030;  676.960
1158.185;   -0.253;  -12.140;  564.320
1158.723;   -0.438;  -14.390;  509.200
1159.260;    0.823;  -14.090;  701.700
1159.798;    0.846;  -11.920;  658.160
1160.335;   -0.256;  -11.110;  631.820

