gmr_right
Integration time [ms]: 3468.598
Averaging Nr. [scans]: 10
Smoothing Nr. [pixels]: 0
Data measured with spectrometer [name]: 7414430SP
Wave   ;Sample   ;Dark     ;Reference
[nm]   ;[counts] ;[counts] ;[counts] 

288.544; 5113.037; 4983.385;    6.613
289.143; 4215.549; 4054.288;   14.216
289.742; 5451.274; 5296.867;   11.816
290.341; 5225.183; 5071.188;   -4.936
290.940; 4774.975; 4633.392;    0.852
291.538; 5999.985; 5870.872;    1.792
292.137; 5340.089; 5171.827;    6.262
292.736; 6925.783; 6773.389;    8.164
293.335; 4899.545; 4733.773;   -6.418
293.934; 5262.672; 5105.711;   -2.904
294.532; 7418.624; 7282.726;   -5.162
295.131; 5882.750; 5726.518;  -10.283
295.730; 5693.326; 5546.961;  -16.141
296.328; 5500.174; 5353.235;  -14.740
296.927; 5454.246; 5314.389;   -8.768
297.525; 5443.399; 5271.474;  -15.255
298.124; 4439.004; 4280.530;  -22.063
298.722; 5313.318; 5165.127;  -14.796
299.321; 4890.389; 4751.758;  -10.466
299.919; 5258.684; 5105.331;  -10.979
300.518; 4813.777; 4674.793;  -12.077
301.116; 4810.089; 4680.521;  -13.509
301.715; 5105.671; 4971.916;  -11.939
302.313; 4945.293; 4778.250;  -15.424
302.911; 5234.748; 5092.749;  -19.833
303.509; 6842.193; 6712.962;   -3.567
304.108; 5410.769; 5252.457;   -9.553
304.706; 5786.545; 5641.515;   -8.582
305.304; 5860.503; 5735.520;  -12.348
305.902; 5585.221; 5445.572;  -14.411
306.500; 5224.488; 5061.710;   -7.194
307.098; 5407.561; 5250.898;   -9.322
307.696; 5715.606; 5572.651;  -19.192
308.294; 5287.136; 5156.146;   -9.736
308.892; 5539.894; 5383.022;  -15.482
309.490; 5085.683; 4946.583;  -14.107
310.088; 5819.452; 5709.054;  -15.862
310.686; 5999.291; 5862.354;  -10.781
311.284; 5649.907; 5498.425;  -14.878
311.882; 5231.877; 5091.407;   -9.948
312.480; 5040.646; 4933.328;  -15.503
313.078; 6072.227; 5942.025;  -17.262
313.675; 5002.888; 4875.110;   -3.694
314.273; 5971.096; 5857.348;  -18.246
314.871; 4144.474; 4039.000;  -15.190
315.468; 4755.948; 4617.749;  -12.633
316.066; 5067.287; 4944.624;   -5.765
316.664; 4786.970; 4640.783;  -14.317
317.261; 6934.279; 6802.427;   -8.677
317.859; 5831.625; 5734.268;  -11.804
318.456; 6328.034; 6212.525;   -3.107
319.054; 5966.401; 5840.912;   -3.062
319.651; 5679.055; 5547.735;   -6.706
320.249; 6237.455; 6109.685;   -5.206
320.846; 5351.159; 5266.352;   -4.679
321.443; 6471.105; 6334.103;   -7.920
322.041; 6321.728; 6195.737;  -14.105
322.638; 5379.680; 5261.052;   -6.263
323.235; 4975.693; 4863.250;   -7.424
323.833; 5674.362; 5567.545;  -14.765
324.430; 4567.534; 4435.237;  -10.550
325.027; 6829.587; 6712.098;   -9.951
325.624; 4734.799; 4616.812;   -3.712
326.221; 5075.895; 4968.497;   -9.368
326.818; 6244.563; 6091.093;   -5.637
327.415; 5490.778; 5355.476;   -6.699
328.012; 4996.630; 4863.679;   -5.713
328.609; 5302.500; 5162.610;   -9.983
329.206; 5802.946; 5645.363;   -7.154
329.803; 5359.019; 5211.901;   -1.682
330.400; 5024.951; 4900.641;   -2.741
330.997; 5956.720; 5817.924;   -4.339
331.594; 5780.056; 5646.983;  -10.278
332.191; 5123.644; 4995.754;   -6.967
332.787; 6150.439; 5969.677;   -0.480
333.384; 5391.474; 5257.662;  -10.333
333.981; 5923.634; 5771.552;  -19.900
334.578; 4926.439; 4783.916;  -19.816
335.174; 5116.414; 4998.339;  -15.844
335.771; 6077.153; 5919.491;  -12.670
336.367; 5061.244; 4916.472;  -21.124
336.964; 5798.201; 5640.552;  -18.226
337.561; 5250.772; 5090.344;  -13.311
338.157; 6810.706; 6657.257;  -19.006
338.754; 5853.526; 5671.309;  -19.418
339.350; 5205.153; 5050.082;  -29.433
339.946; 5551.687; 5393.192;  -16.622
340.543; 6262.665; 6090.361;  -16.744
341.139; 5239.356; 5095.704;  -21.841
341.735; 5779.054; 5610.534;  -25.012
342.332; 5052.508; 4912.607;  -19.156
342.928; 5899.336; 5749.129;  -20.443
343.524; 5695.777; 5588.802;  -14.397
344.120; 5521.300; 5379.784;  -20.654
344.716; 5241.690; 5094.014;   -5.730
345.313; 5966.839; 5839.472;  -10.929
345.909; 4506.062; 4381.842;  -19.843
346.505; 5503.070; 5364.214;  -19.645
347.101; 6150.374; 6056.932;   -9.618
347.697; 5900.729; 5751.302;  -10.305
348.293; 4485.198; 4347.975;  -23.189
348.889; 5557.375; 5446.116;  -18.418
349.485; 4989.829; 4872.965;  -10.476
350.081; 5752.855; 5670.291;  -17.320
350.676; 5126.121; 5000.419;  -21.088
351.272; 6094.235; 5950.016;  -12.821
351.868; 5749.764; 5612.910;  -13.165
352.464; 5350.009; 5204.664;  -12.464
353.059; 4714.477; 4613.287;  -22.547
353.655; 5838.711; 5722.059;   -9.379
354.251; 5653.443; 5519.300;   -8.266
354.846; 5535.205; 5425.623;  -17.705
355.442; 5597.146; 5447.184;   -9.317
356.038; 5569.682; 5455.090;  -11.049
356.633; 5415.983; 5254.163;  -10.006
357.229; 5386.104; 5228.999;  -13.120
357.824; 5242.400; 5095.231;  -15.647
358.420; 4981.302; 4871.454;  -19.204
359.015; 5065.555; 4953.653;  -12.263
359.610; 5742.833; 5623.981;  -16.421
360.206; 4364.170; 4244.451;  -20.074
360.801; 4709.505; 4567.671;  -13.277
361.396; 5392.487; 5273.642;   -5.822
361.992; 4947.700; 4822.082;  -11.247
362.587; 4968.543; 4866.389;  -21.502
363.182; 5139.800; 5012.657;   -7.461
363.777; 5583.054; 5452.306;   -8.719
364.372; 5550.102; 5417.878;  -14.590
364.967; 5114.644; 4998.401;  -15.145
365.563; 6166.333; 6062.795;   -7.192
366.158; 5083.904; 4955.311;   -5.662
366.753; 4800.809; 4656.940;   -8.378
367.348; 5677.525; 5508.222;  -14.990
367.942; 5202.029; 5090.001;   -6.005
368.537; 5684.099; 5566.585;  -11.504
369.132; 5308.352; 5163.560;  -10.576
369.727; 4707.667; 4572.582;  -12.573
370.322; 4306.848; 4212.081;  -11.560
370.917; 5391.321; 5272.619;  -10.388
371.511; 6672.426; 6595.170;   -9.161
372.106; 5979.644; 5869.301;  -10.245
372.701; 4393.564; 4245.487;  -10.158
373.296; 6633.278; 6521.885;   -4.719
373.890; 4885.743; 4797.689;  -11.802
374.485; 5280.237; 5206.901;  -13.500
375.079; 5685.525; 5582.247;   -6.276
375.674; 6272.602; 6178.866;   -0.447
376.268; 5209.718; 5119.886;   -6.916
376.863; 4385.829; 4325.718;  -14.483
377.457; 5038.948; 4959.743;   -6.903
378.052; 5926.440; 5812.932;   -9.844
378.646; 5791.016; 5688.691;  -12.601
379.240; 5624.489; 5483.954;  -14.715
379.835; 4880.096; 4791.252;  -12.331
380.429; 4253.844; 4139.587;   -9.074
381.023; 6116.462; 6023.366;   -1.729
381.617; 5275.984; 5193.600;  -13.714
382.212; 5297.122; 5199.617;   -7.060
382.806; 5944.248; 5856.393;   -2.303
383.400; 5288.438; 5194.861;   -0.815
383.994; 5218.912; 5127.624;   -4.429
384.588; 5493.599; 5394.073;   -6.261
385.182; 5720.007; 5638.881;    0.008
385.776; 5602.951; 5545.624;   -3.247
386.370; 5385.292; 5300.699;   -1.030
386.964; 5408.548; 5324.055;   -1.346
387.558; 4695.331; 4587.712;   -2.020
388.152; 5381.395; 5338.543;   -5.345
388.745; 6580.746; 6478.322;   -2.774
389.339; 5856.478; 5769.749;    3.510
389.933; 5412.332; 5325.146;    5.280
390.527; 6973.750; 6889.151;    2.610
391.120; 4716.512; 4663.248;   -7.914
391.714; 5625.371; 5553.737;   -1.903
392.308; 6310.704; 6199.287;    6.023
392.901; 5136.346; 5082.758;   -4.103
393.495; 4781.466; 4713.759;    3.284
394.089; 6242.519; 6189.122;    8.655
394.682; 5693.044; 5610.813;    2.312
395.275; 5855.119; 5792.710;   -7.402
395.869; 5439.215; 5370.055;   -1.072
396.462; 4980.796; 4932.678;    6.454
397.056; 6254.855; 6202.715;    8.494
397.649; 5992.791; 5922.913;    1.599
398.242; 5821.950; 5768.239;    3.153
398.836; 6249.128; 6167.017;   11.395
399.429; 5082.752; 5014.096;   14.695
400.022; 5446.291; 5395.776;    3.627
400.615; 6652.620; 6618.121;    8.383
401.208; 5574.754; 5498.181;   13.295
401.802; 5747.647; 5681.382;    6.211
402.395; 5620.891; 5596.026;    7.227
402.988; 5697.813; 5664.872;    2.700
403.581; 5184.450; 5136.675;   11.225
404.174; 5519.358; 5480.048;   18.922
404.767; 5134.445; 5071.610;   14.169
405.360; 5088.990; 5064.078;    8.999
405.953; 6225.529; 6154.089;   13.138
406.545; 5974.107; 5915.479;   13.937
407.138; 5007.621; 4989.331;   10.869
407.731; 5015.849; 4971.279;   12.768
408.324; 5361.513; 5308.193;   22.921
408.917; 5603.606; 5555.781;   15.308
409.509; 6115.249; 6066.265;   12.239
410.102; 5337.568; 5291.206;   13.741
410.695; 5413.589; 5394.863;   20.249
411.287; 4897.162; 4872.253;   21.793
411.880; 4769.935; 4750.541;   22.965
412.472; 5028.649; 4994.453;   15.082
413.065; 5228.455; 5211.779;   23.423
413.657; 4704.417; 4700.924;   21.077
414.250; 5278.315; 5250.026;   12.349
414.842; 5539.307; 5521.505;   20.423
415.434; 4711.890; 4676.125;   19.906
416.027; 5284.902; 5250.987;   26.574
416.619; 5912.267; 5860.780;   15.705
417.211; 4871.666; 4856.906;   17.791
417.804; 5102.504; 5078.208;   30.244
418.396; 5019.166; 4972.632;   24.177
418.988; 5404.646; 5394.105;   24.904
419.580; 4667.212; 4639.345;   20.692
420.172; 4447.596; 4422.949;   22.275
420.764; 5489.055; 5436.114;   26.773
421.356; 5259.077; 5234.536;   25.731
421.948; 5555.545; 5520.057;   24.876
422.540; 5539.986; 5486.917;   30.042
423.132; 4885.112; 4874.056;   32.728
423.724; 4571.150; 4547.598;   21.317
424.316; 5129.979; 5074.269;   29.359
424.908; 4848.242; 4818.475;   28.798
425.500; 5310.267; 5270.527;   30.512
426.092; 5278.892; 5262.205;   26.741
426.683; 5714.459; 5674.779;   27.029
427.275; 5230.297; 5220.344;   32.611
427.867; 5401.149; 5381.797;   33.796
428.458; 5995.574; 5979.088;   34.453
429.050; 5584.417; 5560.808;   34.255
429.642; 6063.998; 6064.581;   39.082
430.233; 4500.577; 4497.833;   41.138
430.825; 5996.850; 5978.757;   31.581
431.416; 5718.442; 5693.486;   35.755
432.008; 5250.879; 5234.766;   40.566
432.599; 5246.431; 5254.004;   46.322
433.190; 5174.869; 5165.022;   46.897
433.782; 4553.594; 4558.587;   41.069
434.373; 7175.910; 7136.306;   48.778
434.964; 4819.461; 4799.398;   50.078
435.556; 5117.025; 5104.428;   52.381
436.147; 6124.429; 6134.034;   38.251
436.738; 5677.006; 5644.065;   47.237
437.329; 5795.320; 5767.012;   61.304
437.920; 5288.271; 5283.781;   48.611
438.511; 4476.848; 4484.836;   44.910
439.103; 4957.568; 4948.235;   62.404
439.694; 5446.996; 5438.619;   63.075
440.285; 5931.042; 5937.420;   61.033
440.876; 6887.911; 6875.643;   57.249
441.466; 4537.414; 4531.124;   61.306
442.057; 5250.503; 5215.991;   65.773
442.648; 6020.518; 5976.379;   65.676
443.239; 4919.613; 4920.651;   55.963
443.830; 5625.801; 5610.384;   69.631
444.421; 5175.783; 5137.718;   69.943
445.011; 5520.466; 5510.426;   72.791
445.602; 5912.189; 5907.933;   68.848
446.193; 3743.503; 3709.493;   80.044
446.783; 4924.763; 4895.904;   82.599
447.374; 5395.593; 5405.238;   77.419
447.964; 5649.892; 5641.364;   72.605
448.555; 6466.264; 6454.327;   82.041
449.145; 5167.654; 5148.146;   76.230
449.736; 6359.826; 6313.438;   75.545
450.326; 5589.801; 5572.809;   67.945
450.917; 5201.441; 5214.044;   77.598
451.507; 4628.439; 4629.224;   68.027
452.097; 5862.334; 5859.108;   67.771
452.688; 5727.087; 5714.359;   62.884
453.278; 4176.014; 4175.920;   65.512
453.868; 6273.497; 6226.240;   71.796
454.458; 4995.463; 4998.066;   60.956
455.048; 5504.586; 5505.911;   62.356
455.639; 4287.847; 4270.608;   58.782
456.229; 5457.851; 5442.075;   65.209
456.819; 5753.151; 5737.538;   61.466
457.409; 5987.599; 5988.460;   59.967
457.999; 5644.856; 5608.689;   58.093
458.589; 5177.005; 5144.935;   59.536
459.179; 5508.478; 5490.749;   55.994
459.769; 4697.822; 4700.417;   43.624
460.358; 6090.408; 6079.692;   46.978
460.948; 5195.657; 5199.387;   49.821
461.538; 4948.559; 4915.584;   54.678
462.128; 5032.051; 4979.425;   49.309
462.717; 5278.247; 5271.431;   52.774
463.307; 5278.076; 5279.012;   48.101
463.897; 4861.435; 4840.453;   45.606
464.486; 6439.698; 6435.799;   45.010
465.076; 5510.691; 5508.673;   45.519
465.666; 4725.378; 4710.358;   50.058
466.255; 5961.988; 5932.642;   44.463
466.845; 4872.510; 4845.475;   41.206
467.434; 5420.592; 5385.521;   44.847
468.023; 4754.946; 4736.857;   46.760
468.613; 5317.805; 5274.485;   39.736
469.202; 4700.645; 4667.222;   46.461
469.791; 5386.078; 5351.184;   47.944
470.381; 5356.779; 5350.895;   47.529
470.970; 5153.077; 5136.348;   43.773
471.559; 5382.172; 5390.396;   41.646
472.148; 4800.406; 4762.518;   37.914
472.738; 5542.358; 5495.057;   48.071
473.327; 4456.481; 4456.801;   47.871
473.916; 5346.398; 5287.146;   37.716
474.505; 5418.311; 5393.509;   40.256
475.094; 5886.691; 5865.358;   43.269
475.683; 5747.810; 5701.447;   36.499
476.272; 5164.984; 5158.572;   44.542
476.861; 4934.767; 4900.277;   42.297
477.449; 5043.682; 5016.748;   46.878
478.038; 4753.909; 4744.075;   35.156
478.627; 4961.057; 4943.110;   42.514
479.216; 5354.274; 5325.338;   43.937
479.805; 5426.479; 5371.653;   51.393
480.393; 7330.518; 7300.708;   53.239
480.982; 6274.487; 6238.065;   38.955
481.571; 6055.905; 6005.705;   45.436
482.159; 4668.306; 4618.991;   51.007
482.748; 5668.472; 5641.481;   49.695
483.336; 5907.402; 5872.924;   48.280
483.925; 5170.623; 4993.409;   47.166
484.513; 4996.965; 4970.040;   55.404
485.102; 5435.820; 5368.277;   54.238
485.690; 7074.487; 7009.038;   55.748
486.278; 6772.462; 6745.635;   55.934
486.867; 5248.759; 5215.002;   57.106
487.455; 5980.205; 5939.843;   56.979
488.043; 4654.904; 4629.218;   57.564
488.631; 6740.866; 6732.188;   57.432
489.220; 5917.944; 5888.118;   63.646
489.808; 4439.733; 4399.126;   65.449
490.396; 5874.361; 5816.073;   61.977
490.984; 4980.086; 4951.264;   68.834
491.572; 5902.566; 5823.526;   70.775
492.160; 5526.304; 5484.568;   67.564
492.748; 5153.453; 5103.664;   66.808
493.336; 5940.216; 5918.320;   79.747
493.924; 5080.997; 5054.267;   88.688
494.512; 5838.835; 5817.397;   84.120
495.100; 5694.179; 5691.016;   86.250
495.687; 6058.546; 6014.601;  103.074
496.275; 4933.918; 4878.941;  108.717
496.863; 5150.382; 5065.160;  107.035
497.451; 5064.781; 5034.038;  117.993
498.038; 5346.849; 5313.558;  120.116
498.626; 5111.572; 5086.890;  143.059
499.214; 5526.762; 5471.485;  153.434
499.801; 5350.483; 5322.221;  175.121
500.389; 4387.195; 4364.446;  185.617
500.976; 5603.119; 5544.377;  215.789
501.564; 5392.708; 5330.850;  240.321
502.151; 3889.830; 3852.220;  267.007
502.738; 5056.041; 5027.823;  317.961
503.326; 5171.424; 5129.429;  361.216
503.913; 5423.865; 5378.604;  401.433
504.500; 5591.334; 5530.499;  446.492
505.088; 4730.410; 4710.506;  512.063
505.675; 5168.399; 5123.102;  586.387
506.262; 5138.855; 5085.023;  671.021
506.849; 5256.889; 5209.396;  759.062
507.436; 5963.646; 5891.975;  849.788
508.023; 5233.745; 5196.791;  944.288
508.610; 5819.614; 5784.424; 1020.690
509.197; 5623.224; 5582.570; 1089.052
509.784; 5281.363; 5220.757; 1133.776
510.371; 4388.776; 4366.182; 1165.501
510.958; 5401.133; 5338.453; 1251.735
511.545; 6196.536; 6150.146; 1350.248
512.132; 5289.148; 5223.521; 1525.945
512.719; 4717.765; 4663.104; 1834.933
513.305; 4872.734; 4822.911; 1965.349
513.892; 6125.103; 6074.784; 1963.265
514.479; 5381.744; 5352.118; 2046.446
515.066; 5918.067; 5865.174; 2252.803
515.652; 5380.292; 5316.741; 2567.247
516.239; 5714.112; 5688.453; 2636.919
516.825; 4496.290; 4440.519; 2482.304
517.412; 6621.069; 6569.657; 2427.031
517.998; 5163.209; 5124.672; 2540.463
518.585; 5097.130; 5041.720; 2609.007
519.171; 5433.397; 5357.517; 2842.088
519.758; 4564.744; 4527.980; 3090.703
520.344; 5867.263; 5801.957; 3176.076
520.930; 4727.126; 4660.865; 3295.037
521.516; 5643.247; 5568.661; 3500.959
522.103; 6162.865; 6109.140; 3736.704
522.689; 5104.829; 5046.509; 3971.022
523.275; 5973.257; 5921.020; 4213.778
523.861; 5212.764; 5141.817; 4190.361
524.447; 5964.147; 5895.449; 4070.602
525.033; 6041.233; 5969.365; 4088.892
525.619; 4898.229; 4824.573; 4416.851
526.205; 4549.708; 4522.824; 4836.835
526.791; 5128.893; 5080.638; 4885.903
527.377; 4940.779; 4886.777; 4544.907
527.963; 5427.424; 5357.608; 4321.995
528.549; 5517.878; 5471.029; 4473.979
529.135; 4842.135; 4799.785; 4788.663
529.721; 5371.334; 5289.275; 4888.577
530.306; 7202.979; 7149.079; 4775.779
530.892; 5079.309; 5035.210; 4793.906
531.478; 4966.113; 4910.001; 4956.948
532.063; 4752.581; 4698.426; 5136.936
532.649; 6536.721; 6475.575; 5336.867
533.235; 4783.332; 4710.380; 5748.092
533.820; 6093.069; 6033.095; 6456.875
534.406; 5190.397; 5133.546; 6590.167
534.991; 4832.305; 4744.730; 6179.622
535.576; 5214.759; 5152.528; 6098.691
536.162; 7242.835; 7175.622; 6441.234
536.747; 4559.695; 4500.724; 6816.224
537.333; 4831.496; 4772.972; 6889.752
537.918; 5240.225; 5181.318; 7154.280
538.503; 4926.587; 4867.438; 7150.848
539.088; 5525.176; 5444.059; 7253.308
539.673; 5077.350; 5018.697; 7625.180
540.259; 4867.756; 4832.009; 8226.793
540.844; 4302.533; 4250.265; 8745.092
541.429; 6394.644; 6360.395; 8762.553
542.014; 4492.690; 4420.172; 8871.497
542.599; 5508.854; 5417.014; 8886.008
543.184; 4642.545; 4561.306; 9079.139
543.769; 4926.770; 4844.123; 9076.182
544.354; 5055.171; 4998.507; 8354.081
544.938; 5485.500; 5396.553; 8236.809
545.523; 6342.980; 6326.764; 8222.179
546.108; 5240.319; 5217.730; 8114.082
546.693; 5202.612; 5178.206; 8535.912
547.278; 5238.477; 5181.683; 9238.322
547.862; 5238.435; 5151.523; 9034.405
548.447; 5892.592; 5833.480; 7795.011
549.031; 5078.659; 5019.655; 7485.099
549.616; 5444.401; 5383.887; 7626.308
550.201; 4911.998; 4859.369; 7627.909
550.785; 5702.743; 5618.947; 7859.125
551.370; 4608.515; 4519.063; 7990.654
551.954; 5859.768; 5785.114; 8196.468
552.538; 5749.673; 5663.715; 7959.495
553.123; 4903.616; 4862.699; 7964.826
553.707; 5103.030; 5038.385; 8515.957
554.291; 6132.045; 6054.031; 8724.024
554.876; 5794.141; 5747.388; 8524.211
555.460; 4947.311; 4892.509; 8704.456
556.044; 4889.126; 4828.855; 9141.473
556.628; 5306.164; 5202.608; 9250.197
557.212; 6012.576; 5944.873; 9444.237
557.796; 5140.039; 5082.906; 9379.783
558.380; 5530.327; 5466.216; 9353.658
558.964; 5380.146; 5321.742; 9210.310
559.548; 4552.770; 4477.608; 8475.153
560.132; 5082.034; 4982.252; 7954.084
560.716; 4671.028; 4593.302; 7489.529
561.300; 4575.223; 4507.485; 7211.952
561.884; 5680.788; 5581.377; 7141.313
562.467; 5620.204; 5549.185; 7155.386
563.051; 5303.329; 5185.900; 7323.158
563.635; 5182.857; 5099.010; 7709.114
564.219; 5252.863; 5166.236; 7678.855
564.802; 5643.602; 5563.201; 7376.187
565.386; 5346.805; 5259.096; 7054.372
565.969; 6163.844; 6057.083; 6589.196
566.553; 6733.559; 6654.257; 6279.371
567.136; 6061.702; 5988.439; 5967.930
567.720; 5379.247; 5255.929; 5660.703
568.303; 5595.654; 5455.691; 5648.615
568.887; 5404.731; 5286.245; 5618.443
569.470; 5529.894; 5440.454; 5411.875
570.053; 5799.171; 5667.810; 5149.274
570.637; 4920.387; 4787.553; 5122.798
571.220; 5827.063; 5681.210; 4957.369
571.803; 6789.843; 6635.300; 4933.018
572.386; 5220.850; 5055.450; 4840.973
572.969; 5215.780; 5062.691; 4592.886
573.552; 5337.978; 5157.522; 4348.387
574.135; 4840.816; 4658.188; 4002.290
574.718; 5040.125; 4835.171; 3654.773
575.301; 5045.610; 4821.937; 3502.288
575.884; 5051.095; 4808.703; 3349.803
576.467; 6207.347; 5951.329; 3191.403
577.050; 5729.369; 5439.763; 3062.418
577.633; 6817.806; 6480.844; 3214.200
578.216; 5440.421; 5073.692; 3284.889
578.799; 5467.439; 5071.508; 3189.777
579.381; 7167.823; 6697.000; 3064.502
579.964; 5270.831; 4809.335; 2888.357
580.547; 5871.344; 5371.672; 2905.760
581.129; 6760.361; 6197.255; 2966.849
581.712; 6128.833; 5529.845; 2887.292
582.294; 5978.422; 5301.864; 2771.631
582.877; 7521.849; 6756.813; 2711.602
583.459; 6096.109; 5236.528; 2577.049
584.042; 6089.909; 5150.640; 2454.707
584.624; 5792.583; 4768.103; 2305.893
585.206; 5268.146; 4114.883; 2189.546
585.789; 6222.736; 4948.339; 2112.577
586.371; 6865.778; 5531.035; 2153.065
586.953; 7169.137; 5740.188; 2197.806
587.536; 7652.521; 6109.292; 2105.489
588.118; 6821.768; 5140.732; 1963.911
588.700; 8063.780; 6115.244; 1843.179
589.282; 7844.839; 5567.221; 1813.834
589.864; 7892.636; 5353.828; 1777.620
590.446; 7095.551; 4281.861; 1733.780
591.028; 8438.278; 5306.373; 1676.008
591.610; 7617.335; 4363.441; 1631.649
592.192; 8700.789; 5368.327; 1632.362
592.774; 8181.206; 4705.171; 1569.507
593.356; 8724.146; 4906.636; 1524.539
593.937; 9056.813; 4876.733; 1569.720
594.519;10362.985; 5891.684; 1569.049
595.101; 9303.773; 4415.508; 1545.452
595.683;10369.871; 4950.863; 1607.568
596.264;11233.386; 5184.795; 1615.506
596.846;11506.456; 5034.453; 1667.622
597.427;11728.393; 4882.123; 1670.469
598.009;12201.217; 4818.189; 1640.312
598.591;13363.380; 5743.932; 1541.022
599.172;13079.003; 5070.064; 1598.665
599.753;13123.543; 4544.065; 1619.068
600.335;14973.614; 6136.621; 1548.612
600.916;14321.946; 5220.222; 1607.510
601.498;15358.750; 5512.527; 1745.181
602.079;16216.719; 5267.174; 1801.011
602.660;16880.740; 5161.532; 1834.640
603.241;16404.828; 4183.903; 1787.351
603.823;17516.352; 4952.837; 1684.266
604.404;17313.189; 4586.540; 1654.241
604.985;17684.014; 4963.834; 1758.741
605.566;19023.230; 5787.352; 1697.679
606.147;19301.209; 5119.091; 1526.728
606.728;19682.758; 4563.777; 1484.086
607.309;20833.012; 4904.498; 1421.070
607.890;21024.973; 4984.097; 1369.867
608.471;21441.416; 4801.079; 1277.826
609.051;22614.176; 5385.582; 1180.416
609.632;23243.752; 4723.337; 1075.816
610.213;25375.514; 5155.071; 1053.313
610.794;26072.986; 4975.971;  979.442
611.374;26835.760; 5465.109;  917.414
611.955;26073.230; 4470.179;  819.987
612.536;28183.115; 5384.845;  752.627
613.116;28935.887; 4959.033;  690.799
613.697;28840.225; 4885.601;  674.974
614.277;28689.123; 4738.818;  663.846
614.858;28366.039; 4877.575;  665.898
615.438;28029.990; 5227.542;  660.712
616.019;28488.146; 6137.323;  632.732
616.599;26762.203; 4113.567;  551.759
617.179;28554.434; 4594.608;  512.871
617.760;31713.391; 6911.514;  473.655
618.340;30094.545; 5155.940;  440.004
618.920;31694.602; 6328.034;  429.731
619.500;31572.719; 5015.039;  441.361
620.080;31364.127; 4725.700;  425.202
620.660;31609.910; 4711.282;  408.164
621.241;32465.621; 5022.023;  387.161
621.821;33539.699; 5282.726;  378.017
622.401;33527.426; 5863.925;  379.188
622.980;31435.516; 4482.932;  350.019
623.560;31826.721; 5026.484;  336.446
624.140;30922.875; 5298.343;  336.473
624.720;29734.498; 5462.688;  334.974
625.300;28827.400; 4728.110;  325.717
625.880;29653.441; 5147.411;  308.519
626.459;31559.773; 5201.913;  307.117
627.039;31746.443; 4350.832;  290.890
627.619;35213.559; 6638.576;  286.635
628.198;35523.563; 5951.995;  282.535
628.778;36098.699; 5586.238;  285.474
629.357;33893.797; 4542.902;  284.103
629.937;33464.762; 4978.398;  292.178
630.516;34874.238; 6239.056;  290.749
631.096;33677.875; 4804.599;  285.489
631.675;34400.480; 6131.162;  287.022
632.254;32790.602; 4798.861;  286.038
632.834;32269.930; 5153.383;  276.451
633.413;32832.441; 6110.794;  279.447
633.992;32273.404; 5855.117;  264.508
634.571;32295.424; 5609.308;  271.010
635.151;32676.752; 4691.204;  277.338
635.730;32982.316; 5087.243;  289.305
636.309;33174.535; 5521.918;  285.306
636.888;32961.605; 5605.305;  254.051
637.467;30489.824; 4264.982;  230.324
638.046;32495.188; 6252.648;  253.349
638.625;31667.330; 6001.558;  246.866
639.204;30941.672; 5370.055;  240.825
639.782;31900.738; 5208.692;  261.970
640.361;32052.859; 6048.680;  277.780
640.940;30787.873; 4878.755;  270.101
641.519;30689.484; 5450.881;  248.622
642.097;31260.197; 5568.007;  239.843
642.676;31383.209; 5261.282;  244.264
643.255;31330.822; 5050.108;  234.985
643.833;33153.734; 5615.533;  244.406
644.412;32790.746; 4987.809;  244.927
644.990;32994.758; 5280.984;  249.948
645.569;32915.570; 5544.160;  249.569
646.147;32850.184; 5836.085;  243.290
646.726;31415.195; 5366.811;  249.511
647.304;30703.309; 4997.137;  228.032
647.882;28799.221; 4258.813;  214.552
648.461;29214.434; 5371.288;  214.973
649.039;29886.145; 5608.514;  223.394
649.617;29654.758; 5628.339;  261.415
650.195;29586.471; 5371.365;  298.736
650.773;29300.982; 4960.740;  309.557
651.352;28567.295; 4143.216;  297.978
651.930;27443.307; 4130.991;  289.399
652.508;28829.818; 5723.267;  285.620
653.086;28169.730; 5507.692;  272.241
653.663;27132.645; 4796.918;  265.062
654.241;26657.756; 4490.293;  286.083
654.819;27451.168; 4615.369;  286.404
655.397;28611.580; 4690.295;  291.825
655.975;29558.793; 5048.920;  299.145
656.553;30938.805; 6218.846;  288.866
657.130;29425.818; 4657.571;  304.087
657.708;28918.631; 5433.847;  302.908
658.286;28496.543; 5296.923;  294.629
658.863;29090.955; 5324.798;  293.350
659.441;28966.967; 5389.874;  318.671
660.018;27845.279; 5097.750;  333.692
660.596;26823.191; 4200.725;  335.013
661.173;27315.604; 4901.000;  371.534
661.750;26930.217; 4702.626;  365.155
662.328;28252.529; 5587.202;  349.976
662.905;26915.240; 4940.777;  332.997
663.482;26305.854; 5083.353;  321.717
664.060;26402.965; 4771.229;  314.438
664.637;27266.678; 5588.704;  306.259
665.214;27833.090; 5335.729;  314.580
665.791;27938.102; 5032.305;  334.501
666.368;27666.414; 4959.781;  329.222
666.945;28695.428; 5684.906;  342.143
667.522;28121.939; 4717.682;  370.964
668.099;28723.852; 5091.607;  396.885
668.676;28523.164; 5118.883;  391.706
669.253;29447.775; 6240.458;  369.627
669.830;28642.189; 6020.684;  360.348
670.407;28263.400; 5106.160;  344.769
670.984;28698.914; 5086.335;  322.890
671.560;28869.926; 5574.311;  316.910
672.137;27594.938; 4961.736;  322.531
672.714;27995.350; 5467.362;  318.552
673.290;28274.863; 5373.288;  324.473
673.867;28428.676; 4833.513;  340.594
674.443;28646.588; 4531.489;  319.515
675.020;29198.199; 5309.114;  286.336
675.596;28164.313; 5018.040;  247.557
676.173;27626.125; 4451.815;  227.778
676.749;27800.537; 3922.141;  224.399
677.326;28845.748; 4368.667;  230.520
677.902;29842.162; 4774.042;  241.841
678.478;30633.873; 4461.667;  239.762
679.054;34220.887; 7564.293;  248.583
679.631;31074.498; 5430.918;  237.503
680.207;31351.211; 6464.444;  245.924
680.783;29084.422; 4093.020;  224.845
681.359;31252.135; 5083.095;  209.666
681.935;32282.646; 5235.421;  191.687
682.511;32239.959; 5215.347;  210.008
683.087;31612.271; 5486.172;  213.329
683.663;30508.984; 4989.798;  216.850
684.239;29908.797; 4471.173;  229.471
684.815;31954.010; 5717.749;  248.792
685.390;32711.121; 6583.324;  231.813
685.966;30661.234; 5212.300;  221.234
686.542;30671.846; 4601.525;  214.255
687.118;32884.559; 5305.601;  212.276
687.693;33615.270; 5532.626;  233.096
688.269;32955.582; 5006.652;  246.917
688.844;33621.496; 5451.178;  236.938
689.420;32695.508; 5201.003;  242.059
689.995;32816.219; 6343.929;  245.480
690.571;32266.031; 6073.555;  244.701
691.146;31549.145; 4956.180;  251.922
691.722;32615.557; 5407.605;  284.743
692.297;32541.170; 4926.881;  320.664
692.872;32979.383; 4713.607;  313.885
693.448;33128.594; 4582.982;  290.106
694.023;34711.707; 5245.058;  304.327
694.598;35946.918; 5270.083;  319.648
695.173;34698.430; 4924.559;  323.169
695.748;32456.643; 4215.834;  376.389
696.323;33132.254; 5105.660;  397.610
696.898;34732.367; 5950.936;  430.231
697.473;33512.281; 4299.711;  454.952
698.048;35340.691; 4971.887;  478.973
698.623;35404.406; 4452.513;  477.094
699.198;35814.617; 5220.988;  496.915
699.773;35146.230; 4741.614;  490.236
700.348;34553.441; 4612.189;  519.957
700.922;35609.953; 5259.115;  575.678
701.497;36184.566; 5148.090;  621.399
702.072;36058.680; 5743.716;  664.420
702.646;35510.090; 5594.742;  690.541
703.221;34514.004; 5313.967;  748.862
703.795;33244.516; 4632.393;  774.282
704.370;32015.027; 3778.718;  799.803
704.944;33115.641; 4895.394;  875.824
705.519;34428.551; 5308.319;  902.945
706.093;34652.566; 4681.495;  889.266
706.668;35092.879; 5455.021;  903.487
707.242;35667.488; 5654.146;  881.708
707.816;34788.602; 4947.872;  892.329
708.390;34189.715; 5124.697;  970.250
708.965;33820.527; 5301.323;  984.671
709.539;33919.141; 4990.148; 1026.092
710.113;34139.051; 5207.074; 1067.913
710.687;33610.863; 5640.149; 1166.434
711.261;31672.875; 4559.725; 1190.854
711.835;32425.389; 4612.951; 1197.275
712.409;33488.000; 4253.726; 1308.096
712.983;33550.113; 4290.602; 1461.617
713.557;33502.824; 4282.777; 1611.838
714.131;33414.836; 5013.153; 1554.359
714.704;31986.949; 4634.329; 1520.780
715.278;33621.863; 5144.154; 1575.101
715.852;34616.574; 5585.030; 1689.822
716.425;35390.387; 6407.255; 1829.143
716.999;32448.898; 4212.281; 2008.664
717.573;33118.609; 5429.156; 2000.485
718.146;34276.023; 6262.982; 1914.506
718.720;34751.336; 5259.257; 1818.026
719.293;35898.848; 5467.333; 1734.147
719.867;35000.559; 4764.059; 1716.968
720.440;36234.871; 6015.034; 1918.589
721.013;35123.887; 4811.760; 1975.410
721.587;33710.699; 4299.285; 2073.331
722.160;34119.809; 5726.411; 2357.852
722.733;33106.820; 5173.437; 2657.073
723.306;32204.035; 5141.112; 2703.894
723.880;31399.848; 5249.688; 2549.415
724.453;32822.660; 5992.313; 2414.336
725.026;32158.471; 4835.539; 2298.557
725.599;32395.584; 5329.164; 2168.778
726.172;31683.996; 5443.940; 2106.099
726.745;31743.408; 5378.465; 2253.320
727.318;32609.221; 5725.491; 2404.740
727.891;33305.434; 5322.967; 2680.161
728.463;32850.145; 5295.292; 2838.882
729.036;31450.059; 4689.868; 2755.103
729.609;31663.471; 4626.493; 2731.824
730.182;33466.684; 5631.519; 2855.645
730.754;32806.895; 3903.344; 2946.866
731.327;34491.309; 5446.720; 2840.187
731.900;33074.320; 4321.945; 2647.608
732.472;34238.633; 5046.071; 2473.929
733.045;36497.242; 4950.497; 2445.750
733.617;35397.156; 4246.672; 2511.771
734.190;35611.668; 5419.898; 2581.592
734.762;35495.680; 5102.974; 2710.813
735.334;35350.895; 5176.299; 3005.733
735.907;34707.707; 5168.075; 3154.954
736.479;35552.617; 5842.250; 3171.675
737.051;35363.430; 5445.776; 3217.496
737.623;36027.844; 5507.851; 3246.217
738.195;35075.953; 4769.227; 2985.238
738.768;34029.969; 4023.802; 2727.559
739.340;35008.180; 4860.628; 2666.880
739.912;34979.090; 5603.554; 2769.601
740.484;33796.902; 5436.879; 2731.422
741.056;33046.215; 4970.305; 2963.043
741.628;33116.930; 4624.780; 3361.364
742.199;34209.742; 5959.956; 3641.185
742.771;32922.652; 4440.481; 3932.005
743.343;34064.766; 4653.057; 4319.926
743.915;35221.977; 5345.033; 4706.647
744.487;36292.590; 5489.258; 4874.968
745.058;36916.301; 5553.984; 4616.589
745.630;36506.113; 5518.659; 4253.410
746.201;35772.828; 4827.835; 4056.131
746.773;36438.238; 5459.160; 3772.952
747.344;36283.852; 5104.136; 3642.473
747.916;35797.563; 5270.111; 3752.294
748.487;35894.277; 5635.887; 4106.215
749.059;34754.988; 4506.013; 4457.835
749.630;35167.000; 4721.138; 4366.457
750.201;35958.813; 5102.164; 4600.078
750.773;34948.625; 4777.889; 4658.499
751.344;35665.438; 5161.865; 4609.319
751.915;35261.051; 5092.241; 4526.440
752.486;35095.863; 4694.116; 4536.061
753.057;35466.477; 5222.992; 4383.282
753.628;35528.188; 4686.817; 4296.503
754.199;36964.801; 4885.593; 4383.224
754.770;37657.813; 5480.368; 4653.545
755.341;36418.023; 5749.894; 4831.666
755.912;35033.035; 4999.419; 4831.387
756.483;35540.848; 5448.545; 4735.808
757.054;34072.762; 4883.271; 4685.029
757.625;33594.973; 4503.046; 4994.250
758.195;34396.984; 4325.572; 5051.471
758.766;35627.500; 5270.748; 5317.792
759.337;33873.012; 4280.773; 5646.512
759.907;34149.223; 4342.999; 5404.133
760.478;35211.434; 4789.124; 5090.954
761.048;34929.148; 5493.399; 4871.175
761.619;34323.461; 5362.475; 4589.396
762.189;34063.570; 5069.951; 4171.317
762.760;34043.484; 5565.626; 3872.538
763.330;33739.797; 5503.752; 3832.259
763.900;33531.809; 5284.328; 4150.180
764.471;32682.422; 4638.003; 4529.801
765.041;34137.633; 5847.179; 4715.922
765.611;33274.645; 5437.304; 4681.442
766.181;32844.359; 5039.780; 4717.063
766.751;32941.570; 5119.005; 4710.285
767.321;32582.982; 4448.131; 4450.305
767.891;32483.695; 5204.557; 4274.126
768.461;31939.707; 5037.032; 4215.047
769.031;33016.121; 5077.508; 4173.068
769.601;34325.031; 5778.733; 4174.689
770.171;33227.844; 4328.109; 4229.310
770.741;32672.457; 4911.034; 4352.031
771.311;31989.469; 5448.910; 4336.652
771.880;30322.182; 4618.485; 4300.873
772.450;30825.395; 4677.311; 4387.194
773.020;31290.105; 4289.887; 4220.415
773.589;31803.520; 4754.562; 4075.835
774.159;32507.631; 4800.438; 4105.756
774.729;32587.344; 4720.813; 4114.978
775.298;31512.156; 4759.439; 3693.298
775.867;30870.367; 4757.714; 3343.119
776.437;31290.480; 5131.040; 3062.040
777.006;29645.393; 4302.866; 2927.161
777.576;29732.904; 5446.941; 3046.482
778.145;29263.117; 5370.917; 3230.203
778.714;29285.229; 5031.542; 3253.324
779.283;30863.441; 5439.118; 3129.745
779.853;31262.453; 5058.943; 2983.566
780.422;32024.066; 5060.219; 2929.887
780.991;32381.279; 5386.495; 2863.908
781.560;32890.891; 5965.070; 2948.029
782.129;31337.904; 5295.696; 3074.149
782.698;31186.715; 5900.921; 2893.970
783.267;30313.129; 4729.297; 2721.391
783.836;31517.439; 5276.172; 2659.712
784.404;30525.152; 4461.098; 2622.233
784.973;29843.564; 3851.023; 2600.754
785.542;30573.078; 5026.349; 2528.475
786.111;31369.590; 5830.775; 2404.396
786.679;31423.303; 5452.550; 2365.717
787.248;29702.715; 4330.676; 2498.438
787.817;28992.926; 4810.651; 2645.659
788.385;30441.439; 5724.877; 2709.280
788.954;29008.650; 4367.553; 2620.500
789.522;30375.963; 5565.378; 2625.422
790.090;29398.875; 4385.804; 2743.843
790.659;30181.988; 4865.079; 2635.163
791.227;30230.000; 4976.205; 2495.484
791.795;31078.912; 5255.430; 2413.705
792.364;30022.525; 4543.306; 2345.326
792.932;30033.238; 5377.682; 2350.447
793.500;28746.049; 4911.007; 2429.768
794.068;28054.861; 4323.183; 2513.589
794.636;28612.674; 4670.558; 2664.310
795.204;28531.688; 4202.534; 2721.431
795.772;28788.500; 4632.659; 2802.052
796.340;29041.211; 4759.435; 2847.173
796.908;27923.123; 4206.960; 2997.194
797.476;27340.336; 4502.336; 3151.615
798.044;27383.148; 4136.012; 3110.735
798.612;28841.361; 4980.737; 2931.656
799.180;28953.674; 5133.313; 2785.777
799.747;28374.785; 5083.138; 2899.098
800.315;27235.697; 4392.014; 2955.519
800.883;26711.709; 4061.490; 2948.940
801.450;27772.723; 5018.665; 2965.361
802.018;28262.234; 5292.940; 3070.582
802.585;28026.047; 5054.666; 3156.103
803.153;27117.559; 4664.492; 3199.524
803.720;28102.271; 4707.517; 3168.845
804.287;28417.484; 4887.243; 3248.366
804.855;29634.797; 5659.468; 3406.187
805.422;28432.709; 4918.644; 3430.907
805.989;27860.420; 4588.070; 3453.528
806.556;27932.633; 4591.795; 3612.649
807.124;29274.145; 5564.021; 3736.570
807.691;27856.559; 4479.996; 3770.491
808.258;27957.971; 5059.472; 3705.012
808.825;28114.682; 5589.797; 3828.733
809.392;28319.596; 5972.673; 3986.754
809.959;27656.207; 5256.549; 4410.075
810.526;27870.520; 6019.674; 4774.996
811.093;27027.232; 5721.400; 4754.217
811.659;26194.545; 5003.125; 4661.238
812.226;26847.256; 4971.901; 4672.559
812.793;27814.369; 5206.876; 4822.979
813.360;27278.080; 4989.102; 5189.800
813.926;27157.193; 5258.478; 5310.622
814.493;26683.205; 4367.403; 5414.542
815.060;26053.219; 4104.079; 5548.963
815.626;26897.131; 4424.154; 5452.284
816.193;27818.543; 5153.030; 5339.305
816.759;26314.355; 4596.655; 5544.426
817.325;24572.768; 4107.481; 5706.547
817.892;25331.980; 5512.756; 5623.468
818.458;25418.092; 5284.882; 5586.689
819.024;25817.805; 5746.008; 5647.910
819.591;25688.617; 5041.883; 5762.031
820.157;26144.930; 4388.759; 6284.452
820.723;27703.541; 5277.134; 6906.973
821.289;29589.354; 7644.560; 7086.894
821.855;26522.465; 5422.386; 7054.915
822.421;24595.879; 4781.211; 7112.035
822.987;23817.689; 4474.437; 7256.156
823.553;24170.902; 4880.512; 7538.077
824.119;24852.416; 5598.288; 7594.298
824.685;24706.027; 5809.763; 7613.619
825.251;24079.240; 5485.439; 7644.140
825.816;24424.652; 6152.064; 7720.261
826.382;24264.865; 5462.590; 8014.282
826.948;24782.977; 5587.666; 8281.503
827.513;23681.889; 4939.641; 8289.624
828.079;23306.301; 4576.167; 8587.045
828.645;24133.314; 5236.742; 8821.865
829.210;23527.525; 4476.118; 9054.486
829.776;23884.639; 5393.894; 9054.607
830.341;23222.650; 5571.819; 9415.628
830.906;22703.963; 5734.745; 9932.449
831.472;21175.875; 4652.970;10150.271
832.037;22056.887; 5600.096; 9420.391
832.602;21961.699; 4780.071; 8664.912
833.167;22433.412; 5128.247; 8491.933
833.733;22915.424; 5597.522; 8872.854
834.298;21441.236; 4517.298; 9370.575
834.863;21703.850; 5262.974; 9610.695
835.428;21711.061; 5239.899; 9655.616
835.993;22047.373; 5386.875; 9437.838
836.558;21947.285; 5484.250; 9441.459
837.123;23021.498; 6723.426; 9600.979
837.688;21582.711; 5300.852; 9798.301
838.253;21321.623; 5286.427; 9902.921
838.817;20843.236; 4945.703;10339.742
839.382;21640.947; 5909.928;10548.363
839.947;20545.461; 5175.404;10252.484
840.511;21241.873; 6070.330;10040.005
841.076;18687.984; 4079.655;10099.926
841.641;19684.496; 5452.181;10347.347
842.205;18950.010; 5323.656;10817.368
842.770;19538.221; 6296.932;11435.289
843.334;18216.734; 5019.107;12072.409
843.898;18190.146; 4823.783;12635.431
844.463;19512.359; 5928.008;12537.252
845.027;17776.271; 4890.584;12759.673
845.591;18000.883; 5662.259;12821.993
846.156;17864.295; 4826.035;12520.914
846.720;18538.908; 5556.960;12390.436
847.284;17771.020; 5252.386;12956.456
847.848;17946.432; 5441.262;13240.177
848.412;17132.346; 5169.087;13216.998
848.976;17249.457; 6061.613;13014.619
849.540;17284.869; 6527.588;12355.740
850.104;16842.182; 5991.064;12208.761
850.668;15081.194; 4184.590;12106.882
851.232;15930.206; 4307.315;11862.103
851.796;17376.520; 5074.941;11700.523
852.359;17581.131; 5627.167;12375.944
852.923;17354.943; 5804.642;13087.966
853.487;16630.355; 5520.167;13297.187
854.050;15079.968; 3571.143;13851.207
854.614;15890.880; 4908.619;14854.229
855.177;15881.992; 5336.494;15802.149
855.741;15971.205; 5383.170;16603.570
856.304;16361.917; 5697.095;16359.891
856.868;14755.729; 4635.771;14365.512
857.431;14790.142; 5137.597;13361.333
857.995;14260.154; 4962.522;14130.554
858.558;14109.167; 5337.897;14883.175
859.121;14332.679; 5622.773;15754.195
859.684;13892.591; 5279.549;15995.017
860.247;13991.004; 5129.674;15149.537
860.810;13731.916; 4926.800;14640.358
861.374;15413.528; 6596.625;15551.079
861.937;12900.141; 4535.751;16519.801
862.500;13037.152; 4851.626;16796.521
863.062;12579.065; 4611.952;16538.742
863.625;13276.678; 5352.228;16716.764
864.188;12867.689; 4892.903;17055.084
864.751;12688.302; 4850.029;17197.705
865.314;12753.914; 5205.104;17151.625
865.876;13472.427; 5766.130;17783.547
866.439;13433.039; 5567.105;19283.467
867.002;14163.552; 6460.231;20256.389
867.564;13409.264; 5861.807;20485.410
868.127;12527.876; 5149.032;20789.730
868.689;12469.088; 5392.908;21981.951
869.252;12677.200; 5834.233;23803.771
869.814;11496.413; 4718.109;24974.094
870.377;12104.525; 5351.635;24690.314
870.939;14014.538; 7392.760;23963.436
871.501;11970.250; 5303.736;25167.156
872.063;10534.362; 3896.411;26995.477
872.626;10748.574; 4223.787;27443.098
873.188;11820.387; 5324.163;26718.418
873.750;11538.899; 5080.338;26558.840
874.312;11137.512; 4895.864;26701.561
874.874;12108.824; 6199.339;27970.582
875.436;11384.736; 5680.564;29173.402
875.998;11598.349; 6024.940;30376.623
876.560;11129.561; 5691.266;32507.344
877.122; 9998.073; 4768.292;34833.066
877.683;10706.686; 5575.017;36458.285
878.245;10057.198; 4897.792;37248.207
878.807;10531.610; 5480.068;36758.027
879.369; 9562.122; 4507.444;35223.551
879.930; 9711.535; 4623.719;33824.969
880.492;10929.547; 5949.395;34436.492
881.053; 9433.659; 4672.570;37745.313
881.615; 9423.472; 4868.146;41184.633
882.176; 9391.884; 5057.021;42871.555
882.738; 9886.996; 5618.397;41693.074
883.299; 8243.908; 4152.623;40289.895
883.860; 8192.221; 4284.748;39231.215
884.422; 9475.033; 5557.724;38264.039
884.983; 8490.846; 4626.299;37171.859
885.544; 9001.758; 5340.225;35842.379
886.105; 8715.971; 5211.150;34810.000
886.666; 8170.183; 4913.826;34519.020
887.227; 7413.295; 4302.852;33905.641
887.788; 8393.308; 5344.127;34502.965
888.349; 7488.720; 4439.103;34241.785
888.910; 8545.432; 5573.479;33722.203
889.471; 8253.645; 5316.104;32539.625
890.032; 8056.256; 5162.779;31528.346
890.593; 8337.769; 5543.855;32655.068
891.153; 7788.881; 5135.131;33882.289
891.714; 6936.593; 4414.606;33318.711
892.275; 6975.706; 4501.832;31848.930
892.835; 8048.718; 5723.458;30339.752
893.396; 7851.730; 5634.183;30074.973
893.956; 7141.143; 5032.409;30338.393
894.517; 7345.155; 5302.334;30864.113
895.077; 7389.567; 5403.359;29766.734
895.638; 8084.680; 6198.235;26379.557
896.198; 6374.792; 4584.511;24056.277
896.758; 7384.304; 5675.736;22961.898
897.319; 6690.617; 5074.512;21772.020
897.879; 6722.229; 5141.837;20877.539
898.439; 5804.441; 4307.613;19509.461
898.999; 6972.454; 5535.039;17297.582
899.559; 6835.266; 5431.164;14712.002
900.119; 5948.278; 4616.940;12790.224
900.679; 7387.690; 6113.965;11586.744
901.239; 6769.303; 5570.341;10776.465
901.799; 6392.515; 5233.517; 9691.687
902.359; 5791.127; 4687.342; 8725.907
902.919; 5699.340; 4621.167; 8305.728
903.479; 5725.852; 4659.443; 8172.649
904.038; 5482.165; 4449.169; 7913.870
904.598; 4858.177; 3875.344; 7262.291
905.158; 5799.689; 4863.920; 6609.012
905.717; 5992.801; 5072.996; 6236.133
906.277; 6060.714; 5162.421; 5829.054
906.836; 6326.526; 5462.646; 5396.674
907.396; 6217.938; 5392.572; 4964.195
907.955; 6235.651; 5429.648; 4528.917
908.515; 5741.563; 4933.723; 4223.837
909.074; 5787.675; 4988.649; 4023.958
909.633; 5796.888; 5010.174; 4065.379
910.192; 6993.200; 6207.950; 4066.300
910.752; 5721.700; 4959.600; 3971.600
911.311; 5626.400; 4865.850; 3839.600
911.870; 5408.400; 4688.450; 3684.500
912.429; 6518.600; 5783.650; 3635.600
912.988; 6402.600; 5661.550; 3689.800
913.547; 5342.800; 4605.900; 3737.700
914.106; 5942.400; 5258.100; 3740.300
914.665; 5892.600; 5208.000; 3604.600
915.224; 6434.200; 5768.550; 3358.700
915.782; 5495.300; 4839.550; 3188.400
916.341; 6628.200; 5962.050; 3091.400
916.900; 5566.800; 4909.900; 3044.800
917.458; 5339.600; 4651.400; 2888.600
918.017; 5834.400; 5178.650; 2818.900
918.576; 5602.700; 4931.300; 2838.600
919.134; 4992.800; 4303.950; 2880.100
919.693; 5542.900; 4873.500; 2996.300
920.251; 5474.700; 4780.050; 3183.100
920.809; 5160.200; 4494.900; 3247.000
921.368; 5458.500; 4778.200; 3156.600
921.926; 5261.600; 4589.350; 2964.900
922.484; 5754.400; 5097.850; 2846.300
923.042; 5574.000; 4926.600; 2890.400
923.601; 6588.700; 5921.450; 2987.700
924.159; 6089.400; 5421.100; 3049.800
924.717; 5246.700; 4566.750; 3087.000
925.275; 5779.200; 5131.200; 3093.400
925.833; 4774.000; 4094.750; 3182.400
926.391; 6097.000; 5383.850; 3397.900
926.949; 5500.200; 4799.250; 3575.400
927.506; 5863.800; 5168.150; 3713.400
928.064; 5554.500; 4871.550; 3871.300
928.622; 5664.200; 4950.850; 4092.800
929.180; 5100.800; 4394.550; 4499.300
929.737; 5001.500; 4262.150; 4813.200
930.295; 6075.800; 5342.700; 5084.100
930.853; 5347.700; 4611.400; 5185.000
931.410; 5116.600; 4362.650; 5313.100
931.968; 6219.900; 5435.750; 5339.600
932.525; 5808.000; 5058.050; 5399.900
933.082; 5057.800; 4274.850; 5457.500
933.640; 6039.400; 5255.400; 5692.900
934.197; 5615.500; 4870.600; 5821.200
934.754; 5637.800; 4870.050; 5617.900
935.312; 5392.300; 4606.400; 5512.400
935.869; 6698.500; 5887.300; 5582.400
936.426; 5448.400; 4637.950; 5650.100
936.983; 5586.100; 4807.450; 5657.400
937.540; 5126.100; 4325.550; 5564.300
938.097; 6037.600; 5211.850; 5574.000
938.654; 5542.500; 4733.500; 5665.900
939.211; 6011.200; 5207.750; 5931.600
939.768; 5776.000; 4927.300; 6153.600
940.324; 5610.300; 4788.500; 6397.600
940.881; 5412.600; 4588.100; 6454.200
941.438; 6559.000; 5707.300; 6206.900
941.995; 6319.000; 5495.300; 6003.900
942.551; 5203.400; 4355.850; 6228.300
943.108; 5730.300; 4900.450; 6603.500
943.664; 5214.700; 4401.000; 7188.100
944.221; 7040.300; 6214.550; 7579.900
944.777; 5161.100; 4352.050; 7658.100
945.334; 5280.600; 4460.300; 7670.400
945.890; 5793.300; 4974.650; 7525.100
946.446; 5817.900; 5010.250; 7261.500
947.003; 5986.000; 5163.700; 6949.200
947.559; 6799.100; 5954.200; 6773.100
948.115; 6396.000; 5645.200; 6668.400
948.671; 5931.400; 5137.900; 6488.400
949.227; 5002.200; 4193.750; 6236.600
949.783; 4920.600; 4117.050; 6008.900
950.339; 6043.000; 5242.800; 5934.100
950.895; 6345.200; 5574.850; 5933.500
951.451; 5537.500; 4741.800; 6074.700
952.007; 6101.200; 5352.750; 6066.400
952.563; 5535.200; 4791.800; 5884.100
953.118; 5348.400; 4613.750; 5733.800
953.674; 5702.400; 4922.500; 5734.300
954.230; 5731.700; 4959.300; 6039.700
954.785; 5704.000; 4916.850; 6383.500
955.341; 6163.900; 5416.850; 6568.200
955.897; 4891.500; 4133.300; 6488.600
956.452; 5930.700; 5157.200; 6239.200
957.008; 7125.200; 6357.800; 5954.600
957.563; 6401.700; 5679.400; 5816.700
958.118; 5304.000; 4559.100; 5828.200
958.674; 5827.600; 5078.700; 5717.400
959.229; 6517.000; 5788.900; 5506.800
959.784; 5007.800; 4272.350; 5292.200
960.339; 6458.100; 5738.950; 5101.900
960.894; 6130.400; 5417.000; 5093.200
961.449; 5213.900; 4517.750; 5227.900
962.004; 8261.800; 7532.950; 5349.300
962.559; 5320.000; 4597.600; 5514.900
963.114; 4293.400; 3622.400; 5717.300
963.669; 5699.300; 5023.250; 5841.400
964.224; 5452.800; 4740.150; 5805.900
964.779; 5054.600; 4358.550; 5723.400
965.334; 6474.500; 5790.050; 5779.500
965.888; 5378.600; 4670.950; 5948.500
966.443; 6208.100; 5528.700; 6344.200
966.998; 4849.000; 4132.900; 6666.300
967.552; 5636.300; 4962.650; 6710.100
968.107; 5344.000; 4647.700; 6593.500
968.661; 5832.900; 5145.450; 6344.100
969.216; 5279.300; 4608.150; 6062.400
969.770; 5838.200; 5152.800; 5785.500
970.324; 5833.300; 5182.700; 5426.800
970.879; 6080.200; 5463.500; 5016.800
971.433; 6164.300; 5521.200; 4904.500
971.987; 5712.000; 5071.450; 4991.000
972.541; 5891.900; 5259.650; 4978.500
973.095; 6648.800; 6011.200; 4832.000
973.649; 4963.300; 4331.800; 4767.900
974.203; 5115.300; 4502.500; 4881.200
974.757; 5344.400; 4730.300; 4969.500
975.311; 5540.900; 4921.050; 4953.000
975.865; 5609.500; 4997.600; 4884.300
976.419; 5426.400; 4821.850; 4739.800
976.973; 5360.400; 4742.950; 4698.100
977.526; 6225.400; 5635.700; 4631.100
978.080; 4928.200; 4325.400; 4621.600
978.634; 5952.300; 5383.250; 4650.200
979.187; 5853.900; 5267.150; 4669.200
979.741; 6837.300; 6253.100; 4658.000
980.294; 4919.500; 4361.800; 4579.100
980.848; 4339.700; 3796.150; 4452.800
981.401; 5237.600; 4698.600; 4271.900
981.955; 5532.800; 4978.100; 4087.800
982.508; 4644.800; 4129.250; 3973.900
983.061; 6155.100; 5614.150; 3928.600
983.615; 5083.700; 4550.500; 3851.200
984.168; 4882.300; 4374.550; 3734.800
984.721; 5803.100; 5297.850; 3628.300
985.274; 5696.900; 5179.000; 3564.300
985.827; 5459.300; 4956.350; 3558.100
986.380; 4503.200; 4019.650; 3559.900
986.933; 5722.600; 5235.600; 3688.700
987.486; 5722.000; 5250.250; 3778.500
988.039; 5684.800; 5211.400; 3559.900
988.591; 6016.200; 5577.650; 3219.300
989.144; 4725.500; 4254.600; 2902.900
989.697; 4948.300; 4526.200; 2722.600
990.250; 5858.800; 5416.950; 2618.000
990.802; 4980.300; 4538.700; 2523.900
991.355; 6923.300; 6484.450; 2436.500
991.907; 5988.850; 5581.450; 2412.200
992.460; 5054.400; 4678.450; 2387.900
993.012; 5058.400; 4678.000; 2365.800
993.565; 4789.100; 4384.000; 2311.100
994.117; 6777.500; 6381.400; 2308.700
994.669; 4782.500; 4400.700; 2249.300
995.221; 5583.100; 5229.250; 2158.100
995.774; 5475.500; 5121.500; 2085.600
996.326; 5106.100; 4758.800; 2068.100
996.878; 6027.000; 5677.700; 1975.300
997.430; 4868.200; 4524.900; 1929.500
997.982; 5320.200; 4971.100; 1861.900
998.534; 5263.500; 4937.900; 1830.200
999.086; 5236.100; 4910.300; 1823.200
999.638; 4555.500; 4255.000; 1815.000
1000.190; 5003.600; 4652.250; 1796.600
1000.741; 5327.000; 5014.250; 1738.800
1001.293; 4871.100; 4532.050; 1666.200
1001.845; 4839.100; 4533.200; 1566.500
1002.396; 5432.600; 5081.800; 1471.900
1002.948; 5333.400; 5048.700; 1398.000
1003.500; 5253.200; 4960.550; 1356.500
1004.051; 6925.700; 6624.850; 1294.200
1004.603; 5931.700; 5643.750; 1190.000
1005.154; 4401.300; 4166.050; 1063.900
1005.705; 5416.200; 5158.700;  968.300
1006.257; 5287.500; 5060.350;  889.800
1006.808; 5134.300; 4926.700;  801.500
1007.359; 5862.200; 5655.450;  716.400
1007.910; 4876.800; 4671.000;  639.100
1008.461; 5642.800; 5443.300;  561.600
1009.013; 4408.900; 4188.250;  500.400
1009.564; 6162.500; 5967.100;  476.100
1010.115; 4478.300; 4299.100;  431.600
1010.665; 4565.300; 4390.700;  409.300
1011.216; 5135.300; 4940.700;  399.700
1011.767; 5323.700; 5164.100;  388.100
1012.318; 5564.100; 5392.150;  381.400
1012.869; 5139.700; 4966.150;  375.400
1013.419; 4539.000; 4378.150;  357.600
1013.970; 5133.300; 4961.350;  358.300
1014.521; 4687.600; 4524.950;  344.100
1015.071; 5159.500; 5015.950;  322.800
1015.622; 4857.500; 4668.650;  320.600
1016.172; 4535.700; 4392.750;  301.700
1016.723; 4684.700; 4524.350;  289.800
1017.273; 4646.700; 4471.700;  287.600
1017.823; 4997.500; 4817.050;  278.700
1018.374; 4690.800; 4549.200;  274.400
1018.924; 5601.600; 5442.750;  283.200
1019.474; 5519.400; 5356.750;  278.500
1020.024; 5044.100; 4888.650;  274.700
1020.574; 5647.900; 5503.500;  272.700
1021.124; 5227.300; 5080.200;  278.400
1021.674; 4284.700; 4124.300;  269.200
1022.224; 5542.300; 5407.900;  267.800
1022.774; 5157.800; 5009.550;  258.100
1023.324; 5931.400; 5784.100;  260.000
1023.874; 7036.000; 6859.800;  260.700
1024.423; 4723.800; 4580.650;  252.700
1024.973; 4628.600; 4470.350;  234.700
1025.523; 4798.300; 4626.050;  226.500
1026.072; 4672.600; 4538.100;  225.500
1026.622; 5261.900; 5114.600;  210.100
1027.172; 5607.300; 5425.100;  213.000
1027.721; 4641.600; 4495.400;  207.700
1028.270; 5228.500; 5086.500;  205.400
1028.820; 4990.000; 4850.200;  201.000
1029.369; 4760.600; 4637.950;  201.000
1029.918; 5024.800; 4862.500;  198.400
1030.468; 4363.300; 4243.350;  199.200
1031.017; 4950.900; 4836.350;  192.600
1031.566; 4753.300; 4617.600;  197.400
1032.115; 5454.300; 5331.750;  188.300
1032.664; 4679.100; 4559.450;  193.700
1033.213; 5784.300; 5668.250;  191.900
1033.762; 4989.000; 4830.250;  184.500
1034.311; 5301.200; 5191.500;  194.300
1034.860; 5454.900; 5284.950;  192.300
1035.408; 5740.900; 5610.700;  182.600
1035.957; 5663.100; 5522.400;  173.900
1036.506; 4076.400; 3960.200;  185.200
1037.055; 6727.600; 6586.050;  182.500
1037.603; 5233.500; 5103.350;  167.600
1038.152; 4088.200; 3968.450;  168.200
1038.700; 4544.900; 4427.150;  169.600
1039.249; 5346.200; 5226.650;  164.300
1039.797; 5022.000; 4872.500;  169.600
1040.345; 5546.400; 5424.800;  167.100
1040.894; 4940.700; 4813.700;  164.400
1041.442; 5003.400; 4877.550;  158.300
1041.990; 4392.100; 4262.300;  160.000
1042.538; 4185.100; 4042.350;  156.800
1043.087; 4420.100; 4310.800;  146.600
1043.635; 5361.700; 5260.000;  162.400
1044.183; 4646.400; 4514.800;  156.300
1044.731; 4495.800; 4406.500;  158.100
1045.279; 5380.600; 5219.050;  154.500
1045.827; 7210.500; 7077.300;  146.200
1046.374; 3993.900; 3856.850;  154.000
1046.922; 4648.000; 4528.700;  149.000
1047.470; 5517.700; 5396.150;  154.900
1048.018; 5208.300; 5076.000;  148.400
1048.565; 5705.500; 5586.050;  146.300
1049.113; 4345.100; 4219.750;  156.100
1049.660; 4945.200; 4830.250;  154.300
1050.208; 5365.200; 5232.150;  149.400
1050.755; 4781.900; 4685.600;  157.500
1051.303; 5459.100; 5350.000;  157.700
1051.850; 5016.800; 4900.250;  152.800
1052.397; 3711.500; 3583.350;  146.300
1052.945; 4903.300; 4763.250;  149.500
1053.492; 5950.200; 5860.450;  149.300
1054.039; 5762.300; 5671.700;  163.100
1054.586; 4412.400; 4260.150;  150.400
1055.133; 5572.300; 5451.250;  153.500
1055.680; 5135.800; 5019.000;  155.600
1056.227; 4257.700; 4119.750;  148.700
1056.774; 6396.100; 6272.800;  151.500
1057.321; 4122.300; 3982.050;  143.700
1057.868; 5171.700; 5038.200;  145.300
1058.415; 5233.500; 5095.550;  153.500
1058.961; 5387.200; 5280.150;  149.900
1059.508; 5121.800; 4988.750;  147.300
1060.055; 4658.200; 4525.850;  151.000
1060.601; 4949.100; 4812.050;  148.700
1061.148; 4977.200; 4856.200;  153.800
1061.694; 4728.500; 4607.750;  150.500
1062.241; 4737.900; 4618.400;  149.100
1062.787; 5345.800; 5206.850;  153.000
1063.334; 6474.500; 6355.650;  153.200
1063.880; 5395.000; 5266.000;  148.400
1064.426; 5699.400; 5564.350;  149.200
1064.972; 4783.000; 4656.350;  156.400
1065.518; 4518.400; 4387.200;  144.700
1066.065; 5048.800; 4927.450;  139.400
1066.611; 4811.100; 4690.100;  139.300
1067.157; 5138.900; 5020.700;  138.400
1067.703; 5395.300; 5278.700;  142.700
1068.249; 4777.500; 4640.100;  136.700
1068.794; 5019.400; 4906.750;  139.400
1069.340; 4602.500; 4496.450;  142.700
1069.886; 4765.200; 4653.350;  135.600
1070.432; 4286.400; 4171.150;  133.400
1070.977; 4870.900; 4721.800;  138.200
1071.523; 4505.700; 4393.350;  132.400
1072.068; 4614.500; 4498.200;  132.700
1072.614; 4172.900; 4055.600;  127.000
1073.160; 5583.200; 5477.150;  131.300
1073.705; 4607.500; 4497.900;  135.700
1074.250; 4484.600; 4390.750;  133.000
1074.796; 5306.400; 5194.350;  138.000
1075.341; 5390.400; 5229.600;  137.300
1075.886; 4714.100; 4626.400;  134.300
1076.431; 5299.000; 5204.900;  138.200
1076.976; 5199.500; 5083.800;  132.200
1077.521; 4678.600; 4562.800;  138.900
1078.067; 4661.800; 4576.800;  128.600
1078.612; 5388.100; 5274.850;  138.900
1079.156; 4866.500; 4743.400;  128.900
1079.701; 5631.300; 5527.550;  129.700
1080.246; 5637.800; 5543.800;  128.600
1080.791; 5105.100; 4994.550;  122.600
1081.336; 5331.600; 5231.150;  122.000
1081.880; 5276.900; 5190.550;  123.900
1082.425; 4589.400; 4490.500;  120.600
1082.970; 5828.200; 5734.950;  124.500
1083.514; 4817.700; 4696.700;  112.000
1084.059; 4732.300; 4624.650;  120.700
1084.603; 4571.200; 4479.200;  116.000
1085.147; 5273.900; 5167.200;  116.300
1085.692; 5868.800; 5753.400;  108.200
1086.236; 4073.500; 3966.450;  114.600
1086.780; 6168.200; 6044.500;  118.900
1087.325; 5327.900; 5225.500;  120.400
1087.869; 4961.100; 4879.850;  110.500
1088.413; 5713.200; 5615.250;  114.000
1088.957; 4344.900; 4238.200;  114.300
1089.501; 6277.700; 6206.000;  114.600
1090.045; 5934.000; 5864.600;  114.200
1090.589; 4593.600; 4492.250;  105.500
1091.133; 5450.500; 5377.300;  111.800
1091.676; 4747.900; 4649.250;  110.900
1092.220; 4894.300; 4787.250;  110.100
1092.764; 5766.200; 5672.550;  108.100
1093.307; 5488.100; 5364.100;  109.900
1093.851; 4519.300; 4422.150;  107.500
1094.395; 5581.900; 5493.850;   96.200
1094.938; 5127.000; 5062.000;   99.300
1095.482; 4531.600; 4436.550;   97.700
1096.025; 5786.700; 5711.450;   84.900
1096.568; 6317.600; 6229.550;   88.500
1097.112; 4060.400; 3972.400;   95.700
1097.655; 4862.500; 4744.650;   97.300
1098.198; 4877.300; 4778.850;   92.600
1098.741; 5044.700; 4922.400;   91.800
1099.285; 5331.100; 5240.200;   88.000
1099.828; 3549.000; 3448.600;   91.700
1100.371; 4966.000; 4888.250;   89.900
1100.914; 5630.800; 5508.500;   91.500
1101.457; 5526.800; 5443.850;   88.100
1101.999; 4702.600; 4632.250;   86.400
1102.542; 5216.700; 5117.750;   90.800
1103.085; 5407.000; 5320.700;   95.400
1103.628; 6283.500; 6206.250;   97.700
1104.170; 4775.900; 4684.400;   84.000
1104.713; 5285.700; 5195.850;   93.900
1105.256; 4522.800; 4419.550;   93.000
1105.798; 4096.400; 3988.600;   85.600
1106.341; 5973.100; 5905.300;   87.100
1106.883; 4250.300; 4161.400;   85.200
1107.425; 5490.900; 5414.900;   85.000
1107.968; 5071.400; 4974.500;   84.300
1108.510; 5619.400; 5540.350;   88.200
1109.052; 5072.000; 4988.450;   86.600
1109.594; 4589.000; 4484.800;   79.400
1110.136; 5293.900; 5221.300;   81.700
1110.679; 5130.500; 5066.900;   75.500
1111.221; 4990.600; 4895.250;   88.500
1111.763; 4532.700; 4453.050;   87.700
1112.304; 4469.700; 4373.350;   89.700
1112.846; 5458.300; 5377.400;   81.900
1113.388; 7850.800; 7765.850;   86.400
1113.930; 5724.400; 5628.400;   84.700
1114.472; 4981.500; 4929.350;   78.900
1115.013; 4511.800; 4415.050;   78.100
1115.555; 4851.500; 4761.800;   84.900
1116.097; 4730.400; 4628.450;   79.200
1116.638; 5657.700; 5576.850;   83.700
1117.180; 5441.100; 5357.600;   85.500
1117.721; 4727.300; 4643.900;   78.800
1118.262; 5600.800; 5513.150;   77.400
1118.804; 5236.300; 5150.350;   81.400
1119.345; 4781.900; 4708.600;   77.800
1119.886; 5827.100; 5730.300;   81.200
1120.427; 4833.500; 4749.450;   77.200
1120.969; 4941.500; 4855.250;   75.200
1121.510; 4642.200; 4565.100;   80.900
1122.051; 5972.300; 5882.950;   77.300
1122.592; 5446.500; 5362.150;   73.300
1123.133; 4493.200; 4406.450;   90.100
1123.673; 5862.400; 5780.650;   75.000
1124.214; 5046.400; 4988.450;   80.600
1124.755; 5326.300; 5239.150;   78.000
1125.296; 5131.700; 5071.700;   77.500
1125.836; 5699.700; 5614.350;   80.400
1126.377; 4965.000; 4888.950;   75.600
1126.918; 5089.000; 4990.000;   78.900
1127.458; 5141.300; 5057.400;   78.000
1127.999; 5434.900; 5356.800;   76.100
1128.539; 5743.700; 5660.000;   81.400
1129.079; 5280.000; 5167.400;   77.400
1129.620; 4608.100; 4531.750;   68.000
1130.160; 4469.500; 4398.900;   77.500
1130.700; 5293.000; 5217.650;   76.300
1131.240; 5302.800; 5245.000;   66.800
1131.781; 5152.500; 5091.350;   70.600
1132.321; 5001.200; 4912.100;   77.200
1132.861; 4636.800; 4544.850;   70.400
1133.401; 4939.700; 4886.600;   68.700
1133.941; 5201.200; 5117.700;   68.500
1134.481; 5026.400; 4933.900;   75.900
1135.020; 5045.400; 4968.550;   66.600
1135.560; 5571.300; 5473.300;   68.100
1136.100; 4148.300; 4069.400;   64.900
1136.640; 4248.700; 4176.500;   72.500
1137.179; 4403.300; 4350.650;   69.700
1137.719; 5010.300; 4954.400;   68.400
1138.258; 4864.300; 4803.500;   67.000
1138.798; 5484.700; 5416.400;   69.600
1139.337; 3987.600; 3922.550;   64.000
1139.877; 5317.300; 5230.350;   64.500
1140.416; 7230.100; 7166.500;   74.900
1140.955; 4407.500; 4333.400;   67.200
1141.494; 5609.000; 5532.550;   69.900
1142.034; 4844.000; 4767.300;   59.100
1142.573; 5368.800; 5287.550;   65.900
1143.112; 4601.500; 4512.350;   70.600
1143.651; 4463.600; 4385.950;   67.100
1144.190; 5771.200; 5703.450;   56.700
1144.729; 5022.200; 4955.750;   61.800
1145.267; 4826.200; 4736.950;   62.500
1145.806; 5313.400; 5220.900;   68.500
1146.345; 5316.000; 5257.750;   58.300
1146.884; 5217.900; 5145.950;   63.100
1147.422; 4402.700; 4340.300;   54.800
1147.961; 5902.700; 5848.100;   67.600
1148.500; 5554.500; 5498.250;   64.700
1149.038; 5322.800; 5233.850;   61.000
1149.577; 5848.800; 5777.000;   65.100
1150.115; 3751.600; 3681.900;   58.100
1150.653; 5079.600; 5012.650;   60.500
1151.192; 4637.700; 4567.250;   56.600
1151.730; 5465.400; 5413.950;   62.300
1152.268; 4901.200; 4812.600;   55.500
1152.806; 4803.900; 4734.050;   58.200
1153.344; 4774.900; 4732.600;   55.000
1153.882; 4975.100; 4902.000;   64.200
1154.421; 3897.900; 3841.450;   60.300
1154.958; 5013.300; 4952.800;   58.100
1155.496; 5361.400; 5328.650;   55.800
1156.034; 6016.200; 5973.800;   61.000
1156.572; 5589.500; 5493.900;   56.200
1157.110; 3939.000; 3856.400;   53.200
1157.647; 5674.200; 5588.750;   57.400
1158.185; 4741.600; 4685.000;   55.500
1158.723; 4253.300; 4210.500;   58.000
1159.260; 5832.500; 5779.700;   53.700
1159.798; 5535.500; 5442.950;   51.700
1160.335; 5298.800; 5227.600;   59.600

