gmr_left
Integration time [ms]: 3468.598
Averaging Nr. [scans]: 10
Smoothing Nr. [pixels]: 0
Data measured with spectrometer [name]: 7414430SP
Wave   ;Sample   ;Dark     ;Reference
[nm]   ;[counts] ;[counts] ;[counts] 

288.544; 5085.429; 4983.385;    6.613
289.143; 4212.438; 4054.288;   14.216
289.742; 5460.472; 5296.867;   11.816
290.341; 5218.556; 5071.188;   -4.936
290.940; 4772.839; 4633.392;    0.852
291.538; 6008.402; 5870.872;    1.792
292.137; 5310.018; 5171.827;    6.262
292.736; 6879.656; 6773.389;    8.164
293.335; 4888.023; 4733.773;   -6.418
293.934; 5262.413; 5105.711;   -2.904
294.532; 7424.816; 7282.726;   -5.162
295.131; 5883.921; 5726.518;  -10.283
295.730; 5674.357; 5546.961;  -16.141
296.328; 5520.259; 5353.235;  -14.740
296.927; 5440.714; 5314.389;   -8.768
297.525; 5418.269; 5271.474;  -15.255
298.124; 4431.461; 4280.530;  -22.063
298.722; 5307.435; 5165.127;  -14.796
299.321; 4897.720; 4751.758;  -10.466
299.919; 5255.033; 5105.331;  -10.979
300.518; 4790.271; 4674.793;  -12.077
301.116; 4778.215; 4680.521;  -13.509
301.715; 5082.229; 4971.916;  -11.939
302.313; 4930.221; 4778.250;  -15.424
302.911; 5201.646; 5092.749;  -19.833
303.509; 6843.417; 6712.962;   -3.567
304.108; 5389.673; 5252.457;   -9.553
304.706; 5756.524; 5641.515;   -8.582
305.304; 5846.485; 5735.520;  -12.348
305.902; 5571.076; 5445.572;  -14.411
306.500; 5181.840; 5061.710;   -7.194
307.098; 5376.460; 5250.898;   -9.322
307.696; 5732.912; 5572.651;  -19.192
308.294; 5270.037; 5156.146;   -9.736
308.892; 5500.592; 5383.022;  -15.482
309.490; 5097.153; 4946.583;  -14.107
310.088; 5830.763; 5709.054;  -15.862
310.686; 5970.061; 5862.354;  -10.781
311.284; 5638.202; 5498.425;  -14.878
311.882; 5224.386; 5091.407;   -9.948
312.480; 5052.496; 4933.328;  -15.503
313.078; 6061.529; 5942.025;  -17.262
313.675; 4993.140; 4875.110;   -3.694
314.273; 5951.758; 5857.348;  -18.246
314.871; 4148.550; 4039.000;  -15.190
315.468; 4737.146; 4617.749;  -12.633
316.066; 5061.955; 4944.624;   -5.765
316.664; 4727.639; 4640.783;  -14.317
317.261; 6909.337; 6802.427;   -8.677
317.859; 5847.393; 5734.268;  -11.804
318.456; 6339.386; 6212.525;   -3.107
319.054; 5960.730; 5840.912;   -3.062
319.651; 5677.489; 5547.735;   -6.706
320.249; 6196.989; 6109.685;   -5.206
320.846; 5356.600; 5266.352;   -4.679
321.443; 6455.431; 6334.103;   -7.920
322.041; 6283.224; 6195.737;  -14.105
322.638; 5367.127; 5261.052;   -6.263
323.235; 4972.021; 4863.250;   -7.424
323.833; 5690.421; 5567.545;  -14.765
324.430; 4532.481; 4435.237;  -10.550
325.027; 6791.044; 6712.098;   -9.951
325.624; 4725.173; 4616.812;   -3.712
326.221; 5099.682; 4968.497;   -9.368
326.818; 6193.601; 6091.093;   -5.637
327.415; 5485.061; 5355.476;   -6.699
328.012; 4989.769; 4863.679;   -5.713
328.609; 5306.253; 5162.610;   -9.983
329.206; 5815.405; 5645.363;   -7.154
329.803; 5345.625; 5211.901;   -1.682
330.400; 5011.091; 4900.641;   -2.741
330.997; 5967.796; 5817.924;   -4.339
331.594; 5769.869; 5646.983;  -10.278
332.191; 5156.149; 4995.754;   -6.967
332.787; 6133.063; 5969.677;   -0.480
333.384; 5410.346; 5257.662;  -10.333
333.981; 5902.272; 5771.552;  -19.900
334.578; 4943.344; 4783.916;  -19.816
335.174; 5096.130; 4998.339;  -15.844
335.771; 6056.924; 5919.491;  -12.670
336.367; 5071.436; 4916.472;  -21.124
336.964; 5773.131; 5640.552;  -18.226
337.561; 5256.791; 5090.344;  -13.311
338.157; 6794.503; 6657.257;  -19.006
338.754; 5815.451; 5671.309;  -19.418
339.350; 5180.925; 5050.082;  -29.433
339.946; 5532.941; 5393.192;  -16.622
340.543; 6265.045; 6090.361;  -16.744
341.139; 5219.952; 5095.704;  -21.841
341.735; 5750.102; 5610.534;  -25.012
342.332; 5044.260; 4912.607;  -19.156
342.928; 5913.815; 5749.129;  -20.443
343.524; 5706.060; 5588.802;  -14.397
344.120; 5512.233; 5379.784;  -20.654
344.716; 5223.568; 5094.014;   -5.730
345.313; 5965.036; 5839.472;  -10.929
345.909; 4516.514; 4381.842;  -19.843
346.505; 5509.641; 5364.214;  -19.645
347.101; 6167.453; 6056.932;   -9.618
347.697; 5900.271; 5751.302;  -10.305
348.293; 4495.801; 4347.975;  -23.189
348.889; 5567.318; 5446.116;  -18.418
349.485; 4955.886; 4872.965;  -10.476
350.081; 5778.181; 5670.291;  -17.320
350.676; 5118.669; 5000.419;  -21.088
351.272; 6096.043; 5950.016;  -12.821
351.868; 5734.769; 5612.910;  -13.165
352.464; 5328.040; 5204.664;  -12.464
353.059; 4702.769; 4613.287;  -22.547
353.655; 5870.180; 5722.059;   -9.379
354.251; 5663.466; 5519.300;   -8.266
354.846; 5527.238; 5425.623;  -17.705
355.442; 5585.188; 5447.184;   -9.317
356.038; 5579.465; 5455.090;  -11.049
356.633; 5367.936; 5254.163;  -10.006
357.229; 5372.348; 5228.999;  -13.120
357.824; 5238.637; 5095.231;  -15.647
358.420; 5006.607; 4871.454;  -19.204
359.015; 5081.976; 4953.653;  -12.263
359.610; 5739.178; 5623.981;  -16.421
360.206; 4379.126; 4244.451;  -20.074
360.801; 4712.018; 4567.671;  -13.277
361.396; 5354.242; 5273.642;   -5.822
361.992; 4922.337; 4822.082;  -11.247
362.587; 4978.947; 4866.389;  -21.502
363.182; 5147.447; 5012.657;   -7.461
363.777; 5560.415; 5452.306;   -8.719
364.372; 5547.897; 5417.878;  -14.590
364.967; 5107.242; 4998.401;  -15.145
365.563; 6170.493; 6062.795;   -7.192
366.158; 5068.643; 4955.311;   -5.662
366.753; 4800.349; 4656.940;   -8.378
367.348; 5655.865; 5508.222;  -14.990
367.942; 5176.271; 5090.001;   -6.005
368.537; 5680.876; 5566.585;  -11.504
369.132; 5309.354; 5163.560;  -10.576
369.727; 4707.195; 4572.582;  -12.573
370.322; 4309.249; 4212.081;  -11.560
370.917; 5383.269; 5272.619;  -10.388
371.511; 6701.346; 6595.170;   -9.161
372.106; 6010.142; 5869.301;  -10.245
372.701; 4366.255; 4245.487;  -10.158
373.296; 6621.849; 6521.885;   -4.719
373.890; 4894.747; 4797.689;  -11.802
374.485; 5305.185; 5206.901;  -13.500
375.079; 5709.855; 5582.247;   -6.276
375.674; 6277.702; 6178.866;   -0.447
376.268; 5227.623; 5119.886;   -6.916
376.863; 4427.482; 4325.718;  -14.483
377.457; 5059.943; 4959.743;   -6.903
378.052; 5953.211; 5812.932;   -9.844
378.646; 5775.882; 5688.691;  -12.601
379.240; 5618.493; 5483.954;  -14.715
379.835; 4878.831; 4791.252;  -12.331
380.429; 4257.127; 4139.587;   -9.074
381.023; 6085.404; 6023.366;   -1.729
381.617; 5293.497; 5193.600;  -13.714
382.212; 5293.049; 5199.617;   -7.060
382.806; 5957.644; 5856.393;   -2.303
383.400; 5283.460; 5194.861;   -0.815
383.994; 5241.771; 5127.624;   -4.429
384.588; 5476.781; 5394.073;   -6.261
385.182; 5739.194; 5638.881;    0.008
385.776; 5631.469; 5545.624;   -3.247
386.370; 5363.534; 5300.699;   -1.030
386.964; 5404.438; 5324.055;   -1.346
387.558; 4672.947; 4587.712;   -2.020
388.152; 5402.175; 5338.543;   -5.345
388.745; 6563.293; 6478.322;   -2.774
389.339; 5850.664; 5769.749;    3.510
389.933; 5393.313; 5325.146;    5.280
390.527; 6960.299; 6889.151;    2.610
391.120; 4731.562; 4663.248;   -7.914
391.714; 5629.711; 5553.737;   -1.903
392.308; 6293.753; 6199.287;    6.023
392.901; 5159.678; 5082.758;   -4.103
393.495; 4791.525; 4713.759;    3.284
394.089; 6256.108; 6189.122;    8.655
394.682; 5667.037; 5610.813;    2.312
395.275; 5867.914; 5792.710;   -7.402
395.869; 5419.297; 5370.055;   -1.072
396.462; 4969.440; 4932.678;    6.454
397.056; 6277.771; 6202.715;    8.494
397.649; 5994.949; 5922.913;    1.599
398.242; 5805.304; 5768.239;    3.153
398.836; 6236.806; 6167.017;   11.395
399.429; 5059.140; 5014.096;   14.695
400.022; 5421.364; 5395.776;    3.627
400.615; 6673.889; 6618.121;    8.383
401.208; 5561.005; 5498.181;   13.295
401.802; 5738.668; 5681.382;    6.211
402.395; 5644.164; 5596.026;    7.227
402.988; 5733.352; 5664.872;    2.700
403.581; 5168.089; 5136.675;   11.225
404.174; 5508.617; 5480.048;   18.922
404.767; 5142.397; 5071.610;   14.169
405.360; 5088.783; 5064.078;    8.999
405.953; 6216.477; 6154.089;   13.138
406.545; 5959.474; 5915.479;   13.937
407.138; 5043.564; 4989.331;   10.869
407.731; 5014.229; 4971.279;   12.768
408.324; 5369.346; 5308.193;   22.921
408.917; 5602.594; 5555.781;   15.308
409.509; 6101.114; 6066.265;   12.239
410.102; 5330.886; 5291.206;   13.741
410.695; 5443.092; 5394.863;   20.249
411.287; 4897.833; 4872.253;   21.793
411.880; 4759.354; 4750.541;   22.965
412.472; 5025.119; 4994.453;   15.082
413.065; 5241.186; 5211.779;   23.423
413.657; 4721.172; 4700.924;   21.077
414.250; 5288.991; 5250.026;   12.349
414.842; 5531.984; 5521.505;   20.423
415.434; 4705.387; 4676.125;   19.906
416.027; 5288.096; 5250.987;   26.574
416.619; 5885.119; 5860.780;   15.705
417.211; 4905.029; 4856.906;   17.791
417.804; 5114.747; 5078.208;   30.244
418.396; 4988.039; 4972.632;   24.177
418.988; 5390.282; 5394.105;   24.904
419.580; 4660.166; 4639.345;   20.692
420.172; 4449.935; 4422.949;   22.275
420.764; 5474.794; 5436.114;   26.773
421.356; 5252.192; 5234.536;   25.731
421.948; 5539.501; 5520.057;   24.876
422.540; 5527.575; 5486.917;   30.042
423.132; 4905.984; 4874.056;   32.728
423.724; 4564.603; 4547.598;   21.317
424.316; 5083.538; 5074.269;   29.359
424.908; 4857.899; 4818.475;   28.798
425.500; 5318.623; 5270.527;   30.512
426.092; 5275.137; 5262.205;   26.741
426.683; 5698.886; 5674.779;   27.029
427.275; 5228.319; 5220.344;   32.611
427.867; 5390.527; 5381.797;   33.796
428.458; 6008.055; 5979.088;   34.453
429.050; 5593.361; 5560.808;   34.255
429.642; 6063.004; 6064.581;   39.082
430.233; 4503.396; 4497.833;   41.138
430.825; 5997.702; 5978.757;   31.581
431.416; 5714.594; 5693.486;   35.755
432.008; 5257.142; 5234.766;   40.566
432.599; 5267.135; 5254.004;   46.322
433.190; 5174.964; 5165.022;   46.897
433.782; 4562.183; 4558.587;   41.069
434.373; 7166.928; 7136.306;   48.778
434.964; 4797.760; 4799.398;   50.078
435.556; 5139.568; 5104.428;   52.381
436.147; 6170.285; 6134.034;   38.251
436.738; 5665.626; 5644.065;   47.237
437.329; 5763.000; 5767.012;   61.304
437.920; 5300.220; 5283.781;   48.611
438.511; 4486.751; 4484.836;   44.910
439.103; 4972.302; 4948.235;   62.404
439.694; 5443.852; 5438.619;   63.075
440.285; 5967.784; 5937.420;   61.033
440.876; 6866.313; 6875.643;   57.249
441.466; 4527.639; 4531.124;   61.306
442.057; 5267.379; 5215.991;   65.773
442.648; 6000.055; 5976.379;   65.676
443.239; 4944.668; 4920.651;   55.963
443.830; 5658.244; 5610.384;   69.631
444.421; 5167.162; 5137.718;   69.943
445.011; 5504.747; 5510.426;   72.791
445.602; 5907.410; 5907.933;   68.848
446.193; 3735.599; 3709.493;   80.044
446.783; 4918.920; 4895.904;   82.599
447.374; 5403.526; 5405.238;   77.419
447.964; 5649.236; 5641.364;   72.605
448.555; 6483.390; 6454.327;   82.041
449.145; 5149.807; 5148.146;   76.230
449.736; 6337.367; 6313.438;   75.545
450.326; 5565.934; 5572.809;   67.945
450.917; 5225.917; 5214.044;   77.598
451.507; 4628.367; 4629.224;   68.027
452.097; 5879.275; 5859.108;   67.771
452.688; 5744.063; 5714.359;   62.884
453.278; 4168.343; 4175.920;   65.512
453.868; 6252.646; 6226.240;   71.796
454.458; 5021.915; 4998.066;   60.956
455.048; 5508.483; 5505.911;   62.356
455.639; 4276.389; 4270.608;   58.782
456.229; 5460.800; 5442.075;   65.209
456.819; 5752.995; 5737.538;   61.466
457.409; 6011.197; 5988.460;   59.967
457.999; 5640.772; 5608.689;   58.093
458.589; 5165.144; 5144.935;   59.536
459.179; 5476.575; 5490.749;   55.994
459.769; 4719.260; 4700.417;   43.624
460.358; 6102.580; 6079.692;   46.978
460.948; 5225.052; 5199.387;   49.821
461.538; 4927.113; 4915.584;   54.678
462.128; 4990.100; 4979.425;   49.309
462.717; 5305.703; 5271.431;   52.774
463.307; 5314.513; 5279.012;   48.101
463.897; 4865.559; 4840.453;   45.606
464.486; 6441.602; 6435.799;   45.010
465.076; 5521.278; 5508.673;   45.519
465.666; 4735.874; 4710.358;   50.058
466.255; 5923.252; 5932.642;   44.463
466.845; 4878.525; 4845.475;   41.206
467.434; 5412.459; 5385.521;   44.847
468.023; 4749.113; 4736.857;   46.760
468.613; 5313.044; 5274.485;   39.736
469.202; 4696.747; 4667.222;   46.461
469.791; 5376.283; 5351.184;   47.944
470.381; 5376.159; 5350.895;   47.529
470.970; 5137.698; 5136.348;   43.773
471.559; 5388.421; 5390.396;   41.646
472.148; 4794.033; 4762.518;   37.914
472.738; 5540.827; 5495.057;   48.071
473.327; 4438.995; 4456.801;   47.871
473.916; 5325.606; 5287.146;   37.716
474.505; 5405.834; 5393.509;   40.256
475.094; 5887.788; 5865.358;   43.269
475.683; 5729.939; 5701.447;   36.499
476.272; 5171.646; 5158.572;   44.542
476.861; 4951.034; 4900.277;   42.297
477.449; 5048.798; 5016.748;   46.878
478.038; 4762.569; 4744.075;   35.156
478.627; 4945.466; 4943.110;   42.514
479.216; 5360.566; 5325.338;   43.937
479.805; 5424.458; 5371.653;   51.393
480.393; 7360.372; 7300.708;   53.239
480.982; 6249.266; 6238.065;   38.955
481.571; 6052.062; 6005.705;   45.436
482.159; 4642.647; 4618.991;   51.007
482.748; 5661.331; 5641.481;   49.695
483.336; 5906.436; 5872.924;   48.280
483.925; 5137.548; 4993.409;   47.166
484.513; 5009.073; 4970.040;   55.404
485.102; 5418.203; 5368.277;   54.238
485.690; 7030.180; 7009.038;   55.748
486.278; 6766.856; 6745.635;   55.934
486.867; 5285.111; 5215.002;   57.106
487.455; 5990.567; 5939.843;   56.979
488.043; 4652.376; 4629.218;   57.564
488.631; 6762.853; 6732.188;   57.432
489.220; 5919.575; 5888.118;   63.646
489.808; 4438.716; 4399.126;   65.449
490.396; 5881.562; 5816.073;   61.977
490.984; 5001.390; 4951.264;   68.834
491.572; 5847.458; 5823.526;   70.775
492.160; 5536.376; 5484.568;   67.564
492.748; 5113.149; 5103.664;   66.808
493.336; 5959.910; 5918.320;   79.747
493.924; 5118.443; 5054.267;   88.688
494.512; 5852.167; 5817.397;   84.120
495.100; 5732.453; 5691.016;   86.250
495.687; 6062.320; 6014.601;  103.074
496.275; 4891.661; 4878.941;  108.717
496.863; 5132.793; 5065.160;  107.035
497.451; 5056.323; 5034.038;  117.993
498.038; 5313.056; 5313.558;  120.116
498.626; 5140.330; 5086.890;  143.059
499.214; 5503.457; 5471.485;  153.434
499.801; 5360.169; 5322.221;  175.121
500.389; 4397.593; 4364.446;  185.617
500.976; 5585.146; 5544.377;  215.789
501.564; 5390.703; 5330.850;  240.321
502.151; 3896.681; 3852.220;  267.007
502.738; 5057.834; 5027.823;  317.961
503.326; 5172.123; 5129.429;  361.216
503.913; 5418.188; 5378.604;  401.433
504.500; 5577.787; 5530.499;  446.492
505.088; 4738.639; 4710.506;  512.063
505.675; 5165.009; 5123.102;  586.387
506.262; 5132.504; 5085.023;  671.021
506.849; 5254.936; 5209.396;  759.062
507.436; 5941.911; 5891.975;  849.788
508.023; 5219.345; 5196.791;  944.288
508.610; 5832.350; 5784.424; 1020.690
509.197; 5632.024; 5582.570; 1089.052
509.784; 5280.627; 5220.757; 1133.776
510.371; 4422.331; 4366.182; 1165.501
510.958; 5386.126; 5338.453; 1251.735
511.545; 6213.147; 6150.146; 1350.248
512.132; 5293.071; 5223.521; 1525.945
512.719; 4686.688; 4663.104; 1834.933
513.305; 4851.882; 4822.911; 1965.349
513.892; 6126.911; 6074.784; 1963.265
514.479; 5393.175; 5352.118; 2046.446
515.066; 5921.738; 5865.174; 2252.803
515.652; 5401.776; 5316.741; 2567.247
516.239; 5735.499; 5688.453; 2636.919
516.825; 4494.606; 4440.519; 2482.304
517.412; 6627.284; 6569.657; 2427.031
517.998; 5138.173; 5124.672; 2540.463
518.585; 5109.480; 5041.720; 2609.007
519.171; 5415.543; 5357.517; 2842.088
519.758; 4603.370; 4527.980; 3090.703
520.344; 5836.527; 5801.957; 3176.076
520.930; 4700.165; 4660.865; 3295.037
521.516; 5605.196; 5568.661; 3500.959
522.103; 6169.073; 6109.140; 3736.704
522.689; 5136.205; 5046.509; 3971.022
523.275; 5976.565; 5921.020; 4213.778
523.861; 5213.402; 5141.817; 4190.361
524.447; 5968.901; 5895.449; 4070.602
525.033; 6032.321; 5969.365; 4088.892
525.619; 4894.220; 4824.573; 4416.851
526.205; 4570.593; 4522.824; 4836.835
526.791; 5098.637; 5080.638; 4885.903
527.377; 4939.248; 4886.777; 4544.907
527.963; 5435.729; 5357.608; 4321.995
528.549; 5503.368; 5471.029; 4473.979
529.135; 4857.472; 4799.785; 4788.663
529.721; 5330.297; 5289.275; 4888.577
530.306; 7184.268; 7149.079; 4775.779
530.892; 5083.578; 5035.210; 4793.906
531.478; 4973.979; 4910.001; 4956.948
532.063; 4749.628; 4698.426; 5136.936
532.649; 6532.083; 6475.575; 5336.867
533.235; 4763.056; 4710.380; 5748.092
533.820; 6105.389; 6033.095; 6456.875
534.406; 5190.649; 5133.546; 6590.167
534.991; 4788.372; 4744.730; 6179.622
535.576; 5202.920; 5152.528; 6098.691
536.162; 7273.157; 7175.622; 6441.234
536.747; 4544.979; 4500.724; 6816.224
537.333; 4843.759; 4772.972; 6889.752
537.918; 5236.804; 5181.318; 7154.280
538.503; 4924.780; 4867.438; 7150.848
539.088; 5521.317; 5444.059; 7253.308
539.673; 5061.638; 5018.697; 7625.180
540.259; 4892.490; 4832.009; 8226.793
540.844; 4316.521; 4250.265; 8745.092
541.429; 6426.361; 6360.395; 8762.553
542.014; 4471.702; 4420.172; 8871.497
542.599; 5500.049; 5417.014; 8886.008
543.184; 4646.036; 4561.306; 9079.139
543.769; 4923.975; 4844.123; 9076.182
544.354; 5060.041; 4998.507; 8354.081
544.938; 5492.085; 5396.553; 8236.809
545.523; 6389.433; 6326.764; 8222.179
546.108; 5270.942; 5217.730; 8114.082
546.693; 5223.295; 5178.206; 8535.912
547.278; 5241.507; 5181.683; 9238.322
547.862; 5221.677; 5151.523; 9034.405
548.447; 5900.958; 5833.480; 7795.011
549.031; 5075.607; 5019.655; 7485.099
549.616; 5436.551; 5383.887; 7626.308
550.201; 4934.220; 4859.369; 7627.909
550.785; 5700.681; 5618.947; 7859.125
551.370; 4604.231; 4519.063; 7990.654
551.954; 5850.119; 5785.114; 8196.468
552.538; 5717.996; 5663.715; 7959.495
553.123; 4941.016; 4862.699; 7964.826
553.707; 5100.272; 5038.385; 8515.957
554.291; 6141.446; 6054.031; 8724.024
554.876; 5779.225; 5747.388; 8524.211
555.460; 4961.734; 4892.509; 8704.456
556.044; 4925.666; 4828.855; 9141.473
556.628; 5286.903; 5202.608; 9250.197
557.212; 6013.032; 5944.873; 9444.237
557.796; 5146.879; 5082.906; 9379.783
558.380; 5549.741; 5466.216; 9353.658
558.964; 5377.122; 5321.742; 9210.310
559.548; 4540.860; 4477.608; 8475.153
560.132; 5072.283; 4982.252; 7954.084
560.716; 4672.726; 4593.302; 7489.529
561.300; 4592.858; 4507.485; 7211.952
561.884; 5694.961; 5581.377; 7141.313
562.467; 5637.987; 5549.185; 7155.386
563.051; 5271.206; 5185.900; 7323.158
563.635; 5205.666; 5099.010; 7709.114
564.219; 5238.633; 5166.236; 7678.855
564.802; 5658.122; 5563.201; 7376.187
565.386; 5392.963; 5259.096; 7054.372
565.969; 6167.266; 6057.083; 6589.196
566.553; 6728.126; 6654.257; 6279.371
567.136; 6076.027; 5988.439; 5967.930
567.720; 5356.983; 5255.929; 5660.703
568.303; 5550.635; 5455.691; 5648.615
568.887; 5391.047; 5286.245; 5618.443
569.470; 5526.805; 5440.454; 5411.875
570.053; 5763.836; 5667.810; 5149.274
570.637; 4905.071; 4787.553; 5122.798
571.220; 5852.123; 5681.210; 4957.369
571.803; 6799.977; 6635.300; 4933.018
572.386; 5194.833; 5055.450; 4840.973
572.969; 5210.019; 5062.691; 4592.886
573.552; 5360.588; 5157.522; 4348.387
574.135; 4831.597; 4658.188; 4002.290
574.718; 5033.300; 4835.171; 3654.773
575.301; 5033.842; 4821.937; 3502.288
575.884; 5034.385; 4808.703; 3349.803
576.467; 6196.283; 5951.329; 3191.403
577.050; 5726.276; 5439.763; 3062.418
577.633; 6791.243; 6480.844; 3214.200
578.216; 5441.394; 5073.692; 3284.889
578.799; 5466.476; 5071.508; 3189.777
579.381; 7146.849; 6697.000; 3064.502
579.964; 5301.772; 4809.335; 2888.357
580.547; 5875.447; 5371.672; 2905.760
581.129; 6773.363; 6197.255; 2966.849
581.712; 6140.503; 5529.845; 2887.292
582.294; 5975.564; 5301.864; 2771.631
582.877; 7505.548; 6756.813; 2711.602
583.459; 6115.765; 5236.528; 2577.049
584.042; 6095.860; 5150.640; 2454.707
584.624; 5796.771; 4768.103; 2305.893
585.206; 5264.822; 4114.883; 2189.546
585.789; 6238.444; 4948.339; 2112.577
586.371; 6897.160; 5531.035; 2153.065
586.953; 7142.225; 5740.188; 2197.806
587.536; 7662.194; 6109.292; 2105.489
588.118; 6847.306; 5140.732; 1963.911
588.700; 8084.215; 6115.244; 1843.179
589.282; 7865.371; 5567.221; 1813.834
589.864; 7889.250; 5353.828; 1777.620
590.446; 7125.685; 4281.861; 1733.780
591.028; 8424.364; 5306.373; 1676.008
591.610; 7646.064; 4363.441; 1631.649
592.192; 8730.818; 5368.327; 1632.362
592.774; 8218.430; 4705.171; 1569.507
593.356; 8727.219; 4906.636; 1524.539
593.937; 9104.182; 4876.733; 1569.720
594.519;10465.297; 5891.684; 1569.049
595.101; 9400.474; 4415.508; 1545.452
595.683;10389.332; 4950.863; 1607.568
596.264;11267.692; 5184.795; 1615.506
596.846;11609.187; 5034.453; 1667.622
597.427;11788.035; 4882.123; 1670.469
598.009;12258.874; 4818.189; 1640.312
598.591;13467.021; 5743.932; 1541.022
599.172;13107.193; 5070.064; 1598.665
599.753;13157.468; 4544.065; 1619.068
600.335;15052.643; 6136.621; 1548.612
600.916;14397.304; 5220.222; 1607.510
601.498;15407.920; 5512.527; 1745.181
602.079;16265.339; 5267.174; 1801.011
602.660;16937.623; 5161.532; 1834.640
603.241;16475.902; 4183.903; 1787.351
603.823;17594.596; 4952.837; 1684.266
604.404;17354.090; 4586.540; 1654.241
604.985;17723.258; 4963.834; 1758.741
605.566;18985.682; 5787.352; 1697.679
606.147;19397.336; 5119.091; 1526.728
606.728;19815.232; 4563.777; 1484.086
607.309;20879.672; 4904.498; 1421.070
607.890;21017.098; 4984.097; 1369.867
608.471;21407.299; 4801.079; 1277.826
609.051;22487.119; 5385.582; 1180.416
609.632;23152.051; 4723.337; 1075.816
610.213;25256.043; 5155.071; 1053.313
610.794;26034.359; 4975.971;  979.442
611.374;26787.779; 5465.109;  917.414
611.955;25937.869; 4470.179;  819.987
612.536;28005.633; 5384.845;  752.627
613.116;28643.354; 4959.033;  690.799
613.697;28669.582; 4885.601;  674.974
614.277;28448.537; 4738.818;  663.846
614.858;28152.586; 4877.575;  665.898
615.438;27743.209; 5227.542;  660.712
616.019;28217.779; 6137.323;  632.732
616.599;26472.490; 4113.567;  551.759
617.179;28327.775; 4594.608;  512.871
617.760;31524.180; 6911.514;  473.655
618.340;29918.934; 5155.940;  440.004
618.920;31567.043; 6328.034;  429.731
619.500;31407.730; 5015.039;  441.361
620.080;31079.262; 4725.700;  425.202
620.660;31370.537; 4711.282;  408.164
621.241;32248.096; 5022.023;  387.161
621.821;33264.887; 5282.726;  378.017
622.401;33337.473; 5863.925;  379.188
622.980;31275.494; 4482.932;  350.019
623.560;31686.070; 5026.484;  336.446
624.140;30825.516; 5298.343;  336.473
624.720;29622.383; 5462.688;  334.974
625.300;28763.754; 4728.110;  325.717
625.880;29571.129; 5147.411;  308.519
626.459;31526.389; 5201.913;  307.117
627.039;31850.479; 4350.832;  290.890
627.619;35320.391; 6638.576;  286.635
628.198;35523.621; 5951.995;  282.535
628.778;36019.484; 5586.238;  285.474
629.357;33771.496; 4542.902;  284.103
629.937;33309.461; 4978.398;  292.178
630.516;34750.313; 6239.056;  290.749
631.096;33646.375; 4804.599;  285.489
631.675;34300.602; 6131.162;  287.022
632.254;32812.430; 4798.861;  286.038
632.834;32157.885; 5153.383;  276.451
633.413;32640.574; 6110.794;  279.447
633.992;32150.346; 5855.117;  264.508
634.571;32269.418; 5609.308;  271.010
635.151;32625.863; 4691.204;  277.338
635.730;33117.871; 5087.243;  289.305
636.309;33116.707; 5521.918;  285.306
636.888;32959.449; 5605.305;  254.051
637.467;30477.107; 4264.982;  230.324
638.046;32397.744; 6252.648;  253.349
638.625;31609.574; 6001.558;  246.866
639.204;30837.010; 5370.055;  240.825
639.782;31822.854; 5208.692;  261.970
640.361;31956.633; 6048.680;  277.780
640.940;30668.834; 4878.755;  270.101
641.519;30582.135; 5450.881;  248.622
642.097;31033.535; 5568.007;  239.843
642.676;31229.537; 5261.282;  244.264
643.255;31268.340; 5050.108;  234.985
643.833;33226.441; 5615.533;  244.406
644.412;32971.340; 4987.809;  244.927
644.990;33153.742; 5280.984;  249.948
645.569;33140.445; 5544.160;  249.569
646.147;33096.746; 5836.085;  243.290
646.726;31627.047; 5366.811;  249.511
647.304;30858.049; 4997.137;  228.032
647.882;28774.850; 4258.813;  214.552
648.461;29208.951; 5371.288;  214.973
649.039;30008.254; 5608.514;  223.394
649.617;29846.955; 5628.339;  261.415
650.195;29781.756; 5371.365;  298.736
650.773;29460.357; 4960.740;  309.557
651.352;28706.059; 4143.216;  297.978
651.930;27606.260; 4130.991;  289.399
652.508;29049.162; 5723.267;  285.620
653.086;28314.463; 5507.692;  272.241
653.663;27211.264; 4796.918;  265.062
654.241;26711.465; 4490.293;  286.083
654.819;27565.268; 4615.369;  286.404
655.397;28809.869; 4690.295;  291.825
655.975;29794.770; 5048.920;  299.145
656.553;31083.072; 6218.846;  288.866
657.130;29638.172; 4657.571;  304.087
657.708;29178.174; 5433.847;  302.908
658.286;28824.775; 5296.923;  294.629
658.863;29376.377; 5324.798;  293.350
659.441;29155.078; 5389.874;  318.671
660.018;27898.580; 5097.750;  333.692
660.596;26950.881; 4200.725;  335.013
661.173;27491.684; 4901.000;  371.534
661.750;27065.984; 4702.626;  365.155
662.328;28309.686; 5587.202;  349.976
662.905;26941.188; 4940.777;  332.997
663.482;26456.289; 5083.353;  321.717
664.060;26458.289; 4771.229;  314.438
664.637;27332.891; 5588.704;  306.259
665.214;27754.992; 5335.729;  314.580
665.791;27844.594; 5032.305;  334.501
666.368;27680.596; 4959.781;  329.222
666.945;28625.297; 5684.906;  342.143
667.522;28056.799; 4717.682;  370.964
668.099;28622.400; 5091.607;  396.885
668.676;28525.900; 5118.883;  391.706
669.253;29400.203; 6240.458;  369.627
669.830;28585.305; 6020.684;  360.348
670.407;28183.605; 5106.160;  344.769
670.984;28589.906; 5086.335;  322.890
671.560;28641.008; 5574.311;  316.910
672.137;27542.309; 4961.736;  322.531
672.714;27936.611; 5467.362;  318.552
673.290;28280.111; 5373.288;  324.473
673.867;28434.613; 4833.513;  340.594
674.443;28605.615; 4531.489;  319.515
675.020;29143.816; 5309.114;  286.336
675.596;28165.318; 5018.040;  247.557
676.173;27651.920; 4451.815;  227.778
676.749;27781.021; 3922.141;  224.399
677.326;28825.723; 4368.667;  230.520
677.902;29846.523; 4774.042;  241.841
678.478;30663.926; 4461.667;  239.762
679.054;34204.926; 7564.293;  248.583
679.631;31043.127; 5430.918;  237.503
680.207;31309.029; 6464.444;  245.924
680.783;29062.830; 4093.020;  224.845
681.359;31255.031; 5083.095;  209.666
681.935;32373.633; 5235.421;  191.687
682.511;32295.734; 5215.347;  210.008
683.087;31565.936; 5486.172;  213.329
683.663;30481.738; 4989.798;  216.850
684.239;29940.738; 4471.173;  229.471
684.815;31854.340; 5717.749;  248.792
685.390;32532.342; 6583.324;  231.813
685.966;30550.143; 5212.300;  221.234
686.542;30643.145; 4601.525;  214.255
687.118;32795.047; 5305.601;  212.276
687.693;33470.148; 5532.626;  233.096
688.269;32778.148; 5006.652;  246.917
688.844;33423.352; 5451.178;  236.938
689.420;32397.652; 5201.003;  242.059
689.995;32639.652; 6343.929;  245.480
690.571;31952.254; 6073.555;  244.701
691.146;31371.955; 4956.180;  251.922
691.722;32482.258; 5407.605;  284.743
692.297;32542.459; 4926.881;  320.664
692.872;32845.559; 4713.607;  313.885
693.448;32413.961; 4582.982;  290.106
694.023;33386.762; 5245.058;  304.327
694.598;34001.863; 5270.083;  319.648
695.173;32790.566; 4924.559;  323.169
695.748;30959.566; 4215.834;  376.389
696.323;31870.969; 5105.660;  397.610
696.898;33479.469; 5950.936;  430.231
697.473;32449.871; 4299.711;  454.952
698.048;34604.871; 4971.887;  478.973
698.623;34916.473; 4452.513;  477.094
699.198;35359.477; 5220.988;  496.915
699.773;34917.977; 4741.614;  490.236
700.348;34199.078; 4612.189;  519.957
700.922;35342.078; 5259.115;  575.678
701.497;35773.980; 5148.090;  621.399
702.072;35564.781; 5743.716;  664.420
702.646;35054.184; 5594.742;  690.541
703.221;34155.785; 5313.967;  748.862
703.795;33038.785; 4632.393;  774.282
704.370;31738.488; 3778.718;  799.803
704.944;32834.891; 4895.394;  875.824
705.519;34363.492; 5308.319;  902.945
706.093;34722.191; 4681.495;  889.266
706.668;35247.594; 5455.021;  903.487
707.242;35669.996; 5654.146;  881.708
707.816;34501.098; 4947.872;  892.329
708.390;33846.898; 5124.697;  970.250
708.965;33652.199; 5301.323;  984.671
709.539;33601.602; 4990.148; 1026.092
710.113;33749.004; 5207.074; 1067.913
710.687;33256.004; 5640.149; 1166.434
711.261;31596.506; 4559.725; 1190.854
711.835;32351.506; 4612.951; 1197.275
712.409;33282.406; 4253.726; 1308.096
712.983;32893.711; 4290.602; 1461.617
713.557;32743.311; 4282.777; 1611.838
714.131;32956.711; 5013.153; 1554.359
714.704;31369.613; 4634.329; 1520.780
715.278;32414.215; 5144.154; 1575.101
715.852;33494.918; 5585.030; 1689.822
716.425;34500.918; 6407.255; 1829.143
716.999;31936.619; 4212.281; 2008.664
717.573;32791.422; 5429.156; 2000.485
718.146;33826.223; 6262.982; 1914.506
718.720;34506.223; 5259.257; 1818.026
719.293;35535.023; 5467.333; 1734.147
719.867;34385.227; 4764.059; 1716.968
720.440;35701.027; 6015.034; 1918.589
721.013;34565.828; 4811.760; 1975.410
721.587;33190.531; 4299.285; 2073.331
722.160;33813.434; 5726.411; 2357.852
722.733;32761.633; 5173.437; 2657.073
723.306;31806.734; 5141.112; 2703.894
723.880;30838.436; 5249.688; 2549.415
724.453;31941.838; 5992.313; 2414.336
725.026;30935.340; 4835.539; 2298.557
725.599;31462.340; 5329.164; 2168.778
726.172;30927.742; 5443.940; 2106.099
726.745;31200.443; 5378.465; 2253.320
727.318;32180.445; 5725.491; 2404.740
727.891;32859.246; 5322.967; 2680.161
728.463;32546.947; 5295.292; 2838.882
729.036;31037.850; 4689.868; 2755.103
729.609;30625.350; 4626.493; 2731.824
730.182;32492.652; 5631.519; 2855.645
730.754;31667.053; 3903.344; 2946.866
731.327;33273.555; 5446.720; 2840.187
731.900;32023.355; 4321.945; 2647.608
732.472;33328.156; 5046.071; 2473.929
733.045;35046.160; 4950.497; 2445.750
733.617;34223.961; 4246.672; 2511.771
734.190;34381.863; 5419.898; 2581.592
734.762;33810.965; 5102.974; 2710.813
735.334;34277.766; 5176.299; 3005.733
735.907;33969.566; 5168.075; 3154.954
736.479;34842.367; 5842.250; 3171.675
737.051;34730.570; 5445.776; 3217.496
737.623;35584.770; 5507.851; 3246.217
738.195;34824.473; 4769.227; 2985.238
738.768;33288.871; 4023.802; 2727.559
739.340;34253.074; 4860.628; 2666.880
739.912;34074.875; 5603.554; 2769.601
740.484;33043.078; 5436.879; 2731.422
741.056;31974.078; 4970.305; 2963.043
741.628;31931.381; 4624.780; 3361.364
742.199;33183.883; 5959.956; 3641.185
742.771;32221.883; 4440.481; 3932.005
743.343;33177.184; 4653.057; 4319.926
743.915;33987.387; 5345.033; 4706.647
744.487;34758.488; 5489.258; 4874.968
745.058;35490.289; 5553.984; 4616.589
745.630;35392.988; 5518.659; 4253.410
746.201;34901.191; 4827.835; 4056.131
746.773;35128.895; 5459.160; 3772.952
747.344;34369.195; 5104.136; 3642.473
747.916;33674.594; 5270.111; 3752.294
748.487;33962.496; 5635.887; 4106.215
749.059;33583.598; 4506.013; 4457.835
749.630;34254.801; 4721.138; 4366.457
750.201;35125.801; 5102.164; 4600.078
750.773;34703.703; 4777.889; 4658.499
751.344;34521.504; 5161.865; 4609.319
751.915;34036.105; 5092.241; 4526.440
752.486;33283.809; 4694.116; 4536.061
753.057;34161.207; 5222.992; 4383.282
753.628;34734.609; 4686.817; 4296.503
754.199;35315.910; 4885.593; 4383.224
754.770;36132.414; 5480.368; 4653.545
755.341;35735.813; 5749.894; 4831.666
755.912;33980.613; 4999.419; 4831.387
756.483;34305.316; 5448.545; 4735.808
757.054;33057.219; 4883.271; 4685.029
757.625;32173.920; 4503.046; 4994.250
758.195;32862.020; 4325.572; 5051.471
758.766;33945.922; 5270.748; 5317.792
759.337;32739.623; 4280.773; 5646.512
759.907;32418.225; 4342.999; 5404.133
760.478;33075.227; 4789.124; 5090.954
761.048;33828.629; 5493.399; 4871.175
761.619;33257.027; 5362.475; 4589.396
762.189;33713.031; 5069.951; 4171.317
762.760;33036.730; 5565.626; 3872.538
763.330;32724.334; 5503.752; 3832.259
763.900;32503.535; 5284.328; 4150.180
764.471;30999.936; 4638.003; 4529.801
765.041;32322.338; 5847.179; 4715.922
765.611;31999.340; 5437.304; 4681.442
766.181;32214.740; 5039.780; 4717.063
766.751;31968.342; 5119.005; 4710.285
767.321;31786.043; 4448.131; 4450.305
767.891;31960.645; 5204.557; 4274.126
768.461;31365.346; 5037.032; 4215.047
769.031;31371.547; 5077.508; 4173.068
769.601;32818.648; 5778.733; 4174.689
770.171;31479.551; 4328.109; 4229.310
770.741;31207.951; 4911.034; 4352.031
771.311;31124.953; 5448.910; 4336.652
771.880;30403.154; 4618.485; 4300.873
772.450;30965.656; 4677.311; 4387.194
773.020;30434.957; 4289.887; 4220.415
773.589;29988.459; 4754.562; 4075.835
774.159;30079.061; 4800.438; 4105.756
774.729;30397.063; 4720.813; 4114.978
775.298;30679.563; 4759.439; 3693.298
775.867;30394.764; 4757.714; 3343.119
776.437;30804.766; 5131.040; 3062.040
777.006;29456.268; 4302.866; 2927.161
777.576;30363.668; 5446.941; 3046.482
778.145;30359.471; 5370.917; 3230.203
778.714;29768.672; 5031.542; 3253.324
779.283;30326.473; 5439.118; 3129.745
779.853;30162.773; 5058.943; 2983.566
780.422;30660.775; 5060.219; 2929.887
780.991;31274.477; 5386.495; 2863.908
781.560;31290.779; 5965.070; 2948.029
782.129;29649.881; 5295.696; 3074.149
782.698;29390.480; 5900.921; 2893.970
783.267;28352.883; 4729.297; 2721.391
783.836;29309.785; 5276.172; 2659.712
784.404;28712.686; 4461.098; 2622.233
784.973;27817.986; 3851.023; 2600.754
785.542;28655.088; 5026.349; 2528.475
786.111;30303.789; 5830.775; 2404.396
786.679;29839.891; 5452.550; 2365.717
787.248;27454.793; 4330.676; 2498.438
787.817;26472.994; 4810.651; 2645.659
788.385;27591.795; 5724.877; 2709.280
788.954;26265.797; 4367.553; 2620.500
789.522;27754.398; 5565.378; 2625.422
790.090;26592.799; 4385.804; 2743.843
790.659;27575.801; 4865.079; 2635.163
791.227;28238.703; 4976.205; 2495.484
791.795;28781.904; 5255.430; 2413.705
792.364;27372.205; 4543.306; 2345.326
792.932;28349.607; 5377.682; 2350.447
793.500;27394.908; 4911.007; 2429.768
794.068;26691.510; 4323.183; 2513.589
794.636;26854.611; 4670.558; 2664.310
795.204;26282.512; 4202.534; 2721.431
795.772;26815.814; 4632.659; 2802.052
796.340;26865.215; 4759.435; 2847.173
796.908;25902.316; 4206.960; 2997.194
797.476;26418.418; 4502.336; 3151.615
798.044;26100.420; 4136.012; 3110.735
798.612;27176.221; 4980.737; 2931.656
799.180;26717.021; 5133.313; 2785.777
799.747;25864.824; 5083.138; 2899.098
800.315;24475.725; 4392.014; 2955.519
800.883;24610.027; 4061.490; 2948.940
801.450;25882.729; 5018.665; 2965.361
802.018;27021.729; 5292.940; 3070.582
802.585;26969.730; 5054.666; 3156.103
803.153;25862.932; 4664.492; 3199.524
803.720;26112.033; 4707.517; 3168.845
804.287;26507.436; 4887.243; 3248.366
804.855;28469.537; 5659.468; 3406.187
805.422;26879.037; 4918.644; 3430.907
805.989;25410.939; 4588.070; 3453.528
806.556;24711.840; 4591.795; 3612.649
807.124;26175.543; 5564.021; 3736.570
807.691;25478.543; 4479.996; 3770.491
808.258;26210.045; 5059.472; 3705.012
808.825;26741.346; 5589.797; 3828.733
809.392;26938.148; 5972.673; 3986.754
809.959;26105.350; 5256.549; 4410.075
810.526;26350.150; 6019.674; 4774.996
811.093;25266.852; 5721.400; 4754.217
811.659;24177.953; 5003.125; 4661.238
812.226;24479.754; 4971.901; 4672.559
812.793;24774.457; 5206.876; 4822.979
813.360;24887.957; 4989.102; 5189.800
813.926;25791.059; 5258.478; 5310.622
814.493;25183.961; 4367.403; 5414.542
815.060;24445.063; 4104.079; 5548.963
815.626;24951.363; 4424.154; 5452.284
816.193;26113.465; 5153.030; 5339.305
816.759;24798.666; 4596.655; 5544.426
817.325;22760.168; 4107.481; 5706.547
817.892;23989.369; 5512.756; 5623.468
818.458;23850.270; 5284.882; 5586.689
819.024;24333.072; 5746.008; 5647.910
819.591;23804.674; 5041.883; 5762.031
820.157;23374.375; 4388.759; 6284.452
820.723;24075.576; 5277.134; 6906.973
821.289;25978.178; 7644.560; 7086.894
821.855;24130.178; 5422.386; 7054.915
822.421;23368.881; 4781.211; 7112.035
822.987;22906.182; 4474.437; 7256.156
823.553;22942.883; 4880.512; 7538.077
824.119;23127.385; 5598.288; 7594.298
824.685;23044.586; 5809.763; 7613.619
825.251;22997.588; 5485.439; 7644.140
825.816;24128.588; 6152.064; 7720.261
826.382;23018.891; 5462.590; 8014.282
826.948;22728.492; 5587.666; 8281.503
827.513;21461.293; 4939.641; 8289.624
828.079;20564.494; 4576.167; 8587.045
828.645;21908.896; 5236.742; 8821.865
829.210;22057.598; 4476.118; 9054.486
829.776;23049.199; 5393.894; 9054.607
830.341;22212.500; 5571.819; 9415.628
830.906;21613.400; 5734.745; 9932.449
831.472;20708.303; 4652.970;10150.271
832.037;22079.104; 5600.096; 9420.391
832.602;21150.506; 4780.071; 8664.912
833.167;21301.707; 5128.247; 8491.933
833.733;21024.107; 5597.522; 8872.854
834.298;19266.811; 4517.298; 9370.575
834.863;19730.311; 5262.974; 9610.695
835.428;19561.613; 5239.899; 9655.616
835.993;19531.113; 5386.875; 9437.838
836.558;19813.314; 5484.250; 9441.459
837.123;21587.816; 6723.426; 9600.979
837.688;20649.119; 5300.852; 9798.301
838.253;20252.420; 5286.427; 9902.921
838.817;19922.521; 4945.703;10339.742
839.382;20676.723; 5909.928;10548.363
839.947;19833.123; 5175.404;10252.484
840.511;20146.625; 6070.330;10040.005
841.076;17405.627; 4079.655;10099.926
841.641;18684.328; 5452.181;10347.347
842.205;18351.930; 5323.656;10817.368
842.770;19038.031; 6296.932;11435.289
843.334;17673.033; 5019.107;12072.409
843.898;17541.133; 4823.783;12635.431
844.463;18206.035; 5928.008;12537.252
845.027;16918.137; 4890.584;12759.673
845.591;17276.838; 5662.259;12821.993
846.156;16237.039; 4826.035;12520.914
846.720;17398.340; 5556.960;12390.436
847.284;17427.441; 5252.386;12956.456
847.848;17419.344; 5441.262;13240.177
848.412;16753.945; 5169.087;13216.998
848.976;16485.047; 6061.613;13014.619
849.540;16206.848; 6527.588;12355.740
850.104;15881.850; 5991.064;12208.761
850.668;14422.150; 4184.590;12106.882
851.232;14755.952; 4307.315;11862.103
851.796;15216.653; 5074.941;11700.523
852.359;15426.354; 5627.167;12375.944
852.923;15845.557; 5804.642;13087.966
853.487;15565.758; 5520.167;13297.187
854.050;13677.259; 3571.143;13851.207
854.614;14762.761; 4908.619;14854.229
855.177;14716.862; 5336.494;15802.149
855.741;14669.764; 5383.170;16603.570
856.304;15109.465; 5697.095;16359.891
856.868;13665.266; 4635.771;14365.512
857.431;14152.567; 5137.597;13361.333
857.995;13916.169; 4962.522;14130.554
858.558;13777.471; 5337.897;14883.175
859.121;13812.472; 5622.773;15754.195
859.684;13264.673; 5279.549;15995.017
860.247;13067.975; 5129.674;15149.537
860.810;12858.076; 4926.800;14640.358
861.374;14508.678; 6596.625;15551.079
861.937;12429.979; 4535.751;16519.801
862.500;12632.181; 4851.626;16796.521
863.062;12232.981; 4611.952;16538.742
863.625;12857.383; 5352.228;16716.764
864.188;12350.084; 4892.903;17055.084
864.751;11940.485; 4850.029;17197.705
865.314;12090.287; 5205.104;17151.625
865.876;12499.188; 5766.130;17783.547
866.439;12183.590; 5567.105;19283.467
867.002;13166.691; 6460.231;20256.389
867.564;12662.993; 5861.807;20485.410
868.127;11755.595; 5149.032;20789.730
868.689;11790.396; 5392.908;21981.951
869.252;12038.297; 5834.233;23803.771
869.814;11180.299; 4718.109;24974.094
870.377;11698.000; 5351.635;24690.314
870.939;13373.102; 7392.760;23963.436
871.501;11211.003; 5303.736;25167.156
872.063; 9821.204; 3896.411;26995.477
872.626;10191.205; 4223.787;27443.098
873.188;11221.707; 5324.163;26718.418
873.750;10790.309; 5080.338;26558.840
874.312;10542.910; 4895.864;26701.561
874.874;11862.211; 6199.339;27970.582
875.436;11174.013; 5680.564;29173.402
875.998;11444.514; 6024.940;30376.623
876.560;10897.216; 5691.266;32507.344
877.122; 9707.816; 4768.292;34833.066
877.683;10386.418; 5575.017;36458.285
878.245; 9508.420; 4897.792;37248.207
878.807;10002.621; 5480.068;36758.027
879.369; 9006.723; 4507.444;35223.551
879.930; 9236.324; 4623.719;33824.969
880.492;10593.926; 5949.395;34436.492
881.053; 9443.026; 4672.570;37745.313
881.615; 9368.428; 4868.146;41184.633
882.176; 9167.430; 5057.021;42871.555
882.738; 9552.531; 5618.397;41693.074
883.299; 7930.132; 4152.623;40289.895
883.860; 8009.634; 4284.748;39231.215
884.422; 9247.135; 5557.724;38264.039
884.983; 8258.837; 4626.299;37171.859
885.544; 8797.238; 5340.225;35842.379
886.105; 8497.640; 5211.150;34810.000
886.666; 7935.641; 4913.826;34519.020
887.227; 7176.642; 4302.852;33905.641
887.788; 8269.644; 5344.127;34502.965
888.349; 7282.345; 4439.103;34241.785
888.910; 8378.146; 5573.479;33722.203
889.471; 8094.348; 5316.104;32539.625
890.032; 7860.649; 5162.779;31528.346
890.593; 8127.551; 5543.855;32655.068
891.153; 7565.552; 5135.131;33882.289
891.714; 6694.054; 4414.606;33318.711
892.275; 6738.455; 4501.832;31848.930
892.835; 7808.457; 5723.458;30339.752
893.396; 7614.258; 5634.183;30074.973
893.956; 6897.659; 5032.409;30338.393
894.517; 7105.061; 5302.334;30864.113
895.077; 7055.862; 5403.359;29766.734
895.638; 7824.664; 6198.235;26379.557
896.198; 6145.165; 4584.511;24056.277
896.758; 7181.766; 5675.736;22961.898
897.319; 6522.868; 5074.512;21772.020
897.879; 6532.569; 5141.837;20877.539
898.439; 5648.670; 4307.613;19509.461
898.999; 6819.172; 5535.039;17297.582
899.559; 6666.573; 5431.164;14712.002
900.119; 5842.375; 4616.940;12790.224
900.679; 7298.076; 6113.965;11586.744
901.239; 6699.877; 5570.341;10776.465
901.799; 6295.879; 5233.517; 9691.687
902.359; 5679.280; 4687.342; 8725.907
902.919; 5596.981; 4621.167; 8305.728
903.479; 5647.783; 4659.443; 8172.649
904.038; 5416.984; 4449.169; 7913.870
904.598; 4800.686; 3875.344; 7262.291
905.158; 5744.087; 4863.920; 6609.012
905.717; 5944.189; 5072.996; 6236.133
906.277; 5988.190; 5162.421; 5829.054
906.836; 6286.792; 5462.646; 5396.674
907.396; 6159.593; 5392.572; 4964.195
907.955; 6212.594; 5429.648; 4528.917
908.515; 5668.496; 4933.723; 4223.837
909.074; 5734.897; 4988.649; 4023.958
909.633; 5721.599; 5010.174; 4065.379
910.192; 6920.000; 6207.950; 4066.300
910.752; 5668.100; 4959.600; 3971.600
911.311; 5563.900; 4865.850; 3839.600
911.870; 5379.000; 4688.450; 3684.500
912.429; 6474.900; 5783.650; 3635.600
912.988; 6330.300; 5661.550; 3689.800
913.547; 5288.500; 4605.900; 3737.700
914.106; 5904.700; 5258.100; 3740.300
914.665; 5839.800; 5208.000; 3604.600
915.224; 6391.900; 5768.550; 3358.700
915.782; 5469.100; 4839.550; 3188.400
916.341; 6570.500; 5962.050; 3091.400
916.900; 5542.100; 4909.900; 3044.800
917.458; 5269.500; 4651.400; 2888.600
918.017; 5795.400; 5178.650; 2818.900
918.576; 5578.700; 4931.300; 2838.600
919.134; 4965.900; 4303.950; 2880.100
919.693; 5509.400; 4873.500; 2996.300
920.251; 5401.800; 4780.050; 3183.100
920.809; 5111.100; 4494.900; 3247.000
921.368; 5408.500; 4778.200; 3156.600
921.926; 5223.600; 4589.350; 2964.900
922.484; 5753.700; 5097.850; 2846.300
923.042; 5567.000; 4926.600; 2890.400
923.601; 6588.100; 5921.450; 2987.700
924.159; 6041.000; 5421.100; 3049.800
924.717; 5233.400; 4566.750; 3087.000
925.275; 5741.200; 5131.200; 3093.400
925.833; 4740.100; 4094.750; 3182.400
926.391; 6023.200; 5383.850; 3397.900
926.949; 5451.900; 4799.250; 3575.400
927.506; 5833.800; 5168.150; 3713.400
928.064; 5546.000; 4871.550; 3871.300
928.622; 5610.100; 4950.850; 4092.800
929.180; 5084.200; 4394.550; 4499.300
929.737; 4966.200; 4262.150; 4813.200
930.295; 6040.300; 5342.700; 5084.100
930.853; 5300.600; 4611.400; 5185.000
931.410; 5065.600; 4362.650; 5313.100
931.968; 6137.000; 5435.750; 5339.600
932.525; 5741.900; 5058.050; 5399.900
933.082; 4989.200; 4274.850; 5457.500
933.640; 5943.300; 5255.400; 5692.900
934.197; 5606.000; 4870.600; 5821.200
934.754; 5587.600; 4870.050; 5617.900
935.312; 5348.500; 4606.400; 5512.400
935.869; 6640.300; 5887.300; 5582.400
936.426; 5410.700; 4637.950; 5650.100
936.983; 5523.600; 4807.450; 5657.400
937.540; 5081.900; 4325.550; 5564.300
938.097; 5963.700; 5211.850; 5574.000
938.654; 5488.000; 4733.500; 5665.900
939.211; 5971.500; 5207.750; 5931.600
939.768; 5695.700; 4927.300; 6153.600
940.324; 5566.400; 4788.500; 6397.600
940.881; 5336.400; 4588.100; 6454.200
941.438; 6488.200; 5707.300; 6206.900
941.995; 6265.000; 5495.300; 6003.900
942.551; 5184.000; 4355.850; 6228.300
943.108; 5680.000; 4900.450; 6603.500
943.664; 5195.000; 4401.000; 7188.100
944.221; 7043.500; 6214.550; 7579.900
944.777; 5140.300; 4352.050; 7658.100
945.334; 5246.200; 4460.300; 7670.400
945.890; 5771.900; 4974.650; 7525.100
946.446; 5785.900; 5010.250; 7261.500
947.003; 5937.200; 5163.700; 6949.200
947.559; 6716.400; 5954.200; 6773.100
948.115; 6373.500; 5645.200; 6668.400
948.671; 5892.900; 5137.900; 6488.400
949.227; 4987.500; 4193.750; 6236.600
949.783; 4885.800; 4117.050; 6008.900
950.339; 5999.400; 5242.800; 5934.100
950.895; 6302.600; 5574.850; 5933.500
951.451; 5470.400; 4741.800; 6074.700
952.007; 6083.200; 5352.750; 6066.400
952.563; 5535.200; 4791.800; 5884.100
953.118; 5339.700; 4613.750; 5733.800
953.674; 5665.100; 4922.500; 5734.300
954.230; 5653.800; 4959.300; 6039.700
954.785; 5628.600; 4916.850; 6383.500
955.341; 6100.800; 5416.850; 6568.200
955.897; 4826.600; 4133.300; 6488.600
956.452; 5855.700; 5157.200; 6239.200
957.008; 7024.500; 6357.800; 5954.600
957.563; 6357.000; 5679.400; 5816.700
958.118; 5245.000; 4559.100; 5828.200
958.674; 5769.200; 5078.700; 5717.400
959.229; 6459.400; 5788.900; 5506.800
959.784; 4973.700; 4272.350; 5292.200
960.339; 6432.800; 5738.950; 5101.900
960.894; 6110.300; 5417.000; 5093.200
961.449; 5181.500; 4517.750; 5227.900
962.004; 8189.900; 7532.950; 5349.300
962.559; 5267.300; 4597.600; 5514.900
963.114; 4263.900; 3622.400; 5717.300
963.669; 5681.800; 5023.250; 5841.400
964.224; 5407.600; 4740.150; 5805.900
964.779; 5018.200; 4358.550; 5723.400
965.334; 6406.100; 5790.050; 5779.500
965.888; 5328.700; 4670.950; 5948.500
966.443; 6186.800; 5528.700; 6344.200
966.998; 4800.700; 4132.900; 6666.300
967.552; 5567.900; 4962.650; 6710.100
968.107; 5281.200; 4647.700; 6593.500
968.661; 5795.900; 5145.450; 6344.100
969.216; 5234.700; 4608.150; 6062.400
969.770; 5767.000; 5152.800; 5785.500
970.324; 5784.100; 5182.700; 5426.800
970.879; 6068.100; 5463.500; 5016.800
971.433; 6101.800; 5521.200; 4904.500
971.987; 5679.300; 5071.450; 4991.000
972.541; 5842.000; 5259.650; 4978.500
973.095; 6616.500; 6011.200; 4832.000
973.649; 4909.600; 4331.800; 4767.900
974.203; 5099.500; 4502.500; 4881.200
974.757; 5324.000; 4730.300; 4969.500
975.311; 5510.200; 4921.050; 4953.000
975.865; 5582.300; 4997.600; 4884.300
976.419; 5366.700; 4821.850; 4739.800
976.973; 5320.300; 4742.950; 4698.100
977.526; 6173.300; 5635.700; 4631.100
978.080; 4901.700; 4325.400; 4621.600
978.634; 5882.400; 5383.250; 4650.200
979.187; 5797.400; 5267.150; 4669.200
979.741; 6794.400; 6253.100; 4658.000
980.294; 4867.800; 4361.800; 4579.100
980.848; 4284.800; 3796.150; 4452.800
981.401; 5184.400; 4698.600; 4271.900
981.955; 5478.000; 4978.100; 4087.800
982.508; 4652.000; 4129.250; 3973.900
983.061; 6106.800; 5614.150; 3928.600
983.615; 5057.400; 4550.500; 3851.200
984.168; 4844.200; 4374.550; 3734.800
984.721; 5773.300; 5297.850; 3628.300
985.274; 5646.500; 5179.000; 3564.300
985.827; 5407.100; 4956.350; 3558.100
986.380; 4465.300; 4019.650; 3559.900
986.933; 5690.100; 5235.600; 3688.700
987.486; 5677.400; 5250.250; 3778.500
988.039; 5674.200; 5211.400; 3559.900
988.591; 6009.700; 5577.650; 3219.300
989.144; 4687.100; 4254.600; 2902.900
989.697; 4950.800; 4526.200; 2722.600
990.250; 5845.600; 5416.950; 2618.000
990.802; 4923.300; 4538.700; 2523.900
991.355; 6892.700; 6484.450; 2436.500
991.907; 5975.950; 5581.450; 2412.200
992.460; 5059.200; 4678.450; 2387.900
993.012; 5045.000; 4678.000; 2365.800
993.565; 4744.200; 4384.000; 2311.100
994.117; 6774.000; 6381.400; 2308.700
994.669; 4758.000; 4400.700; 2249.300
995.221; 5555.600; 5229.250; 2158.100
995.774; 5482.600; 5121.500; 2085.600
996.326; 5126.800; 4758.800; 2068.100
996.878; 6026.500; 5677.700; 1975.300
997.430; 4844.700; 4524.900; 1929.500
997.982; 5296.100; 4971.100; 1861.900
998.534; 5261.000; 4937.900; 1830.200
999.086; 5201.200; 4910.300; 1823.200
999.638; 4568.500; 4255.000; 1815.000
1000.190; 4980.100; 4652.250; 1796.600
1000.741; 5326.800; 5014.250; 1738.800
1001.293; 4845.700; 4532.050; 1666.200
1001.845; 4834.400; 4533.200; 1566.500
1002.396; 5393.300; 5081.800; 1471.900
1002.948; 5345.800; 5048.700; 1398.000
1003.500; 5242.700; 4960.550; 1356.500
1004.051; 6882.300; 6624.850; 1294.200
1004.603; 5936.100; 5643.750; 1190.000
1005.154; 4389.900; 4166.050; 1063.900
1005.705; 5377.100; 5158.700;  968.300
1006.257; 5285.400; 5060.350;  889.800
1006.808; 5142.200; 4926.700;  801.500
1007.359; 5855.200; 5655.450;  716.400
1007.910; 4881.400; 4671.000;  639.100
1008.461; 5635.400; 5443.300;  561.600
1009.013; 4381.500; 4188.250;  500.400
1009.564; 6165.100; 5967.100;  476.100
1010.115; 4461.700; 4299.100;  431.600
1010.665; 4577.300; 4390.700;  409.300
1011.216; 5100.100; 4940.700;  399.700
1011.767; 5331.400; 5164.100;  388.100
1012.318; 5547.900; 5392.150;  381.400
1012.869; 5139.400; 4966.150;  375.400
1013.419; 4554.800; 4378.150;  357.600
1013.970; 5139.700; 4961.350;  358.300
1014.521; 4688.100; 4524.950;  344.100
1015.071; 5158.700; 5015.950;  322.800
1015.622; 4855.500; 4668.650;  320.600
1016.172; 4557.200; 4392.750;  301.700
1016.723; 4675.900; 4524.350;  289.800
1017.273; 4614.600; 4471.700;  287.600
1017.823; 4974.400; 4817.050;  278.700
1018.374; 4689.900; 4549.200;  274.400
1018.924; 5597.300; 5442.750;  283.200
1019.474; 5486.500; 5356.750;  278.500
1020.024; 5044.000; 4888.650;  274.700
1020.574; 5645.000; 5503.500;  272.700
1021.124; 5233.500; 5080.200;  278.400
1021.674; 4254.100; 4124.300;  269.200
1022.224; 5574.300; 5407.900;  267.800
1022.774; 5155.200; 5009.550;  258.100
1023.324; 5954.000; 5784.100;  260.000
1023.874; 7029.900; 6859.800;  260.700
1024.423; 4721.200; 4580.650;  252.700
1024.973; 4607.100; 4470.350;  234.700
1025.523; 4769.600; 4626.050;  226.500
1026.072; 4692.200; 4538.100;  225.500
1026.622; 5244.700; 5114.600;  210.100
1027.172; 5571.500; 5425.100;  213.000
1027.721; 4638.200; 4495.400;  207.700
1028.270; 5230.700; 5086.500;  205.400
1028.820; 5010.000; 4850.200;  201.000
1029.369; 4778.700; 4637.950;  201.000
1029.918; 5027.200; 4862.500;  198.400
1030.468; 4385.400; 4243.350;  199.200
1031.017; 4957.500; 4836.350;  192.600
1031.566; 4748.500; 4617.600;  197.400
1032.115; 5458.100; 5331.750;  188.300
1032.664; 4688.100; 4559.450;  193.700
1033.213; 5803.200; 5668.250;  191.900
1033.762; 4967.500; 4830.250;  184.500
1034.311; 5322.700; 5191.500;  194.300
1034.860; 5390.500; 5284.950;  192.300
1035.408; 5745.900; 5610.700;  182.600
1035.957; 5653.200; 5522.400;  173.900
1036.506; 4052.200; 3960.200;  185.200
1037.055; 6757.500; 6586.050;  182.500
1037.603; 5233.100; 5103.350;  167.600
1038.152; 4079.600; 3968.450;  168.200
1038.700; 4549.600; 4427.150;  169.600
1039.249; 5352.100; 5226.650;  164.300
1039.797; 5012.400; 4872.500;  169.600
1040.345; 5579.200; 5424.800;  167.100
1040.894; 4923.100; 4813.700;  164.400
1041.442; 5003.500; 4877.550;  158.300
1041.990; 4385.300; 4262.300;  160.000
1042.538; 4174.000; 4042.350;  156.800
1043.087; 4431.600; 4310.800;  146.600
1043.635; 5360.300; 5260.000;  162.400
1044.183; 4653.300; 4514.800;  156.300
1044.731; 4515.400; 4406.500;  158.100
1045.279; 5328.100; 5219.050;  154.500
1045.827; 7220.600; 7077.300;  146.200
1046.374; 4005.000; 3856.850;  154.000
1046.922; 4634.500; 4528.700;  149.000
1047.470; 5513.400; 5396.150;  154.900
1048.018; 5173.700; 5076.000;  148.400
1048.565; 5720.900; 5586.050;  146.300
1049.113; 4348.200; 4219.750;  156.100
1049.660; 4939.900; 4830.250;  154.300
1050.208; 5359.200; 5232.150;  149.400
1050.755; 4795.700; 4685.600;  157.500
1051.303; 5480.000; 5350.000;  157.700
1051.850; 5000.600; 4900.250;  152.800
1052.397; 3700.200; 3583.350;  146.300
1052.945; 4924.000; 4763.250;  149.500
1053.492; 5962.300; 5860.450;  149.300
1054.039; 5789.700; 5671.700;  163.100
1054.586; 4397.700; 4260.150;  150.400
1055.133; 5564.100; 5451.250;  153.500
1055.680; 5114.800; 5019.000;  155.600
1056.227; 4245.900; 4119.750;  148.700
1056.774; 6400.400; 6272.800;  151.500
1057.321; 4112.400; 3982.050;  143.700
1057.868; 5159.100; 5038.200;  145.300
1058.415; 5201.800; 5095.550;  153.500
1058.961; 5395.600; 5280.150;  149.900
1059.508; 5118.400; 4988.750;  147.300
1060.055; 4644.900; 4525.850;  151.000
1060.601; 4915.400; 4812.050;  148.700
1061.148; 4998.800; 4856.200;  153.800
1061.694; 4741.600; 4607.750;  150.500
1062.241; 4735.700; 4618.400;  149.100
1062.787; 5325.900; 5206.850;  153.000
1063.334; 6468.700; 6355.650;  153.200
1063.880; 5396.400; 5266.000;  148.400
1064.426; 5665.900; 5564.350;  149.200
1064.972; 4754.200; 4656.350;  156.400
1065.518; 4514.100; 4387.200;  144.700
1066.065; 5047.900; 4927.450;  139.400
1066.611; 4796.300; 4690.100;  139.300
1067.157; 5123.400; 5020.700;  138.400
1067.703; 5389.500; 5278.700;  142.700
1068.249; 4757.400; 4640.100;  136.700
1068.794; 4994.100; 4906.750;  139.400
1069.340; 4605.400; 4496.450;  142.700
1069.886; 4749.400; 4653.350;  135.600
1070.432; 4255.000; 4171.150;  133.400
1070.977; 4840.000; 4721.800;  138.200
1071.523; 4490.500; 4393.350;  132.400
1072.068; 4593.700; 4498.200;  132.700
1072.614; 4173.000; 4055.600;  127.000
1073.160; 5591.800; 5477.150;  131.300
1073.705; 4623.300; 4497.900;  135.700
1074.250; 4477.100; 4390.750;  133.000
1074.796; 5315.900; 5194.350;  138.000
1075.341; 5321.700; 5229.600;  137.300
1075.886; 4711.500; 4626.400;  134.300
1076.431; 5294.800; 5204.900;  138.200
1076.976; 5179.300; 5083.800;  132.200
1077.521; 4655.100; 4562.800;  138.900
1078.067; 4687.600; 4576.800;  128.600
1078.612; 5398.100; 5274.850;  138.900
1079.156; 4853.100; 4743.400;  128.900
1079.701; 5613.400; 5527.550;  129.700
1080.246; 5638.900; 5543.800;  128.600
1080.791; 5080.500; 4994.550;  122.600
1081.336; 5319.700; 5231.150;  122.000
1081.880; 5264.200; 5190.550;  123.900
1082.425; 4599.100; 4490.500;  120.600
1082.970; 5844.800; 5734.950;  124.500
1083.514; 4807.300; 4696.700;  112.000
1084.059; 4701.700; 4624.650;  120.700
1084.603; 4588.800; 4479.200;  116.000
1085.147; 5235.700; 5167.200;  116.300
1085.692; 5848.400; 5753.400;  108.200
1086.236; 4062.500; 3966.450;  114.600
1086.780; 6150.700; 6044.500;  118.900
1087.325; 5325.600; 5225.500;  120.400
1087.869; 4961.400; 4879.850;  110.500
1088.413; 5713.100; 5615.250;  114.000
1088.957; 4337.200; 4238.200;  114.300
1089.501; 6317.000; 6206.000;  114.600
1090.045; 5947.800; 5864.600;  114.200
1090.589; 4582.400; 4492.250;  105.500
1091.133; 5459.800; 5377.300;  111.800
1091.676; 4735.400; 4649.250;  110.900
1092.220; 4876.800; 4787.250;  110.100
1092.764; 5763.200; 5672.550;  108.100
1093.307; 5459.700; 5364.100;  109.900
1093.851; 4490.300; 4422.150;  107.500
1094.395; 5599.000; 5493.850;   96.200
1094.938; 5163.900; 5062.000;   99.300
1095.482; 4552.700; 4436.550;   97.700
1096.025; 5812.000; 5711.450;   84.900
1096.568; 6324.800; 6229.550;   88.500
1097.112; 4037.600; 3972.400;   95.700
1097.655; 4831.700; 4744.650;   97.300
1098.198; 4859.700; 4778.850;   92.600
1098.741; 5036.800; 4922.400;   91.800
1099.285; 5317.800; 5240.200;   88.000
1099.828; 3545.700; 3448.600;   91.700
1100.371; 4970.400; 4888.250;   89.900
1100.914; 5608.000; 5508.500;   91.500
1101.457; 5504.200; 5443.850;   88.100
1101.999; 4689.500; 4632.250;   86.400
1102.542; 5198.200; 5117.750;   90.800
1103.085; 5410.600; 5320.700;   95.400
1103.628; 6272.800; 6206.250;   97.700
1104.170; 4758.400; 4684.400;   84.000
1104.713; 5269.200; 5195.850;   93.900
1105.256; 4492.100; 4419.550;   93.000
1105.798; 4090.500; 3988.600;   85.600
1106.341; 5989.400; 5905.300;   87.100
1106.883; 4243.800; 4161.400;   85.200
1107.425; 5502.800; 5414.900;   85.000
1107.968; 5064.200; 4974.500;   84.300
1108.510; 5596.500; 5540.350;   88.200
1109.052; 5086.900; 4988.450;   86.600
1109.594; 4588.100; 4484.800;   79.400
1110.136; 5299.700; 5221.300;   81.700
1110.679; 5154.200; 5066.900;   75.500
1111.221; 4984.300; 4895.250;   88.500
1111.763; 4530.400; 4453.050;   87.700
1112.304; 4462.600; 4373.350;   89.700
1112.846; 5494.000; 5377.400;   81.900
1113.388; 7855.300; 7765.850;   86.400
1113.930; 5727.900; 5628.400;   84.700
1114.472; 4983.400; 4929.350;   78.900
1115.013; 4509.400; 4415.050;   78.100
1115.555; 4841.700; 4761.800;   84.900
1116.097; 4722.000; 4628.450;   79.200
1116.638; 5629.200; 5576.850;   83.700
1117.180; 5441.300; 5357.600;   85.500
1117.721; 4701.900; 4643.900;   78.800
1118.262; 5622.000; 5513.150;   77.400
1118.804; 5234.700; 5150.350;   81.400
1119.345; 4788.500; 4708.600;   77.800
1119.886; 5827.000; 5730.300;   81.200
1120.427; 4839.500; 4749.450;   77.200
1120.969; 4955.500; 4855.250;   75.200
1121.510; 4634.900; 4565.100;   80.900
1122.051; 5980.600; 5882.950;   77.300
1122.592; 5433.100; 5362.150;   73.300
1123.133; 4482.800; 4406.450;   90.100
1123.673; 5850.700; 5780.650;   75.000
1124.214; 5035.600; 4988.450;   80.600
1124.755; 5322.500; 5239.150;   78.000
1125.296; 5114.300; 5071.700;   77.500
1125.836; 5664.500; 5614.350;   80.400
1126.377; 4946.200; 4888.950;   75.600
1126.918; 5070.300; 4990.000;   78.900
1127.458; 5163.000; 5057.400;   78.000
1127.999; 5427.400; 5356.800;   76.100
1128.539; 5734.800; 5660.000;   81.400
1129.079; 5257.400; 5167.400;   77.400
1129.620; 4601.700; 4531.750;   68.000
1130.160; 4461.000; 4398.900;   77.500
1130.700; 5304.000; 5217.650;   76.300
1131.240; 5317.600; 5245.000;   66.800
1131.781; 5156.600; 5091.350;   70.600
1132.321; 4969.800; 4912.100;   77.200
1132.861; 4633.000; 4544.850;   70.400
1133.401; 4949.700; 4886.600;   68.700
1133.941; 5200.700; 5117.700;   68.500
1134.481; 4995.200; 4933.900;   75.900
1135.020; 5019.500; 4968.550;   66.600
1135.560; 5566.300; 5473.300;   68.100
1136.100; 4144.700; 4069.400;   64.900
1136.640; 4245.700; 4176.500;   72.500
1137.179; 4411.800; 4350.650;   69.700
1137.719; 5018.300; 4954.400;   68.400
1138.258; 4875.100; 4803.500;   67.000
1138.798; 5493.600; 5416.400;   69.600
1139.337; 3981.100; 3922.550;   64.000
1139.877; 5303.600; 5230.350;   64.500
1140.416; 7243.100; 7166.500;   74.900
1140.955; 4412.600; 4333.400;   67.200
1141.494; 5589.900; 5532.550;   69.900
1142.034; 4866.200; 4767.300;   59.100
1142.573; 5357.200; 5287.550;   65.900
1143.112; 4573.100; 4512.350;   70.600
1143.651; 4450.200; 4385.950;   67.100
1144.190; 5790.600; 5703.450;   56.700
1144.729; 5048.400; 4955.750;   61.800
1145.267; 4810.500; 4736.950;   62.500
1145.806; 5311.300; 5220.900;   68.500
1146.345; 5324.000; 5257.750;   58.300
1146.884; 5229.000; 5145.950;   63.100
1147.422; 4421.800; 4340.300;   54.800
1147.961; 5908.900; 5848.100;   67.600
1148.500; 5580.000; 5498.250;   64.700
1149.038; 5317.900; 5233.850;   61.000
1149.577; 5828.000; 5777.000;   65.100
1150.115; 3743.600; 3681.900;   58.100
1150.653; 5069.400; 5012.650;   60.500
1151.192; 4640.600; 4567.250;   56.600
1151.730; 5468.900; 5413.950;   62.300
1152.268; 4896.700; 4812.600;   55.500
1152.806; 4805.100; 4734.050;   58.200
1153.344; 4817.500; 4732.600;   55.000
1153.882; 4941.900; 4902.000;   64.200
1154.421; 3891.200; 3841.450;   60.300
1154.958; 4988.800; 4952.800;   58.100
1155.496; 5391.800; 5328.650;   55.800
1156.034; 6023.000; 5973.800;   61.000
1156.572; 5580.700; 5493.900;   56.200
1157.110; 3917.900; 3856.400;   53.200
1157.647; 5681.900; 5588.750;   57.400
1158.185; 4746.400; 4685.000;   55.500
1158.723; 4280.500; 4210.500;   58.000
1159.260; 5852.100; 5779.700;   53.700
1159.798; 5504.700; 5442.950;   51.700
1160.335; 5289.000; 5227.600;   59.600

