gmr_left
Integration time [ms]:   3.882
Averaging Nr. [scans]: 1000
Smoothing Nr. [pixels]: 0
Data measured with spectrometer [name]: 7414430SP
Wave   ;Sample   ;Dark     ;Reference
[nm]   ;[counts] ;[counts] ;[counts] 

288.544;  125.206;   10.292;  793.890
289.143;  128.224;    4.564;  681.602
289.742;  129.924;    6.144;  828.814
290.341;  117.760;    4.396;  789.841
290.940;  108.496;    0.938;  730.702
291.538;  108.873;   -0.684;  881.108
292.137;  107.509;   -2.845;  792.581
292.736;  111.590;   -0.144;  975.101
293.335;  108.010;   -6.352;  735.086
293.934;  108.487;   -7.642;  781.677
294.532;  108.388;   -4.992; 1031.958
295.131;   95.285;   -5.478;  834.394
295.730;   95.349;   -6.549;  809.588
296.328;   93.277;   -9.558;  783.442
296.927;   93.249;   -8.118;  779.652
297.525;   94.383;   -6.908;  781.236
298.124;   85.614;   -9.195;  654.009
298.722;   90.080;   -8.198;  761.933
299.321;   87.675;   -8.817;  708.597
299.919;   86.078;   -7.716;  751.918
300.518;   82.478;  -10.745;  689.338
301.116;   83.355;   -9.647;  691.381
301.715;   83.570;  -10.828;  730.222
302.313;   82.305;   -6.087;  704.943
302.911;   78.778;   -6.824;  733.830
303.509;   84.592;   -8.807;  925.627
304.108;   81.047;   -8.198;  760.383
304.706;   81.503;   -6.218;  801.664
305.304;   76.387;   -7.185;  796.707
305.902;   81.931;   -8.568;  784.484
306.500;   76.998;   -7.737;  728.200
307.098;   75.081;   -6.026;  746.560
307.696;   74.242;   -7.176;  780.432
308.294;   75.276;   -8.656;  731.359
308.892;   76.219;   -6.838;  759.769
309.490;   72.367;   -2.596;  712.161
310.088;   70.771;   -4.485;  788.444
310.686;   76.007;   -3.907;  821.749
311.284;   71.588;   -2.806;  766.040
311.882;   69.387;   -2.845;  731.225
312.480;   66.407;   -3.274;  697.167
313.078;   68.141;   -3.645;  808.331
313.675;   68.516;   -4.997;  691.600
314.273;   63.789;   -0.894;  797.837
314.871;   63.001;   -2.854;  589.829
315.468;   61.006;   -3.644;  652.090
316.066;   65.020;   -3.947;  694.427
316.664;   57.576;   -1.824;  656.351
317.261;   62.561;    1.565;  910.128
317.859;   58.321;   -3.955;  768.735
318.456;   58.638;   -2.886;  830.096
319.054;   55.686;   -0.995;  787.828
319.651;   54.184;   -1.765;  759.928
320.249;   53.437;   -3.685;  810.188
320.846;   52.371;   -3.736;  714.286
321.443;   49.866;   -2.065;  832.135
322.041;   47.702;   -5.635;  812.315
322.638;   46.347;   -5.985;  701.456
323.235;   47.359;   -6.677;  665.683
323.833;   45.089;   -3.497;  740.354
324.430;   41.480;   -6.756;  615.900
325.027;   43.412;   -7.647;  876.855
325.624;   43.202;   -7.598;  644.532
326.221;   39.810;   -5.848;  689.717
326.818;   40.329;   -5.777;  818.332
327.415;   41.832;   -8.769;  748.828
328.012;   41.898;   -6.299;  690.585
328.609;   40.435;   -6.639;  731.389
329.206;   38.196;   -6.358;  778.621
329.803;   37.242;   -8.698;  737.841
330.400;   40.224;   -8.379;  704.260
330.997;   40.136;   -6.178;  817.147
331.594;   38.167;   -5.646;  788.185
332.191;   41.974;   -6.928;  728.722
332.787;   42.989;   -6.057;  844.463
333.384;   41.336;   -6.445;  763.093
333.981;   39.348;   -8.002;  815.687
334.578;   41.752;   -8.443;  708.378
335.174;   44.027;   -6.053;  731.469
335.771;   43.807;   -5.791;  836.456
336.367;   40.495;   -6.570;  710.631
336.964;   42.438;   -6.741;  793.266
337.561;   41.270;   -5.710;  731.112
338.157;   39.266;   -3.928;  911.916
338.754;   35.695;   -5.577;  796.589
339.350;   35.333;   -9.667;  722.493
339.946;   38.921;   -5.269;  773.135
340.543;   30.372;   -4.485;  846.136
341.139;   25.563;   -7.584;  720.836
341.735;   23.010;   -8.553;  772.593
342.332;   23.091;   -4.984;  691.472
342.928;   22.952;   -3.475;  795.394
343.524;   19.116;   -6.653;  761.684
344.120;   15.449;   -7.173;  738.562
344.716;   17.968;   -4.385;  723.717
345.313;   16.201;   -3.565;  795.342
345.909;   11.862;   -7.495;  627.336
346.505;   14.719;   -8.276;  740.247
347.101;   15.279;   -5.697;  827.864
347.697;   15.391;   -4.767;  785.398
348.293;    9.767;   -7.226;  627.244
348.889;   10.955;   -7.547;  745.914
349.485;   10.362;   -9.147;  688.205
350.081;   11.147;   -6.568;  772.592
350.676;    6.799;   -6.516;  691.606
351.272;   10.928;   -7.378;  809.530
351.868;   10.284;   -6.759;  780.497
352.464;    9.136;   -4.798;  723.932
353.059;    5.078;   -7.977;  646.017
353.655;    8.984;   -8.769;  777.063
354.251;    9.198;   -5.920;  759.845
354.846;    4.276;   -7.647;  740.646
355.442;    2.276;   -6.956;  753.071
356.038;    3.230;   -9.928;  751.708
356.633;    4.287;   -7.698;  728.594
357.229;    2.153;   -6.307;  724.757
357.824;    1.544;   -7.647;  703.600
358.420;   -0.652;  -10.047;  679.726
359.015;    0.467;   -7.458;  695.357
359.610;    1.452;   -5.748;  763.920
360.206;   -4.092;   -9.346;  603.240
360.801;   -1.311;  -11.268;  646.503
361.396;    1.321;   -8.789;  725.975
361.992;   -2.898;   -6.347;  668.220
362.587;   -6.159;   -6.476;  670.160
363.182;   -3.719;   -9.457;  689.631
363.777;   -2.197;   -7.147;  738.242
364.372;   -3.116;   -5.507;  737.314
364.967;   -5.784;   -6.386;  680.744
365.563;   -1.477;   -7.858;  815.567
366.158;   -5.427;   -8.517;  685.161
366.753;   -5.015;   -8.728;  649.263
367.348;   -5.840;   -7.677;  746.056
367.942;   -5.638;  -10.387;  697.298
368.537;   -6.902;   -7.187;  754.245
369.132;   -6.650;   -8.587;  703.428
369.727;  -10.741;   -8.606;  638.079
370.322;   -9.649;  -10.426;  580.186
370.917;   -8.649;   -5.776;  710.646
371.511;   -6.039;   -6.007;  861.834
372.106;   -9.388;   -6.686;  776.964
372.701;  -12.711;   -9.335;  585.988
373.296;   -6.865;   -6.777;  863.135
373.890;  -11.809;   -7.546;  647.840
374.485;  -13.565;   -8.755;  691.199
375.079;  -10.004;   -9.797;  738.685
375.674;   -8.580;   -6.327;  812.970
376.268;  -11.516;   -9.046;  691.759
376.863;  -17.928;   -7.993;  580.327
377.457;  -12.112;   -9.206;  662.490
378.052;  -12.999;   -5.345;  764.884
378.646;  -13.872;   -5.605;  741.167
379.240;  -14.842;   -6.825;  721.176
379.835;  -13.954;  -10.476;  636.978
380.429;  -16.169;   -8.676;  562.557
381.023;  -15.730;   -4.945;  779.205
381.617;  -17.644;   -8.094;  680.106
382.212;  -14.385;  -10.646;  685.303
382.806;  -13.816;   -8.136;  760.690
383.400;  -17.534;   -7.855;  672.281
383.994;  -17.911;   -8.125;  664.870
384.588;  -14.647;   -7.637;  697.701
385.182;  -12.487;   -7.458;  726.624
385.776;  -14.292;   -6.277;  706.875
386.370;  -17.260;   -7.485;  681.968
386.964;  -15.776;   -9.416;  684.155
387.558;  -13.950;   -8.518;  598.360
388.152;  -18.165;   -7.096;  681.959
388.745;  -16.056;   -7.656;  814.707
389.339;  -13.821;   -8.927;  747.642
389.933;  -13.622;   -9.538;  695.370
390.527;  -14.181;   -5.857;  859.029
391.120;  -20.549;   -9.455;  595.318
391.714;  -17.237;   -9.746;  711.633
392.308;  -13.996;   -7.857;  780.253
392.901;  -18.432;   -9.106;  642.460
393.495;  -19.367;  -10.365;  595.414
394.089;  -17.431;   -9.696;  760.452
394.682;  -18.608;   -7.016;  697.188
395.275;  -18.573;   -8.466;  719.927
395.869;  -19.186;   -8.985;  667.314
396.462;  -18.119;  -11.496;  616.609
397.056;  -14.061;   -7.838;  776.621
397.649;  -18.351;   -6.895;  731.575
398.242;  -15.711;   -5.017;  712.645
398.836;  -14.999;   -8.787;  766.408
399.429;  -15.780;   -8.967;  631.041
400.022;  -20.403;   -8.815;  665.902
400.615;  -16.352;   -6.276;  805.609
401.208;  -15.463;   -8.407;  691.451
401.802;  -17.842;   -7.296;  699.329
402.395;  -18.696;   -7.585;  683.502
402.988;  -20.501;   -8.015;  696.627
403.581;  -15.740;   -9.577;  646.878
404.174;  -14.166;   -7.588;  686.568
404.767;  -16.591;   -7.906;  638.583
405.360;  -19.243;   -7.875;  621.445
405.953;  -12.784;   -8.127;  759.034
406.545;  -13.317;   -7.198;  725.342
407.138;  -17.594;   -8.916;  618.350
407.731;  -16.226;   -9.767;  613.303
408.324;  -11.683;  -10.659;  660.554
408.917;  -13.419;   -8.068;  681.864
409.509;  -14.472;   -9.837;  740.396
410.102;  -16.092;   -8.146;  643.948
410.695;  -11.147;   -7.969;  665.758
411.287;  -11.213;   -8.579;  599.821
411.880;  -12.019;   -6.968;  585.421
412.472;  -15.871;   -9.487;  613.092
413.065;  -12.585;  -10.338;  629.408
413.657;  -11.339;   -9.169;  576.678
414.250;  -10.001;  -10.119;  646.681
414.842;  -11.638;   -9.938;  676.353
415.434;   -9.557;  -10.409;  570.463
416.027;   -5.108;   -9.591;  652.196
416.619;   -8.304;   -7.379;  713.400
417.211;   -8.408;   -9.159;  599.352
417.804;   -3.784;   -9.191;  628.499
418.396;   -8.055;   -8.159;  607.643
418.988;   -5.838;   -6.960;  659.238
419.580;   -9.609;  -11.389;  568.276
420.172;   -7.369;  -13.460;  536.196
420.764;   -3.140;  -10.701;  672.482
421.356;   -4.061;   -8.961;  636.898
421.948;   -5.328;   -9.770;  677.661
422.540;    0.552;   -8.832;  680.027
423.132;   -0.321;   -8.153;  600.641
423.724;   -3.861;   -8.481;  561.267
424.316;   -2.025;   -9.261;  621.345
424.908;    1.905;   -9.643;  591.517
425.500;    2.341;   -8.663;  647.978
426.092;    3.926;   -8.503;  648.268
426.683;    2.995;  -10.522;  684.836
427.275;    4.950;  -11.734;  641.471
427.867;    6.512;  -10.264;  668.948
428.458;    6.270;   -7.644;  732.344
429.050;    5.613;   -7.853;  680.749
429.642;    8.201;   -8.904;  743.124
430.233;    8.410;  -10.795;  569.356
430.825;    9.010;   -7.665;  724.809
431.416;    6.572;   -8.843;  698.241
432.008;   10.807;   -9.885;  651.723
432.599;   10.912;   -9.966;  656.073
433.190;    9.004;   -9.164;  637.670
433.782;    8.259;   -8.584;  590.395
434.373;   15.509;   -8.296;  884.765
434.964;   14.058;   -9.896;  602.920
435.556;   11.627;   -8.255;  634.537
436.147;   14.282;   -8.075;  758.490
436.738;   14.228;   -9.716;  701.099
437.329;   19.769;   -7.318;  721.723
437.920;   12.525;   -6.694;  666.688
438.511;   11.839;   -9.644;  564.526
439.103;   19.989;   -9.427;  623.998
439.694;   21.322;  -10.748;  681.583
440.285;   22.216;   -7.997;  764.432
440.876;   20.748;  -10.046;  845.738
441.466;   19.546;  -13.467;  575.162
442.057;   24.793;   -9.329;  665.814
442.648;   24.317;   -7.707;  746.255
443.239;   21.741;   -9.017;  620.477
443.830;   26.317;  -10.279;  704.958
444.421;   28.530;  -12.630;  655.474
445.011;   25.220;   -8.697;  693.619
445.602;   25.091;   -7.787;  743.126
446.193;   26.921;  -13.329;  488.117
446.783;   32.148;   -9.171;  640.397
447.374;   27.138;   -7.457;  692.759
447.964;   27.195;   -9.277;  713.770
448.555;   36.230;   -9.041;  822.742
449.145;   32.085;   -8.969;  662.853
449.736;   34.080;   -6.809;  803.179
450.326;   33.355;   -7.229;  713.626
450.917;   38.354;  -11.391;  675.324
451.507;   36.777;   -9.501;  600.661
452.097;   37.797;   -8.460;  746.267
452.688;   39.597;  -10.080;  742.160
453.278;   39.762;  -12.861;  566.840
453.868;   43.914;   -8.372;  793.550
454.458;   41.731;   -8.131;  651.141
455.048;   41.901;   -8.520;  711.783
455.639;   43.292;  -13.632;  567.096
456.229;   46.858;  -10.143;  710.694
456.819;   48.658;   -9.163;  751.158
457.409;   49.938;   -8.652;  773.993
457.999;   52.743;   -9.933;  737.505
458.589;   52.367;  -10.363;  686.606
459.179;   52.211;  -10.633;  717.658
459.769;   49.940;  -12.442;  627.099
460.358;   55.454;   -9.844;  797.262
460.948;   55.487;   -9.924;  689.503
461.538;   56.087;  -10.484;  660.677
462.128;   53.553;  -10.703;  664.934
462.717;   60.363;  -11.486;  710.326
463.307;   64.259;  -10.767;  705.846
463.897;   60.044;   -8.814;  656.942
464.486;   59.505;   -8.182;  837.128
465.076;   63.375;   -9.985;  733.776
465.666;   66.792;  -10.447;  652.900
466.255;   65.169;   -7.754;  785.651
466.845;   63.185;  -10.884;  666.749
467.434;   67.705;  -12.525;  725.873
468.023;   67.977;  -11.456;  658.357
468.613;   65.219;   -9.173;  713.946
469.202;   69.751;   -9.306;  646.507
469.791;   74.864;   -8.917;  737.811
470.381;   76.051;   -9.657;  742.813
470.970;   76.031;   -9.947;  711.099
471.559;   75.941;   -9.256;  733.291
472.148;   78.789;  -13.397;  675.737
472.738;   81.824;   -9.928;  765.466
473.327;   80.995;  -10.897;  637.529
473.916;   80.557;   -8.526;  737.446
474.505;   85.005;  -11.078;  751.703
475.094;   88.491;   -9.559;  806.570
475.683;   87.714;   -8.838;  797.699
476.272;   88.254;  -10.198;  730.632
476.861;   91.803;  -11.489;  706.754
477.449;   97.746;  -10.721;  728.487
478.038;   92.024;   -9.818;  692.513
478.627;   92.742;   -9.887;  714.852
479.216;   99.907;  -10.030;  769.441
479.805;  102.958;   -9.401;  783.375
480.393;  102.735;   -5.739; 1008.945
480.982;  102.173;   -7.838;  874.501
481.571;  108.373;   -9.111;  858.333
482.159;  108.923;  -10.601;  705.386
482.748;  108.284;   -8.500;  821.385
483.336;  113.190;   -9.241;  858.209
483.925;  113.598;  -10.440;  774.373
484.513;  120.463;  -11.063;  758.962
485.102;  116.544;   -9.540;  810.965
485.690;  126.325;   -6.742; 1011.050
486.278;  128.177;   -8.442;  979.329
486.867;  128.379;  -10.472;  809.662
487.455;  130.789;   -8.811;  898.229
488.043;  132.173;  -10.721;  748.361
488.631;  141.437;  -10.393; 1005.079
489.220;  145.146;  -10.843;  908.626
489.808;  145.180;  -10.572;  741.415
490.396;  154.268;  -10.482;  914.645
490.984;  159.632;  -11.542;  830.161
491.572;  169.802;   -8.463;  940.315
492.160;  176.642;   -8.491;  919.081
492.748;  188.255;   -9.681;  884.341
493.336;  209.803;  -10.493; 1019.693
493.924;  237.976;   -9.354;  958.077
494.512;  270.973;   -9.132; 1066.638
495.100;  312.726;   -9.001; 1103.280
495.687;  369.230;  -11.924; 1206.373
496.275;  445.510;  -11.193; 1150.796
496.863;  526.988;   -9.241; 1281.171
497.451;  633.827;  -11.341; 1386.805
498.038;  761.471;  -11.364; 1556.729
498.626;  873.632;   -8.104; 1741.407
499.214; 1057.207;   -8.842; 2016.609
499.801; 1305.416;  -10.112; 2220.633
500.389; 1514.482;  -11.953; 2312.494
500.976; 1689.767;  -10.023; 2744.849
501.564; 1938.692;   -8.662; 3148.565
502.151; 2297.940;  -10.531; 3515.999
502.738; 2709.729;  -13.853; 3971.274
503.326; 3211.228;  -10.794; 4403.796
503.913; 3686.411;   -8.663; 5161.749
504.500; 4192.887;  -10.172; 5986.420
505.088; 5037.592;  -13.472; 6381.201
505.675; 5622.696;  -10.924; 6925.547
506.262; 5763.488;   -8.551; 7619.060
506.849; 6429.701;  -10.523; 8733.969
507.436; 7426.513;  -10.834; 9790.121
508.023; 7846.503;   -9.093; 9985.472
508.610; 8185.821;  -10.073;10434.618
509.197; 9273.253;   -9.500;11198.435
509.784;11011.316;  -13.242;12391.194
510.371;11885.884;  -10.964;13603.713
510.958;12384.475;   -9.772;14426.586
511.545;12824.871;   -7.842;15243.775
512.132;12920.423;  -12.184;15945.876
512.719;14339.356;   -9.733;16340.369
513.305;16977.363;   -9.172;18011.766
513.892;18159.625;   -9.581;19754.971
514.479;18948.723;  -10.253;20967.805
515.066;19525.676;   -8.183;22299.793
515.652;20589.492;   -9.253;22908.660
516.239;22109.541;   -9.412;23798.875
516.825;23313.484;  -11.153;25567.275
517.412;22744.855;  -10.263;28154.959
517.998;21654.961;   -8.802;28344.111
518.585;21001.803;  -10.401;27134.219
519.171;20221.484;  -12.744;27268.576
519.758;21281.029;  -11.793;28964.129
520.344;24920.814;   -8.912;30664.494
520.930;29259.830;  -10.901;32550.605
521.516;30420.471;  -12.034;35422.895
522.103;32011.057;  -10.473;38280.004
522.689;34547.297;   -8.311;37835.117
523.275;36829.766;  -10.691;37288.613
523.861;38051.125;  -11.193;37281.395
524.447;35460.547;  -11.484;37846.949
525.033;35540.352;   -7.702;38321.949
525.619;35603.262;  -11.241;38579.285
526.205;35798.035;  -12.152;40622.875
526.791;36809.746;  -11.423;42258.836
527.377;37301.523;   -7.981;42966.902
527.963;37334.328;   -9.450;42018.949
528.549;37715.523;  -11.351;42476.828
529.135;38566.730;  -10.202;41854.852
529.721;39494.906;   -8.672;41237.711
530.306;38832.828;   -9.111;41259.445
530.892;40416.418;  -11.252;41506.047
531.478;43068.840;  -10.432;43559.613
532.063;44934.047;  -10.721;47695.563
532.649;46268.820;   -7.450;50808.324
533.235;47646.254;  -11.811;51787.500
533.820;46869.715;   -9.383;52145.035
534.406;44377.973;   -9.400;51133.488
534.991;43246.531;   -8.861;49996.805
535.576;44410.172;  -10.612;48882.852
536.162;42003.852;   -7.322;46942.285
536.747;41826.250;   -9.360;45711.746
537.333;44062.355;  -10.450;48510.180
537.918;47207.242;  -12.610;50439.891
538.503;47437.113;  -12.132;50863.711
539.088;44699.770;  -10.831;50906.922
539.673;44625.375;  -11.220;52621.965
540.259;47708.805;  -11.481;52368.094
540.844;47731.730;  -11.462;50879.109
541.429;49323.688;   -7.869;52077.777
542.014;47444.824;  -11.859;52716.695
542.599;45076.402;  -11.061;52363.281
543.184;45679.387;  -12.300;53187.137
543.769;47083.734;   -9.369;54697.605
544.354;47390.676;  -12.020;53913.914
544.938;42662.055;  -10.350;49680.164
545.523;39114.883;  -10.841;47386.277
546.108;41819.707;   -8.579;49151.949
546.693;43158.895;   -8.818;51384.637
547.278;41065.082;  -11.331;51853.254
547.862;37906.820;  -10.292;51173.750
548.447;38603.766;   -8.349;51691.395
549.031;42659.895;  -10.838;52456.703
549.616;46756.684;  -11.681;52714.516
550.201;50262.961;  -11.140;52414.598
550.785;48357.555;   -8.649;52355.059
551.370;48969.664;  -11.889;54589.453
551.954;49710.586;  -11.239;58267.348
552.538;51121.879;   -8.850;59062.176
553.123;53176.016;  -10.829;58115.285
553.707;53661.301;   -8.887;56556.285
554.291;50603.000;  -10.430;56201.668
554.876;49447.316;   -9.799;55335.762
555.460;46513.461;  -10.018;54155.703
556.044;45808.410;   -7.307;53721.484
556.628;49392.766;  -12.229;53731.016
557.212;50337.246;   -9.820;54312.531
557.796;48332.781;   -9.109;53797.773
558.380;45214.922;   -9.707;56145.984
558.964;47068.488;  -10.980;57277.930
559.548;50620.004;  -12.010;56459.641
560.132;51564.695;   -7.928;54434.543
560.716;54682.004;  -10.247;54800.617
561.300;55376.383;  -11.250;57606.945
561.884;53330.605;  -10.568;58972.445
562.467;51409.977;   -9.727;57327.570
563.051;47532.738;  -11.847;54962.434
563.635;46331.164;  -10.747;52594.473
564.219;44847.621;  -13.108;50610.410
564.802;42842.398;  -11.417;49551.180
565.386;41050.645;  -10.457;48370.953
565.969;43906.469;   -8.959;48178.871
566.553;44562.516;  -10.328;49957.305
567.136;44131.691;  -10.257;50369.594
567.720;43457.668;  -10.186;49492.004
568.303;42999.270;  -10.027;50616.352
568.887;43794.625;  -10.397;50727.148
569.470;45099.363;   -8.185;51698.379
570.053;43461.051;  -11.596;52122.078
570.637;41320.855;  -11.378;52536.438
571.220;40810.930;   -9.138;51186.098
571.803;40169.254;   -7.675;51032.762
572.386;39200.852;   -8.976;49609.887
572.969;40264.813;  -12.477;48285.926
573.552;40306.953;   -9.767;47624.285
574.135;38688.523;   -8.175;45498.641
574.718;34192.992;  -11.096;41970.434
575.301;33154.539;  -11.966;41447.137
575.884;32116.086;  -12.836;40923.836
576.467;37679.156;   -9.116;45267.723
577.050;40017.594;  -10.536;48175.543
577.633;39534.781;  -11.027;47729.328
578.216;38108.410;   -9.946;47579.793
578.799;37906.145;   -9.645;47820.996
579.381;37435.918;   -9.446;48115.551
579.964;37397.344;  -12.217;47333.766
580.547;38186.059;  -10.586;46668.969
581.129;37859.723;   -8.374;44466.141
581.712;36862.297;  -10.434;44164.922
582.294;36244.020;  -10.896;46477.855
582.877;37077.242;   -8.906;48244.254
583.459;37309.313;   -9.994;47437.895
584.042;36372.953;  -10.084;46943.219
584.624;35141.578;  -13.534;46792.227
585.206;34754.141;  -12.716;46557.250
585.789;35310.289;  -11.614;45793.773
586.371;35553.250;  -10.203;43836.391
586.953;34094.145;  -10.314;42972.492
587.536;32089.205;   -9.776;42487.211
588.118;32298.980;   -9.821;42086.414
588.700;33234.953;  -10.073;43389.930
589.282;34771.723;  -12.395;43646.039
589.864;34593.027;  -11.514;43438.109
590.446;34842.691;  -10.803;43151.926
591.028;36226.422;  -11.043;42781.867
591.610;35991.773;  -13.244;42839.098
592.192;32861.664;  -11.095;42820.402
592.774;30380.572;  -10.823;40724.277
593.356;29886.896;  -11.052;39874.789
593.937;31465.566;  -11.664;39980.648
594.519;33606.168;  -10.454;42069.633
595.101;34126.102;  -10.322;42976.031
595.683;33167.551;  -10.042;44084.441
596.264;31996.150;  -14.334;43478.797
596.846;32317.240;  -10.863;43803.672
597.427;33213.152;   -9.901;42986.934
598.009;33472.293;  -10.911;42832.219
598.591;33169.918;  -10.483;42580.086
599.172;31927.713;   -9.663;43061.805
599.753;30929.598;  -10.631;41691.469
600.335;30737.504;   -9.371;40692.520
600.916;32377.500;  -13.992;39982.422
601.498;33685.613;   -8.352;40318.617
602.079;31869.879;   -8.411;40670.609
602.660;33966.469;  -10.841;41450.898
603.241;34691.391;  -12.963;41137.738
603.823;32291.270;  -11.523;38868.797
604.404;30258.348;  -11.881;38182.785
604.985;31475.543;  -11.721;38078.047
605.566;32725.918;   -9.293;38056.633
606.147;31690.037;  -10.940;37020.418
606.728;30603.313;  -11.840;37883.359
607.309;29877.693;  -11.781;38748.273
607.890;30074.721;  -11.262;38850.230
608.471;29002.564;  -10.111;37457.918
609.051;28918.412;   -7.709;36066.457
609.632;29448.736;  -12.409;35991.074
610.213;28440.695;  -10.811;37402.641
610.794;28306.834;  -11.630;38383.363
611.374;29555.451;   -8.030;40562.387
611.955;30739.992;  -10.809;38533.727
612.536;32065.494;  -10.531;36951.789
613.116;32124.225;  -12.820;37197.891
613.697;31492.648;  -11.419;38411.125
614.277;30702.240;   -9.768;38673.938
614.858;30107.199;  -10.251;37075.863
615.438;26696.473;  -11.981;35092.906
616.019;25520.324;   -8.978;33666.301
616.599;28361.264;  -12.219;34189.023
617.179;30975.611;  -14.170;36952.047
617.760;32680.928;   -9.211;39582.574
618.340;33073.355;   -9.018;38943.977
618.920;31207.047;   -9.249;37594.156
619.500;31244.320;  -12.728;37866.938
620.080;33520.520;  -12.939;37869.043
620.660;32349.449;  -11.586;36868.617
621.241;31215.172;  -11.538;36352.309
621.821;31506.674;  -11.398;35459.520
622.401;32623.992;  -10.179;35207.414
622.980;32526.328;  -11.587;35980.422
623.560;31363.369;  -12.888;37351.328
624.140;29091.053;  -13.149;34388.582
624.720;24519.330;   -9.928;32368.764
625.300;24539.604;  -10.869;32638.629
625.880;28874.725;   -8.617;34599.035
626.459;33098.121;  -12.138;36831.738
627.039;34241.988;  -12.267;38299.098
627.619;34167.625;   -7.476;38289.574
628.198;34685.973;  -11.347;37220.695
628.778;33756.402;  -11.678;37632.563
629.357;31564.264;  -12.438;38003.012
629.937;29688.658;   -9.576;38402.039
630.516;28651.227;  -11.096;37868.801
631.096;28521.680;  -11.828;35760.410
631.675;29282.795;  -11.565;35225.219
632.254;29841.896;  -11.845;35130.289
632.834;30726.049;  -11.545;35794.570
633.413;31649.465;  -10.887;35788.922
633.992;33240.258;  -10.175;34532.863
634.571;32367.100;   -9.704;33590.113
635.151;30091.805;  -10.815;34943.863
635.730;29936.352;  -11.617;35352.523
636.309;29658.607;  -10.836;35366.605
636.888;30447.600;   -9.755;36165.637
637.467;31071.477;  -11.684;37515.902
638.046;33090.250;  -11.987;39288.695
638.625;34081.039;  -10.455;38279.699
639.204;33056.602;  -11.234;37741.598
639.782;30038.107;  -12.023;38364.551
640.361;28343.426;  -11.506;36740.621
640.940;28134.791;  -12.316;34950.082
641.519;29762.492;  -11.616;34137.398
642.097;33242.469;   -9.266;35654.258
642.676;33625.395;  -12.936;35637.957
643.255;32880.918;   -9.966;36567.074
643.833;33035.320;   -8.916;37809.434
644.412;34384.395;  -10.936;37337.293
644.990;36400.277;  -12.176;37018.531
645.569;36514.840;  -12.246;36518.469
646.147;35683.664;  -12.107;36186.430
646.726;35286.266;  -12.937;36267.688
647.304;38346.754;  -12.547;36647.625
647.882;38805.656;  -12.597;39286.742
648.461;36639.281;   -9.427;39157.703
649.039;34352.246;   -8.937;35412.883
649.617;32813.445;  -11.067;34744.918
650.195;32705.367;  -10.657;35403.098
650.773;31822.076;  -10.097;35053.797
651.352;29557.127;  -11.887;33756.816
651.930;25288.166;  -13.557;31868.773
652.508;22596.160;  -11.767;33121.551
653.086;23646.707;  -10.777;33564.793
653.663;27546.721;  -12.067;34054.668
654.241;30606.902;  -14.918;35693.309
654.819;31637.615;  -11.788;36422.906
655.397;31204.791;  -11.268;38213.484
655.975;32252.566;  -11.738;39507.625
656.553;32044.443;  -11.018;39498.223
657.130;31097.729;  -12.848;40395.480
657.708;30735.996;  -10.098;39242.020
658.286;31549.615;  -11.678;38920.020
658.863;33075.855;  -11.498;40202.898
659.441;34363.484;  -11.008;39677.938
660.018;35111.828;  -11.048;40413.355
660.596;34902.578;  -12.058;39931.414
661.173;34687.531;  -14.158;39604.531
661.750;34161.832;  -12.298;39700.070
662.328;33356.031;  -10.699;39292.809
662.905;31681.832;  -12.119;38235.648
663.482;27539.225;  -11.829;36212.305
664.060;26556.213;  -11.009;35944.945
664.637;29248.162;  -10.369;35170.785
665.214;29798.043;  -10.459;34197.523
665.791;28427.014;  -12.599;34549.520
666.368;27990.037;  -12.919;35118.578
666.945;30028.908;  -10.699;36019.418
667.522;30917.584;  -11.359;36048.438
668.099;31003.230;  -13.529;36243.914
668.676;31024.436;  -10.229;35958.875
669.253;30787.820;   -9.279;37384.730
669.830;30232.498;  -11.370;36779.629
670.407;31428.018;  -10.950;35231.289
670.984;32547.150;  -12.850;35544.270
671.560;32180.719;   -8.440;35466.867
672.137;30338.467;  -13.520;34280.863
672.714;28798.914;  -13.620;34632.863
673.290;28846.854;  -10.450;35135.422
673.867;28124.879;  -10.960;36114.480
674.443;26800.299;  -13.300;36152.859
675.020;27454.887;  -12.370;35327.238
675.596;27830.588;  -11.250;35795.176
676.173;28393.486;  -11.080;35430.355
676.749;28858.480;  -13.220;33549.516
677.326;31963.973;  -13.000;32210.012
677.902;33087.625;  -12.701;32068.871
678.478;32504.252;  -12.801;32583.891
679.054;31839.141;   -8.601;32088.928
679.631;33333.285;  -12.631;30978.848
680.207;33272.664;   -9.451;33160.887
680.783;31506.217;  -11.701;35570.363
681.359;31188.145;  -12.701;36125.184
681.935;30757.809;  -13.271;35240.922
682.511;29701.785;  -10.791;34429.961
683.087;30298.828;  -10.791;34463.680
683.663;30507.182;   -8.121;34648.898
684.239;32185.178;  -13.261;34546.457
684.815;31142.967;  -10.581;35586.375
685.390;28383.385;   -9.961;35821.895
685.966;27420.158;  -11.182;35085.871
686.542;26965.447;  -13.512;34198.230
687.118;27383.453;  -11.472;32847.707
687.693;27588.137;  -10.152;32794.027
688.269;29051.828;  -14.442;33072.367
688.844;30431.096;  -11.852;33141.664
689.420;28381.379;  -13.942;33965.742
689.995;26768.439;   -9.702;34655.523
690.571;26821.920;  -11.312;33576.742
691.146;26406.758;  -14.332;32657.219
691.722;28062.990;  -11.192;32526.979
692.297;30203.434;  -10.962;33014.617
692.872;29236.926;  -11.082;34012.254
693.448;28524.945;  -14.732;34237.434
694.023;27998.135;  -12.363;34142.672
694.598;28078.168;  -12.393;34132.031
695.173;27291.611;  -11.023;34205.250
695.748;27063.184;  -12.743;32882.488
696.323;28446.938;  -11.103;32864.906
696.898;29637.627;   -8.123;33170.004
697.473;29405.377;  -12.603;32432.984
698.048;28700.557;  -12.553;31649.303
698.623;30010.041;  -12.573;30778.141
699.198;32842.059;  -12.743;31140.119
699.773;30524.965;  -12.843;31764.299
700.348;29523.688;  -16.683;31780.816
700.922;30089.756;  -11.403;32046.375
701.497;30867.863;  -11.253;32603.574
702.072;31058.480;  -10.044;34799.871
702.646;29884.664;  -13.054;35793.172
703.221;28238.145;  -11.414;35201.590
703.795;28579.482;  -10.644;34764.527
704.370;30055.912;  -13.484;34307.367
704.944;29789.701;  -12.144;33509.887
705.519;28794.822;  -12.024;31388.584
706.093;27594.516;  -11.234;31340.104
706.668;26134.416;   -9.874;32630.281
707.242;25730.543;  -12.404;32728.779
707.816;25591.600;  -10.644;32947.238
708.390;25265.021;  -11.174;33277.855
708.965;25929.506;  -10.324;33834.336
709.539;25414.393;  -12.014;33709.273
710.113;25300.680;  -12.295;33044.313
710.687;26061.705;  -10.965;31953.992
711.261;26388.176;  -13.685;30505.949
711.835;25585.301;  -15.335;30262.369
712.409;24892.043;  -13.785;31254.447
712.983;25950.158;  -10.525;32754.986
713.557;27625.854;  -13.175;34018.824
714.131;28785.744;  -13.245;34579.625
714.704;30365.041;  -13.175;33890.262
715.278;32135.811;  -11.545;33531.102
715.852;31321.322;  -10.975;33601.660
716.425;30642.910;  -10.075;33515.117
716.999;30519.061;  -12.185;33185.555
717.573;31189.000;   -9.685;33905.996
718.146;32880.438;  -10.516;35199.293
718.720;29660.467;  -12.106;35060.551
719.293;28863.807;  -12.386;34973.230
719.867;31629.656;  -12.456;36394.449
720.440;31485.482;  -10.686;36663.008
721.013;31431.875;  -12.596;35102.426
721.587;31635.563;  -13.956;33985.266
722.160;30927.027;   -9.806;33524.965
722.733;30890.828;  -11.676;32987.043
723.306;30361.420;  -14.276;33066.301
723.880;30197.006;  -12.126;33399.500
724.453;31221.461;  -10.156;33468.297
725.026;30030.678;  -12.956;33816.637
725.599;28214.924;  -11.676;32797.996
726.172;27155.053;  -12.337;33187.434
726.745;27978.871;  -11.277;35136.613
727.318;27343.334;  -11.927;35751.730
727.891;26122.365;  -13.607;35890.430
728.463;26204.000;  -11.327;34822.090
729.036;25652.314;  -11.917;32895.086
729.609;26397.160;  -12.697;31823.225
730.182;27443.197;  -11.787;31445.283
730.754;28175.275;  -12.957;32373.223
731.327;28779.107;  -11.017;33676.820
731.900;27490.246;  -12.797;33417.000
732.472;25516.984;  -10.677;31978.498
733.045;24840.215;  -12.797;30368.777
733.617;25584.695;  -13.908;30574.215
734.190;25652.365;  -12.258;31280.975
734.762;26646.580;  -13.438;31674.412
735.334;26948.576;  -11.758;31247.291
735.907;26845.926;  -11.158;29876.211
736.479;27815.486;  -11.258;29808.488
737.051;29656.303;  -10.918;30233.547
737.623;30824.514;  -11.038;31469.086
738.195;30481.588;  -12.188;31784.225
738.768;27447.998;  -11.378;32120.523
739.340;26382.877;  -12.598;32094.342
739.912;27445.209;  -11.568;31312.680
740.484;27532.938;   -9.348;31946.238
741.056;26971.715;  -12.628;32984.059
741.628;27272.262;  -13.349;33897.715
742.199;27597.295;  -11.309;33213.016
742.771;27467.773;  -12.699;31369.113
743.343;29075.871;  -11.919;31865.473
743.915;29383.598;  -11.679;32388.631
744.487;27844.236;  -12.249;31079.568
745.058;26104.623;  -11.119;30570.107
745.630;24823.260;   -9.439;29970.127
746.201;24748.732;  -11.949;29186.766
746.773;24704.850;  -12.639;28805.723
747.344;24151.965;  -11.039;29591.223
747.916;23106.064;  -12.549;31412.201
748.487;22131.725;  -12.659;32194.898
749.059;21960.365;  -13.059;32533.719
749.630;23280.797;  -12.080;32158.518
750.201;22707.023;  -13.100;30855.395
750.773;21259.734;  -15.310;28622.555
751.344;20880.182;  -12.240;28405.732
751.915;20838.387;  -11.960;28461.551
752.486;20788.719;  -13.200;27842.850
753.057;20753.582;  -15.230;27845.008
753.628;20705.955;  -13.130;27728.107
754.199;20889.242;  -12.720;27381.086
754.770;20822.863;  -10.680;25882.203
755.341;20877.139;  -11.010;25886.184
755.912;20239.398;  -12.990;26050.861
756.483;19047.820;  -11.110;26798.779
757.054;18365.863;  -12.190;27048.238
757.625;18412.752;  -13.981;26294.838
758.195;18549.789;  -11.041;26142.076
758.766;19751.602;  -11.861;26392.234
759.337;20711.174;  -11.461;26334.594
759.907;21201.057;  -15.001;27579.652
760.478;20892.035;   -9.681;28352.770
761.048;20235.398;  -12.421;27325.088
761.619;19460.482;  -11.761;26460.428
762.189;18049.145;  -12.391;26029.826
762.760;17674.834;  -10.201;26430.145
763.330;18677.869;  -10.811;26670.902
763.900;21178.758;  -10.261;26603.021
764.471;21003.059;  -13.061;25542.740
765.041;19411.496;  -11.051;24358.459
765.611;19269.262;  -11.032;23991.297
766.181;19108.723;  -10.532;24470.236
766.751;18879.605;  -13.502;24845.975
767.321;19076.928;  -11.392;24533.633
767.891;19443.064;  -11.522;24916.492
768.461;20013.355;  -13.672;24776.771
769.031;19588.791;  -14.652;24757.988
769.601;18650.387;  -10.182;24181.088
770.171;16994.621;  -11.752;23670.387
770.741;15570.065;  -12.272;22960.045
771.311;15492.653;  -13.112;22917.523
771.880;15559.706;  -14.122;23562.941
772.450;16580.828;  -11.782;24216.500
773.020;18353.236;  -12.642;24140.398
773.589;17829.619;  -13.043;24414.857
774.159;15855.119;  -11.783;23858.717
774.729;14982.604;  -13.473;22942.135
775.298;16082.381;  -14.523;22324.033
775.867;17010.555;  -12.013;21140.313
776.437;16157.885;  -12.113;20838.092
777.006;14665.671;  -13.543;20599.510
777.576;13175.345;  -12.523;20508.809
778.145;12883.660;  -12.173;20732.947
778.714;14045.836;  -12.153;21062.465
779.283;14544.083;  -11.833;20949.664
779.853;15109.233;  -13.483;20508.623
780.422;15763.511;  -12.933;20649.082
780.991;15180.581;  -13.173;21527.520
781.560;13558.392;  -10.224;22632.658
782.129;13117.771;  -12.684;23048.277
782.698;14416.227;  -11.284;23438.555
783.267;15528.479;  -11.684;23267.734
783.836;14566.560;  -10.974;22415.133
784.404;13232.264;  -13.534;20443.152
784.973;13160.561;  -16.734;19699.150
785.542;13169.513;  -12.594;19763.828
786.111;12887.522;  -11.644;20341.408
786.679;13469.489;  -11.384;20207.967
787.248;14344.941;  -12.014;19516.465
787.817;13423.181;  -12.804;18900.363
788.385;12308.241;  -11.994;17879.121
788.954;12375.325;  -12.564;17658.301
789.522;13645.265;  -12.225;17788.879
790.090;13804.498;  -13.775;18118.277
790.659;12750.149;  -12.485;18338.736
791.227;12129.604;  -12.295;18508.615
791.795;12147.269;  -13.415;17898.254
792.364;11623.343;  -12.995;17295.133
792.932;11187.841;   -8.365;16822.051
793.500;11367.031;  -11.925;17040.148
794.068;11586.258;  -13.245;17179.787
794.636;11589.313;  -13.815;16664.246
795.204;11013.306;  -13.375;16524.545
795.772;10984.764;  -12.125;17274.564
796.340;11379.497;  -13.855;17891.002
796.908;11638.220;  -13.456;17648.561
797.476;11114.610;  -13.116;17064.080
798.044;10667.822;  -13.226;16672.777
798.612;11404.051;  -11.236;17023.996
799.180;12428.336;  -10.476;16561.615
799.747;12580.707;  -11.746;15962.773
800.315;11648.026;  -12.366;15296.992
800.883;10695.092;  -14.616;14801.771
801.450;10318.269;  -11.996;14534.430
802.018;10931.006;  -11.206;14173.248
802.585;10470.166;  -12.466;14029.547
803.153; 9460.115;  -12.846;13836.846
803.720; 9136.785;  -12.136;13567.324
804.287; 9077.758;  -10.966;13360.622
804.855; 9377.207;   -9.797;13681.981
805.422; 9261.137;  -13.037;13536.560
805.989; 8902.810;  -12.697;13355.958
806.556; 9094.984;  -11.737;13747.896
807.124; 9457.547;  -11.997;13987.376
807.691; 9005.437;  -13.997;14038.674
808.258; 8787.274;  -10.927;14120.152
808.825; 9311.260;  -13.727;13860.111
809.392; 9808.637;  -11.847;13268.790
809.959; 9140.438;  -14.217;12680.389
810.526; 8203.142;   -8.277;12427.308
811.093; 8015.188;   -9.647;12030.105
811.659; 7930.756;  -10.987;11653.664
812.226; 7480.872;  -13.447;11637.183
812.793; 7544.094;  -14.418;11611.521
813.360; 7996.843;  -13.908;11885.181
813.926; 8097.974;  -12.918;12770.539
814.493; 7966.502;  -14.888;12677.638
815.060; 8015.092;  -12.758;11974.336
815.626; 8281.178;  -13.478;11594.715
816.193; 8312.619;  -13.898;11579.474
816.759; 8099.113;  -13.588;11666.972
817.325; 8061.173;  -12.018;11325.530
817.892; 7628.289;  -14.068;11105.369
818.458; 6860.778;  -13.458;10843.928
819.024; 6513.989;  -11.968;10714.406
819.591; 6173.950;  -11.028;10469.165
820.157; 5919.758;  -12.088;10235.523
820.723; 5809.086;  -12.599;10847.563
821.289; 6066.338;  -10.419;11040.980
821.855; 6811.054;  -10.939;10357.100
822.421; 7400.388;  -12.539; 9978.918
822.987; 7291.606;  -13.259; 9754.177
823.553; 6617.205;  -15.369;10065.755
824.119; 6321.271;  -10.779;10036.294
824.685; 5874.282;   -9.999;10029.192
825.251; 5490.864;  -11.819;10199.230
825.816; 5272.940;  -13.369; 9820.189
826.382; 5413.908;  -12.679; 9297.248
826.948; 5666.440;  -11.199; 9381.347
827.513; 5522.385;  -11.179; 9450.726
828.079; 5446.143;  -13.489; 9472.444
828.645; 5712.259;  -12.500; 9292.643
829.210; 5979.627;  -15.120; 9065.341
829.776; 5867.413;  -12.590; 9132.620
830.341; 5661.028;  -11.540; 9092.878
830.906; 5627.555;  -12.400; 9078.557
831.472; 5508.937;  -12.720; 8534.535
832.037; 5069.707;  -11.490; 8677.874
832.602; 4585.570;  -14.380; 8628.692
833.167; 4730.566;  -12.780; 8879.031
833.733; 4979.289;  -11.100; 9189.790
834.298; 5219.613;  -12.080; 9052.608
834.863; 5219.358;  -13.910; 8895.087
835.428; 4942.717;  -13.470; 8824.266
835.993; 5189.103;  -11.760; 8845.385
836.558; 5626.340;  -12.731; 8888.563
837.123; 5762.130;  -12.431; 8966.582
837.688; 5547.934;  -11.241; 8617.860
838.253; 5222.917;  -13.681; 8590.699
838.817; 4931.457;  -12.531; 8443.797
839.382; 5063.957;  -12.671; 8799.356
839.947; 5031.378;  -11.541; 8810.595
840.511; 4838.469;  -12.021; 8796.394
841.076; 4813.187;  -13.071; 8347.231
841.641; 4730.837;  -11.411; 8224.330
842.205; 4577.631;  -13.671; 8223.349
842.770; 4570.024;  -11.291; 8622.107
843.334; 4668.834;  -12.951; 8410.386
843.898; 4718.600;  -11.221; 8337.465
844.463; 4670.725;  -11.322; 8506.283
845.027; 4444.642;  -11.412; 8280.962
845.591; 4161.939;  -11.512; 8231.141
846.156; 4267.410;  -14.042; 7969.179
846.720; 4498.082;  -12.152; 7768.278
847.284; 4508.410;  -10.922; 7630.957
847.848; 4246.334;  -10.962; 7472.395
848.412; 3926.340;  -14.612; 7437.394
848.976; 3923.901;  -11.492; 7674.592
849.540; 3982.793;   -9.172; 7836.011
850.104; 4332.804;  -11.232; 7913.669
850.668; 4701.269;  -15.182; 7694.508
851.232; 4405.408;  -15.332; 7756.887
851.796; 4122.883;  -13.703; 7926.545
852.359; 4182.624;  -11.113; 7827.844
852.923; 4133.186;  -11.843; 7641.163
853.487; 3981.851;  -11.173; 7342.501
854.050; 3777.086;  -13.443; 7042.820
854.614; 3633.155;  -13.823; 7151.338
855.177; 3685.316;  -16.393; 7105.077
855.741; 3808.958;  -11.693; 6989.675
856.304; 3838.612;  -10.843; 6596.634
856.868; 3756.261;  -13.783; 6356.272
857.431; 3523.359;  -11.953; 6468.571
857.995; 3365.211;  -13.683; 6373.210
858.558; 3344.114;  -11.433; 6324.448
859.121; 3318.412;  -12.493; 6408.327
859.684; 3359.276;  -12.384; 6347.886
860.247; 3381.240;  -14.774; 6321.264
860.810; 3239.589;  -13.154; 6301.903
861.374; 3122.379;  -11.264; 6607.881
861.937; 3070.964;  -15.424; 6408.200
862.500; 3095.294;  -12.854; 6572.639
863.062; 3139.739;  -12.344; 6387.297
863.625; 3128.777;  -13.314; 6190.836
864.188; 2946.274;  -14.724; 5807.254
864.751; 2818.079;  -13.464; 5682.413
865.314; 2693.005;  -11.684; 5547.492
865.876; 2561.064;  -11.104; 5500.150
866.439; 2386.602;  -12.344; 5415.909
867.002; 2111.077;  -13.494; 5501.567
867.564; 1931.253;  -10.935; 5413.946
868.127; 1826.693;  -12.665; 5160.325
868.689; 1823.251;  -14.515; 5133.183
869.252; 1976.593;  -13.425; 5252.382
869.814; 2126.763;  -11.595; 5297.141
870.377; 2198.193;  -12.175; 5390.919
870.939; 2127.846;  -10.265; 5599.898
871.501; 2075.945;  -12.375; 5248.336
872.063; 2097.256;  -14.355; 4854.235
872.626; 2185.792;  -14.435; 4817.074
873.188; 2165.334;  -12.415; 4987.732
873.750; 2147.423;  -14.555; 4868.651
874.312; 2201.573;  -11.185; 4779.330
874.874; 2189.819;  -12.715; 4866.348
875.436; 2078.779;  -13.196; 4718.887
875.998; 1987.373;  -11.426; 4660.005
876.560; 1922.483;   -9.786; 4462.964
877.122; 1901.137;  -12.796; 4145.042
877.683; 1842.742;  -13.226; 4056.481
878.245; 1734.081;  -12.036; 3950.740
878.807; 1641.043;  -11.536; 4058.958
879.369; 1643.843;  -10.806; 3954.677
879.930; 1760.523;  -13.946; 3941.495
880.492; 1856.068;  -11.876; 4067.014
881.053; 1756.676;  -13.216; 3859.633
881.615; 1637.651;  -12.226; 3776.071
882.176; 1580.078;  -12.946; 3734.750
882.738; 1570.271;  -10.736; 3678.489
883.299; 1524.021;  -12.057; 3405.407
883.860; 1422.439;  -12.677; 3351.106
884.422; 1364.873;  -14.097; 3394.044
884.983; 1312.883;  -13.667; 3166.443
885.544; 1249.597;  -10.717; 3189.802
886.105; 1190.982;  -14.357; 3160.360
886.666; 1127.453;  -14.287; 3093.059
887.227; 1062.220;  -14.297; 2941.957
887.788; 1015.342;  -13.137; 2974.836
888.349;  949.615;  -14.637; 2721.214
888.910;  885.748;  -12.247; 2696.493
889.471;  885.590;  -10.577; 2560.172
890.032;  892.280;  -12.937; 2558.190
890.593;  883.204;  -12.487; 2567.669
891.153;  861.438;  -11.898; 2460.307
891.714;  829.522;  -14.278; 2372.046
892.275;  806.524;  -13.308; 2309.505
892.835;  756.374;  -12.058; 2382.543
893.396;  674.909;  -15.268; 2295.502
893.956;  625.743;  -13.278; 2162.420
894.517;  603.106;  -11.968; 2125.439
895.077;  606.226;  -12.798; 2086.978
895.638;  584.680;  -11.908; 2126.316
896.198;  560.138;  -13.288; 1838.275
896.758;  536.500;  -12.198; 1892.813
897.319;  506.583;  -13.048; 1792.232
897.879;  475.022;  -13.718; 1762.751
898.439;  435.130;  -14.138; 1661.149
898.999;  401.857;  -13.659; 1781.468
899.559;  385.815;  -14.699; 1703.347
900.119;  367.253;  -14.339; 1537.525
900.679;  343.682;  -11.789; 1638.384
901.239;  316.085;  -13.629; 1527.902
901.799;  297.238;  -13.679; 1456.441
902.359;  287.372;  -13.679; 1357.140
902.919;  278.822;  -14.159; 1331.118
903.479;  264.799;  -13.419; 1317.257
904.038;  249.220;  -14.899; 1262.595
904.598;  235.059;  -14.339; 1152.034
905.158;  225.768;  -13.959; 1240.893
905.717;  221.164;  -12.749; 1233.691
906.277;  216.385;  -11.889; 1217.330
906.836;  210.959;  -12.870; 1222.408
907.396;  206.097;  -11.790; 1193.047
907.955;  198.038;  -13.750; 1182.526
908.515;  188.674;  -14.760; 1099.364
909.074;  183.805;  -12.540; 1092.863
909.633;  179.379;  -12.120; 1069.121
910.192;  173.501;  -12.550; 1196.460
910.752;  168.849;  -12.760; 1029.960
911.311;  164.562;  -14.750; 1009.780
911.870;  162.707;  -13.860;  971.460
912.429;  162.051;  -13.480; 1094.080
912.988;  162.088;  -12.370; 1081.060
913.547;  157.709;  -14.670;  940.380
914.106;  156.152;  -12.800;  999.420
914.665;  156.111;  -11.370;  984.020
915.224;  153.010;  -11.430; 1035.760
915.782;  150.250;  -12.260;  922.560
916.341;  149.821;  -12.540; 1049.840
916.900;  145.766;  -12.540;  925.260
917.458;  144.728;  -13.480;  884.220
918.017;  143.761;  -12.470;  942.600
918.576;  142.885;  -13.450;  904.440
919.134;  142.692;  -12.890;  837.980
919.693;  141.568;  -15.480;  893.060
920.251;  139.666;  -14.420;  876.500
920.809;  139.238;  -12.170;  839.580
921.368;  137.905;  -13.650;  885.360
921.926;  136.466;  -12.750;  842.940
922.484;  135.432;  -14.150;  903.360
923.042;  135.402;  -15.100;  880.340
923.601;  138.328;  -10.990;  998.680
924.159;  137.120;  -12.470;  935.560
924.717;  138.348;  -15.640;  841.080
925.275;  140.324;  -12.380;  903.240
925.833;  142.168;  -12.710;  779.320
926.391;  144.817;  -11.200;  938.380
926.949;  143.349;  -16.000;  857.680
927.506;  139.837;  -12.260;  903.500
928.064;  135.520;  -11.300;  877.580
928.622;  133.816;  -13.750;  880.100
929.180;  135.034;  -15.290;  814.180
929.737;  136.534;  -14.500;  808.540
930.295;  140.108;  -10.630;  928.480
930.853;  142.503;  -14.590;  849.100
931.410;  144.086;  -14.450;  821.120
931.968;  147.129;  -14.390;  940.660
932.525;  148.805;  -13.050;  909.380
933.082;  152.436;  -15.620;  811.440
933.640;  160.341;  -15.650;  925.900
934.197;  164.932;  -13.610;  886.360
934.754;  167.232;  -13.320;  897.780
935.312;  167.727;  -13.370;  863.340
935.869;  170.450;  -12.780; 1012.980
936.426;  170.816;  -14.480;  872.800
936.983;  173.982;  -13.180;  889.020
937.540;  173.688;  -15.710;  838.280
938.097;  174.240;  -14.980;  940.120
938.654;  173.361;  -13.060;  898.860
939.211;  172.203;  -12.760;  952.480
939.768;  171.811;  -16.230;  915.420
940.324;  176.411;  -10.940;  904.200
940.881;  182.553;  -12.570;  878.500
941.438;  186.965;  -13.650; 1021.200
941.995;  182.570;  -13.300;  992.560
942.551;  182.726;  -15.800;  875.620
943.108;  181.515;  -14.180;  937.920
943.664;  175.572;  -13.890;  869.340
944.221;  175.283;  -12.640; 1088.140
944.777;  174.132;  -14.700;  869.680
945.334;  175.230;  -13.010;  884.840
945.890;  175.596;  -13.480;  946.480
946.446;  174.207;  -14.920;  947.020
947.003;  173.742;  -13.860;  964.940
947.559;  175.250;  -12.000; 1063.040
948.115;  173.334;  -10.510; 1026.540
948.671;  171.392;  -12.760;  967.300
949.227;  167.451;  -15.390;  859.560
949.783;  164.786;  -15.570;  858.900
950.339;  164.874;  -12.800;  991.000
950.895;  163.213;  -13.780; 1023.840
951.451;  159.537;  -13.810;  925.280
952.007;  158.775;  -12.390;  998.540
952.563;  157.258;  -11.980;  937.780
953.118;  153.740;  -14.070;  904.940
953.674;  151.524;  -14.140;  935.780
954.230;  152.613;  -12.680;  949.640
954.785;  153.443;  -12.770;  936.640
955.341;  154.098;  -11.450;  998.160
955.897;  148.412;  -15.350;  834.660
956.452;  146.689;  -14.200;  953.840
957.008;  146.139;  -10.820; 1083.640
957.563;  142.716;  -13.200; 1009.540
958.118;  137.747;  -14.460;  877.700
958.674;  138.347;  -13.840;  946.780
959.229;  139.292;  -10.670; 1013.980
959.784;  140.318;  -17.040;  832.400
960.339;  143.223;  -12.970; 1001.280
960.894;  143.086;  -12.700;  963.760
961.449;  142.237;  -13.790;  859.960
962.004;  147.110;  -11.760; 1212.840
962.559;  146.590;  -14.840;  860.140
963.114;  146.464;  -14.530;  742.480
963.669;  147.095;  -12.780;  915.500
964.224;  147.155;  -14.330;  874.340
964.779;  142.593;  -14.380;  828.420
965.334;  138.105;  -12.460; 1017.860
965.888;  133.795;  -13.490;  875.360
966.443;  133.759;  -14.140;  972.380
966.998;  130.819;  -16.240;  819.460
967.552;  127.946;  -12.730;  908.380
968.107;  124.029;  -14.510;  868.300
968.661;  125.002;  -11.850;  922.440
969.216;  122.689;  -14.370;  856.280
969.770;  122.710;  -13.010;  917.200
970.324;  121.640;  -12.460;  923.140
970.879;  121.296;  -11.580;  947.180
971.433;  120.896;  -13.130;  952.720
971.987;  118.027;  -12.360;  895.340
972.541;  117.368;  -14.330;  917.100
973.095;  118.700;  -13.310; 1009.460
973.649;  116.139;  -15.830;  809.480
974.203;  119.133;  -15.830;  829.040
974.757;  122.018;  -13.480;  855.220
975.311;  121.177;  -13.720;  872.600
975.865;  117.857;  -15.780;  881.820
976.419;  114.017;  -14.290;  857.400
976.973;  112.149;  -13.210;  849.620
977.526;  111.850;  -12.300;  949.920
978.080;  107.446;  -14.840;  796.780
978.634;  108.022;  -13.100;  921.320
979.187;  104.312;  -12.300;  905.400
979.741;  102.879;  -12.020; 1018.380
980.294;   96.206;  -14.590;  789.160
980.848;   92.431;  -14.390;  717.220
981.401;   93.661;  -14.280;  816.540
981.955;   94.355;  -11.920;  844.300
982.508;   90.810;  -15.790;  746.340
983.061;   91.019;  -12.070;  915.260
983.615;   88.284;  -13.260;  798.800
984.168;   85.743;  -15.540;  770.080
984.721;   85.642;  -13.230;  880.760
985.274;   83.982;  -11.820;  867.500
985.827;   81.454;  -13.510;  834.220
986.380;   79.413;  -14.840;  721.340
986.933;   79.232;  -13.970;  864.800
987.486;   78.374;  -12.450;  861.920
988.039;   76.816;  -11.170;  863.100
988.591;   73.265;  -13.070;  893.260
989.144;   70.002;  -15.530;  737.260
989.697;   68.195;  -14.300;  758.740
990.250;   68.257;  -13.310;  858.100
990.802;   66.593;  -14.490;  755.860
991.355;   69.008;  -12.980;  974.880
991.907;   66.835;  -13.715;  864.320
992.460;   64.662;  -14.450;  753.760
993.012;   64.225;  -12.590;  749.540
993.565;   62.236;  -15.180;  711.360
994.117;   63.885;  -11.630;  950.780
994.669;   60.185;  -13.760;  701.320
995.221;   59.104;  -12.710;  791.920
995.774;   58.531;  -14.620;  787.580
996.326;   56.899;  -13.150;  740.220
996.878;   58.305;  -12.880;  838.420
997.430;   56.412;  -14.580;  699.860
997.982;   55.527;  -14.030;  750.140
998.534;   55.501;  -12.190;  739.060
999.086;   53.894;  -12.990;  738.220
999.638;   53.180;  -13.180;  661.380
1000.190;   51.903;  -14.970;  699.320
1000.741;   52.249;  -12.200;  742.700
1001.293;   51.424;  -13.400;  686.020
1001.845;   51.085;  -14.490;  676.640
1002.396;   51.474;  -15.280;  743.400
1002.948;   51.013;  -12.380;  737.400
1003.500;   50.201;  -13.260;  723.780
1004.051;   51.012;  -13.730;  907.580
1004.603;   49.973;  -12.300;  791.820
1005.154;   45.567;  -15.330;  608.980
1005.705;   45.243;  -12.800;  723.960
1006.257;   44.985;  -13.900;  707.220
1006.808;   43.504;  -14.430;  685.460
1007.359;   43.504;  -12.010;  763.240
1007.910;   41.510;  -12.690;  646.640
1008.461;   42.286;  -13.610;  732.940
1009.013;   40.139;  -14.990;  588.340
1009.564;   41.635;  -11.860;  793.520
1010.115;   39.036;  -12.640;  597.040
1010.665;   39.620;  -14.570;  602.160
1011.216;   39.334;  -15.190;  667.920
1011.767;   38.999;  -13.470;  697.920
1012.318;   38.638;  -13.760;  736.980
1012.869;   37.663;  -15.950;  679.000
1013.419;   37.384;  -15.880;  603.120
1013.970;   37.882;  -14.540;  666.640
1014.521;   37.705;  -13.220;  620.620
1015.071;   37.439;  -15.020;  670.380
1015.622;   36.640;  -17.510;  635.460
1016.172;   35.558;  -14.130;  596.820
1016.723;   35.244;  -14.220;  614.380
1017.273;   35.512;  -15.370;  604.160
1017.823;   35.833;  -15.290;  650.340
1018.374;   35.664;  -13.420;  611.760
1018.924;   34.957;  -11.740;  716.880
1019.474;   35.779;  -12.250;  718.880
1020.024;   34.729;  -15.850;  657.580
1020.574;   34.848;  -13.280;  726.160
1021.124;   35.155;  -13.560;  673.580
1021.674;   32.489;  -13.790;  559.120
1022.224;   34.596;  -14.610;  708.940
1022.774;   33.237;  -13.100;  668.820
1023.324;   34.365;  -11.470;  753.520
1023.874;   35.051;  -11.990;  875.760
1024.423;   32.270;  -14.550;  613.700
1024.973;   32.665;  -14.440;  610.760
1025.523;   31.621;  -13.250;  620.960
1026.072;   31.650;  -15.200;  606.420
1026.622;   31.718;  -14.590;  675.740
1027.172;   32.435;  -11.080;  715.660
1027.721;   30.118;  -14.010;  601.220
1028.270;   30.771;  -13.690;  663.400
1028.820;   31.435;  -15.380;  638.080
1029.369;   30.802;  -14.980;  612.700
1029.918;   29.765;  -13.100;  649.840
1030.468;   29.756;  -13.680;  564.780
1031.017;   30.493;  -13.770;  634.800
1031.566;   29.114;  -14.100;  608.900
1032.115;   30.027;  -11.770;  694.500
1032.664;   28.417;  -14.940;  596.480
1033.213;   30.488;  -13.370;  735.420
1033.762;   28.556;  -13.660;  635.620
1034.311;   28.940;  -13.650;  677.220
1034.860;   29.274;  -13.820;  691.000
1035.408;   29.180;  -12.860;  722.720
1035.957;   29.377;  -13.060;  719.540
1036.506;   26.401;  -14.510;  530.800
1037.055;   29.904;  -13.470;  844.320
1037.603;   28.184;  -14.800;  664.000
1038.152;   25.924;  -14.190;  534.760
1038.700;   26.423;  -11.810;  585.740
1039.249;   26.968;  -12.850;  681.220
1039.797;   27.066;  -14.610;  633.360
1040.345;   26.563;  -15.220;  705.420
1040.894;   26.722;  -13.480;  625.300
1041.442;   25.748;  -13.310;  632.200
1041.990;   25.308;  -14.510;  559.160
1042.538;   24.719;  -15.700;  536.180
1043.087;   24.967;  -13.910;  570.860
1043.635;   26.437;  -13.620;  670.500
1044.183;   25.453;  -14.230;  586.400
1044.731;   24.802;  -13.730;  576.000
1045.279;   24.600;  -13.970;  674.920
1045.827;   26.931;  -10.750;  892.400
1046.374;   24.091;  -15.230;  515.420
1046.922;   23.848;  -15.390;  590.580
1047.470;   24.794;  -12.320;  691.300
1048.018;   24.451;  -13.230;  647.960
1048.565;   25.903;  -13.390;  708.600
1049.113;   23.510;  -15.030;  557.000
1049.660;   23.163;  -12.540;  629.660
1050.208;   24.023;  -15.040;  675.640
1050.755;   22.663;  -14.680;  606.580
1051.303;   24.636;  -13.610;  686.820
1051.850;   23.272;  -14.340;  635.120
1052.397;   21.182;  -16.330;  473.960
1052.945;   21.614;  -15.710;  617.760
1053.492;   22.998;  -12.320;  741.840
1054.039;   23.195;  -13.730;  720.180
1054.586;   22.339;  -16.140;  557.240
1055.133;   22.229;  -14.020;  693.140
1055.680;   22.673;  -13.430;  646.620
1056.227;   21.612;  -14.570;  542.780
1056.774;   24.035;  -14.400;  794.980
1057.321;   20.923;  -14.230;  523.260
1057.868;   21.526;  -14.220;  651.320
1058.415;   21.247;  -14.060;  651.980
1058.961;   20.878;  -14.640;  678.940
1059.508;   21.587;  -13.970;  643.820
1060.055;   20.372;  -15.100;  581.780
1060.601;   20.941;  -12.180;  624.300
1061.148;   19.946;  -15.010;  616.820
1061.694;   19.850;  -14.750;  592.580
1062.241;   19.932;  -14.130;  596.320
1062.787;   20.671;  -14.770;  663.140
1063.334;   21.601;  -13.130;  808.560
1063.880;   20.499;  -14.420;  668.360
1064.426;   20.113;  -13.130;  706.820
1064.972;   19.630;  -13.960;  601.340
1065.518;   17.558;  -13.680;  566.640
1066.065;   19.283;  -15.720;  624.460
1066.611;   18.115;  -13.970;  598.800
1067.157;   18.963;  -13.920;  641.860
1067.703;   19.412;  -14.760;  668.480
1068.249;   19.229;  -14.490;  605.220
1068.794;   19.210;  -14.740;  626.880
1069.340;   17.654;  -13.220;  578.960
1069.886;   18.340;  -14.930;  590.700
1070.432;   16.384;  -14.700;  541.720
1070.977;   16.733;  -14.470;  601.080
1071.523;   17.353;  -14.330;  573.060
1072.068;   17.859;  -14.960;  582.000
1072.614;   16.835;  -16.220;  527.760
1073.160;   17.851;  -11.280;  687.040
1073.705;   16.448;  -15.990;  572.520
1074.250;   16.913;  -16.550;  559.900
1074.796;   17.673;  -14.600;  655.160
1075.341;   17.809;  -13.440;  664.100
1075.886;   15.771;  -14.450;  594.240
1076.431;   17.140;  -13.160;  649.880
1076.976;   16.857;  -14.710;  639.220
1077.521;   15.419;  -14.000;  583.080
1078.067;   15.866;  -14.470;  579.400
1078.612;   16.553;  -14.530;  661.620
1079.156;   16.297;  -15.660;  601.540
1079.701;   15.487;  -16.120;  693.260
1080.246;   16.558;  -12.960;  696.300
1080.791;   16.137;  -13.700;  625.020
1081.336;   15.546;  -15.540;  659.320
1081.880;   15.865;  -14.640;  649.680
1082.425;   14.448;  -14.220;  573.480
1082.970;   16.739;  -11.890;  717.040
1083.514;   15.167;  -13.820;  597.000
1084.059;   14.413;  -14.280;  586.720
1084.603;   13.592;  -12.890;  565.840
1085.147;   14.922;  -13.590;  645.220
1085.692;   15.427;  -14.050;  716.800
1086.236;   12.782;  -14.990;  503.140
1086.780;   15.224;  -12.640;  751.440
1087.325;   14.375;  -15.550;  654.620
1087.869;   14.342;  -14.980;  610.700
1088.413;   14.937;  -13.440;  705.040
1088.957;   12.762;  -12.170;  543.400
1089.501;   15.304;  -12.730;  766.640
1090.045;   14.054;  -14.650;  726.480
1090.589;   12.114;  -14.500;  569.920
1091.133;   13.344;  -12.320;  673.340
1091.676;   13.307;  -16.130;  591.940
1092.220;   12.965;  -13.930;  600.920
1092.764;   13.702;  -12.820;  706.960
1093.307;   13.427;  -11.700;  673.780
1093.851;   11.861;  -15.600;  556.540
1094.395;   13.971;  -13.920;  683.140
1094.938;   12.905;  -16.090;  632.520
1095.482;   12.078;  -13.820;  559.800
1096.025;   13.917;  -12.720;  710.880
1096.568;   13.509;  -12.100;  779.280
1097.112;    9.899;  -15.450;  508.180
1097.655;   11.978;  -14.310;  603.000
1098.198;   10.242;  -14.740;  600.180
1098.741;   10.788;  -15.550;  612.860
1099.285;   12.504;  -12.600;  657.300
1099.828;    9.772;  -15.050;  439.400
1100.371;   11.291;  -14.800;  608.160
1100.914;   11.915;  -16.480;  682.660
1101.457;   11.610;  -12.990;  679.900
1101.999;   10.489;  -14.110;  584.680
1102.542;   11.044;  -11.450;  641.440
1103.085;   10.834;  -13.350;  658.500
1103.628;   11.453;  -13.200;  762.060
1104.170;    9.657;  -12.310;  588.280
1104.713;   11.076;  -14.320;  646.700
1105.256;   10.048;  -16.110;  557.440
1105.798;    9.008;  -15.910;  499.980
1106.341;   11.763;  -12.200;  728.900
1106.883;    9.186;  -14.910;  521.340
1107.425;    9.773;  -14.960;  668.180
1107.968;    9.772;  -13.440;  612.380
1108.510;   10.426;  -14.010;  684.960
1109.052;    7.889;  -15.430;  612.620
1109.594;    9.241;  -15.290;  554.440
1110.136;    9.583;  -13.360;  643.220
1110.679;    8.715;  -13.820;  633.080
1111.221;    9.824;  -13.690;  604.460
1111.763;    8.626;  -14.890;  559.220
1112.304;    8.155;  -14.550;  547.140
1112.846;    9.537;  -12.760;  666.240
1113.388;   12.278;  -10.780;  942.180
1113.930;    9.108;  -12.690;  694.200
1114.472;    8.567;  -15.730;  606.540
1115.013;    6.868;  -14.620;  551.280
1115.555;    6.928;  -14.950;  587.100
1116.097;    7.431;  -16.460;  579.480
1116.638;    7.836;  -13.730;  684.600
1117.180;    8.369;  -13.810;  667.740
1117.721;    7.475;  -13.280;  568.580
1118.262;    8.897;  -15.080;  677.960
1118.804;    8.072;  -14.040;  637.340
1119.345;    7.537;  -15.430;  578.400
1119.886;    7.901;  -15.240;  704.040
1120.427;    6.558;  -15.820;  589.020
1120.969;    6.214;  -14.550;  597.920
1121.510;    5.609;  -14.030;  563.060
1122.051;    7.591;  -11.990;  723.580
1122.592;    6.710;  -16.490;  655.420
1123.133;    5.739;  -15.580;  547.940
1123.673;    6.781;  -12.850;  706.480
1124.214;    6.372;  -13.630;  612.460
1124.755;    7.205;  -14.830;  639.460
1125.296;    6.282;  -13.110;  627.320
1125.836;    8.065;  -11.320;  691.500
1126.377;    6.352;  -14.330;  599.660
1126.918;    6.894;  -12.800;  614.980
1127.458;    5.670;  -13.580;  622.220
1127.999;    6.488;  -10.330;  656.980
1128.539;    7.194;  -13.390;  694.240
1129.079;    5.547;  -16.420;  632.720
1129.620;    5.236;  -15.700;  558.100
1130.160;    4.129;  -14.790;  539.480
1130.700;    5.695;  -12.910;  640.840
1131.240;    6.110;  -15.610;  643.700
1131.781;    4.762;  -12.920;  619.680
1132.321;    4.658;  -15.300;  599.120
1132.861;    4.785;  -14.760;  564.200
1133.401;    4.388;  -15.470;  593.940
1133.941;    4.741;  -13.710;  626.280
1134.481;    4.948;  -11.820;  597.580
1135.020;    4.352;  -14.810;  609.160
1135.560;    5.266;  -13.660;  674.940
1136.100;    3.792;  -13.940;  501.160
1136.640;    4.136;  -15.410;  510.480
1137.179;    4.111;  -16.920;  537.960
1137.719;    4.291;  -16.430;  605.400
1138.258;    4.401;  -16.300;  587.360
1138.798;    4.912;  -13.710;  663.780
1139.337;    3.103;  -13.840;  482.840
1139.877;    4.452;  -16.140;  642.360
1140.416;    7.010;  -11.410;  878.060
1140.955;    2.677;  -12.820;  535.380
1141.494;    4.258;  -12.310;  669.280
1142.034;    3.329;  -16.280;  583.520
1142.573;    4.132;  -13.090;  646.280
1143.112;    2.636;  -13.770;  553.480
1143.651;    3.455;  -15.830;  536.480
1144.190;    3.825;  -15.010;  691.640
1144.729;    2.987;  -13.650;  607.420
1145.267;    2.438;  -13.670;  584.900
1145.806;    4.549;  -13.630;  637.040
1146.345;    2.999;  -14.160;  635.020
1146.884;    2.398;  -11.180;  622.500
1147.422;    2.275;  -15.890;  533.060
1147.961;    3.982;  -12.760;  708.460
1148.500;    3.668;  -15.220;  669.720
1149.038;    3.233;  -13.720;  632.500
1149.577;    3.329;  -13.250;  698.640
1150.115;    1.153;  -16.790;  452.280
1150.653;    2.607;  -15.810;  607.340
1151.192;    2.604;  -14.730;  552.920
1151.730;    2.841;  -13.660;  652.560
1152.268;    1.986;  -15.120;  589.520
1152.806;    2.436;  -15.580;  571.180
1153.344;    1.022;  -16.210;  577.640
1153.882;    1.745;  -12.810;  600.060
1154.421;    0.389;  -14.150;  470.620
1154.958;    1.850;  -15.360;  595.240
1155.496;    2.332;  -14.710;  645.280
1156.034;    2.013;  -13.640;  721.880
1156.572;    2.533;  -13.740;  667.060
1157.110;    0.751;  -16.960;  473.940
1157.647;    2.366;  -11.940;  676.960
1158.185;    1.208;  -14.090;  564.320
1158.723;    0.166;  -13.610;  509.200
1159.260;    1.904;  -14.760;  701.700
1159.798;    1.675;  -13.700;  658.160
1160.335;    1.018;  -13.820;  631.820

