
Integration time [ms]:   3.882
Averaging Nr. [scans]: 1000
Smoothing Nr. [pixels]: 0
Data measured with spectrometer [name]: 7414430SP
Wave   ;Sample   ;Dark     ;Reference
[nm]   ;[counts] ;[counts] ;[counts] 

288.544;  121.599;   10.292;  793.890
289.143;  125.206;    4.564;  681.602
289.742;  125.894;    6.144;  828.814
290.341;  114.492;    4.396;  789.841
290.940;  104.774;    0.938;  730.702
291.538;  106.313;   -0.684;  881.108
292.137;  104.289;   -2.845;  792.581
292.736;  107.363;   -0.144;  975.101
293.335;  103.902;   -6.352;  735.086
293.934;  104.791;   -7.642;  781.677
294.532;  105.650;   -4.992; 1031.958
295.131;   92.472;   -5.478;  834.394
295.730;   92.230;   -6.549;  809.588
296.328;   90.701;   -9.558;  783.442
296.927;   89.917;   -8.118;  779.652
297.525;   92.117;   -6.908;  781.236
298.124;   82.163;   -9.195;  654.009
298.722;   86.859;   -8.198;  761.933
299.321;   85.568;   -8.817;  708.597
299.919;   83.271;   -7.716;  751.918
300.518;   79.064;  -10.745;  689.338
301.116;   80.822;   -9.647;  691.381
301.715;   80.985;  -10.828;  730.222
302.313;   80.972;   -6.087;  704.943
302.911;   76.241;   -6.824;  733.830
303.509;   82.147;   -8.807;  925.627
304.108;   78.942;   -8.198;  760.383
304.706;   78.608;   -6.218;  801.664
305.304;   73.920;   -7.185;  796.707
305.902;   79.056;   -8.568;  784.484
306.500;   74.983;   -7.737;  728.200
307.098;   73.818;   -6.026;  746.560
307.696;   72.376;   -7.176;  780.432
308.294;   72.406;   -8.656;  731.359
308.892;   74.569;   -6.838;  759.769
309.490;   71.034;   -2.596;  712.161
310.088;   69.474;   -4.485;  788.444
310.686;   74.305;   -3.907;  821.749
311.284;   70.430;   -2.806;  766.040
311.882;   68.300;   -2.845;  731.225
312.480;   64.715;   -3.274;  697.167
313.078;   66.417;   -3.645;  808.331
313.675;   68.407;   -4.997;  691.600
314.273;   63.365;   -0.894;  797.837
314.871;   62.106;   -2.854;  589.829
315.468;   60.149;   -3.644;  652.090
316.066;   63.827;   -3.947;  694.427
316.664;   56.222;   -1.824;  656.351
317.261;   61.878;    1.565;  910.128
317.859;   57.718;   -3.955;  768.735
318.456;   58.005;   -2.886;  830.096
319.054;   54.506;   -0.995;  787.828
319.651;   54.524;   -1.765;  759.928
320.249;   53.364;   -3.685;  810.188
320.846;   50.732;   -3.736;  714.286
321.443;   49.756;   -2.065;  832.135
322.041;   47.232;   -5.635;  812.315
322.638;   45.877;   -5.985;  701.456
323.235;   46.587;   -6.677;  665.683
323.833;   45.391;   -3.497;  740.354
324.430;   40.792;   -6.756;  615.900
325.027;   42.384;   -7.647;  876.855
325.624;   43.153;   -7.598;  644.532
326.221;   40.175;   -5.848;  689.717
326.818;   40.465;   -5.777;  818.332
327.415;   42.502;   -8.769;  748.828
328.012;   42.006;   -6.299;  690.585
328.609;   40.594;   -6.639;  731.389
329.206;   39.080;   -6.358;  778.621
329.803;   37.880;   -8.698;  737.841
330.400;   39.668;   -8.379;  704.260
330.997;   40.299;   -6.178;  817.147
331.594;   38.104;   -5.646;  788.185
332.191;   42.021;   -6.928;  728.722
332.787;   42.878;   -6.057;  844.463
333.384;   40.888;   -6.445;  763.093
333.981;   38.847;   -8.002;  815.687
334.578;   40.636;   -8.443;  708.378
335.174;   43.385;   -6.053;  731.469
335.771;   43.433;   -5.791;  836.456
336.367;   40.265;   -6.570;  710.631
336.964;   42.058;   -6.741;  793.266
337.561;   41.427;   -5.710;  731.112
338.157;   38.884;   -3.928;  911.916
338.754;   35.909;   -5.577;  796.589
339.350;   34.233;   -9.667;  722.493
339.946;   37.708;   -5.269;  773.135
340.543;   31.028;   -4.485;  846.136
341.139;   25.386;   -7.584;  720.836
341.735;   24.359;   -8.553;  772.593
342.332;   23.265;   -4.984;  691.472
342.928;   24.339;   -3.475;  795.394
343.524;   19.211;   -6.653;  761.684
344.120;   16.661;   -7.173;  738.562
344.716;   19.860;   -4.385;  723.717
345.313;   17.410;   -3.565;  795.342
345.909;   12.493;   -7.495;  627.336
346.505;   14.588;   -8.276;  740.247
347.101;   16.167;   -5.697;  827.864
347.697;   16.715;   -4.767;  785.398
348.293;   10.983;   -7.226;  627.244
348.889;   12.352;   -7.547;  745.914
349.485;   11.568;   -9.147;  688.205
350.081;   12.278;   -6.568;  772.592
350.676;    8.165;   -6.516;  691.606
351.272;   12.779;   -7.378;  809.530
351.868;   12.285;   -6.759;  780.497
352.464;   10.175;   -4.798;  723.932
353.059;    6.304;   -7.977;  646.017
353.655;    9.852;   -8.769;  777.063
354.251;   11.091;   -5.920;  759.845
354.846;    5.187;   -7.647;  740.646
355.442;    3.453;   -6.956;  753.071
356.038;    5.711;   -9.928;  751.708
356.633;    5.575;   -7.698;  728.594
357.229;    4.132;   -6.307;  724.757
357.824;    2.533;   -7.647;  703.600
358.420;    1.569;  -10.047;  679.726
359.015;    2.405;   -7.458;  695.357
359.610;    3.773;   -5.748;  763.920
360.206;   -3.028;   -9.346;  603.240
360.801;   -0.162;  -11.268;  646.503
361.396;    3.028;   -8.789;  725.975
361.992;   -1.769;   -6.347;  668.220
362.587;   -4.276;   -6.476;  670.160
363.182;   -2.426;   -9.457;  689.631
363.777;   -0.948;   -7.147;  738.242
364.372;   -0.846;   -5.507;  737.314
364.967;   -5.402;   -6.386;  680.744
365.563;   -0.615;   -7.858;  815.567
366.158;   -2.402;   -8.517;  685.161
366.753;   -2.434;   -8.728;  649.263
367.348;   -4.390;   -7.677;  746.056
367.942;   -4.315;  -10.387;  697.298
368.537;   -4.805;   -7.187;  754.245
369.132;   -4.284;   -8.587;  703.428
369.727;   -8.587;   -8.606;  638.079
370.322;   -7.681;  -10.426;  580.186
370.917;   -7.300;   -5.776;  710.646
371.511;   -4.042;   -6.007;  861.834
372.106;   -7.604;   -6.686;  776.964
372.701;  -11.456;   -9.335;  585.988
373.296;   -5.021;   -6.777;  863.135
373.890;  -10.167;   -7.546;  647.840
374.485;  -12.239;   -8.755;  691.199
375.079;   -8.182;   -9.797;  738.685
375.674;   -7.013;   -6.327;  812.970
376.268;  -10.090;   -9.046;  691.759
376.863;  -16.336;   -7.993;  580.327
377.457;   -9.582;   -9.206;  662.490
378.052;  -11.570;   -5.345;  764.884
378.646;  -11.784;   -5.605;  741.167
379.240;  -12.353;   -6.825;  721.176
379.835;  -11.895;  -10.476;  636.978
380.429;  -13.883;   -8.676;  562.557
381.023;  -12.296;   -4.945;  779.205
381.617;  -15.716;   -8.094;  680.106
382.212;  -13.008;  -10.646;  685.303
382.806;  -11.610;   -8.136;  760.690
383.400;  -14.861;   -7.855;  672.281
383.994;  -16.112;   -8.125;  664.870
384.588;  -12.078;   -7.637;  697.701
385.182;  -10.953;   -7.458;  726.624
385.776;  -11.821;   -6.277;  706.875
386.370;  -15.361;   -7.485;  681.968
386.964;  -13.680;   -9.416;  684.155
387.558;  -12.458;   -8.518;  598.360
388.152;  -15.575;   -7.096;  681.959
388.745;  -13.408;   -7.656;  814.707
389.339;  -11.614;   -8.927;  747.642
389.933;  -10.721;   -9.538;  695.370
390.527;  -12.205;   -5.857;  859.029
391.120;  -17.871;   -9.455;  595.318
391.714;  -15.646;   -9.746;  711.633
392.308;  -11.518;   -7.857;  780.253
392.901;  -15.156;   -9.106;  642.460
393.495;  -17.492;  -10.365;  595.414
394.089;  -15.071;   -9.696;  760.452
394.682;  -15.544;   -7.016;  697.188
395.275;  -15.640;   -8.466;  719.927
395.869;  -17.270;   -8.985;  667.314
396.462;  -15.746;  -11.496;  616.609
397.056;  -11.315;   -7.838;  776.621
397.649;  -16.073;   -6.895;  731.575
398.242;  -12.792;   -5.017;  712.645
398.836;  -12.203;   -8.787;  766.408
399.429;  -12.882;   -8.967;  631.041
400.022;  -16.668;   -8.815;  665.902
400.615;  -14.414;   -6.276;  805.609
401.208;  -12.801;   -8.407;  691.451
401.802;  -14.985;   -7.296;  699.329
402.395;  -15.689;   -7.585;  683.502
402.988;  -16.941;   -8.015;  696.627
403.581;  -13.189;   -9.577;  646.878
404.174;  -11.408;   -7.588;  686.568
404.767;  -13.825;   -7.906;  638.583
405.360;  -16.843;   -7.875;  621.445
405.953;  -11.145;   -8.127;  759.034
406.545;  -10.316;   -7.198;  725.342
407.138;  -14.806;   -8.916;  618.350
407.731;  -13.246;   -9.767;  613.303
408.324;   -9.124;  -10.659;  660.554
408.917;  -10.428;   -8.068;  681.864
409.509;  -12.146;   -9.837;  740.396
410.102;  -13.687;   -8.146;  643.948
410.695;   -8.222;   -7.969;  665.758
411.287;   -9.281;   -8.579;  599.821
411.880;   -9.390;   -6.968;  585.421
412.472;  -12.702;   -9.487;  613.092
413.065;   -9.750;  -10.338;  629.408
413.657;   -7.946;   -9.169;  576.678
414.250;   -7.651;  -10.119;  646.681
414.842;   -9.070;   -9.938;  676.353
415.434;   -7.093;  -10.409;  570.463
416.027;   -3.571;   -9.591;  652.196
416.619;   -5.129;   -7.379;  713.400
417.211;   -5.667;   -9.159;  599.352
417.804;   -2.100;   -9.191;  628.499
418.396;   -5.594;   -8.159;  607.643
418.988;   -3.665;   -6.960;  659.238
419.580;   -7.274;  -11.389;  568.276
420.172;   -4.260;  -13.460;  536.196
420.764;   -0.276;  -10.701;  672.482
421.356;   -1.358;   -8.961;  636.898
421.948;   -2.367;   -9.770;  677.661
422.540;    2.922;   -8.832;  680.027
423.132;    1.422;   -8.153;  600.641
423.724;   -1.494;   -8.481;  561.267
424.316;    1.305;   -9.261;  621.345
424.908;    4.089;   -9.643;  591.517
425.500;    5.106;   -8.663;  647.978
426.092;    5.810;   -8.503;  648.268
426.683;    4.831;  -10.522;  684.836
427.275;    7.698;  -11.734;  641.471
427.867;    8.603;  -10.264;  668.948
428.458;    9.828;   -7.644;  732.344
429.050;    8.429;   -7.853;  680.749
429.642;   10.329;   -8.904;  743.124
430.233;   10.296;  -10.795;  569.356
430.825;   12.249;   -7.665;  724.809
431.416;   10.133;   -8.843;  698.241
432.008;   13.125;   -9.885;  651.723
432.599;   14.020;   -9.966;  656.073
433.190;   11.497;   -9.164;  637.670
433.782;    9.841;   -8.584;  590.395
434.373;   17.577;   -8.296;  884.765
434.964;   16.137;   -9.896;  602.920
435.556;   13.366;   -8.255;  634.537
436.147;   17.215;   -8.075;  758.490
436.738;   16.191;   -9.716;  701.099
437.329;   21.895;   -7.318;  721.723
437.920;   15.470;   -6.694;  666.688
438.511;   15.348;   -9.644;  564.526
439.103;   21.497;   -9.427;  623.998
439.694;   24.592;  -10.748;  681.583
440.285;   24.727;   -7.997;  764.432
440.876;   24.071;  -10.046;  845.738
441.466;   22.295;  -13.467;  575.162
442.057;   27.865;   -9.329;  665.814
442.648;   26.477;   -7.707;  746.255
443.239;   24.336;   -9.017;  620.477
443.830;   29.274;  -10.279;  704.958
444.421;   30.964;  -12.630;  655.474
445.011;   27.886;   -8.697;  693.619
445.602;   27.339;   -7.787;  743.126
446.193;   29.391;  -13.329;  488.117
446.783;   34.475;   -9.171;  640.397
447.374;   29.345;   -7.457;  692.759
447.964;   29.723;   -9.277;  713.770
448.555;   38.490;   -9.041;  822.742
449.145;   34.388;   -8.969;  662.853
449.736;   35.939;   -6.809;  803.179
450.326;   36.013;   -7.229;  713.626
450.917;   40.998;  -11.391;  675.324
451.507;   39.104;   -9.501;  600.661
452.097;   41.171;   -8.460;  746.267
452.688;   42.699;  -10.080;  742.160
453.278;   41.901;  -12.861;  566.840
453.868;   46.215;   -8.372;  793.550
454.458;   44.529;   -8.131;  651.141
455.048;   44.445;   -8.520;  711.783
455.639;   45.765;  -13.632;  567.096
456.229;   49.849;  -10.143;  710.694
456.819;   51.983;   -9.163;  751.158
457.409;   52.392;   -8.652;  773.993
457.999;   54.594;   -9.933;  737.505
458.589;   53.801;  -10.363;  686.606
459.179;   54.198;  -10.633;  717.658
459.769;   52.124;  -12.442;  627.099
460.358;   57.233;   -9.844;  797.262
460.948;   57.770;   -9.924;  689.503
461.538;   58.729;  -10.484;  660.677
462.128;   56.464;  -10.703;  664.934
462.717;   63.365;  -11.486;  710.326
463.307;   66.254;  -10.767;  705.846
463.897;   62.227;   -8.814;  656.942
464.486;   61.716;   -8.182;  837.128
465.076;   66.695;   -9.985;  733.776
465.666;   70.127;  -10.447;  652.900
466.255;   67.495;   -7.754;  785.651
466.845;   66.552;  -10.884;  666.749
467.434;   69.662;  -12.525;  725.873
468.023;   70.461;  -11.456;  658.357
468.613;   68.996;   -9.173;  713.946
469.202;   72.739;   -9.306;  646.507
469.791;   76.672;   -8.917;  737.811
470.381;   78.865;   -9.657;  742.813
470.970;   78.476;   -9.947;  711.099
471.559;   78.154;   -9.256;  733.291
472.148;   81.616;  -13.397;  675.737
472.738;   84.857;   -9.928;  765.466
473.327;   83.662;  -10.897;  637.529
473.916;   83.601;   -8.526;  737.446
474.505;   87.052;  -11.078;  751.703
475.094;   90.786;   -9.559;  806.570
475.683;   90.409;   -8.838;  797.699
476.272;   91.750;  -10.198;  730.632
476.861;   94.623;  -11.489;  706.754
477.449;  100.722;  -10.721;  728.487
478.038;   94.955;   -9.818;  692.513
478.627;   95.635;   -9.887;  714.852
479.216;  103.039;  -10.030;  769.441
479.805;  106.028;   -9.401;  783.375
480.393;  106.185;   -5.739; 1008.945
480.982;  104.749;   -7.838;  874.501
481.571;  111.413;   -9.111;  858.333
482.159;  112.176;  -10.601;  705.386
482.748;  111.948;   -8.500;  821.385
483.336;  116.548;   -9.241;  858.209
483.925;  118.370;  -10.440;  774.373
484.513;  123.375;  -11.063;  758.962
485.102;  121.059;   -9.540;  810.965
485.690;  130.216;   -6.742; 1011.050
486.278;  132.177;   -8.442;  979.329
486.867;  131.974;  -10.472;  809.662
487.455;  134.370;   -8.811;  898.229
488.043;  136.675;  -10.721;  748.361
488.631;  146.568;  -10.393; 1005.079
489.220;  149.515;  -10.843;  908.626
489.808;  150.836;  -10.572;  741.415
490.396;  159.087;  -10.482;  914.645
490.984;  165.518;  -11.542;  830.161
491.572;  176.394;   -8.463;  940.315
492.160;  184.326;   -8.491;  919.081
492.748;  197.440;   -9.681;  884.341
493.336;  222.000;  -10.493; 1019.693
493.924;  253.874;   -9.354;  958.077
494.512;  292.412;   -9.132; 1066.638
495.100;  334.587;   -9.001; 1103.280
495.687;  394.120;  -11.924; 1206.373
496.275;  478.440;  -11.193; 1150.796
496.863;  566.977;   -9.241; 1281.171
497.451;  678.870;  -11.341; 1386.805
498.038;  802.908;  -11.364; 1556.729
498.626;  929.028;   -8.104; 1741.407
499.214; 1150.362;   -8.842; 2016.609
499.801; 1441.754;  -10.112; 2220.633
500.389; 1672.917;  -11.953; 2312.494
500.976; 1891.637;  -10.023; 2744.849
501.564; 2201.257;   -8.662; 3148.565
502.151; 2651.466;  -10.531; 3515.999
502.738; 3154.783;  -13.853; 3971.274
503.326; 3699.988;  -10.794; 4403.796
503.913; 4356.139;   -8.663; 5161.749
504.500; 4939.838;  -10.172; 5986.420
505.088; 5912.800;  -13.472; 6381.201
505.675; 6641.742;  -10.924; 6925.547
506.262; 6951.988;   -8.551; 7619.060
506.849; 7765.854;  -10.523; 8733.969
507.436; 8791.967;  -10.834; 9790.121
508.023; 8974.002;   -9.093; 9985.472
508.610; 9290.325;  -10.073;10434.618
509.197;10592.402;   -9.500;11198.435
509.784;12648.405;  -13.242;12391.194
510.371;13532.157;  -10.964;13603.713
510.958;14496.488;   -9.772;14426.586
511.545;15168.567;   -7.842;15243.775
512.132;15294.560;  -12.184;15945.876
512.719;16961.113;   -9.733;16340.369
513.305;19492.018;   -9.172;18011.766
513.892;20586.816;   -9.581;19754.971
514.479;21516.809;  -10.253;20967.805
515.066;22040.518;   -8.183;22299.793
515.652;23098.498;   -9.253;22908.660
516.239;24670.600;   -9.412;23798.875
516.825;25858.973;  -11.153;25567.275
517.412;24816.664;  -10.263;28154.959
517.998;24190.193;   -8.802;28344.111
518.585;24642.354;  -10.401;27134.219
519.171;25318.760;  -12.744;27268.576
519.758;26987.799;  -11.793;28964.129
520.344;30264.182;   -8.912;30664.494
520.930;32712.736;  -10.901;32550.605
521.516;32024.875;  -12.034;35422.895
522.103;33051.105;  -10.473;38280.004
522.689;34659.133;   -8.311;37835.117
523.275;36101.230;  -10.691;37288.613
523.861;36806.441;  -11.193;37281.395
524.447;34759.227;  -11.484;37846.949
525.033;35230.012;   -7.702;38321.949
525.619;35885.793;  -11.241;38579.285
526.205;36398.309;  -12.152;40622.875
526.791;37395.258;  -11.423;42258.836
527.377;37814.297;   -7.981;42966.902
527.963;37368.281;   -9.450;42018.949
528.549;38068.996;  -11.351;42476.828
529.135;39304.648;  -10.202;41854.852
529.721;38617.918;   -8.672;41237.711
530.306;36400.563;   -9.111;41259.445
530.892;38858.660;  -11.252;41506.047
531.478;41870.859;  -10.432;43559.613
532.063;43808.039;  -10.721;47695.563
532.649;45367.242;   -7.450;50808.324
533.235;46102.535;  -11.811;51787.500
533.820;45367.000;   -9.383;52145.035
534.406;42691.023;   -9.400;51133.488
534.991;43203.266;   -8.861;49996.805
535.576;44548.031;  -10.612;48882.852
536.162;41854.270;   -7.322;46942.285
536.747;41671.477;   -9.360;45711.746
537.333;44454.223;  -10.450;48510.180
537.918;47468.508;  -12.610;50439.891
538.503;47550.277;  -12.132;50863.711
539.088;44592.617;  -10.831;50906.922
539.673;44725.289;  -11.220;52621.965
540.259;46643.707;  -11.481;52368.094
540.844;46526.625;  -11.462;50879.109
541.429;48141.453;   -7.869;52077.777
542.014;46367.477;  -11.859;52716.695
542.599;43538.957;  -11.061;52363.281
543.184;43594.395;  -12.300;53187.137
543.769;45362.172;   -9.369;54697.605
544.354;45997.195;  -12.020;53913.914
544.938;42169.781;  -10.350;49680.164
545.523;39400.633;  -10.841;47386.277
546.108;42637.988;   -8.579;49151.949
546.693;45690.008;   -8.818;51384.637
547.278;46179.422;  -11.331;51853.254
547.862;44772.258;  -10.292;51173.750
548.447;44618.973;   -8.349;51691.395
549.031;44329.188;  -10.838;52456.703
549.616;45926.734;  -11.681;52714.516
550.201;47291.656;  -11.140;52414.598
550.785;45385.395;   -8.649;52355.059
551.370;47084.051;  -11.889;54589.453
551.954;47020.219;  -11.239;58267.348
552.538;47701.461;   -8.850;59062.176
553.123;49209.832;  -10.829;58115.285
553.707;49587.246;   -8.887;56556.285
554.291;47063.867;  -10.430;56201.668
554.876;47108.082;   -9.799;55335.762
555.460;44380.125;  -10.018;54155.703
556.044;44683.113;   -7.307;53721.484
556.628;47412.742;  -12.229;53731.016
557.212;47700.277;   -9.820;54312.531
557.796;45876.875;   -9.109;53797.773
558.380;44501.449;   -9.707;56145.984
558.964;47345.625;  -10.980;57277.930
559.548;49806.738;  -12.010;56459.641
560.132;50481.133;   -7.928;54434.543
560.716;53269.449;  -10.247;54800.617
561.300;52689.094;  -11.250;57606.945
561.884;50538.887;  -10.568;58972.445
562.467;47733.414;   -9.727;57327.570
563.051;44295.207;  -11.847;54962.434
563.635;43861.777;  -10.747;52594.473
564.219;42193.125;  -13.108;50610.410
564.802;41048.523;  -11.417;49551.180
565.386;40147.195;  -10.457;48370.953
565.969;43221.395;   -8.959;48178.871
566.553;43209.715;  -10.328;49957.305
567.136;41424.828;  -10.257;50369.594
567.720;38847.426;  -10.186;49492.004
568.303;38922.977;  -10.027;50616.352
568.887;41989.945;  -10.397;50727.148
569.470;44855.887;   -8.185;51698.379
570.053;43498.648;  -11.596;52122.078
570.637;42023.605;  -11.378;52536.438
571.220;42053.461;   -9.138;51186.098
571.803;41369.570;   -7.675;51032.762
572.386;40828.672;   -8.976;49609.887
572.969;41691.969;  -12.477;48285.926
573.552;40977.543;   -9.767;47624.285
574.135;38593.836;   -8.175;45498.641
574.718;34436.293;  -11.096;41970.434
575.301;34316.527;  -11.966;41447.137
575.884;34196.766;  -12.836;40923.836
576.467;39742.281;   -9.116;45267.723
577.050;41423.887;  -10.536;48175.543
577.633;39852.359;  -11.027;47729.328
578.216;39316.328;   -9.946;47579.793
578.799;40099.512;   -9.645;47820.996
579.381;39061.328;   -9.446;48115.551
579.964;38569.063;  -12.217;47333.766
580.547;38769.207;  -10.586;46668.969
581.129;38783.672;   -8.374;44466.141
581.712;38277.676;  -10.434;44164.922
582.294;37701.004;  -10.896;46477.855
582.877;38819.203;   -8.906;48244.254
583.459;38804.891;   -9.994;47437.895
584.042;37549.266;  -10.084;46943.219
584.624;35982.445;  -13.534;46792.227
585.206;36373.238;  -12.716;46557.250
585.789;36833.473;  -11.614;45793.773
586.371;36642.859;  -10.203;43836.391
586.953;35308.949;  -10.314;42972.492
587.536;33936.031;   -9.776;42487.211
588.118;33983.008;   -9.821;42086.414
588.700;34895.219;  -10.073;43389.930
589.282;36627.590;  -12.395;43646.039
589.864;37350.828;  -11.514;43438.109
590.446;37926.949;  -10.803;43151.926
591.028;38991.141;  -11.043;42781.867
591.610;37797.918;  -13.244;42839.098
592.192;35193.289;  -11.095;42820.402
592.774;33012.570;  -10.823;40724.277
593.356;32917.555;  -11.052;39874.789
593.937;33962.180;  -11.664;39980.648
594.519;35026.996;  -10.454;42069.633
595.101;35040.246;  -10.322;42976.031
595.683;34064.992;  -10.042;44084.441
596.264;33592.332;  -14.334;43478.797
596.846;34378.043;  -10.863;43803.672
597.427;34663.766;   -9.901;42986.934
598.009;33861.535;  -10.911;42832.219
598.591;32285.672;  -10.483;42580.086
599.172;30766.053;   -9.663;43061.805
599.753;29760.672;  -10.631;41691.469
600.335;29031.082;   -9.371;40692.520
600.916;31643.150;  -13.992;39982.422
601.498;34798.828;   -8.352;40318.617
602.079;34913.664;   -8.411;40670.609
602.660;38212.289;  -10.841;41450.898
603.241;37933.230;  -12.963;41137.738
603.823;34371.480;  -11.523;38868.797
604.404;32204.145;  -11.881;38182.785
604.985;33844.672;  -11.721;38078.047
605.566;34334.234;   -9.293;38056.633
606.147;32964.496;  -10.940;37020.418
606.728;32147.619;  -11.840;37883.359
607.309;31155.570;  -11.781;38748.273
607.890;30641.875;  -11.262;38850.230
608.471;29614.221;  -10.111;37457.918
609.051;30063.127;   -7.709;36066.457
609.632;30498.646;  -12.409;35991.074
610.213;28855.822;  -10.811;37402.641
610.794;28625.084;  -11.630;38383.363
611.374;29857.580;   -8.030;40562.387
611.955;31082.229;  -10.809;38533.727
612.536;32606.297;  -10.531;36951.789
613.116;33129.984;  -12.820;37197.891
613.697;32979.391;  -11.419;38411.125
614.277;31763.344;   -9.768;38673.938
614.858;30001.586;  -10.251;37075.863
615.438;26923.250;  -11.981;35092.906
616.019;26701.463;   -8.978;33666.301
616.599;29153.701;  -12.219;34189.023
617.179;31696.299;  -14.170;36952.047
617.760;33625.570;   -9.211;39582.574
618.340;33801.789;   -9.018;38943.977
618.920;32225.814;   -9.249;37594.156
619.500;33206.531;  -12.728;37866.938
620.080;34851.375;  -12.939;37869.043
620.660;33183.316;  -11.586;36868.617
621.241;32490.902;  -11.538;36352.309
621.821;32829.098;  -11.398;35459.520
622.401;34015.367;  -10.179;35207.414
622.980;32934.191;  -11.587;35980.422
623.560;31888.934;  -12.888;37351.328
624.140;29931.262;  -13.149;34388.582
624.720;25505.355;   -9.928;32368.764
625.300;25472.590;  -10.869;32638.629
625.880;29355.832;   -8.617;34599.035
626.459;33309.703;  -12.138;36831.738
627.039;33903.488;  -12.267;38299.098
627.619;33757.840;   -7.476;38289.574
628.198;34535.602;  -11.347;37220.695
628.778;33278.176;  -11.678;37632.563
629.357;30818.328;  -12.438;38003.012
629.937;29262.557;   -9.576;38402.039
630.516;28303.645;  -11.096;37868.801
631.096;28530.295;  -11.828;35760.410
631.675;29337.141;  -11.565;35225.219
632.254;29898.203;  -11.845;35130.289
632.834;30806.217;  -11.545;35794.570
633.413;32265.986;  -10.887;35788.922
633.992;33453.797;  -10.175;34532.863
634.571;32409.303;   -9.704;33590.113
635.151;30597.295;  -10.815;34943.863
635.730;30904.563;  -11.617;35352.523
636.309;31146.928;  -10.836;35366.605
636.888;32019.508;   -9.755;36165.637
637.467;32709.639;  -11.684;37515.902
638.046;34980.789;  -11.987;39288.695
638.625;35355.785;  -10.455;38279.699
639.204;33610.809;  -11.234;37741.598
639.782;30416.682;  -12.023;38364.551
640.361;29917.910;  -11.506;36740.621
640.940;29700.920;  -12.316;34950.082
641.519;30486.293;  -11.616;34137.398
642.097;33445.824;   -9.266;35654.258
642.676;34051.238;  -12.936;35637.957
643.255;33646.793;   -9.966;36567.074
643.833;33611.180;   -8.916;37809.434
644.412;35042.211;  -10.936;37337.293
644.990;36697.051;  -12.176;37018.531
645.569;36201.887;  -12.246;36518.469
646.147;35330.094;  -12.107;36186.430
646.726;35244.750;  -12.937;36267.688
647.304;38375.652;  -12.547;36647.625
647.882;38304.273;  -12.597;39286.742
648.461;35910.285;   -9.427;39157.703
649.039;33429.957;   -8.937;35412.883
649.617;32543.477;  -11.067;34744.918
650.195;32368.395;  -10.657;35403.098
650.773;31211.111;  -10.097;35053.797
651.352;28931.693;  -11.887;33756.816
651.930;25287.869;  -13.557;31868.773
652.508;22919.514;  -11.767;33121.551
653.086;23446.076;  -10.777;33564.793
653.663;27896.162;  -12.067;34054.668
654.241;30913.662;  -14.918;35693.309
654.819;30993.693;  -11.788;36422.906
655.397;30484.033;  -11.268;38213.484
655.975;31641.475;  -11.738;39507.625
656.553;31412.264;  -11.018;39498.223
657.130;30178.092;  -12.848;40395.480
657.708;29439.494;  -10.098;39242.020
658.286;29550.750;  -11.678;38920.020
658.863;30490.520;  -11.498;40202.898
659.441;31525.291;  -11.008;39677.938
660.018;32370.287;  -11.048;40413.355
660.596;31959.992;  -12.058;39931.414
661.173;31994.273;  -14.158;39604.531
661.750;31893.061;  -12.298;39700.070
662.328;31536.672;  -10.699;39292.809
662.905;30018.594;  -12.119;38235.648
663.482;26368.053;  -11.829;36212.305
664.060;25103.119;  -11.009;35944.945
664.637;27896.611;  -10.369;35170.785
665.214;28894.375;  -10.459;34197.523
665.791;27463.967;  -12.599;34549.520
666.368;26920.166;  -12.919;35118.578
666.945;28501.906;  -10.699;36019.418
667.522;28950.412;  -11.359;36048.438
668.099;29222.406;  -13.529;36243.914
668.676;30100.920;  -10.229;35958.875
669.253;30027.234;   -9.279;37384.730
669.830;30381.148;  -11.370;36779.629
670.407;31908.879;  -10.950;35231.289
670.984;32488.156;  -12.850;35544.270
671.560;32296.697;   -8.440;35466.867
672.137;30603.594;  -13.520;34280.863
672.714;28988.346;  -13.620;34632.863
673.290;28553.744;  -10.450;35135.422
673.867;27363.873;  -10.960;36114.480
674.443;26503.225;  -13.300;36152.859
675.020;27069.668;  -12.370;35327.238
675.596;26964.646;  -11.250;35795.176
676.173;27576.988;  -11.080;35430.355
676.749;28330.359;  -13.220;33549.516
677.326;31192.988;  -13.000;32210.012
677.902;31630.516;  -12.701;32068.871
678.478;30715.822;  -12.801;32583.891
679.054;30119.846;   -8.601;32088.928
679.631;31680.574;  -12.631;30978.848
680.207;31742.465;   -9.451;33160.887
680.783;30303.039;  -11.701;35570.363
681.359;30039.748;  -12.701;36125.184
681.935;28378.705;  -13.271;35240.922
682.511;27429.824;  -10.791;34429.961
683.087;28769.654;  -10.791;34463.680
683.663;29555.033;   -8.121;34648.898
684.239;30915.303;  -13.261;34546.457
684.815;28900.721;  -10.581;35586.375
685.390;26293.408;   -9.961;35821.895
685.966;25459.371;  -11.182;35085.871
686.542;25343.752;  -13.512;34198.230
687.118;26269.359;  -11.472;32847.707
687.693;26338.078;  -10.152;32794.027
688.269;28102.988;  -14.442;33072.367
688.844;29356.006;  -11.852;33141.664
689.420;27510.596;  -13.942;33965.742
689.995;26164.693;   -9.702;34655.523
690.571;26170.984;  -11.312;33576.742
691.146;26072.074;  -14.332;32657.219
691.722;28053.531;  -11.192;32526.979
692.297;29125.975;  -10.962;33014.617
692.872;27691.244;  -11.082;34012.254
693.448;27226.217;  -14.732;34237.434
694.023;27415.537;  -12.363;34142.672
694.598;27641.814;  -12.393;34132.031
695.173;27110.293;  -11.023;34205.250
695.748;27334.801;  -12.743;32882.488
696.323;28997.193;  -11.103;32864.906
696.898;29998.115;   -8.123;33170.004
697.473;29521.217;  -12.603;32432.984
698.048;28260.207;  -12.553;31649.303
698.623;29101.980;  -12.573;30778.141
699.198;30777.779;  -12.743;31140.119
699.773;28633.953;  -12.843;31764.299
700.348;28148.902;  -16.683;31780.816
700.922;29024.148;  -11.403;32046.375
701.497;29512.963;  -11.253;32603.574
702.072;28999.975;  -10.044;34799.871
702.646;27307.770;  -13.054;35793.172
703.221;26261.369;  -11.414;35201.590
703.795;27219.537;  -10.644;34764.527
704.370;28288.088;  -13.484;34307.367
704.944;27960.016;  -12.144;33509.887
705.519;27343.014;  -12.024;31388.584
706.093;26466.561;  -11.234;31340.104
706.668;25159.178;   -9.874;32630.281
707.242;25068.635;  -12.404;32728.779
707.816;24501.391;  -10.644;32947.238
708.390;24809.357;  -11.174;33277.855
708.965;26083.672;  -10.324;33834.336
709.539;25762.635;  -12.014;33709.273
710.113;25794.396;  -12.295;33044.313
710.687;26516.838;  -10.965;31953.992
711.261;26981.064;  -13.685;30505.949
711.835;26214.568;  -15.335;30262.369
712.409;26010.545;  -13.785;31254.447
712.983;27299.516;  -10.525;32754.986
713.557;28461.398;  -13.175;34018.824
714.131;29205.684;  -13.245;34579.625
714.704;30216.113;  -13.175;33890.262
715.278;30608.314;  -11.545;33531.102
715.852;28950.818;  -10.975;33601.660
716.425;28393.828;  -10.075;33515.117
716.999;28117.545;  -12.185;33185.555
717.573;28908.791;   -9.685;33905.996
718.146;29759.527;  -10.516;35199.293
718.720;26261.016;  -12.106;35060.551
719.293;26287.355;  -12.386;34973.230
719.867;28006.654;  -12.456;36394.449
720.440;27307.248;  -10.686;36663.008
721.013;27639.846;  -12.596;35102.426
721.587;28103.961;  -13.956;33985.266
722.160;27707.865;   -9.806;33524.965
722.733;28492.449;  -11.676;32987.043
723.306;28432.375;  -14.276;33066.301
723.880;28149.037;  -12.126;33399.500
724.453;28460.846;  -10.156;33468.297
725.026;27437.238;  -12.956;33816.637
725.599;26073.543;  -11.676;32797.996
726.172;25781.518;  -12.337;33187.434
726.745;27110.771;  -11.277;35136.613
727.318;25991.383;  -11.927;35751.730
727.891;24944.150;  -13.607;35890.430
728.463;25186.924;  -11.327;34822.090
729.036;25386.908;  -11.917;32895.086
729.609;26611.695;  -12.697;31823.225
730.182;27666.164;  -11.787;31445.283
730.754;28392.807;  -12.957;32373.223
731.327;28711.619;  -11.017;33676.820
731.900;27210.316;  -12.797;33417.000
732.472;25230.129;  -10.677;31978.498
733.045;24779.484;  -12.797;30368.777
733.617;25051.801;  -13.908;30574.215
734.190;24884.281;  -12.258;31280.975
734.762;25790.727;  -13.438;31674.412
735.334;25623.896;  -11.758;31247.291
735.907;25758.600;  -11.158;29876.211
736.479;26808.984;  -11.258;29808.488
737.051;28519.963;  -10.918;30233.547
737.623;29718.314;  -11.038;31469.086
738.195;28831.211;  -12.188;31784.225
738.768;26155.771;  -11.378;32120.523
739.340;25761.691;  -12.598;32094.342
739.912;26368.244;  -11.568;31312.680
740.484;25872.256;   -9.348;31946.238
741.056;25279.209;  -12.628;32984.059
741.628;25766.955;  -13.349;33897.715
742.199;26228.768;  -11.309;33213.016
742.771;27108.938;  -12.699;31369.113
743.343;28592.342;  -11.919;31865.473
743.915;28475.918;  -11.679;32388.631
744.487;27036.914;  -12.249;31079.568
745.058;25712.635;  -11.119;30570.107
745.630;24483.697;   -9.439;29970.127
746.201;24142.172;  -11.949;29186.766
746.773;23644.369;  -12.639;28805.723
747.344;23039.188;  -11.039;29591.223
747.916;22224.922;  -12.549;31412.201
748.487;21624.014;  -12.659;32194.898
749.059;21943.693;  -13.059;32533.719
749.630;22424.574;  -12.080;32158.518
750.201;21403.092;  -13.100;30855.395
750.773;20308.721;  -15.310;28622.555
751.344;20482.336;  -12.240;28405.732
751.915;20817.400;  -11.960;28461.551
752.486;20984.457;  -13.200;27842.850
753.057;20373.451;  -15.230;27845.008
753.628;19658.250;  -13.130;27728.107
754.199;19794.637;  -12.720;27381.086
754.770;19841.783;  -10.680;25882.203
755.341;20007.555;  -11.010;25886.184
755.912;19288.949;  -12.990;26050.861
756.483;18335.764;  -11.110;26798.779
757.054;17944.217;  -12.190;27048.238
757.625;17977.441;  -13.981;26294.838
758.195;18521.436;  -11.041;26142.076
758.766;19927.990;  -11.861;26392.234
759.337;20514.432;  -11.461;26334.594
759.907;20497.295;  -15.001;27579.652
760.478;20170.496;   -9.681;28352.770
761.048;19524.199;  -12.421;27325.088
761.619;18657.664;  -11.761;26460.428
762.189;17504.711;  -12.391;26029.826
762.760;17506.291;  -10.201;26430.145
763.330;18698.193;  -10.811;26670.902
763.900;20622.365;  -10.261;26603.021
764.471;19678.445;  -13.061;25542.740
765.041;18821.240;  -11.051;24358.459
765.611;18838.564;  -11.032;23991.297
766.181;18597.338;  -10.532;24470.236
766.751;18146.205;  -13.502;24845.975
767.321;17926.617;  -11.392;24533.633
767.891;18138.510;  -11.522;24916.492
768.461;18848.811;  -13.672;24776.771
769.031;18489.988;  -14.652;24757.988
769.601;17360.795;  -10.182;24181.088
770.171;15623.881;  -11.752;23670.387
770.741;14992.923;  -12.272;22960.045
771.311;15155.338;  -13.112;22917.523
771.880;15266.693;  -14.122;23562.941
772.450;16607.588;  -11.782;24216.500
773.020;17645.260;  -12.642;24140.398
773.589;16358.667;  -13.043;24414.857
774.159;14448.581;  -11.783;23858.717
774.729;14195.614;  -13.473;22942.135
775.298;15688.884;  -14.523;22324.033
775.867;16497.287;  -12.013;21140.313
776.437;15559.424;  -12.113;20838.092
777.006;14098.620;  -13.543;20599.510
777.576;12614.993;  -12.523;20508.809
778.145;12860.323;  -12.173;20732.947
778.714;14007.095;  -12.153;21062.465
779.283;14432.643;  -11.833;20949.664
779.853;14796.411;  -13.483;20508.623
780.422;15110.732;  -12.933;20649.082
780.991;14248.433;  -13.173;21527.520
781.560;12870.922;  -10.224;22632.658
782.129;12852.542;  -12.684;23048.277
782.698;14208.498;  -11.284;23438.555
783.267;14993.560;  -11.684;23267.734
783.836;13942.665;  -10.974;22415.133
784.404;12911.926;  -13.534;20443.152
784.973;12994.084;  -16.734;19699.150
785.542;12915.357;  -12.594;19763.828
786.111;12583.543;  -11.644;20341.408
786.679;13183.797;  -11.384;20207.967
787.248;13772.148;  -12.014;19516.465
787.817;12699.767;  -12.804;18900.363
788.385;11475.232;  -11.994;17879.121
788.954;11387.242;  -12.564;17658.301
789.522;12260.065;  -12.225;17788.879
790.090;12184.688;  -13.775;18118.277
790.659;11411.212;  -12.485;18338.736
791.227;11333.743;  -12.295;18508.615
791.795;11587.774;  -13.415;17898.254
792.364;11280.229;  -12.995;17295.133
792.932;11009.080;   -8.365;16822.051
793.500;11113.006;  -11.925;17040.148
794.068;11140.368;  -13.245;17179.787
794.636;10922.201;  -13.815;16664.246
795.204;10404.228;  -13.375;16524.545
795.772;10541.172;  -12.125;17274.564
796.340;10982.732;  -13.855;17891.002
796.908;11074.634;  -13.456;17648.561
797.476;10525.671;  -13.116;17064.080
798.044;10260.497;  -13.226;16672.777
798.612;10942.532;  -11.236;17023.996
799.180;11648.755;  -10.476;16561.615
799.747;11598.347;  -11.746;15962.773
800.315;10753.787;  -12.366;15296.992
800.883;10031.289;  -14.616;14801.771
801.450;10005.033;  -11.996;14534.430
802.018;10483.426;  -11.206;14173.248
802.585; 9638.457;  -12.466;14029.547
803.153; 8585.366;  -12.846;13836.846
803.720; 8350.524;  -12.136;13567.324
804.287; 8601.333;  -10.966;13360.622
804.855; 9096.310;   -9.797;13681.981
805.422; 8934.957;  -13.037;13536.560
805.989; 8650.260;  -12.697;13355.958
806.556; 8857.749;  -11.737;13747.896
807.124; 9178.597;  -11.997;13987.376
807.691; 8731.313;  -13.997;14038.674
808.258; 8641.587;  -10.927;14120.152
808.825; 9207.223;  -13.727;13860.111
809.392; 9557.004;  -11.847;13268.790
809.959; 8775.936;  -14.217;12680.389
810.526; 7975.938;   -8.277;12427.308
811.093; 7882.053;   -9.647;12030.105
811.659; 7702.377;  -10.987;11653.664
812.226; 7243.346;  -13.447;11637.183
812.793; 7413.645;  -14.418;11611.521
813.360; 7822.243;  -13.908;11885.181
813.926; 7858.219;  -12.918;12770.539
814.493; 7856.579;  -14.888;12677.638
815.060; 7932.233;  -12.758;11974.336
815.626; 8186.529;  -13.478;11594.715
816.193; 8123.306;  -13.898;11579.474
816.759; 7780.299;  -13.588;11666.972
817.325; 7621.939;  -12.018;11325.530
817.892; 7072.292;  -14.068;11105.369
818.458; 6503.175;  -13.458;10843.928
819.024; 6310.912;  -11.968;10714.406
819.591; 6032.724;  -11.028;10469.165
820.157; 5791.201;  -12.088;10235.523
820.723; 5668.172;  -12.599;10847.563
821.289; 5987.199;  -10.419;11040.980
821.855; 6697.862;  -10.939;10357.100
822.421; 7148.292;  -12.539; 9978.918
822.987; 6941.648;  -13.259; 9754.177
823.553; 6395.286;  -15.369;10065.755
824.119; 6157.604;  -10.779;10036.294
824.685; 5741.923;   -9.999;10029.192
825.251; 5405.206;  -11.819;10199.230
825.816; 5210.561;  -13.369; 9820.189
826.382; 5364.188;  -12.679; 9297.248
826.948; 5472.020;  -11.199; 9381.347
827.513; 5316.341;  -11.179; 9450.726
828.079; 5347.752;  -13.489; 9472.444
828.645; 5627.926;  -12.500; 9292.643
829.210; 5792.256;  -15.120; 9065.341
829.776; 5631.123;  -12.590; 9132.620
830.341; 5493.396;  -11.540; 9092.878
830.906; 5580.416;  -12.400; 9078.557
831.472; 5480.778;  -12.720; 8534.535
832.037; 4963.095;  -11.490; 8677.874
832.602; 4515.633;  -14.380; 8628.692
833.167; 4716.506;  -12.780; 8879.031
833.733; 5005.479;  -11.100; 9189.790
834.298; 5261.500;  -12.080; 9052.608
834.863; 5118.574;  -13.910; 8895.087
835.428; 4832.778;  -13.470; 8824.266
835.993; 5130.122;  -11.760; 8845.385
836.558; 5554.811;  -12.731; 8888.563
837.123; 5589.933;  -12.431; 8966.582
837.688; 5294.329;  -11.241; 8617.860
838.253; 4973.125;  -13.681; 8590.699
838.817; 4827.439;  -12.531; 8443.797
839.382; 5067.805;  -12.671; 8799.356
839.947; 4995.451;  -11.541; 8810.595
840.511; 4804.194;  -12.021; 8796.394
841.076; 4744.954;  -13.071; 8347.231
841.641; 4589.385;  -11.411; 8224.330
842.205; 4483.158;  -13.671; 8223.349
842.770; 4548.882;  -11.291; 8622.107
843.334; 4632.848;  -12.951; 8410.386
843.898; 4615.987;  -11.221; 8337.465
844.463; 4506.816;  -11.322; 8506.283
845.027; 4220.450;  -11.412; 8280.962
845.591; 4014.005;  -11.512; 8231.141
846.156; 4234.244;  -14.042; 7969.179
846.720; 4469.194;  -12.152; 7768.278
847.284; 4441.981;  -10.922; 7630.957
847.848; 4154.066;  -10.962; 7472.395
848.412; 3860.154;  -14.612; 7437.394
848.976; 3910.803;  -11.492; 7674.592
849.540; 3967.247;   -9.172; 7836.011
850.104; 4319.961;  -11.232; 7913.669
850.668; 4577.127;  -15.182; 7694.508
851.232; 4224.727;  -15.332; 7756.887
851.796; 4061.148;  -13.703; 7926.545
852.359; 4147.217;  -11.113; 7827.844
852.923; 3977.655;  -11.843; 7641.163
853.487; 3771.582;  -11.173; 7342.501
854.050; 3593.387;  -13.443; 7042.820
854.614; 3521.843;  -13.823; 7151.338
855.177; 3651.617;  -16.393; 7105.077
855.741; 3754.534;  -11.693; 6989.675
856.304; 3737.699;  -10.843; 6596.634
856.868; 3630.610;  -13.783; 6356.272
857.431; 3415.816;  -11.953; 6468.571
857.995; 3299.301;  -13.683; 6373.210
858.558; 3255.644;  -11.433; 6324.448
859.121; 3234.952;  -12.493; 6408.327
859.684; 3316.880;  -12.384; 6347.886
860.247; 3329.813;  -14.774; 6321.264
860.810; 3137.037;  -13.154; 6301.903
861.374; 2985.879;  -11.264; 6607.881
861.937; 2928.349;  -15.424; 6408.200
862.500; 2960.001;  -12.854; 6572.639
863.062; 3003.600;  -12.344; 6387.297
863.625; 3010.249;  -13.314; 6190.836
864.188; 2862.242;  -14.724; 5807.254
864.751; 2788.101;  -13.464; 5682.413
865.314; 2760.840;  -11.684; 5547.492
865.876; 2799.683;  -11.104; 5500.150
866.439; 2892.621;  -12.344; 5415.909
867.002; 2889.354;  -13.494; 5501.567
867.564; 2867.365;  -10.935; 5413.946
868.127; 2775.831;  -12.665; 5160.325
868.689; 2678.387;  -14.515; 5133.183
869.252; 2672.598;  -13.425; 5252.382
869.814; 2698.672;  -11.595; 5297.141
870.377; 2687.379;  -12.175; 5390.919
870.939; 2563.473;  -10.265; 5599.898
871.501; 2474.673;  -12.375; 5248.336
872.063; 2447.789;  -14.355; 4854.235
872.626; 2450.107;  -14.435; 4817.074
873.188; 2363.436;  -12.415; 4987.732
873.750; 2310.078;  -14.555; 4868.651
874.312; 2336.046;  -11.185; 4779.330
874.874; 2303.690;  -12.715; 4866.348
875.436; 2197.055;  -13.196; 4718.887
875.998; 2085.317;  -11.426; 4660.005
876.560; 2015.302;   -9.786; 4462.964
877.122; 1979.036;  -12.796; 4145.042
877.683; 1881.931;  -13.226; 4056.481
878.245; 1736.768;  -12.036; 3950.740
878.807; 1632.815;  -11.536; 4058.958
879.369; 1671.991;  -10.806; 3954.677
879.930; 1821.924;  -13.946; 3941.495
880.492; 1868.916;  -11.876; 4067.014
881.053; 1706.510;  -13.216; 3859.633
881.615; 1601.310;  -12.226; 3776.071
882.176; 1550.713;  -12.946; 3734.750
882.738; 1530.212;  -10.736; 3678.489
883.299; 1485.463;  -12.057; 3405.407
883.860; 1399.414;  -12.677; 3351.106
884.422; 1349.275;  -14.097; 3394.044
884.983; 1292.380;  -13.667; 3166.443
885.544; 1231.866;  -10.717; 3189.802
886.105; 1166.368;  -14.357; 3160.360
886.666; 1102.446;  -14.287; 3093.059
887.227; 1037.992;  -14.297; 2941.957
887.788;  986.339;  -13.137; 2974.836
888.349;  923.341;  -14.637; 2721.214
888.910;  876.066;  -12.247; 2696.493
889.471;  878.642;  -10.577; 2560.172
890.032;  884.594;  -12.937; 2558.190
890.593;  891.122;  -12.487; 2567.669
891.153;  867.527;  -11.898; 2460.307
891.714;  833.835;  -14.278; 2372.046
892.275;  808.007;  -13.308; 2309.505
892.835;  741.659;  -12.058; 2382.543
893.396;  660.424;  -15.268; 2295.502
893.956;  617.071;  -13.278; 2162.420
894.517;  598.934;  -11.968; 2125.439
895.077;  598.634;  -12.798; 2086.978
895.638;  573.817;  -11.908; 2126.316
896.198;  547.603;  -13.288; 1838.275
896.758;  523.798;  -12.198; 1892.813
897.319;  499.161;  -13.048; 1792.232
897.879;  463.116;  -13.718; 1762.751
898.439;  421.815;  -14.138; 1661.149
898.999;  398.175;  -13.659; 1781.468
899.559;  386.737;  -14.699; 1703.347
900.119;  367.572;  -14.339; 1537.525
900.679;  345.137;  -11.789; 1638.384
901.239;  317.122;  -13.629; 1527.902
901.799;  295.346;  -13.679; 1456.441
902.359;  285.126;  -13.679; 1357.140
902.919;  277.311;  -14.159; 1331.118
903.479;  263.611;  -13.419; 1317.257
904.038;  246.809;  -14.899; 1262.595
904.598;  232.480;  -14.339; 1152.034
905.158;  223.040;  -13.959; 1240.893
905.717;  217.847;  -12.749; 1233.691
906.277;  214.162;  -11.889; 1217.330
906.836;  208.754;  -12.870; 1222.408
907.396;  201.159;  -11.790; 1193.047
907.955;  194.247;  -13.750; 1182.526
908.515;  185.999;  -14.760; 1099.364
909.074;  180.439;  -12.540; 1092.863
909.633;  175.101;  -12.120; 1069.121
910.192;  170.344;  -12.550; 1196.460
910.752;  164.531;  -12.760; 1029.960
911.311;  161.624;  -14.750; 1009.780
911.870;  159.791;  -13.860;  971.460
912.429;  160.411;  -13.480; 1094.080
912.988;  159.239;  -12.370; 1081.060
913.547;  156.160;  -14.670;  940.380
914.106;  153.907;  -12.800;  999.420
914.665;  152.657;  -11.370;  984.020
915.224;  149.615;  -11.430; 1035.760
915.782;  146.587;  -12.260;  922.560
916.341;  145.553;  -12.540; 1049.840
916.900;  143.432;  -12.540;  925.260
917.458;  141.896;  -13.480;  884.220
918.017;  141.301;  -12.470;  942.600
918.576;  140.732;  -13.450;  904.440
919.134;  139.504;  -12.890;  837.980
919.693;  139.330;  -15.480;  893.060
920.251;  137.587;  -14.420;  876.500
920.809;  137.012;  -12.170;  839.580
921.368;  135.495;  -13.650;  885.360
921.926;  133.621;  -12.750;  842.940
922.484;  132.655;  -14.150;  903.360
923.042;  133.622;  -15.100;  880.340
923.601;  135.341;  -10.990;  998.680
924.159;  135.783;  -12.470;  935.560
924.717;  135.650;  -15.640;  841.080
925.275;  136.365;  -12.380;  903.240
925.833;  137.491;  -12.710;  779.320
926.391;  140.294;  -11.200;  938.380
926.949;  140.566;  -16.000;  857.680
927.506;  142.111;  -12.260;  903.500
928.064;  144.314;  -11.300;  877.580
928.622;  143.602;  -13.750;  880.100
929.180;  143.687;  -15.290;  814.180
929.737;  143.647;  -14.500;  808.540
930.295;  146.522;  -10.630;  928.480
930.853;  147.782;  -14.590;  849.100
931.410;  148.146;  -14.450;  821.120
931.968;  152.255;  -14.390;  940.660
932.525;  154.019;  -13.050;  909.380
933.082;  158.308;  -15.620;  811.440
933.640;  167.963;  -15.650;  925.900
934.197;  171.630;  -13.610;  886.360
934.754;  174.173;  -13.320;  897.780
935.312;  173.567;  -13.370;  863.340
935.869;  177.412;  -12.780; 1012.980
936.426;  178.540;  -14.480;  872.800
936.983;  181.948;  -13.180;  889.020
937.540;  182.432;  -15.710;  838.280
938.097;  180.578;  -14.980;  940.120
938.654;  179.650;  -13.060;  898.860
939.211;  179.811;  -12.760;  952.480
939.768;  181.830;  -16.230;  915.420
940.324;  186.678;  -10.940;  904.200
940.881;  190.336;  -12.570;  878.500
941.438;  194.008;  -13.650; 1021.200
941.995;  190.181;  -13.300;  992.560
942.551;  188.612;  -15.800;  875.620
943.108;  187.397;  -14.180;  937.920
943.664;  181.871;  -13.890;  869.340
944.221;  181.879;  -12.640; 1088.140
944.777;  182.121;  -14.700;  869.680
945.334;  186.954;  -13.010;  884.840
945.890;  188.716;  -13.480;  946.480
946.446;  185.691;  -14.920;  947.020
947.003;  187.423;  -13.860;  964.940
947.559;  188.674;  -12.000; 1063.040
948.115;  186.652;  -10.510; 1026.540
948.671;  184.187;  -12.760;  967.300
949.227;  182.851;  -15.390;  859.560
949.783;  178.240;  -15.570;  858.900
950.339;  171.042;  -12.800;  991.000
950.895;  159.498;  -13.780; 1023.840
951.451;  145.321;  -13.810;  925.280
952.007;  133.528;  -12.390;  998.540
952.563;  124.470;  -11.980;  937.780
953.118;  118.139;  -14.070;  904.940
953.674;  118.186;  -14.140;  935.780
954.230;  122.929;  -12.680;  949.640
954.785;  131.122;  -12.770;  936.640
955.341;  136.601;  -11.450;  998.160
955.897;  135.992;  -15.350;  834.660
956.452;  135.969;  -14.200;  953.840
957.008;  136.484;  -10.820; 1083.640
957.563;  132.819;  -13.200; 1009.540
958.118;  129.585;  -14.460;  877.700
958.674;  131.396;  -13.840;  946.780
959.229;  134.703;  -10.670; 1013.980
959.784;  135.976;  -17.040;  832.400
960.339;  138.241;  -12.970; 1001.280
960.894;  139.360;  -12.700;  963.760
961.449;  138.875;  -13.790;  859.960
962.004;  142.982;  -11.760; 1212.840
962.559;  141.499;  -14.840;  860.140
963.114;  141.911;  -14.530;  742.480
963.669;  142.973;  -12.780;  915.500
964.224;  142.242;  -14.330;  874.340
964.779;  136.986;  -14.380;  828.420
965.334;  134.868;  -12.460; 1017.860
965.888;  131.116;  -13.490;  875.360
966.443;  131.151;  -14.140;  972.380
966.998;  127.097;  -16.240;  819.460
967.552;  125.033;  -12.730;  908.380
968.107;  123.149;  -14.510;  868.300
968.661;  124.039;  -11.850;  922.440
969.216;  123.265;  -14.370;  856.280
969.770;  122.757;  -13.010;  917.200
970.324;  120.696;  -12.460;  923.140
970.879;  119.600;  -11.580;  947.180
971.433;  120.068;  -13.130;  952.720
971.987;  117.949;  -12.360;  895.340
972.541;  118.101;  -14.330;  917.100
973.095;  117.815;  -13.310; 1009.460
973.649;  116.753;  -15.830;  809.480
974.203;  119.091;  -15.830;  829.040
974.757;  121.635;  -13.480;  855.220
975.311;  119.486;  -13.720;  872.600
975.865;  117.791;  -15.780;  881.820
976.419;  114.607;  -14.290;  857.400
976.973;  112.565;  -13.210;  849.620
977.526;  110.807;  -12.300;  949.920
978.080;  108.314;  -14.840;  796.780
978.634;  107.987;  -13.100;  921.320
979.187;  103.521;  -12.300;  905.400
979.741;  101.769;  -12.020; 1018.380
980.294;   95.014;  -14.590;  789.160
980.848;   92.252;  -14.390;  717.220
981.401;   92.772;  -14.280;  816.540
981.955;   93.212;  -11.920;  844.300
982.508;   89.397;  -15.790;  746.340
983.061;   89.327;  -12.070;  915.260
983.615;   87.665;  -13.260;  798.800
984.168;   85.025;  -15.540;  770.080
984.721;   85.551;  -13.230;  880.760
985.274;   83.633;  -11.820;  867.500
985.827;   81.942;  -13.510;  834.220
986.380;   78.494;  -14.840;  721.340
986.933;   78.266;  -13.970;  864.800
987.486;   77.115;  -12.450;  861.920
988.039;   75.416;  -11.170;  863.100
988.591;   73.696;  -13.070;  893.260
989.144;   69.005;  -15.530;  737.260
989.697;   67.022;  -14.300;  758.740
990.250;   67.445;  -13.310;  858.100
990.802;   66.254;  -14.490;  755.860
991.355;   67.082;  -12.980;  974.880
991.907;   65.781;  -13.715;  864.320
992.460;   64.479;  -14.450;  753.760
993.012;   64.071;  -12.590;  749.540
993.565;   61.827;  -15.180;  711.360
994.117;   62.828;  -11.630;  950.780
994.669;   59.263;  -13.760;  701.320
995.221;   59.235;  -12.710;  791.920
995.774;   57.989;  -14.620;  787.580
996.326;   56.520;  -13.150;  740.220
996.878;   57.952;  -12.880;  838.420
997.430;   56.542;  -14.580;  699.860
997.982;   55.085;  -14.030;  750.140
998.534;   55.187;  -12.190;  739.060
999.086;   53.981;  -12.990;  738.220
999.638;   52.163;  -13.180;  661.380
1000.190;   51.800;  -14.970;  699.320
1000.741;   51.498;  -12.200;  742.700
1001.293;   51.512;  -13.400;  686.020
1001.845;   51.382;  -14.490;  676.640
1002.396;   50.519;  -15.280;  743.400
1002.948;   50.877;  -12.380;  737.400
1003.500;   49.356;  -13.260;  723.780
1004.051;   50.584;  -13.730;  907.580
1004.603;   49.747;  -12.300;  791.820
1005.154;   44.417;  -15.330;  608.980
1005.705;   44.806;  -12.800;  723.960
1006.257;   44.403;  -13.900;  707.220
1006.808;   42.792;  -14.430;  685.460
1007.359;   42.210;  -12.010;  763.240
1007.910;   41.527;  -12.690;  646.640
1008.461;   41.081;  -13.610;  732.940
1009.013;   39.493;  -14.990;  588.340
1009.564;   40.279;  -11.860;  793.520
1010.115;   38.443;  -12.640;  597.040
1010.665;   38.653;  -14.570;  602.160
1011.216;   38.583;  -15.190;  667.920
1011.767;   37.764;  -13.470;  697.920
1012.318;   38.423;  -13.760;  736.980
1012.869;   37.579;  -15.950;  679.000
1013.419;   36.849;  -15.880;  603.120
1013.970;   36.470;  -14.540;  666.640
1014.521;   36.517;  -13.220;  620.620
1015.071;   36.057;  -15.020;  670.380
1015.622;   35.270;  -17.510;  635.460
1016.172;   34.783;  -14.130;  596.820
1016.723;   34.896;  -14.220;  614.380
1017.273;   34.565;  -15.370;  604.160
1017.823;   34.556;  -15.290;  650.340
1018.374;   34.070;  -13.420;  611.760
1018.924;   34.669;  -11.740;  716.880
1019.474;   34.436;  -12.250;  718.880
1020.024;   32.802;  -15.850;  657.580
1020.574;   34.207;  -13.280;  726.160
1021.124;   33.901;  -13.560;  673.580
1021.674;   31.936;  -13.790;  559.120
1022.224;   33.412;  -14.610;  708.940
1022.774;   32.244;  -13.100;  668.820
1023.324;   34.030;  -11.470;  753.520
1023.874;   34.529;  -11.990;  875.760
1024.423;   31.228;  -14.550;  613.700
1024.973;   31.754;  -14.440;  610.760
1025.523;   30.827;  -13.250;  620.960
1026.072;   31.205;  -15.200;  606.420
1026.622;   30.688;  -14.590;  675.740
1027.172;   31.522;  -11.080;  715.660
1027.721;   29.862;  -14.010;  601.220
1028.270;   30.808;  -13.690;  663.400
1028.820;   29.421;  -15.380;  638.080
1029.369;   29.123;  -14.980;  612.700
1029.918;   30.261;  -13.100;  649.840
1030.468;   28.514;  -13.680;  564.780
1031.017;   29.648;  -13.770;  634.800
1031.566;   28.816;  -14.100;  608.900
1032.115;   29.942;  -11.770;  694.500
1032.664;   27.662;  -14.940;  596.480
1033.213;   29.239;  -13.370;  735.420
1033.762;   27.816;  -13.660;  635.620
1034.311;   28.407;  -13.650;  677.220
1034.860;   28.077;  -13.820;  691.000
1035.408;   27.514;  -12.860;  722.720
1035.957;   28.819;  -13.060;  719.540
1036.506;   26.204;  -14.510;  530.800
1037.055;   29.466;  -13.470;  844.320
1037.603;   26.790;  -14.800;  664.000
1038.152;   25.707;  -14.190;  534.760
1038.700;   26.566;  -11.810;  585.740
1039.249;   25.933;  -12.850;  681.220
1039.797;   26.867;  -14.610;  633.360
1040.345;   25.920;  -15.220;  705.420
1040.894;   26.103;  -13.480;  625.300
1041.442;   25.525;  -13.310;  632.200
1041.990;   24.427;  -14.510;  559.160
1042.538;   23.829;  -15.700;  536.180
1043.087;   24.347;  -13.910;  570.860
1043.635;   26.067;  -13.620;  670.500
1044.183;   24.942;  -14.230;  586.400
1044.731;   24.312;  -13.730;  576.000
1045.279;   24.677;  -13.970;  674.920
1045.827;   26.660;  -10.750;  892.400
1046.374;   22.687;  -15.230;  515.420
1046.922;   22.592;  -15.390;  590.580
1047.470;   24.280;  -12.320;  691.300
1048.018;   23.742;  -13.230;  647.960
1048.565;   24.977;  -13.390;  708.600
1049.113;   22.560;  -15.030;  557.000
1049.660;   23.021;  -12.540;  629.660
1050.208;   23.429;  -15.040;  675.640
1050.755;   22.492;  -14.680;  606.580
1051.303;   23.367;  -13.610;  686.820
1051.850;   22.654;  -14.340;  635.120
1052.397;   19.984;  -16.330;  473.960
1052.945;   21.556;  -15.710;  617.760
1053.492;   22.684;  -12.320;  741.840
1054.039;   22.787;  -13.730;  720.180
1054.586;   21.318;  -16.140;  557.240
1055.133;   21.910;  -14.020;  693.140
1055.680;   21.820;  -13.430;  646.620
1056.227;   20.803;  -14.570;  542.780
1056.774;   22.591;  -14.400;  794.980
1057.321;   20.340;  -14.230;  523.260
1057.868;   20.822;  -14.220;  651.320
1058.415;   20.411;  -14.060;  651.980
1058.961;   20.957;  -14.640;  678.940
1059.508;   20.822;  -13.970;  643.820
1060.055;   19.771;  -15.100;  581.780
1060.601;   20.889;  -12.180;  624.300
1061.148;   20.442;  -15.010;  616.820
1061.694;   19.339;  -14.750;  592.580
1062.241;   19.592;  -14.130;  596.320
1062.787;   20.204;  -14.770;  663.140
1063.334;   22.060;  -13.130;  808.560
1063.880;   19.591;  -14.420;  668.360
1064.426;   20.360;  -13.130;  706.820
1064.972;   18.705;  -13.960;  601.340
1065.518;   17.150;  -13.680;  566.640
1066.065;   18.979;  -15.720;  624.460
1066.611;   17.538;  -13.970;  598.800
1067.157;   18.424;  -13.920;  641.860
1067.703;   18.289;  -14.760;  668.480
1068.249;   18.235;  -14.490;  605.220
1068.794;   17.773;  -14.740;  626.880
1069.340;   17.634;  -13.220;  578.960
1069.886;   18.191;  -14.930;  590.700
1070.432;   16.454;  -14.700;  541.720
1070.977;   16.243;  -14.470;  601.080
1071.523;   16.844;  -14.330;  573.060
1072.068;   16.618;  -14.960;  582.000
1072.614;   16.800;  -16.220;  527.760
1073.160;   17.382;  -11.280;  687.040
1073.705;   15.410;  -15.990;  572.520
1074.250;   15.765;  -16.550;  559.900
1074.796;   16.860;  -14.600;  655.160
1075.341;   16.827;  -13.440;  664.100
1075.886;   16.449;  -14.450;  594.240
1076.431;   16.050;  -13.160;  649.880
1076.976;   16.191;  -14.710;  639.220
1077.521;   15.299;  -14.000;  583.080
1078.067;   15.025;  -14.470;  579.400
1078.612;   15.483;  -14.530;  661.620
1079.156;   15.052;  -15.660;  601.540
1079.701;   15.418;  -16.120;  693.260
1080.246;   16.315;  -12.960;  696.300
1080.791;   15.763;  -13.700;  625.020
1081.336;   15.581;  -15.540;  659.320
1081.880;   15.218;  -14.640;  649.680
1082.425;   14.199;  -14.220;  573.480
1082.970;   16.803;  -11.890;  717.040
1083.514;   14.159;  -13.820;  597.000
1084.059;   13.660;  -14.280;  586.720
1084.603;   12.931;  -12.890;  565.840
1085.147;   14.350;  -13.590;  645.220
1085.692;   15.100;  -14.050;  716.800
1086.236;   12.379;  -14.990;  503.140
1086.780;   15.532;  -12.640;  751.440
1087.325;   13.933;  -15.550;  654.620
1087.869;   13.254;  -14.980;  610.700
1088.413;   14.532;  -13.440;  705.040
1088.957;   12.170;  -12.170;  543.400
1089.501;   14.830;  -12.730;  766.640
1090.045;   13.867;  -14.650;  726.480
1090.589;   11.550;  -14.500;  569.920
1091.133;   12.873;  -12.320;  673.340
1091.676;   12.561;  -16.130;  591.940
1092.220;   12.210;  -13.930;  600.920
1092.764;   13.369;  -12.820;  706.960
1093.307;   12.803;  -11.700;  673.780
1093.851;   11.311;  -15.600;  556.540
1094.395;   12.710;  -13.920;  683.140
1094.938;   11.884;  -16.090;  632.520
1095.482;   12.037;  -13.820;  559.800
1096.025;   13.087;  -12.720;  710.880
1096.568;   12.982;  -12.100;  779.280
1097.112;   10.067;  -15.450;  508.180
1097.655;   12.560;  -14.310;  603.000
1098.198;   10.848;  -14.740;  600.180
1098.741;   10.478;  -15.550;  612.860
1099.285;   11.031;  -12.600;  657.300
1099.828;    8.871;  -15.050;  439.400
1100.371;   11.078;  -14.800;  608.160
1100.914;   11.157;  -16.480;  682.660
1101.457;   11.716;  -12.990;  679.900
1101.999;    9.549;  -14.110;  584.680
1102.542;   11.532;  -11.450;  641.440
1103.085;   10.199;  -13.350;  658.500
1103.628;   10.834;  -13.200;  762.060
1104.170;   10.022;  -12.310;  588.280
1104.713;   10.466;  -14.320;  646.700
1105.256;    9.538;  -16.110;  557.440
1105.798;    8.185;  -15.910;  499.980
1106.341;   11.857;  -12.200;  728.900
1106.883;    8.935;  -14.910;  521.340
1107.425;    9.658;  -14.960;  668.180
1107.968;    9.113;  -13.440;  612.380
1108.510;   10.318;  -14.010;  684.960
1109.052;    8.896;  -15.430;  612.620
1109.594;    7.963;  -15.290;  554.440
1110.136;    9.298;  -13.360;  643.220
1110.679;    8.599;  -13.820;  633.080
1111.221;    9.113;  -13.690;  604.460
1111.763;    7.811;  -14.890;  559.220
1112.304;    7.916;  -14.550;  547.140
1112.846;    8.750;  -12.760;  666.240
1113.388;   11.817;  -10.780;  942.180
1113.930;    9.049;  -12.690;  694.200
1114.472;    8.219;  -15.730;  606.540
1115.013;    6.749;  -14.620;  551.280
1115.555;    7.071;  -14.950;  587.100
1116.097;    5.998;  -16.460;  579.480
1116.638;    8.463;  -13.730;  684.600
1117.180;    7.876;  -13.810;  667.740
1117.721;    7.661;  -13.280;  568.580
1118.262;    7.963;  -15.080;  677.960
1118.804;    8.329;  -14.040;  637.340
1119.345;    7.553;  -15.430;  578.400
1119.886;    8.446;  -15.240;  704.040
1120.427;    6.753;  -15.820;  589.020
1120.969;    5.914;  -14.550;  597.920
1121.510;    6.060;  -14.030;  563.060
1122.051;    7.090;  -11.990;  723.580
1122.592;    6.407;  -16.490;  655.420
1123.133;    4.990;  -15.580;  547.940
1123.673;    6.807;  -12.850;  706.480
1124.214;    6.399;  -13.630;  612.460
1124.755;    7.027;  -14.830;  639.460
1125.296;    5.972;  -13.110;  627.320
1125.836;    7.021;  -11.320;  691.500
1126.377;    6.417;  -14.330;  599.660
1126.918;    6.486;  -12.800;  614.980
1127.458;    5.096;  -13.580;  622.220
1127.999;    6.285;  -10.330;  656.980
1128.539;    6.572;  -13.390;  694.240
1129.079;    5.617;  -16.420;  632.720
1129.620;    4.401;  -15.700;  558.100
1130.160;    4.408;  -14.790;  539.480
1130.700;    5.429;  -12.910;  640.840
1131.240;    6.212;  -15.610;  643.700
1131.781;    4.803;  -12.920;  619.680
1132.321;    5.420;  -15.300;  599.120
1132.861;    4.321;  -14.760;  564.200
1133.401;    3.814;  -15.470;  593.940
1133.941;    4.679;  -13.710;  626.280
1134.481;    4.629;  -11.820;  597.580
1135.020;    4.282;  -14.810;  609.160
1135.560;    5.169;  -13.660;  674.940
1136.100;    2.856;  -13.940;  501.160
1136.640;    3.505;  -15.410;  510.480
1137.179;    2.899;  -16.920;  537.960
1137.719;    3.380;  -16.430;  605.400
1138.258;    3.508;  -16.300;  587.360
1138.798;    4.354;  -13.710;  663.780
1139.337;    3.135;  -13.840;  482.840
1139.877;    4.490;  -16.140;  642.360
1140.416;    5.598;  -11.410;  878.060
1140.955;    3.061;  -12.820;  535.380
1141.494;    3.996;  -12.310;  669.280
1142.034;    3.404;  -16.280;  583.520
1142.573;    3.562;  -13.090;  646.280
1143.112;    2.809;  -13.770;  553.480
1143.651;    2.845;  -15.830;  536.480
1144.190;    4.331;  -15.010;  691.640
1144.729;    2.671;  -13.650;  607.420
1145.267;    3.259;  -13.670;  584.900
1145.806;    4.599;  -13.630;  637.040
1146.345;    2.820;  -14.160;  635.020
1146.884;    2.876;  -11.180;  622.500
1147.422;    2.270;  -15.890;  533.060
1147.961;    4.249;  -12.760;  708.460
1148.500;    2.795;  -15.220;  669.720
1149.038;    2.796;  -13.720;  632.500
1149.577;    3.338;  -13.250;  698.640
1150.115;    0.977;  -16.790;  452.280
1150.653;    2.463;  -15.810;  607.340
1151.192;    2.569;  -14.730;  552.920
1151.730;    2.202;  -13.660;  652.560
1152.268;    2.344;  -15.120;  589.520
1152.806;    1.840;  -15.580;  571.180
1153.344;    1.424;  -16.210;  577.640
1153.882;    2.072;  -12.810;  600.060
1154.421;    0.655;  -14.150;  470.620
1154.958;    1.507;  -15.360;  595.240
1155.496;    2.355;  -14.710;  645.280
1156.034;    1.947;  -13.640;  721.880
1156.572;    2.666;  -13.740;  667.060
1157.110;    0.236;  -16.960;  473.940
1157.647;    2.240;  -11.940;  676.960
1158.185;    0.385;  -14.090;  564.320
1158.723;   -0.391;  -13.610;  509.200
1159.260;    2.075;  -14.760;  701.700
1159.798;    2.343;  -13.700;  658.160
1160.335;    0.639;  -13.820;  631.820

