
Integration time [ms]:   3.882
Averaging Nr. [scans]: 1000
Smoothing Nr. [pixels]: 0
Data measured with spectrometer [name]: 7414430SP
Wave   ;Sample   ;Dark     ;Reference
[nm]   ;[counts] ;[counts] ;[counts] 

288.544;  122.647;   10.292;  793.890
289.143;  125.237;    4.564;  681.602
289.742;  126.719;    6.144;  828.814
290.341;  114.135;    4.396;  789.841
290.940;  105.217;    0.938;  730.702
291.538;  106.624;   -0.684;  881.108
292.137;  106.023;   -2.845;  792.581
292.736;  108.512;   -0.144;  975.101
293.335;  103.640;   -6.352;  735.086
293.934;  105.043;   -7.642;  781.677
294.532;  105.467;   -4.992; 1031.958
295.131;   92.611;   -5.478;  834.394
295.730;   93.152;   -6.549;  809.588
296.328;   91.507;   -9.558;  783.442
296.927;   90.727;   -8.118;  779.652
297.525;   91.758;   -6.908;  781.236
298.124;   83.109;   -9.195;  654.009
298.722;   87.954;   -8.198;  761.933
299.321;   85.545;   -8.817;  708.597
299.919;   83.483;   -7.716;  751.918
300.518;   79.794;  -10.745;  689.338
301.116;   81.837;   -9.647;  691.381
301.715;   82.198;  -10.828;  730.222
302.313;   80.681;   -6.087;  704.943
302.911;   76.669;   -6.824;  733.830
303.509;   82.800;   -8.807;  925.627
304.108;   79.189;   -8.198;  760.383
304.706;   80.198;   -6.218;  801.664
305.304;   74.521;   -7.185;  796.707
305.902;   79.983;   -8.568;  784.484
306.500;   75.966;   -7.737;  728.200
307.098;   73.651;   -6.026;  746.560
307.696;   72.489;   -7.176;  780.432
308.294;   73.582;   -8.656;  731.359
308.892;   76.029;   -6.838;  759.769
309.490;   71.109;   -2.596;  712.161
310.088;   69.017;   -4.485;  788.444
310.686;   75.072;   -3.907;  821.749
311.284;   70.444;   -2.806;  766.040
311.882;   68.242;   -2.845;  731.225
312.480;   64.737;   -3.274;  697.167
313.078;   67.539;   -3.645;  808.331
313.675;   68.949;   -4.997;  691.600
314.273;   63.812;   -0.894;  797.837
314.871;   63.337;   -2.854;  589.829
315.468;   61.572;   -3.644;  652.090
316.066;   64.359;   -3.947;  694.427
316.664;   57.668;   -1.824;  656.351
317.261;   61.512;    1.565;  910.128
317.859;   58.156;   -3.955;  768.735
318.456;   59.466;   -2.886;  830.096
319.054;   55.041;   -0.995;  787.828
319.651;   54.203;   -1.765;  759.928
320.249;   55.020;   -3.685;  810.188
320.846;   52.691;   -3.736;  714.286
321.443;   50.055;   -2.065;  832.135
322.041;   48.753;   -5.635;  812.315
322.638;   47.052;   -5.985;  701.456
323.235;   47.535;   -6.677;  665.683
323.833;   45.765;   -3.497;  740.354
324.430;   41.275;   -6.756;  615.900
325.027;   44.798;   -7.647;  876.855
325.624;   44.315;   -7.598;  644.532
326.221;   41.133;   -5.848;  689.717
326.818;   40.537;   -5.777;  818.332
327.415;   43.652;   -8.769;  748.828
328.012;   43.893;   -6.299;  690.585
328.609;   42.040;   -6.639;  731.389
329.206;   39.256;   -6.358;  778.621
329.803;   39.129;   -8.698;  737.841
330.400;   41.359;   -8.379;  704.260
330.997;   41.468;   -6.178;  817.147
331.594;   38.985;   -5.646;  788.185
332.191;   42.691;   -6.928;  728.722
332.787;   44.568;   -6.057;  844.463
333.384;   41.889;   -6.445;  763.093
333.981;   40.258;   -8.002;  815.687
334.578;   42.441;   -8.443;  708.378
335.174;   44.423;   -6.053;  731.469
335.771;   44.457;   -5.791;  836.456
336.367;   40.594;   -6.570;  710.631
336.964;   43.915;   -6.741;  793.266
337.561;   42.149;   -5.710;  731.112
338.157;   39.130;   -3.928;  911.916
338.754;   36.226;   -5.577;  796.589
339.350;   35.351;   -9.667;  722.493
339.946;   39.385;   -5.269;  773.135
340.543;   31.599;   -4.485;  846.136
341.139;   26.008;   -7.584;  720.836
341.735;   25.379;   -8.553;  772.593
342.332;   26.120;   -4.984;  691.472
342.928;   25.059;   -3.475;  795.394
343.524;   19.913;   -6.653;  761.684
344.120;   17.908;   -7.173;  738.562
344.716;   21.218;   -4.385;  723.717
345.313;   18.034;   -3.565;  795.342
345.909;   13.918;   -7.495;  627.336
346.505;   17.035;   -8.276;  740.247
347.101;   17.326;   -5.697;  827.864
347.697;   17.877;   -4.767;  785.398
348.293;   12.347;   -7.226;  627.244
348.889;   14.108;   -7.547;  745.914
349.485;   13.646;   -9.147;  688.205
350.081;   14.245;   -6.568;  772.592
350.676;    9.267;   -6.516;  691.606
351.272;   14.006;   -7.378;  809.530
351.868;   13.486;   -6.759;  780.497
352.464;   11.307;   -4.798;  723.932
353.059;    7.234;   -7.977;  646.017
353.655;   10.960;   -8.769;  777.063
354.251;   12.565;   -5.920;  759.845
354.846;    6.445;   -7.647;  740.646
355.442;    5.654;   -6.956;  753.071
356.038;    6.892;   -9.928;  751.708
356.633;    7.076;   -7.698;  728.594
357.229;    5.507;   -6.307;  724.757
357.824;    3.798;   -7.647;  703.600
358.420;    3.146;  -10.047;  679.726
359.015;    4.001;   -7.458;  695.357
359.610;    4.784;   -5.748;  763.920
360.206;   -1.557;   -9.346;  603.240
360.801;    2.215;  -11.268;  646.503
361.396;    4.167;   -8.789;  725.975
361.992;    0.769;   -6.347;  668.220
362.587;   -2.691;   -6.476;  670.160
363.182;   -0.401;   -9.457;  689.631
363.777;    1.041;   -7.147;  738.242
364.372;    0.979;   -5.507;  737.314
364.967;   -3.212;   -6.386;  680.744
365.563;    0.374;   -7.858;  815.567
366.158;   -1.164;   -8.517;  685.161
366.753;   -1.723;   -8.728;  649.263
367.348;   -3.062;   -7.677;  746.056
367.942;   -2.618;  -10.387;  697.298
368.537;   -3.478;   -7.187;  754.245
369.132;   -2.979;   -8.587;  703.428
369.727;   -7.347;   -8.606;  638.079
370.322;   -4.945;  -10.426;  580.186
370.917;   -5.625;   -5.776;  710.646
371.511;   -2.142;   -6.007;  861.834
372.106;   -6.355;   -6.686;  776.964
372.701;   -8.817;   -9.335;  585.988
373.296;   -2.815;   -6.777;  863.135
373.890;   -7.971;   -7.546;  647.840
374.485;  -10.176;   -8.755;  691.199
375.079;   -5.465;   -9.797;  738.685
375.674;   -4.380;   -6.327;  812.970
376.268;   -8.525;   -9.046;  691.759
376.863;  -14.094;   -7.993;  580.327
377.457;   -7.625;   -9.206;  662.490
378.052;   -9.457;   -5.345;  764.884
378.646;  -10.540;   -5.605;  741.167
379.240;  -10.544;   -6.825;  721.176
379.835;   -9.552;  -10.476;  636.978
380.429;  -12.061;   -8.676;  562.557
381.023;  -11.071;   -4.945;  779.205
381.617;  -13.768;   -8.094;  680.106
382.212;  -10.301;  -10.646;  685.303
382.806;   -9.107;   -8.136;  760.690
383.400;  -13.607;   -7.855;  672.281
383.994;  -13.994;   -8.125;  664.870
384.588;   -9.405;   -7.637;  697.701
385.182;   -8.845;   -7.458;  726.624
385.776;  -10.218;   -6.277;  706.875
386.370;  -14.037;   -7.485;  681.968
386.964;  -10.633;   -9.416;  684.155
387.558;  -10.644;   -8.518;  598.360
388.152;  -13.348;   -7.096;  681.959
388.745;  -11.022;   -7.656;  814.707
389.339;   -9.536;   -8.927;  747.642
389.933;   -8.097;   -9.538;  695.370
390.527;   -9.724;   -5.857;  859.029
391.120;  -15.742;   -9.455;  595.318
391.714;  -12.706;   -9.746;  711.633
392.308;   -8.801;   -7.857;  780.253
392.901;  -13.069;   -9.106;  642.460
393.495;  -14.780;  -10.365;  595.414
394.089;  -12.042;   -9.696;  760.452
394.682;  -12.784;   -7.016;  697.188
395.275;  -13.480;   -8.466;  719.927
395.869;  -14.931;   -8.985;  667.314
396.462;  -12.854;  -11.496;  616.609
397.056;   -8.765;   -7.838;  776.621
397.649;  -13.079;   -6.895;  731.575
398.242;  -10.759;   -5.017;  712.645
398.836;  -10.158;   -8.787;  766.408
399.429;  -10.355;   -8.967;  631.041
400.022;  -14.759;   -8.815;  665.902
400.615;  -11.404;   -6.276;  805.609
401.208;   -9.843;   -8.407;  691.451
401.802;  -12.542;   -7.296;  699.329
402.395;  -13.140;   -7.585;  683.502
402.988;  -14.005;   -8.015;  696.627
403.581;  -10.665;   -9.577;  646.878
404.174;   -8.342;   -7.588;  686.568
404.767;  -11.588;   -7.906;  638.583
405.360;  -13.806;   -7.875;  621.445
405.953;   -7.753;   -8.127;  759.034
406.545;   -7.442;   -7.198;  725.342
407.138;  -12.586;   -8.916;  618.350
407.731;  -10.896;   -9.767;  613.303
408.324;   -6.259;  -10.659;  660.554
408.917;   -7.415;   -8.068;  681.864
409.509;   -9.803;   -9.837;  740.396
410.102;  -11.132;   -8.146;  643.948
410.695;   -4.785;   -7.969;  665.758
411.287;   -5.544;   -8.579;  599.821
411.880;   -7.317;   -6.968;  585.421
412.472;   -9.900;   -9.487;  613.092
413.065;   -6.663;  -10.338;  629.408
413.657;   -4.936;   -9.169;  576.678
414.250;   -4.324;  -10.119;  646.681
414.842;   -6.726;   -9.938;  676.353
415.434;   -4.726;  -10.409;  570.463
416.027;   -0.261;   -9.591;  652.196
416.619;   -2.064;   -7.379;  713.400
417.211;   -2.868;   -9.159;  599.352
417.804;    1.351;   -9.191;  628.499
418.396;   -2.983;   -8.159;  607.643
418.988;   -0.558;   -6.960;  659.238
419.580;   -3.591;  -11.389;  568.276
420.172;   -0.372;  -13.460;  536.196
420.764;    3.297;  -10.701;  672.482
421.356;    1.148;   -8.961;  636.898
421.948;    0.909;   -9.770;  677.661
422.540;    5.835;   -8.832;  680.027
423.132;    5.151;   -8.153;  600.641
423.724;    1.359;   -8.481;  561.267
424.316;    3.544;   -9.261;  621.345
424.908;    7.882;   -9.643;  591.517
425.500;    8.822;   -8.663;  647.978
426.092;    8.926;   -8.503;  648.268
426.683;    8.554;  -10.522;  684.836
427.275;   11.225;  -11.734;  641.471
427.867;   12.627;  -10.264;  668.948
428.458;   12.558;   -7.644;  732.344
429.050;   11.416;   -7.853;  680.749
429.642;   14.738;   -8.904;  743.124
430.233;   14.053;  -10.795;  569.356
430.825;   15.157;   -7.665;  724.809
431.416;   13.202;   -8.843;  698.241
432.008;   17.240;   -9.885;  651.723
432.599;   17.825;   -9.966;  656.073
433.190;   14.237;   -9.164;  637.670
433.782;   13.678;   -8.584;  590.395
434.373;   21.781;   -8.296;  884.765
434.964;   20.075;   -9.896;  602.920
435.556;   17.258;   -8.255;  634.537
436.147;   20.076;   -8.075;  758.490
436.738;   20.685;   -9.716;  701.099
437.329;   26.687;   -7.318;  721.723
437.920;   19.250;   -6.694;  666.688
438.511;   18.571;   -9.644;  564.526
439.103;   25.214;   -9.427;  623.998
439.694;   27.696;  -10.748;  681.583
440.285;   28.511;   -7.997;  764.432
440.876;   27.241;  -10.046;  845.738
441.466;   25.979;  -13.467;  575.162
442.057;   31.630;   -9.329;  665.814
442.648;   30.136;   -7.707;  746.255
443.239;   27.836;   -9.017;  620.477
443.830;   33.581;  -10.279;  704.958
444.421;   35.527;  -12.630;  655.474
445.011;   32.188;   -8.697;  693.619
445.602;   31.713;   -7.787;  743.126
446.193;   33.707;  -13.329;  488.117
446.783;   37.865;   -9.171;  640.397
447.374;   33.509;   -7.457;  692.759
447.964;   34.143;   -9.277;  713.770
448.555;   43.125;   -9.041;  822.742
449.145;   39.439;   -8.969;  662.853
449.736;   39.702;   -6.809;  803.179
450.326;   40.334;   -7.229;  713.626
450.917;   45.358;  -11.391;  675.324
451.507;   44.724;   -9.501;  600.661
452.097;   45.043;   -8.460;  746.267
452.688;   46.457;  -10.080;  742.160
453.278;   45.853;  -12.861;  566.840
453.868;   51.170;   -8.372;  793.550
454.458;   48.038;   -8.131;  651.141
455.048;   48.556;   -8.520;  711.783
455.639;   50.519;  -13.632;  567.096
456.229;   54.445;  -10.143;  710.694
456.819;   55.776;   -9.163;  751.158
457.409;   56.315;   -8.652;  773.993
457.999;   59.311;   -9.933;  737.505
458.589;   59.442;  -10.363;  686.606
459.179;   58.944;  -10.633;  717.658
459.769;   57.299;  -12.442;  627.099
460.358;   62.738;   -9.844;  797.262
460.948;   61.657;   -9.924;  689.503
461.538;   63.320;  -10.484;  660.677
462.128;   61.690;  -10.703;  664.934
462.717;   68.719;  -11.486;  710.326
463.307;   71.235;  -10.767;  705.846
463.897;   67.854;   -8.814;  656.942
464.486;   67.386;   -8.182;  837.128
465.076;   70.984;   -9.985;  733.776
465.666;   75.312;  -10.447;  652.900
466.255;   72.270;   -7.754;  785.651
466.845;   72.392;  -10.884;  666.749
467.434;   75.327;  -12.525;  725.873
468.023;   76.484;  -11.456;  658.357
468.613;   73.815;   -9.173;  713.946
469.202;   77.813;   -9.306;  646.507
469.791;   83.067;   -8.917;  737.811
470.381;   84.378;   -9.657;  742.813
470.970;   84.137;   -9.947;  711.099
471.559;   83.583;   -9.256;  733.291
472.148;   87.810;  -13.397;  675.737
472.738;   90.697;   -9.928;  765.466
473.327;   89.815;  -10.897;  637.529
473.916;   89.110;   -8.526;  737.446
474.505;   93.102;  -11.078;  751.703
475.094;   97.170;   -9.559;  806.570
475.683;   96.287;   -8.838;  797.699
476.272;   97.039;  -10.198;  730.632
476.861;  100.762;  -11.489;  706.754
477.449;  107.044;  -10.721;  728.487
478.038;  101.449;   -9.818;  692.513
478.627;  102.518;   -9.887;  714.852
479.216;  109.580;  -10.030;  769.441
479.805;  112.938;   -9.401;  783.375
480.393;  112.466;   -5.739; 1008.945
480.982;  111.463;   -7.838;  874.501
481.571;  118.434;   -9.111;  858.333
482.159;  119.341;  -10.601;  705.386
482.748;  119.469;   -8.500;  821.385
483.336;  124.292;   -9.241;  858.209
483.925;  125.247;  -10.440;  774.373
484.513;  131.767;  -11.063;  758.962
485.102;  128.496;   -9.540;  810.965
485.690;  137.857;   -6.742; 1011.050
486.278;  140.747;   -8.442;  979.329
486.867;  140.299;  -10.472;  809.662
487.455;  142.941;   -8.811;  898.229
488.043;  144.186;  -10.721;  748.361
488.631;  154.417;  -10.393; 1005.079
489.220;  159.762;  -10.843;  908.626
489.808;  159.412;  -10.572;  741.415
490.396;  169.083;  -10.482;  914.645
490.984;  177.764;  -11.542;  830.161
491.572;  188.428;   -8.463;  940.315
492.160;  197.296;   -8.491;  919.081
492.748;  211.422;   -9.681;  884.341
493.336;  238.973;  -10.493; 1019.693
493.924;  273.613;   -9.354;  958.077
494.512;  316.326;   -9.132; 1066.638
495.100;  362.649;   -9.001; 1103.280
495.687;  426.802;  -11.924; 1206.373
496.275;  517.424;  -11.193; 1150.796
496.863;  614.390;   -9.241; 1281.171
497.451;  738.109;  -11.341; 1386.805
498.038;  877.103;  -11.364; 1556.729
498.626; 1011.330;   -8.104; 1741.407
499.214; 1248.278;   -8.842; 2016.609
499.801; 1561.821;  -10.112; 2220.633
500.389; 1815.732;  -11.953; 2312.494
500.976; 2040.829;  -10.023; 2744.849
501.564; 2362.876;   -8.662; 3148.565
502.151; 2843.196;  -10.531; 3515.999
502.738; 3383.538;  -13.853; 3971.274
503.326; 3977.367;  -10.794; 4403.796
503.913; 4653.971;   -8.663; 5161.749
504.500; 5277.715;  -10.172; 5986.420
505.088; 6314.689;  -13.472; 6381.201
505.675; 7088.166;  -10.924; 6925.547
506.262; 7371.347;   -8.551; 7619.060
506.849; 8236.587;  -10.523; 8733.969
507.436; 9412.923;  -10.834; 9790.121
508.023; 9710.848;   -9.093; 9985.472
508.610;10067.639;  -10.073;10434.618
509.197;11459.597;   -9.500;11198.435
509.784;13671.019;  -13.242;12391.194
510.371;14628.555;  -10.964;13603.713
510.958;15555.571;   -9.772;14426.586
511.545;16230.904;   -7.842;15243.775
512.132;16361.390;  -12.184;15945.876
512.719;18169.178;   -9.733;16340.369
513.305;20980.418;   -9.172;18011.766
513.892;22156.461;   -9.581;19754.971
514.479;23074.994;  -10.253;20967.805
515.066;23578.154;   -8.183;22299.793
515.652;24720.861;   -9.253;22908.660
516.239;26440.230;   -9.412;23798.875
516.825;27791.650;  -11.153;25567.275
517.412;26865.893;  -10.263;28154.959
517.998;26163.400;   -8.802;28344.111
518.585;26593.070;  -10.401;27134.219
519.171;27324.328;  -12.744;27268.576
519.758;29191.691;  -11.793;28964.129
520.344;32636.744;   -8.912;30664.494
520.930;35364.000;  -10.901;32550.605
521.516;34573.500;  -12.034;35422.895
522.103;35463.344;  -10.473;38280.004
522.689;37304.977;   -8.311;37835.117
523.275;38950.508;  -10.691;37288.613
523.861;39728.348;  -11.193;37281.395
524.447;37270.805;  -11.484;37846.949
525.033;37592.445;   -7.702;38321.949
525.619;38198.543;  -11.241;38579.285
526.205;38667.133;  -12.152;40622.875
526.791;39709.840;  -11.423;42258.836
527.377;40241.359;   -7.981;42966.902
527.963;39952.727;   -9.450;42018.949
528.549;40578.313;  -11.351;42476.828
529.135;41760.016;  -10.202;41854.852
529.721;41339.230;   -8.672;41237.711
530.306;39236.590;   -9.111;41259.445
530.892;41478.500;  -11.252;41506.047
531.478;44402.473;  -10.432;43559.613
532.063;46278.340;  -10.721;47695.563
532.649;47918.039;   -7.450;50808.324
533.235;48872.867;  -11.811;51787.500
533.820;48031.133;   -9.383;52145.035
534.406;45242.141;   -9.400;51133.488
534.991;45318.125;   -8.861;49996.805
535.576;46713.492;  -10.612;48882.852
536.162;44009.195;   -7.322;46942.285
536.747;43929.180;   -9.360;45711.746
537.333;46771.828;  -10.450;48510.180
537.918;49906.000;  -12.610;50439.891
538.503;49940.242;  -12.132;50863.711
539.088;46857.297;  -10.831;50906.922
539.673;46950.570;  -11.220;52621.965
540.259;49122.582;  -11.481;52368.094
540.844;48928.152;  -11.462;50879.109
541.429;50629.840;   -7.869;52077.777
542.014;48667.508;  -11.859;52716.695
542.599;45851.469;  -11.061;52363.281
543.184;46123.520;  -12.300;53187.137
543.769;47958.902;   -9.369;54697.605
544.354;48589.449;  -12.020;53913.914
544.938;44460.715;  -10.350;49680.164
545.523;41576.387;  -10.841;47386.277
546.108;45018.082;   -8.579;49151.949
546.693;48109.645;   -8.818;51384.637
547.278;48755.348;  -11.331;51853.254
547.862;47592.555;  -10.292;51173.750
548.447;47426.855;   -8.349;51691.395
549.031;47031.313;  -10.838;52456.703
549.616;48441.887;  -11.681;52714.516
550.201;49981.012;  -11.140;52414.598
550.785;47753.172;   -8.649;52355.059
551.370;49229.598;  -11.889;54589.453
551.954;49510.277;  -11.239;58267.348
552.538;50570.727;   -8.850;59062.176
553.123;52293.172;  -10.829;58115.285
553.707;52718.438;   -8.887;56556.285
554.291;49994.945;  -10.430;56201.668
554.876;49755.258;   -9.799;55335.762
555.460;46864.336;  -10.018;54155.703
556.044;47058.340;   -7.307;53721.484
556.628;50204.695;  -12.229;53731.016
557.212;50677.020;   -9.820;54312.531
557.796;48677.887;   -9.109;53797.773
558.380;46820.844;   -9.707;56145.984
558.964;49683.902;  -10.980;57277.930
559.548;52623.188;  -12.010;56459.641
560.132;53470.000;   -7.928;54434.543
560.716;56737.332;  -10.247;54800.617
561.300;56602.211;  -11.250;57606.945
561.884;54357.055;  -10.568;58972.445
562.467;51550.086;   -9.727;57327.570
563.051;47775.297;  -11.847;54962.434
563.635;47270.340;  -10.747;52594.473
564.219;45684.031;  -13.108;50610.410
564.802;44334.605;  -11.417;49551.180
565.386;43268.582;  -10.457;48370.953
565.969;46836.945;   -8.959;48178.871
566.553;47746.742;  -10.328;49957.305
567.136;47321.293;  -10.257;50369.594
567.720;45957.117;  -10.186;49492.004
568.303;45501.887;  -10.027;50616.352
568.887;46584.836;  -10.397;50727.148
569.470;48027.492;   -8.185;51698.379
570.053;45962.191;  -11.596;52122.078
570.637;43900.508;  -11.378;52536.438
571.220;43682.887;   -9.138;51186.098
571.803;42957.375;   -7.675;51032.762
572.386;42359.824;   -8.976;49609.887
572.969;43356.813;  -12.477;48285.926
573.552;42838.465;   -9.767;47624.285
574.135;40508.750;   -8.175;45498.641
574.718;36013.633;  -11.096;41970.434
575.301;35607.234;  -11.966;41447.137
575.884;35200.836;  -12.836;40923.836
576.467;41019.949;   -9.116;45267.723
577.050;42972.699;  -10.536;48175.543
577.633;41587.613;  -11.027;47729.328
578.216;40767.563;   -9.946;47579.793
578.799;41375.133;   -9.645;47820.996
579.381;40322.855;   -9.446;48115.551
579.964;39903.922;  -12.217;47333.766
580.547;40402.297;  -10.586;46668.969
581.129;40425.340;   -8.374;44466.141
581.712;39849.574;  -10.434;44164.922
582.294;39248.477;  -10.896;46477.855
582.877;40321.902;   -8.906;48244.254
583.459;40339.203;   -9.994;47437.895
584.042;39062.184;  -10.084;46943.219
584.624;37445.594;  -13.534;46792.227
585.206;37747.172;  -12.716;46557.250
585.789;38389.109;  -11.614;45793.773
586.371;38183.121;  -10.203;43836.391
586.953;36558.660;  -10.314;42972.492
587.536;34887.820;   -9.776;42487.211
588.118;35143.336;   -9.821;42086.414
588.700;36256.176;  -10.073;43389.930
589.282;38097.660;  -12.395;43646.039
589.864;38632.855;  -11.514;43438.109
590.446;39097.363;  -10.803;43151.926
591.028;40207.191;  -11.043;42781.867
591.610;39126.766;  -13.244;42839.098
592.192;36323.438;  -11.095;42820.402
592.774;34030.125;  -10.823;40724.277
593.356;33848.695;  -11.052;39874.789
593.937;35046.934;  -11.664;39980.648
594.519;36455.547;  -10.454;42069.633
595.101;36633.648;  -10.322;42976.031
595.683;35658.621;  -10.042;44084.441
596.264;35025.207;  -14.334;43478.797
596.846;35830.527;  -10.863;43803.672
597.427;36361.043;   -9.901;42986.934
598.009;35886.664;  -10.911;42832.219
598.591;34779.184;  -10.483;42580.086
599.172;33866.309;   -9.663;43061.805
599.753;33859.676;  -10.631;41691.469
600.335;34205.684;   -9.371;40692.520
600.916;36447.465;  -13.992;39982.422
601.498;37694.594;   -8.352;40318.617
602.079;36058.168;   -8.411;40670.609
602.660;38659.059;  -10.841;41450.898
603.241;38400.477;  -12.963;41137.738
603.823;34944.945;  -11.523;38868.797
604.404;32725.713;  -11.881;38182.785
604.985;34322.914;  -11.721;38078.047
605.566;34973.781;   -9.293;38056.633
606.147;33607.953;  -10.940;37020.418
606.728;32694.451;  -11.840;37883.359
607.309;31751.404;  -11.781;38748.273
607.890;31402.900;  -11.262;38850.230
608.471;30287.842;  -10.111;37457.918
609.051;30589.457;   -7.709;36066.457
609.632;31039.506;  -12.409;35991.074
610.213;29494.178;  -10.811;37402.641
610.794;29349.236;  -11.630;38383.363
611.374;30710.725;   -8.030;40562.387
611.955;32004.410;  -10.809;38533.727
612.536;33533.148;  -10.531;36951.789
613.116;33966.047;  -12.820;37197.891
613.697;33744.453;  -11.419;38411.125
614.277;32581.887;   -9.768;38673.938
614.858;30939.055;  -10.251;37075.863
615.438;27634.867;  -11.981;35092.906
616.019;27368.451;   -8.978;33666.301
616.599;30136.402;  -12.219;34189.023
617.179;32729.029;  -14.170;36952.047
617.760;34638.066;   -9.211;39582.574
618.340;34792.246;   -9.018;38943.977
618.920;32987.449;   -9.249;37594.156
619.500;33802.809;  -12.728;37866.938
620.080;35704.246;  -12.939;37869.043
620.660;34129.348;  -11.586;36868.617
621.241;33371.719;  -11.538;36352.309
621.821;33704.402;  -11.398;35459.520
622.401;34876.656;  -10.179;35207.414
622.980;33889.457;  -11.587;35980.422
623.560;32727.674;  -12.888;37351.328
624.140;30624.271;  -13.149;34388.582
624.720;25992.570;   -9.928;32368.764
625.300;25955.021;  -10.869;32638.629
625.880;30039.492;   -8.617;34599.035
626.459;34170.129;  -12.138;36831.738
627.039;34895.863;  -12.267;38299.098
627.619;34809.234;   -7.476;38289.574
628.198;35569.527;  -11.347;37220.695
628.778;34315.742;  -11.678;37632.563
629.357;31835.709;  -12.438;38003.012
629.937;30180.082;   -9.576;38402.039
630.516;29134.953;  -11.096;37868.801
631.096;29293.580;  -11.828;35760.410
631.675;30170.607;  -11.565;35225.219
632.254;30751.736;  -11.845;35130.289
632.834;31625.584;  -11.545;35794.570
633.413;32992.910;  -10.887;35788.922
633.992;34382.063;  -10.175;34532.863
634.571;33324.367;   -9.704;33590.113
635.151;31267.916;  -10.815;34943.863
635.730;31478.324;  -11.617;35352.523
636.309;31682.104;  -10.836;35366.605
636.888;32519.318;   -9.755;36165.637
637.467;33103.418;  -11.684;37515.902
638.046;35353.184;  -11.987;39288.695
638.625;35835.539;  -10.455;38279.699
639.204;34112.242;  -11.234;37741.598
639.782;30740.018;  -12.023;38364.551
640.361;29951.014;  -11.506;36740.621
640.940;29902.348;  -12.316;34950.082
641.519;30988.605;  -11.616;34137.398
642.097;33951.063;   -9.266;35654.258
642.676;34270.887;  -12.936;35637.957
643.255;33757.383;   -9.966;36567.074
643.833;33815.129;   -8.916;37809.434
644.412;35324.422;  -10.936;37337.293
644.990;36981.211;  -12.176;37018.531
645.569;36457.000;  -12.246;36518.469
646.147;35504.125;  -12.107;36186.430
646.726;35376.598;  -12.937;36267.688
647.304;38573.406;  -12.547;36647.625
647.882;38604.227;  -12.597;39286.742
648.461;36212.453;   -9.427;39157.703
649.039;33779.719;   -8.937;35412.883
649.617;32764.123;  -11.067;34744.918
650.195;32571.500;  -10.657;35403.098
650.773;31410.447;  -10.097;35053.797
651.352;29163.135;  -11.887;33756.816
651.930;25362.744;  -13.557;31868.773
652.508;22959.816;  -11.767;33121.551
653.086;23649.355;  -10.777;33564.793
653.663;28065.918;  -12.067;34054.668
654.241;31137.410;  -14.918;35693.309
654.819;31337.293;  -11.788;36422.906
655.397;30695.316;  -11.268;38213.484
655.975;31782.822;  -11.738;39507.625
656.553;31610.469;  -11.018;39498.223
657.130;30461.188;  -12.848;40395.480
657.708;29740.100;  -10.098;39242.020
658.286;29927.729;  -11.678;38920.020
658.863;30900.865;  -11.498;40202.898
659.441;31960.373;  -11.008;39677.938
660.018;32812.531;  -11.048;40413.355
660.596;32466.635;  -12.058;39931.414
661.173;32470.234;  -14.158;39604.531
661.750;32282.762;  -12.298;39700.070
662.328;31843.434;  -10.699;39292.809
662.905;30276.914;  -12.119;38235.648
663.482;26494.996;  -11.829;36212.305
664.060;25242.986;  -11.009;35944.945
664.637;27923.748;  -10.369;35170.785
665.214;28797.020;  -10.459;34197.523
665.791;27441.064;  -12.599;34549.520
666.368;26938.492;  -12.919;35118.578
666.945;28663.404;  -10.699;36019.418
667.522;29231.688;  -11.359;36048.438
668.099;29416.434;  -13.529;36243.914
668.676;30089.920;  -10.229;35958.875
669.253;29989.135;   -9.279;37384.730
669.830;30165.107;  -11.370;36779.629
670.407;31680.559;  -10.950;35231.289
670.984;32321.158;  -12.850;35544.270
671.560;32073.123;   -8.440;35466.867
672.137;30387.479;  -13.520;34280.863
672.714;28778.061;  -13.620;34632.863
673.290;28433.488;  -10.450;35135.422
673.867;27300.406;  -10.960;36114.480
674.443;26319.402;  -13.300;36152.859
675.020;26939.627;  -12.370;35327.238
675.596;26947.611;  -11.250;35795.176
676.173;27513.059;  -11.080;35430.355
676.749;28216.594;  -13.220;33549.516
677.326;31158.627;  -13.000;32210.012
677.902;31751.717;  -12.701;32068.871
678.478;30905.736;  -12.801;32583.891
679.054;30234.201;   -8.601;32088.928
679.631;31766.068;  -12.631;30978.848
680.207;31781.236;   -9.451;33160.887
680.783;30287.303;  -11.701;35570.363
681.359;30113.424;  -12.701;36125.184
681.935;28808.744;  -13.271;35240.922
682.511;27795.420;  -10.791;34429.961
683.087;28949.996;  -10.791;34463.680
683.663;29516.090;   -8.121;34648.898
684.239;30964.146;  -13.261;34546.457
684.815;29163.451;  -10.581;35586.375
685.390;26513.750;   -9.961;35821.895
685.966;25635.996;  -11.182;35085.871
686.542;25442.670;  -13.512;34198.230
687.118;26239.922;  -11.472;32847.707
687.693;26290.439;  -10.152;32794.027
688.269;28014.012;  -14.442;33072.367
688.844;29255.857;  -11.852;33141.664
689.420;27302.939;  -13.942;33965.742
689.995;25866.350;   -9.702;34655.523
690.571;25880.527;  -11.312;33576.742
691.146;25745.670;  -14.332;32657.219
691.722;27769.623;  -11.192;32526.979
692.297;29136.266;  -10.962;33014.617
692.872;27814.127;  -11.082;34012.254
693.448;27286.521;  -14.732;34237.434
694.023;27268.188;  -12.363;34142.672
694.598;27483.416;  -12.393;34132.031
695.173;26961.305;  -11.023;34205.250
695.748;27102.631;  -12.743;32882.488
696.323;28690.021;  -11.103;32864.906
696.898;29739.336;   -8.123;33170.004
697.473;29346.168;  -12.603;32432.984
698.048;28112.449;  -12.553;31649.303
698.623;28973.572;  -12.573;30778.141
699.198;30814.359;  -12.743;31140.119
699.773;28568.463;  -12.843;31764.299
700.348;27995.635;  -16.683;31780.816
700.922;28886.951;  -11.403;32046.375
701.497;29566.951;  -11.253;32603.574
702.072;29293.504;  -10.044;34799.871
702.646;27665.229;  -13.054;35793.172
703.221;26406.145;  -11.414;35201.590
703.795;27220.113;  -10.644;34764.527
704.370;28362.496;  -13.484;34307.367
704.944;28012.471;  -12.144;33509.887
705.519;27330.152;  -12.024;31388.584
706.093;26425.244;  -11.234;31340.104
706.668;25056.000;   -9.874;32630.281
707.242;24864.918;  -12.404;32728.779
707.816;24375.279;  -10.644;32947.238
708.390;24498.000;  -11.174;33277.855
708.965;25619.721;  -10.324;33834.336
709.539;25203.877;  -12.014;33709.273
710.113;25160.682;  -12.295;33044.313
710.687;25877.682;  -10.965;31953.992
711.261;26297.035;  -13.685;30505.949
711.835;25599.373;  -15.335;30262.369
712.409;25346.752;  -13.785;31254.447
712.983;26616.553;  -10.525;32754.986
713.557;27830.064;  -13.175;34018.824
714.131;28531.578;  -13.245;34579.625
714.704;29537.455;  -13.175;33890.262
715.278;30176.109;  -11.545;33531.102
715.852;28713.316;  -10.975;33601.660
716.425;28186.195;  -10.075;33515.117
716.999;28024.809;  -12.185;33185.555
717.573;28829.801;   -9.685;33905.996
718.146;29815.967;  -10.516;35199.293
718.720;26365.313;  -12.106;35060.551
719.293;26196.326;  -12.386;34973.230
719.867;28111.139;  -12.456;36394.449
720.440;27487.363;  -10.686;36663.008
721.013;27732.301;  -12.596;35102.426
721.587;28192.748;  -13.956;33985.266
722.160;27742.814;   -9.806;33524.965
722.733;28390.143;  -11.676;32987.043
723.306;28342.738;  -14.276;33066.301
723.880;28184.734;  -12.126;33399.500
724.453;28659.047;  -10.156;33468.297
725.026;27508.068;  -12.956;33816.637
725.599;25986.891;  -11.676;32797.996
726.172;25520.537;  -12.337;33187.434
726.745;26787.762;  -11.277;35136.613
727.318;25842.918;  -11.927;35751.730
727.891;24809.150;  -13.607;35890.430
728.463;25023.244;  -11.327;34822.090
729.036;25030.920;  -11.917;32895.086
729.609;26159.990;  -12.697;31823.225
730.182;27160.297;  -11.787;31445.283
730.754;27831.373;  -12.957;32373.223
731.327;28176.313;  -11.017;33676.820
731.900;26704.801;  -12.797;33417.000
732.472;24797.346;  -10.677;31978.498
733.045;24355.656;  -12.797;30368.777
733.617;24774.180;  -13.908;30574.215
734.190;24661.750;  -12.258;31280.975
734.762;25550.873;  -13.438;31674.412
735.334;25378.377;  -11.758;31247.291
735.907;25402.512;  -11.158;29876.211
736.479;26403.496;  -11.258;29808.488
737.051;28055.660;  -10.918;30233.547
737.623;29173.092;  -11.038;31469.086
738.195;28434.295;  -12.188;31784.225
738.768;25783.539;  -11.378;32120.523
739.340;25329.939;  -12.598;32094.342
739.912;26074.385;  -11.568;31312.680
740.484;25724.326;   -9.348;31946.238
741.056;25105.252;  -12.628;32984.059
741.628;25460.119;  -13.349;33897.715
742.199;25771.881;  -11.309;33213.016
742.771;26427.736;  -12.699;31369.113
743.343;27992.076;  -11.919;31865.473
743.915;27999.051;  -11.679;32388.631
744.487;26529.445;  -12.249;31079.568
745.058;25160.836;  -11.119;30570.107
745.630;24050.412;   -9.439;29970.127
746.201;23829.373;  -11.949;29186.766
746.773;23402.291;  -12.639;28805.723
747.344;22742.436;  -11.039;29591.223
747.916;21810.371;  -12.549;31412.201
748.487;21091.438;  -12.659;32194.898
749.059;21339.207;  -13.059;32533.719
749.630;22064.430;  -12.080;32158.518
750.201;21190.137;  -13.100;30855.395
750.773;20060.484;  -15.310;28622.555
751.344;20126.127;  -12.240;28405.732
751.915;20373.646;  -11.960;28461.551
752.486;20524.117;  -13.200;27842.850
753.057;20019.211;  -15.230;27845.008
753.628;19355.631;  -13.130;27728.107
754.199;19462.184;  -12.720;27381.086
754.770;19483.988;  -10.680;25882.203
755.341;19606.379;  -11.010;25886.184
755.912;18949.717;  -12.990;26050.861
756.483;18021.637;  -11.110;26798.779
757.054;17617.820;  -12.190;27048.238
757.625;17652.453;  -13.981;26294.838
758.195;18034.816;  -11.041;26142.076
758.766;19319.865;  -11.861;26392.234
759.337;19958.666;  -11.461;26334.594
759.907;20059.049;  -15.001;27579.652
760.478;19756.914;   -9.681;28352.770
761.048;19121.795;  -12.421;27325.088
761.619;18285.328;  -11.761;26460.428
762.189;17111.418;  -12.391;26029.826
762.760;17097.596;  -10.201;26430.145
763.330;18317.648;  -10.811;26670.902
763.900;20379.031;  -10.261;26603.021
764.471;19553.555;  -13.061;25542.740
765.041;18517.174;  -11.051;24358.459
765.611;18490.891;  -11.032;23991.297
766.181;18263.242;  -10.532;24470.236
766.751;17854.955;  -13.502;24845.975
767.321;17761.625;  -11.392;24533.633
767.891;18048.949;  -11.522;24916.492
768.461;18751.484;  -13.672;24776.771
769.031;18396.633;  -14.652;24757.988
769.601;17332.709;  -10.182;24181.088
770.171;15612.989;  -11.752;23670.387
770.741;14843.373;  -12.272;22960.045
771.311;14998.431;  -13.112;22917.523
771.880;15053.431;  -14.122;23562.941
772.450;16222.380;  -11.782;24216.500
773.020;17314.305;  -12.642;24140.398
773.589;16151.863;  -13.043;24414.857
774.159;14256.279;  -11.783;23858.717
774.729;13863.678;  -13.473;22942.135
775.298;15252.915;  -14.523;22324.033
775.867;16082.282;  -12.013;21140.313
776.437;15201.758;  -12.113;20838.092
777.006;13783.090;  -13.543;20599.510
777.576;12315.602;  -12.523;20508.809
778.145;12433.464;  -12.173;20732.947
778.714;13541.631;  -12.153;21062.465
779.283;13953.885;  -11.833;20949.664
779.853;14349.906;  -13.483;20508.623
780.422;14745.327;  -12.933;20649.082
780.991;14014.116;  -13.173;21527.520
781.560;12639.568;  -10.224;22632.658
782.129;12528.499;  -12.684;23048.277
782.698;13834.736;  -11.284;23438.555
783.267;14644.645;  -11.684;23267.734
783.836;13620.374;  -10.974;22415.133
784.404;12571.105;  -13.534;20443.152
784.973;12636.927;  -16.734;19699.150
785.542;12571.781;  -12.594;19763.828
786.111;12228.220;  -11.644;20341.408
786.679;12777.896;  -11.384;20207.967
787.248;13410.914;  -12.014;19516.465
787.817;12435.589;  -12.804;18900.363
788.385;11341.450;  -11.994;17879.121
788.954;11371.895;  -12.564;17658.301
789.522;12378.920;  -12.225;17788.879
790.090;12376.149;  -13.775;18118.277
790.659;11535.738;  -12.485;18338.736
791.227;11315.787;  -12.295;18508.615
791.795;11468.586;  -13.415;17898.254
792.364;11056.340;  -12.995;17295.133
792.932;10724.534;   -8.365;16822.051
793.500;10849.051;  -11.925;17040.148
794.068;10936.626;  -13.245;17179.787
794.636;10770.375;  -13.815;16664.246
795.204;10258.886;  -13.375;16524.545
795.772;10373.964;  -12.125;17274.564
796.340;10777.881;  -13.855;17891.002
796.908;10881.996;  -13.456;17648.561
797.476;10335.932;  -13.116;17064.080
798.044;10042.761;  -13.226;16672.777
798.612;10752.451;  -11.236;17023.996
799.180;11536.889;  -10.476;16561.615
799.747;11544.806;  -11.746;15962.773
800.315;10678.043;  -12.366;15296.992
800.883; 9876.623;  -14.616;14801.771
801.450; 9760.522;  -11.996;14534.430
802.018;10261.775;  -11.206;14173.248
802.585; 9536.908;  -12.466;14029.547
803.153; 8543.418;  -12.846;13836.846
803.720; 8306.608;  -12.136;13567.324
804.287; 8483.443;  -10.966;13360.622
804.855; 8910.827;   -9.797;13681.981
805.422; 8742.864;  -13.037;13536.560
805.989; 8436.088;  -12.697;13355.958
806.556; 8635.326;  -11.737;13747.896
807.124; 8965.996;  -11.997;13987.376
807.691; 8530.729;  -13.997;14038.674
808.258; 8431.330;  -10.927;14120.152
808.825; 8969.956;  -13.727;13860.111
809.392; 9336.464;  -11.847;13268.790
809.959; 8578.493;  -14.217;12680.389
810.526; 7756.983;   -8.277;12427.308
811.093; 7674.590;   -9.647;12030.105
811.659; 7540.000;  -10.987;11653.664
812.226; 7090.390;  -13.447;11637.183
812.793; 7214.389;  -14.418;11611.521
813.360; 7599.393;  -13.908;11885.181
813.926; 7645.413;  -12.918;12770.539
814.493; 7614.872;  -14.888;12677.638
815.060; 7687.005;  -12.758;11974.336
815.626; 7925.146;  -13.478;11594.715
816.193; 7891.559;  -13.898;11579.474
816.759; 7603.089;  -13.588;11666.972
817.325; 7480.084;  -12.018;11325.530
817.892; 6965.830;  -14.068;11105.369
818.458; 6377.272;  -13.458;10843.928
819.024; 6164.342;  -11.968;10714.406
819.591; 5875.304;  -11.028;10469.165
820.157; 5629.639;  -12.088;10235.523
820.723; 5498.223;  -12.599;10847.563
821.289; 5792.680;  -10.419;11040.980
821.855; 6493.882;  -10.939;10357.100
822.421; 6981.948;  -12.539; 9978.918
822.987; 6807.928;  -13.259; 9754.177
823.553; 6240.210;  -15.369;10065.755
824.119; 5999.794;  -10.779;10036.294
824.685; 5577.763;   -9.999;10029.192
825.251; 5243.919;  -11.819;10199.230
825.816; 5053.232;  -13.369; 9820.189
826.382; 5202.606;  -12.679; 9297.248
826.948; 5346.960;  -11.199; 9381.347
827.513; 5192.188;  -11.179; 9450.726
828.079; 5186.853;  -13.489; 9472.444
828.645; 5451.598;  -12.500; 9292.643
829.210; 5626.321;  -15.120; 9065.341
829.776; 5488.700;  -12.590; 9132.620
830.341; 5362.603;  -11.540; 9092.878
830.906; 5445.152;  -12.400; 9078.557
831.472; 5349.998;  -12.720; 8534.535
832.037; 4851.385;  -11.490; 8677.874
832.602; 4397.176;  -14.380; 8628.692
833.167; 4579.166;  -12.780; 8879.031
833.733; 4854.381;  -11.100; 9189.790
834.298; 5102.902;  -12.080; 9052.608
834.863; 4993.527;  -13.910; 8895.087
835.428; 4709.021;  -13.470; 8824.266
835.993; 4994.517;  -11.760; 8845.385
836.558; 5422.711;  -12.731; 8888.563
837.123; 5475.437;  -12.431; 8966.582
837.688; 5205.954;  -11.241; 8617.860
838.253; 4879.957;  -13.681; 8590.699
838.817; 4704.169;  -12.531; 8443.797
839.382; 4916.021;  -12.671; 8799.356
839.947; 4852.349;  -11.541; 8810.595
840.511; 4659.455;  -12.021; 8796.394
841.076; 4603.426;  -13.071; 8347.231
841.641; 4450.212;  -11.411; 8224.330
842.205; 4330.795;  -13.671; 8223.349
842.770; 4383.183;  -11.291; 8622.107
843.334; 4469.709;  -12.951; 8410.386
843.898; 4471.649;  -11.221; 8337.465
844.463; 4383.792;  -11.322; 8506.283
845.027; 4122.859;  -11.412; 8280.962
845.591; 3897.039;  -11.512; 8231.141
846.156; 4080.927;  -14.042; 7969.179
846.720; 4317.546;  -12.152; 7768.278
847.284; 4309.104;  -10.922; 7630.957
847.848; 4030.854;  -10.962; 7472.395
848.412; 3732.209;  -14.612; 7437.394
848.976; 3762.872;  -11.492; 7674.592
849.540; 3819.268;   -9.172; 7836.011
850.104; 4166.642;  -11.232; 7913.669
850.668; 4436.349;  -15.182; 7694.508
851.232; 4102.495;  -15.332; 7756.887
851.796; 3926.545;  -13.703; 7926.545
852.359; 4017.918;  -11.113; 7827.844
852.923; 3881.968;  -11.843; 7641.163
853.487; 3693.431;  -11.173; 7342.501
854.050; 3508.967;  -13.443; 7042.820
854.614; 3424.893;  -13.823; 7151.338
855.177; 3541.064;  -16.393; 7105.077
855.741; 3641.655;  -11.693; 6989.675
856.304; 3627.072;  -10.843; 6596.634
856.868; 3530.330;  -13.783; 6356.272
857.431; 3310.471;  -11.953; 6468.571
857.995; 3182.588;  -13.683; 6373.210
858.558; 3138.144;  -11.433; 6324.448
859.121; 3110.156;  -12.493; 6408.327
859.684; 3182.151;  -12.384; 6347.886
860.247; 3203.017;  -14.774; 6321.264
860.810; 3021.298;  -13.154; 6301.903
861.374; 2883.442;  -11.264; 6607.881
861.937; 2827.535;  -15.424; 6408.200
862.500; 2846.340;  -12.854; 6572.639
863.062; 2885.208;  -12.344; 6387.297
863.625; 2886.004;  -13.314; 6190.836
864.188; 2749.774;  -14.724; 5807.254
864.751; 2689.084;  -13.464; 5682.413
865.314; 2676.355;  -11.684; 5547.492
865.876; 2726.080;  -11.104; 5500.150
866.439; 2830.288;  -12.344; 5415.909
867.002; 2828.809;  -13.494; 5501.567
867.564; 2809.639;  -10.935; 5413.946
868.127; 2715.469;  -12.665; 5160.325
868.689; 2615.780;  -14.515; 5133.183
869.252; 2626.286;  -13.425; 5252.382
869.814; 2668.653;  -11.595; 5297.141
870.377; 2661.628;  -12.175; 5390.919
870.939; 2539.480;  -10.265; 5599.898
871.501; 2448.829;  -12.375; 5248.336
872.063; 2406.784;  -14.355; 4854.235
872.626; 2411.603;  -14.435; 4817.074
873.188; 2323.285;  -12.415; 4987.732
873.750; 2268.812;  -14.555; 4868.651
874.312; 2295.391;  -11.185; 4779.330
874.874; 2265.433;  -12.715; 4866.348
875.436; 2152.111;  -13.196; 4718.887
875.998; 2040.355;  -11.426; 4660.005
876.560; 1964.494;   -9.786; 4462.964
877.122; 1934.018;  -12.796; 4145.042
877.683; 1847.802;  -13.226; 4056.481
878.245; 1707.084;  -12.036; 3950.740
878.807; 1593.209;  -11.536; 4058.958
879.369; 1620.323;  -10.806; 3954.677
879.930; 1760.794;  -13.946; 3941.495
880.492; 1817.666;  -11.876; 4067.014
881.053; 1675.650;  -13.216; 3859.633
881.615; 1567.947;  -12.226; 3776.071
882.176; 1514.086;  -12.946; 3734.750
882.738; 1498.166;  -10.736; 3678.489
883.299; 1448.475;  -12.057; 3405.407
883.860; 1358.966;  -12.677; 3351.106
884.422; 1309.308;  -14.097; 3394.044
884.983; 1257.290;  -13.667; 3166.443
885.544; 1199.385;  -10.717; 3189.802
886.105; 1136.479;  -14.357; 3160.360
886.666; 1074.749;  -14.287; 3093.059
887.227; 1013.596;  -14.297; 2941.957
887.788;  963.339;  -13.137; 2974.836
888.349;  901.318;  -14.637; 2721.214
888.910;  850.732;  -12.247; 2696.493
889.471;  854.219;  -10.577; 2560.172
890.032;  859.839;  -12.937; 2558.190
890.593;  860.343;  -12.487; 2567.669
891.153;  839.644;  -11.898; 2460.307
891.714;  807.274;  -14.278; 2372.046
892.275;  781.999;  -13.308; 2309.505
892.835;  719.071;  -12.058; 2382.543
893.396;  641.381;  -15.268; 2295.502
893.956;  599.989;  -13.278; 2162.420
894.517;  580.349;  -11.968; 2125.439
895.077;  580.812;  -12.798; 2086.978
895.638;  559.282;  -11.908; 2126.316
896.198;  534.189;  -13.288; 1838.275
896.758;  511.469;  -12.198; 1892.813
897.319;  485.800;  -13.048; 1792.232
897.879;  451.358;  -13.718; 1762.751
898.439;  411.962;  -14.138; 1661.149
898.999;  385.917;  -13.659; 1781.468
899.559;  373.371;  -14.699; 1703.347
900.119;  355.272;  -14.339; 1537.525
900.679;  334.077;  -11.789; 1638.384
901.239;  306.520;  -13.629; 1527.902
901.799;  286.951;  -13.679; 1456.441
902.359;  276.092;  -13.679; 1357.140
902.919;  269.134;  -14.159; 1331.118
903.479;  255.018;  -13.419; 1317.257
904.038;  239.600;  -14.899; 1262.595
904.598;  227.052;  -14.339; 1152.034
905.158;  218.115;  -13.959; 1240.893
905.717;  213.451;  -12.749; 1233.691
906.277;  208.152;  -11.889; 1217.330
906.836;  202.858;  -12.870; 1222.408
907.396;  197.952;  -11.790; 1193.047
907.955;  189.344;  -13.750; 1182.526
908.515;  179.749;  -14.760; 1099.364
909.074;  176.418;  -12.540; 1092.863
909.633;  171.607;  -12.120; 1069.121
910.192;  166.301;  -12.550; 1196.460
910.752;  160.683;  -12.760; 1029.960
911.311;  158.049;  -14.750; 1009.780
911.870;  156.248;  -13.860;  971.460
912.429;  157.149;  -13.480; 1094.080
912.988;  155.132;  -12.370; 1081.060
913.547;  151.867;  -14.670;  940.380
914.106;  151.165;  -12.800;  999.420
914.665;  149.888;  -11.370;  984.020
915.224;  145.707;  -11.430; 1035.760
915.782;  143.523;  -12.260;  922.560
916.341;  143.378;  -12.540; 1049.840
916.900;  140.020;  -12.540;  925.260
917.458;  138.442;  -13.480;  884.220
918.017;  138.624;  -12.470;  942.600
918.576;  137.672;  -13.450;  904.440
919.134;  136.529;  -12.890;  837.980
919.693;  134.901;  -15.480;  893.060
920.251;  134.885;  -14.420;  876.500
920.809;  134.364;  -12.170;  839.580
921.368;  131.986;  -13.650;  885.360
921.926;  130.859;  -12.750;  842.940
922.484;  129.988;  -14.150;  903.360
923.042;  130.300;  -15.100;  880.340
923.601;  132.221;  -10.990;  998.680
924.159;  131.930;  -12.470;  935.560
924.717;  132.109;  -15.640;  841.080
925.275;  133.032;  -12.380;  903.240
925.833;  132.804;  -12.710;  779.320
926.391;  135.331;  -11.200;  938.380
926.949;  135.905;  -16.000;  857.680
927.506;  138.177;  -12.260;  903.500
928.064;  138.635;  -11.300;  877.580
928.622;  137.829;  -13.750;  880.100
929.180;  139.250;  -15.290;  814.180
929.737;  139.932;  -14.500;  808.540
930.295;  141.513;  -10.630;  928.480
930.853;  142.907;  -14.590;  849.100
931.410;  143.994;  -14.450;  821.120
931.968;  146.782;  -14.390;  940.660
932.525;  147.592;  -13.050;  909.380
933.082;  151.058;  -15.620;  811.440
933.640;  158.794;  -15.650;  925.900
934.197;  163.583;  -13.610;  886.360
934.754;  165.403;  -13.320;  897.780
935.312;  164.489;  -13.370;  863.340
935.869;  168.977;  -12.780; 1012.980
936.426;  169.945;  -14.480;  872.800
936.983;  171.428;  -13.180;  889.020
937.540;  171.766;  -15.710;  838.280
938.097;  171.665;  -14.980;  940.120
938.654;  170.925;  -13.060;  898.860
939.211;  170.134;  -12.760;  952.480
939.768;  170.916;  -16.230;  915.420
940.324;  175.171;  -10.940;  904.200
940.881;  179.443;  -12.570;  878.500
941.438;  182.638;  -13.650; 1021.200
941.995;  177.804;  -13.300;  992.560
942.551;  176.695;  -15.800;  875.620
943.108;  176.116;  -14.180;  937.920
943.664;  170.171;  -13.890;  869.340
944.221;  168.714;  -12.640; 1088.140
944.777;  168.356;  -14.700;  869.680
945.334;  171.869;  -13.010;  884.840
945.890;  172.835;  -13.480;  946.480
946.446;  170.542;  -14.920;  947.020
947.003;  170.636;  -13.860;  964.940
947.559;  172.386;  -12.000; 1063.040
948.115;  170.009;  -10.510; 1026.540
948.671;  166.793;  -12.760;  967.300
949.227;  165.696;  -15.390;  859.560
949.783;  162.380;  -15.570;  858.900
950.339;  161.045;  -12.800;  991.000
950.895;  158.598;  -13.780; 1023.840
951.451;  154.537;  -13.810;  925.280
952.007;  154.352;  -12.390;  998.540
952.563;  151.765;  -11.980;  937.780
953.118;  149.056;  -14.070;  904.940
953.674;  147.987;  -14.140;  935.780
954.230;  148.052;  -12.680;  949.640
954.785;  149.753;  -12.770;  936.640
955.341;  149.563;  -11.450;  998.160
955.897;  145.258;  -15.350;  834.660
956.452;  144.992;  -14.200;  953.840
957.008;  144.013;  -10.820; 1083.640
957.563;  139.929;  -13.200; 1009.540
958.118;  135.414;  -14.460;  877.700
958.674;  136.719;  -13.840;  946.780
959.229;  138.858;  -10.670; 1013.980
959.784;  139.022;  -17.040;  832.400
960.339;  140.638;  -12.970; 1001.280
960.894;  140.544;  -12.700;  963.760
961.449;  140.579;  -13.790;  859.960
962.004;  144.058;  -11.760; 1212.840
962.559;  142.155;  -14.840;  860.140
963.114;  141.469;  -14.530;  742.480
963.669;  143.554;  -12.780;  915.500
964.224;  140.958;  -14.330;  874.340
964.779;  136.472;  -14.380;  828.420
965.334;  133.104;  -12.460; 1017.860
965.888;  129.062;  -13.490;  875.360
966.443;  129.158;  -14.140;  972.380
966.998;  126.172;  -16.240;  819.460
967.552;  124.231;  -12.730;  908.380
968.107;  121.477;  -14.510;  868.300
968.661;  122.246;  -11.850;  922.440
969.216;  120.923;  -14.370;  856.280
969.770;  121.214;  -13.010;  917.200
970.324;  118.061;  -12.460;  923.140
970.879;  116.953;  -11.580;  947.180
971.433;  117.068;  -13.130;  952.720
971.987;  115.451;  -12.360;  895.340
972.541;  114.262;  -14.330;  917.100
973.095;  113.945;  -13.310; 1009.460
973.649;  113.426;  -15.830;  809.480
974.203;  116.451;  -15.830;  829.040
974.757;  118.280;  -13.480;  855.220
975.311;  117.383;  -13.720;  872.600
975.865;  114.975;  -15.780;  881.820
976.419;  112.200;  -14.290;  857.400
976.973;  109.140;  -13.210;  849.620
977.526;  108.225;  -12.300;  949.920
978.080;  104.215;  -14.840;  796.780
978.634;  104.931;  -13.100;  921.320
979.187;  100.471;  -12.300;  905.400
979.741;   98.014;  -12.020; 1018.380
980.294;   92.706;  -14.590;  789.160
980.848;   88.487;  -14.390;  717.220
981.401;   89.885;  -14.280;  816.540
981.955;   89.762;  -11.920;  844.300
982.508;   86.762;  -15.790;  746.340
983.061;   87.381;  -12.070;  915.260
983.615;   84.073;  -13.260;  798.800
984.168;   82.535;  -15.540;  770.080
984.721;   82.430;  -13.230;  880.760
985.274;   80.880;  -11.820;  867.500
985.827;   78.634;  -13.510;  834.220
986.380;   75.346;  -14.840;  721.340
986.933;   75.972;  -13.970;  864.800
987.486;   75.012;  -12.450;  861.920
988.039;   73.529;  -11.170;  863.100
988.591;   70.239;  -13.070;  893.260
989.144;   67.170;  -15.530;  737.260
989.697;   65.899;  -14.300;  758.740
990.250;   65.956;  -13.310;  858.100
990.802;   63.702;  -14.490;  755.860
991.355;   65.041;  -12.980;  974.880
991.907;   63.632;  -13.715;  864.320
992.460;   62.224;  -14.450;  753.760
993.012;   60.919;  -12.590;  749.540
993.565;   59.848;  -15.180;  711.360
994.117;   61.839;  -11.630;  950.780
994.669;   57.968;  -13.760;  701.320
995.221;   56.939;  -12.710;  791.920
995.774;   54.678;  -14.620;  787.580
996.326;   54.904;  -13.150;  740.220
996.878;   55.106;  -12.880;  838.420
997.430;   53.900;  -14.580;  699.860
997.982;   53.450;  -14.030;  750.140
998.534;   53.155;  -12.190;  739.060
999.086;   51.349;  -12.990;  738.220
999.638;   49.835;  -13.180;  661.380
1000.190;   49.516;  -14.970;  699.320
1000.741;   49.654;  -12.200;  742.700
1001.293;   49.835;  -13.400;  686.020
1001.845;   48.351;  -14.490;  676.640
1002.396;   49.386;  -15.280;  743.400
1002.948;   49.573;  -12.380;  737.400
1003.500;   48.197;  -13.260;  723.780
1004.051;   48.373;  -13.730;  907.580
1004.603;   48.075;  -12.300;  791.820
1005.154;   44.639;  -15.330;  608.980
1005.705;   43.261;  -12.800;  723.960
1006.257;   43.072;  -13.900;  707.220
1006.808;   40.936;  -14.430;  685.460
1007.359;   41.614;  -12.010;  763.240
1007.910;   40.168;  -12.690;  646.640
1008.461;   39.405;  -13.610;  732.940
1009.013;   37.872;  -14.990;  588.340
1009.564;   40.017;  -11.860;  793.520
1010.115;   36.987;  -12.640;  597.040
1010.665;   36.416;  -14.570;  602.160
1011.216;   37.682;  -15.190;  667.920
1011.767;   36.842;  -13.470;  697.920
1012.318;   36.438;  -13.760;  736.980
1012.869;   35.638;  -15.950;  679.000
1013.419;   35.069;  -15.880;  603.120
1013.970;   35.936;  -14.540;  666.640
1014.521;   34.995;  -13.220;  620.620
1015.071;   34.595;  -15.020;  670.380
1015.622;   34.267;  -17.510;  635.460
1016.172;   34.062;  -14.130;  596.820
1016.723;   33.781;  -14.220;  614.380
1017.273;   33.119;  -15.370;  604.160
1017.823;   33.369;  -15.290;  650.340
1018.374;   33.748;  -13.420;  611.760
1018.924;   32.868;  -11.740;  716.880
1019.474;   33.692;  -12.250;  718.880
1020.024;   32.513;  -15.850;  657.580
1020.574;   33.040;  -13.280;  726.160
1021.124;   33.093;  -13.560;  673.580
1021.674;   29.952;  -13.790;  559.120
1022.224;   32.339;  -14.610;  708.940
1022.774;   32.083;  -13.100;  668.820
1023.324;   32.290;  -11.470;  753.520
1023.874;   33.304;  -11.990;  875.760
1024.423;   30.433;  -14.550;  613.700
1024.973;   30.937;  -14.440;  610.760
1025.523;   30.288;  -13.250;  620.960
1026.072;   29.579;  -15.200;  606.420
1026.622;   29.118;  -14.590;  675.740
1027.172;   30.999;  -11.080;  715.660
1027.721;   28.642;  -14.010;  601.220
1028.270;   28.690;  -13.690;  663.400
1028.820;   29.173;  -15.380;  638.080
1029.369;   29.389;  -14.980;  612.700
1029.918;   28.790;  -13.100;  649.840
1030.468;   28.078;  -13.680;  564.780
1031.017;   28.610;  -13.770;  634.800
1031.566;   27.554;  -14.100;  608.900
1032.115;   28.708;  -11.770;  694.500
1032.664;   25.655;  -14.940;  596.480
1033.213;   27.884;  -13.370;  735.420
1033.762;   27.862;  -13.660;  635.620
1034.311;   27.084;  -13.650;  677.220
1034.860;   26.957;  -13.820;  691.000
1035.408;   26.835;  -12.860;  722.720
1035.957;   28.306;  -13.060;  719.540
1036.506;   25.015;  -14.510;  530.800
1037.055;   28.064;  -13.470;  844.320
1037.603;   25.777;  -14.800;  664.000
1038.152;   24.403;  -14.190;  534.760
1038.700;   25.448;  -11.810;  585.740
1039.249;   24.798;  -12.850;  681.220
1039.797;   24.932;  -14.610;  633.360
1040.345;   25.499;  -15.220;  705.420
1040.894;   24.715;  -13.480;  625.300
1041.442;   23.844;  -13.310;  632.200
1041.990;   23.203;  -14.510;  559.160
1042.538;   23.398;  -15.700;  536.180
1043.087;   23.116;  -13.910;  570.860
1043.635;   24.523;  -13.620;  670.500
1044.183;   22.985;  -14.230;  586.400
1044.731;   23.790;  -13.730;  576.000
1045.279;   23.437;  -13.970;  674.920
1045.827;   25.877;  -10.750;  892.400
1046.374;   22.008;  -15.230;  515.420
1046.922;   21.876;  -15.390;  590.580
1047.470;   23.390;  -12.320;  691.300
1048.018;   22.641;  -13.230;  647.960
1048.565;   22.867;  -13.390;  708.600
1049.113;   21.514;  -15.030;  557.000
1049.660;   21.248;  -12.540;  629.660
1050.208;   22.091;  -15.040;  675.640
1050.755;   21.751;  -14.680;  606.580
1051.303;   22.316;  -13.610;  686.820
1051.850;   21.786;  -14.340;  635.120
1052.397;   19.086;  -16.330;  473.960
1052.945;   21.118;  -15.710;  617.760
1053.492;   21.939;  -12.320;  741.840
1054.039;   21.575;  -13.730;  720.180
1054.586;   20.118;  -16.140;  557.240
1055.133;   20.123;  -14.020;  693.140
1055.680;   21.419;  -13.430;  646.620
1056.227;   19.638;  -14.570;  542.780
1056.774;   21.511;  -14.400;  794.980
1057.321;   18.929;  -14.230;  523.260
1057.868;   20.233;  -14.220;  651.320
1058.415;   20.309;  -14.060;  651.980
1058.961;   19.118;  -14.640;  678.940
1059.508;   19.276;  -13.970;  643.820
1060.055;   19.330;  -15.100;  581.780
1060.601;   19.620;  -12.180;  624.300
1061.148;   18.845;  -15.010;  616.820
1061.694;   17.786;  -14.750;  592.580
1062.241;   18.951;  -14.130;  596.320
1062.787;   18.898;  -14.770;  663.140
1063.334;   20.119;  -13.130;  808.560
1063.880;   18.406;  -14.420;  668.360
1064.426;   18.898;  -13.130;  706.820
1064.972;   17.309;  -13.960;  601.340
1065.518;   16.820;  -13.680;  566.640
1066.065;   17.590;  -15.720;  624.460
1066.611;   17.535;  -13.970;  598.800
1067.157;   17.015;  -13.920;  641.860
1067.703;   16.987;  -14.760;  668.480
1068.249;   17.103;  -14.490;  605.220
1068.794;   17.499;  -14.740;  626.880
1069.340;   15.879;  -13.220;  578.960
1069.886;   16.358;  -14.930;  590.700
1070.432;   15.641;  -14.700;  541.720
1070.977;   15.884;  -14.470;  601.080
1071.523;   16.598;  -14.330;  573.060
1072.068;   15.904;  -14.960;  582.000
1072.614;   14.881;  -16.220;  527.760
1073.160;   16.904;  -11.280;  687.040
1073.705;   15.093;  -15.990;  572.520
1074.250;   14.720;  -16.550;  559.900
1074.796;   15.762;  -14.600;  655.160
1075.341;   16.266;  -13.440;  664.100
1075.886;   15.198;  -14.450;  594.240
1076.431;   14.765;  -13.160;  649.880
1076.976;   14.909;  -14.710;  639.220
1077.521;   15.069;  -14.000;  583.080
1078.067;   14.443;  -14.470;  579.400
1078.612;   14.639;  -14.530;  661.620
1079.156;   13.726;  -15.660;  601.540
1079.701;   14.696;  -16.120;  693.260
1080.246;   14.773;  -12.960;  696.300
1080.791;   14.333;  -13.700;  625.020
1081.336;   13.973;  -15.540;  659.320
1081.880;   14.506;  -14.640;  649.680
1082.425;   12.939;  -14.220;  573.480
1082.970;   14.976;  -11.890;  717.040
1083.514;   13.805;  -13.820;  597.000
1084.059;   13.016;  -14.280;  586.720
1084.603;   12.886;  -12.890;  565.840
1085.147;   13.523;  -13.590;  645.220
1085.692;   14.266;  -14.050;  716.800
1086.236;   12.088;  -14.990;  503.140
1086.780;   14.255;  -12.640;  751.440
1087.325;   12.888;  -15.550;  654.620
1087.869;   13.063;  -14.980;  610.700
1088.413;   13.758;  -13.440;  705.040
1088.957;   11.412;  -12.170;  543.400
1089.501;   13.770;  -12.730;  766.640
1090.045;   12.929;  -14.650;  726.480
1090.589;   10.945;  -14.500;  569.920
1091.133;   12.594;  -12.320;  673.340
1091.676;   11.656;  -16.130;  591.940
1092.220;   11.035;  -13.930;  600.920
1092.764;   13.342;  -12.820;  706.960
1093.307;   11.938;  -11.700;  673.780
1093.851;   10.888;  -15.600;  556.540
1094.395;   11.345;  -13.920;  683.140
1094.938;   11.420;  -16.090;  632.520
1095.482;   11.354;  -13.820;  559.800
1096.025;   11.528;  -12.720;  710.880
1096.568;   11.877;  -12.100;  779.280
1097.112;    9.473;  -15.450;  508.180
1097.655;   11.353;  -14.310;  603.000
1098.198;    9.447;  -14.740;  600.180
1098.741;    9.799;  -15.550;  612.860
1099.285;   10.919;  -12.600;  657.300
1099.828;    8.090;  -15.050;  439.400
1100.371;    9.026;  -14.800;  608.160
1100.914;    9.519;  -16.480;  682.660
1101.457;   10.900;  -12.990;  679.900
1101.999;    8.392;  -14.110;  584.680
1102.542;    9.650;  -11.450;  641.440
1103.085;    9.283;  -13.350;  658.500
1103.628;   10.610;  -13.200;  762.060
1104.170;    8.843;  -12.310;  588.280
1104.713;    9.761;  -14.320;  646.700
1105.256;    8.263;  -16.110;  557.440
1105.798;    7.652;  -15.910;  499.980
1106.341;   10.366;  -12.200;  728.900
1106.883;    7.889;  -14.910;  521.340
1107.425;    9.293;  -14.960;  668.180
1107.968;    8.410;  -13.440;  612.380
1108.510;    9.714;  -14.010;  684.960
1109.052;    7.146;  -15.430;  612.620
1109.594;    7.568;  -15.290;  554.440
1110.136;    8.855;  -13.360;  643.220
1110.679;    8.251;  -13.820;  633.080
1111.221;    7.477;  -13.690;  604.460
1111.763;    6.816;  -14.890;  559.220
1112.304;    6.858;  -14.550;  547.140
1112.846;    8.015;  -12.760;  666.240
1113.388;   10.783;  -10.780;  942.180
1113.930;    7.203;  -12.690;  694.200
1114.472;    7.398;  -15.730;  606.540
1115.013;    5.780;  -14.620;  551.280
1115.555;    6.057;  -14.950;  587.100
1116.097;    5.726;  -16.460;  579.480
1116.638;    7.173;  -13.730;  684.600
1117.180;    7.736;  -13.810;  667.740
1117.721;    5.580;  -13.280;  568.580
1118.262;    7.200;  -15.080;  677.960
1118.804;    6.819;  -14.040;  637.340
1119.345;    6.014;  -15.430;  578.400
1119.886;    6.445;  -15.240;  704.040
1120.427;    5.952;  -15.820;  589.020
1120.969;    6.232;  -14.550;  597.920
1121.510;    5.337;  -14.030;  563.060
1122.051;    6.234;  -11.990;  723.580
1122.592;    5.418;  -16.490;  655.420
1123.133;    4.728;  -15.580;  547.940
1123.673;    6.660;  -12.850;  706.480
1124.214;    5.294;  -13.630;  612.460
1124.755;    5.875;  -14.830;  639.460
1125.296;    5.672;  -13.110;  627.320
1125.836;    6.778;  -11.320;  691.500
1126.377;    4.734;  -14.330;  599.660
1126.918;    6.166;  -12.800;  614.980
1127.458;    4.597;  -13.580;  622.220
1127.999;    6.365;  -10.330;  656.980
1128.539;    6.074;  -13.390;  694.240
1129.079;    4.728;  -16.420;  632.720
1129.620;    4.945;  -15.700;  558.100
1130.160;    3.262;  -14.790;  539.480
1130.700;    4.624;  -12.910;  640.840
1131.240;    4.791;  -15.610;  643.700
1131.781;    4.618;  -12.920;  619.680
1132.321;    4.214;  -15.300;  599.120
1132.861;    2.789;  -14.760;  564.200
1133.401;    3.427;  -15.470;  593.940
1133.941;    4.763;  -13.710;  626.280
1134.481;    3.517;  -11.820;  597.580
1135.020;    2.990;  -14.810;  609.160
1135.560;    3.367;  -13.660;  674.940
1136.100;    3.273;  -13.940;  501.160
1136.640;    2.500;  -15.410;  510.480
1137.179;    2.255;  -16.920;  537.960
1137.719;    3.389;  -16.430;  605.400
1138.258;    3.670;  -16.300;  587.360
1138.798;    3.437;  -13.710;  663.780
1139.337;    1.328;  -13.840;  482.840
1139.877;    3.170;  -16.140;  642.360
1140.416;    5.785;  -11.410;  878.060
1140.955;    2.166;  -12.820;  535.380
1141.494;    3.561;  -12.310;  669.280
1142.034;    2.199;  -16.280;  583.520
1142.573;    3.727;  -13.090;  646.280
1143.112;    2.115;  -13.770;  553.480
1143.651;    2.347;  -15.830;  536.480
1144.190;    2.933;  -15.010;  691.640
1144.729;    2.223;  -13.650;  607.420
1145.267;    2.088;  -13.670;  584.900
1145.806;    3.126;  -13.630;  637.040
1146.345;    2.271;  -14.160;  635.020
1146.884;    2.506;  -11.180;  622.500
1147.422;    1.541;  -15.890;  533.060
1147.961;    2.975;  -12.760;  708.460
1148.500;    2.593;  -15.220;  669.720
1149.038;    3.261;  -13.720;  632.500
1149.577;    2.581;  -13.250;  698.640
1150.115;   -0.595;  -16.790;  452.280
1150.653;    1.591;  -15.810;  607.340
1151.192;    2.634;  -14.730;  552.920
1151.730;    1.835;  -13.660;  652.560
1152.268;    1.223;  -15.120;  589.520
1152.806;    1.143;  -15.580;  571.180
1153.344;    0.594;  -16.210;  577.640
1153.882;    0.875;  -12.810;  600.060
1154.421;   -0.852;  -14.150;  470.620
1154.958;    0.059;  -15.360;  595.240
1155.496;    2.133;  -14.710;  645.280
1156.034;    1.341;  -13.640;  721.880
1156.572;    1.563;  -13.740;  667.060
1157.110;   -0.532;  -16.960;  473.940
1157.647;    1.708;  -11.940;  676.960
1158.185;    0.559;  -14.090;  564.320
1158.723;   -0.831;  -13.610;  509.200
1159.260;    1.348;  -14.760;  701.700
1159.798;    1.477;  -13.700;  658.160
1160.335;    0.696;  -13.820;  631.820

