
Integration time [ms]:   3.276
Averaging Nr. [scans]: 1000
Smoothing Nr. [pixels]: 0
Data measured with spectrometer [name]: 7414430SP
Wave   ;Sample   ;Dark     ;Reference
[nm]   ;[counts] ;[counts] ;[counts] 

288.544;  150.611;    7.793;  793.890
289.143;  154.401;    7.462;  681.602
289.742;  154.451;    8.602;  828.814
290.341;  140.884;    1.321;  789.841
290.940;  129.655;   -0.709;  730.702
291.538;  129.521;    0.881;  881.108
292.137;  130.445;    0.122;  792.581
292.736;  135.280;   -1.929;  975.101
293.335;  131.788;   -8.229;  735.086
293.934;  130.549;   -5.279;  781.677
294.532;  129.898;   -1.369; 1031.958
295.131;  116.575;   -7.641;  834.394
295.730;  116.543;   -8.420;  809.588
296.328;  114.147;   -5.611;  783.442
296.927;  116.028;   -5.781;  779.652
297.525;  117.631;   -6.361;  781.236
298.124;  107.027;  -11.382;  654.009
298.722;  110.690;   -7.641;  761.933
299.321;  108.974;   -6.811;  708.597
299.919;  107.083;   -6.991;  751.918
300.518;  104.493;  -10.362;  689.338
301.116;  104.959;   -9.581;  691.381
301.715;  105.359;   -4.891;  730.222
302.313;  105.375;   -8.801;  704.943
302.911;   99.856;   -8.522;  733.830
303.509;  104.661;   -6.171;  925.627
304.108;  102.487;   -7.311;  760.383
304.706;  102.386;   -8.321;  801.664
305.304;   96.154;  -10.222;  796.707
305.902;  101.232;   -6.021;  784.484
306.500;   97.784;   -4.971;  728.200
307.098;   96.288;   -7.061;  746.560
307.696;   94.696;   -8.801;  780.432
308.294;   93.846;   -6.411;  731.359
308.892;   95.674;   -2.901;  759.769
309.490;   93.039;   -5.041;  712.161
310.088;   90.352;   -5.002;  788.444
310.686;   94.705;   -2.041;  821.749
311.284;   91.235;   -2.351;  766.040
311.882;   89.450;   -4.422;  731.225
312.480;   85.779;   -4.192;  697.167
313.078;   86.453;   -1.172;  808.331
313.675;   88.161;   -2.601;  691.600
314.273;   83.486;   -1.312;  797.837
314.871;   82.987;   -3.942;  589.829
315.468;   79.397;   -2.802;  652.090
316.066;   83.620;   -0.701;  694.427
316.664;   75.844;   -4.362;  656.351
317.261;   80.044;   -2.872;  910.128
317.859;   74.838;   -2.022;  768.735
318.456;   75.541;   -0.531;  830.096
319.054;   71.914;   -3.912;  787.828
319.651;   69.999;   -4.752;  759.928
320.249;   69.023;   -2.602;  810.188
320.846;   67.748;   -0.821;  714.286
321.443;   65.538;   -4.642;  832.135
322.041;   62.226;   -5.002;  812.315
322.638;   59.105;   -3.982;  701.456
323.235;   61.114;   -3.411;  665.683
323.833;   59.179;   -7.361;  740.354
324.430;   53.859;   -8.611;  615.900
325.027;   54.048;   -4.061;  876.855
325.624;   54.500;   -4.031;  644.532
326.221;   51.637;   -7.481;  689.717
326.818;   50.997;   -5.281;  818.332
327.415;   54.157;   -7.460;  748.828
328.012;   52.982;   -5.510;  690.585
328.609;   52.540;   -7.880;  731.389
329.206;   50.738;   -8.331;  778.621
329.803;   49.601;   -5.121;  737.841
330.400;   52.451;   -4.510;  704.260
330.997;   54.270;   -6.441;  817.147
331.594;   53.004;   -8.831;  788.185
332.191;   58.107;   -7.621;  728.722
332.787;   61.121;   -4.591;  844.463
333.384;   60.199;   -7.412;  763.093
333.981;   58.454;   -8.293;  815.687
334.578;   60.536;   -7.052;  708.378
335.174;   63.995;   -3.102;  731.469
335.771;   63.914;   -5.943;  836.456
336.367;   60.304;   -7.393;  710.631
336.964;   63.921;   -4.063;  793.266
337.561;   62.108;   -3.813;  731.112
338.157;   59.078;   -4.654;  911.916
338.754;   54.945;   -7.934;  796.589
339.350;   53.078;   -4.414;  722.493
339.946;   55.630;   -4.664;  773.135
340.543;   47.339;   -6.375;  846.136
341.139;   41.867;   -9.815;  720.836
341.735;   39.547;   -4.526;  772.593
342.332;   38.492;   -4.895;  691.472
342.928;   38.865;   -4.295;  795.394
343.524;   33.486;   -5.476;  761.684
344.120;   29.192;   -5.856;  738.562
344.716;   32.581;   -2.155;  723.717
345.313;   31.608;   -6.275;  795.342
345.909;   25.529;   -8.815;  627.336
346.505;   26.289;   -5.305;  740.247
347.101;   27.611;   -2.674;  827.864
347.697;   28.354;   -4.344;  785.398
348.293;   22.479;   -9.975;  627.244
348.889;   23.013;   -5.774;  745.914
349.485;   22.455;   -5.004;  688.205
350.081;   22.808;   -4.704;  772.592
350.676;   17.697;   -6.635;  691.606
351.272;   22.302;   -4.504;  809.530
351.868;   22.544;   -3.914;  780.497
352.464;   19.540;   -9.044;  723.932
353.059;   16.296;   -8.314;  646.017
353.655;   18.670;   -7.024;  777.063
354.251;   19.820;   -5.343;  759.845
354.846;   14.655;   -8.604;  740.646
355.442;   11.842;   -6.945;  753.071
356.038;   13.963;   -7.564;  751.708
356.633;   14.595;   -5.814;  728.594
357.229;   12.347;   -7.364;  724.757
357.824;   10.277;   -8.024;  703.600
358.420;    9.460;   -9.384;  679.726
359.015;   10.379;   -5.104;  695.357
359.610;   11.602;   -6.854;  763.920
360.206;    5.660;  -10.185;  603.240
360.801;    7.867;   -7.054;  646.503
361.396;   10.505;   -5.034;  725.975
361.992;    6.025;   -8.284;  668.220
362.587;    2.802;   -8.625;  670.160
363.182;    4.865;   -7.674;  689.631
363.777;    6.284;   -5.164;  738.242
364.372;    5.761;   -8.604;  737.314
364.967;    1.528;   -9.055;  680.744
365.563;    5.926;   -6.114;  815.567
366.158;    2.611;   -5.814;  685.161
366.753;    4.046;   -7.854;  649.263
367.348;    2.359;   -7.804;  746.056
367.942;    1.002;   -7.954;  697.298
368.537;    0.901;   -4.984;  754.245
369.132;    1.264;   -8.564;  703.428
369.727;   -2.981;   -8.855;  638.079
370.322;   -1.571;   -6.245;  580.186
370.917;   -1.414;   -6.425;  710.646
371.511;    0.749;   -6.294;  861.834
372.106;   -2.691;   -7.685;  776.964
372.701;   -6.144;   -7.335;  585.988
373.296;   -0.246;   -4.564;  863.135
373.890;   -4.752;  -10.235;  647.840
374.485;   -7.827;   -7.885;  691.199
375.079;   -3.353;   -7.324;  738.685
375.674;   -2.429;   -3.494;  812.970
376.268;   -6.124;   -8.525;  691.759
376.863;  -11.887;  -10.086;  580.327
377.457;   -6.183;   -7.025;  662.490
378.052;   -6.922;   -3.585;  764.884
378.646;   -7.746;   -7.595;  741.167
379.240;   -9.439;   -8.335;  721.176
379.835;   -8.400;   -5.785;  636.978
380.429;   -9.738;   -4.335;  562.557
381.023;  -10.226;   -6.805;  779.205
381.617;  -12.062;   -9.195;  680.106
382.212;   -9.383;   -6.905;  685.303
382.806;   -7.933;   -3.745;  760.690
383.400;  -11.776;   -7.745;  672.281
383.994;  -13.491;   -9.765;  664.870
384.588;   -9.978;   -6.564;  697.701
385.182;   -7.666;   -5.344;  726.624
385.776;   -8.602;   -8.514;  706.875
386.370;  -13.135;   -9.555;  681.968
386.964;  -12.025;   -8.715;  684.155
387.558;  -10.099;   -6.174;  598.360
388.152;  -13.297;   -8.725;  681.959
388.745;  -11.141;   -7.965;  814.707
389.339;   -9.884;   -5.924;  747.642
389.933;   -9.119;   -5.524;  695.370
390.527;   -9.916;   -7.114;  859.029
391.120;  -16.163;  -10.725;  595.318
391.714;  -13.974;   -8.035;  711.633
392.308;   -9.778;   -3.574;  780.253
392.901;  -13.664;   -7.245;  642.460
393.495;  -15.211;   -9.285;  595.414
394.089;  -13.715;   -5.895;  760.452
394.682;  -14.537;   -4.295;  697.188
395.275;  -14.422;   -9.875;  719.927
395.869;  -15.531;   -8.485;  667.314
396.462;  -14.859;   -7.455;  616.609
397.056;  -10.375;   -5.424;  776.621
397.649;  -14.602;   -6.605;  731.575
398.242;  -12.378;   -8.224;  712.645
398.836;  -12.737;   -7.474;  766.408
399.429;  -13.091;   -7.094;  631.041
400.022;  -15.776;   -9.475;  665.902
400.615;  -14.635;   -7.145;  805.609
401.208;  -12.557;   -7.174;  691.451
401.802;  -14.212;   -5.515;  699.329
402.395;  -14.941;   -9.875;  683.502
402.988;  -16.823;   -8.845;  696.627
403.581;  -13.570;   -8.874;  646.878
404.174;  -11.177;   -5.324;  686.568
404.767;  -13.685;   -9.575;  638.583
405.360;  -16.419;  -10.965;  621.445
405.953;  -11.265;   -8.764;  759.034
406.545;  -10.648;   -7.514;  725.342
407.138;  -14.807;  -10.025;  618.350
407.731;  -13.296;  -10.034;  613.303
408.324;   -9.532;   -9.374;  660.554
408.917;  -10.455;   -6.534;  681.864
409.509;  -12.072;   -8.004;  740.396
410.102;  -14.130;   -9.875;  643.948
410.695;   -8.259;   -8.604;  665.758
411.287;   -9.507;   -6.794;  599.821
411.880;  -10.441;   -9.334;  585.421
412.472;  -14.053;  -10.254;  613.092
413.065;  -11.527;   -6.714;  629.408
413.657;   -8.295;   -7.234;  576.678
414.250;   -8.122;  -10.544;  646.681
414.842;  -10.552;   -9.744;  676.353
415.434;   -8.865;   -6.994;  570.463
416.027;   -4.135;   -5.893;  652.196
416.619;   -5.663;   -7.264;  713.400
417.211;   -6.336;  -10.374;  599.352
417.804;   -3.237;   -7.993;  628.499
418.396;   -7.082;   -7.234;  607.643
418.988;   -4.761;   -9.443;  659.238
419.580;   -7.828;  -10.724;  568.276
420.172;   -6.272;  -10.323;  536.196
420.764;   -1.933;   -8.793;  672.482
421.356;   -1.727;  -11.143;  636.898
421.948;   -3.133;   -8.293;  677.661
422.540;    1.041;   -7.893;  680.027
423.132;    0.797;   -7.082;  600.641
423.724;   -2.375;   -8.653;  561.267
424.316;   -0.812;  -10.213;  621.345
424.908;    2.666;   -9.762;  591.517
425.500;    3.601;   -5.572;  647.978
426.092;    4.132;   -8.422;  648.268
426.683;    3.063;   -9.283;  684.836
427.275;    5.333;   -7.852;  641.471
427.867;    7.371;   -5.272;  668.948
428.458;    7.401;   -7.682;  732.344
429.050;    5.739;  -10.612;  680.749
429.642;    7.900;   -9.882;  743.124
430.233;    8.444;   -6.962;  569.356
430.825;   10.819;   -6.842;  724.809
431.416;    7.089;   -9.672;  698.241
432.008;   11.482;   -6.552;  651.723
432.599;   12.013;   -6.891;  656.073
433.190;    8.809;  -10.912;  637.670
433.782;    7.939;  -11.172;  590.395
434.373;   14.900;   -6.061;  884.765
434.964;   14.186;   -8.251;  602.920
435.556;   12.075;   -9.722;  634.537
436.147;   15.929;   -9.082;  758.490
436.738;   14.352;   -8.041;  701.099
437.329;   20.178;   -7.341;  721.723
437.920;   13.061;   -8.162;  666.688
438.511;   12.861;  -11.802;  564.526
439.103;   19.089;  -10.191;  623.998
439.694;   21.362;   -7.601;  681.583
440.285;   21.791;   -8.541;  764.432
440.876;   20.514;   -9.751;  845.738
441.466;   19.467;   -9.401;  575.162
442.057;   24.396;   -7.760;  665.814
442.648;   24.345;   -9.971;  746.255
443.239;   22.382;  -11.001;  620.477
443.830;   26.107;   -7.990;  704.958
444.421;   28.442;   -7.910;  655.474
445.011;   24.811;   -8.131;  693.619
445.602;   24.667;   -7.111;  743.126
446.193;   26.129;  -10.920;  488.117
446.783;   30.860;   -6.500;  640.397
447.374;   26.924;   -8.671;  692.759
447.964;   27.492;  -10.781;  713.770
448.555;   35.465;   -9.650;  822.742
449.145;   31.761;   -8.660;  662.853
449.736;   32.808;   -8.990;  803.179
450.326;   32.619;   -9.500;  713.626
450.917;   37.789;   -8.680;  675.324
451.507;   37.368;   -7.520;  600.661
452.097;   37.901;   -8.590;  746.267
452.688;   38.297;  -11.340;  742.160
453.278;   38.242;  -10.100;  566.840
453.868;   42.235;   -6.019;  793.550
454.458;   41.058;   -9.440;  651.141
455.048;   40.946;  -10.560;  711.783
455.639;   42.500;  -11.799;  567.096
456.229;   45.974;   -6.899;  710.694
456.819;   48.713;   -7.389;  751.158
457.409;   47.832;  -11.119;  773.993
457.999;   50.435;   -9.289;  737.505
458.589;   50.746;   -6.139;  686.606
459.179;   50.648;   -8.729;  717.658
459.769;   49.037;   -9.789;  627.099
460.358;   52.657;  -10.259;  797.262
460.948;   52.815;   -7.299;  689.503
461.538;   55.089;  -10.289;  660.677
462.128;   52.656;  -11.269;  664.934
462.717;   59.142;   -9.368;  710.326
463.307;   61.939;   -7.908;  705.846
463.897;   58.586;   -9.599;  656.942
464.486;   57.751;   -9.769;  837.128
465.076;   62.519;   -8.048;  733.776
465.666;   65.607;   -9.358;  652.900
466.255;   64.222;   -7.919;  785.651
466.845;   62.511;  -11.689;  666.749
467.434;   66.264;   -7.818;  725.873
468.023;   66.392;   -7.678;  658.357
468.613;   64.526;  -10.939;  713.946
469.202;   68.062;  -10.118;  646.507
469.791;   72.135;   -9.108;  737.811
470.381;   74.844;   -6.058;  742.813
470.970;   74.727;  -10.428;  711.099
471.559;   73.979;  -10.268;  733.291
472.148;   77.126;   -8.448;  675.737
472.738;   79.483;   -6.917;  765.466
473.327;   79.638;  -11.978;  637.529
473.916;   78.656;  -11.888;  737.446
474.505;   82.610;   -9.437;  751.703
475.094;   86.319;   -6.747;  806.570
475.683;   84.885;   -9.367;  797.699
476.272;   87.409;  -12.637;  730.632
476.861;   89.138;  -10.027;  706.754
477.449;   96.156;   -8.716;  728.487
478.038;   90.216;   -9.577;  692.513
478.627;   90.643;   -9.718;  714.852
479.216;   97.669;   -8.947;  769.441
479.805;  100.878;   -6.256;  783.375
480.393;  101.118;   -7.937; 1008.945
480.982;   99.141;   -7.717;  874.501
481.571;  105.351;   -9.266;  858.333
482.159;  106.259;   -7.636;  705.386
482.748;  106.768;   -9.667;  821.385
483.336;  110.914;  -10.376;  858.209
483.925;  110.641;   -7.147;  774.373
484.513;  117.769;   -7.996;  758.962
485.102;  114.712;  -10.027;  810.965
485.690;  123.609;  -10.446; 1011.050
486.278;  125.495;   -8.446;  979.329
486.867;  125.993;   -6.356;  809.662
487.455;  128.058;   -9.136;  898.229
488.043;  128.929;  -10.646;  748.361
488.631;  137.492;   -7.456; 1005.079
489.220;  139.982;   -6.636;  908.626
489.808;  141.341;  -11.036;  741.415
490.396;  148.904;  -10.246;  914.645
490.984;  155.142;   -8.556;  830.161
491.572;  164.755;   -5.886;  940.315
492.160;  170.565;   -9.486;  919.081
492.748;  182.380;  -10.976;  884.341
493.336;  204.978;   -8.776; 1019.693
493.924;  229.750;   -5.465;  958.077
494.512;  257.370;   -9.986; 1066.638
495.100;  291.938;  -10.636; 1103.280
495.687;  347.165;  -10.885; 1206.373
496.275;  409.520;   -8.126; 1150.796
496.863;  481.041;  -10.586; 1281.171
497.451;  578.701;  -11.926; 1386.805
498.038;  707.470;  -10.885; 1556.729
498.626;  812.333;   -6.315; 1741.407
499.214;  968.270;   -7.326; 2016.609
499.801; 1164.093;  -11.906; 2220.633
500.389; 1398.011;  -10.466; 2312.494
500.976; 1689.146;   -5.236; 2744.849
501.564; 2117.790;   -8.936; 3148.565
502.151; 2469.159;  -13.176; 3515.999
502.738; 2880.709;  -10.646; 3971.274
503.326; 3274.063;   -9.525; 4403.796
503.913; 3673.109;  -10.856; 5161.749
504.500; 4053.155;  -11.586; 5986.420
505.088; 4446.215;  -10.336; 6381.201
505.675; 4964.277;   -6.355; 6925.547
506.262; 5637.030;   -9.046; 7619.060
506.849; 6371.525;  -10.416; 8733.969
507.436; 6914.086;  -10.305; 9790.121
508.023; 7481.274;   -5.496; 9985.472
508.610; 7698.794;   -7.856;10434.618
509.197; 8305.037;  -10.097;11198.435
509.784; 9599.979;  -10.886;12391.194
510.371;10767.584;   -9.315;13603.713
510.958;11591.014;   -9.936;14426.586
511.545;12302.653;   -9.326;15243.775
512.132;13023.436;  -10.075;15945.876
512.719;13509.407;   -7.796;16340.369
513.305;14656.341;  -10.606;18011.766
513.892;15384.374;  -11.486;19754.971
514.479;16542.609;   -9.126;20967.805
515.066;18010.180;   -6.026;22299.793
515.652;19543.158;   -8.466;22908.660
516.239;20724.211;  -10.886;23798.875
516.825;21568.209;  -11.496;25567.275
517.412;22605.916;   -5.796;28154.959
517.998;23330.279;  -10.506;28344.111
518.585;23408.623;  -10.076;27134.219
519.171;24027.424;   -8.315;27268.576
519.758;25818.912;   -8.596;28964.129
520.344;27767.662;   -8.466;30664.494
520.930;27512.438;  -11.006;32550.605
521.516;28375.432;  -10.495;35422.895
522.103;30233.904;   -5.526;38280.004
522.689;30743.295;   -8.746;37835.117
523.275;30344.387;  -11.376;37288.613
523.861;31961.324;  -11.156;37281.395
524.447;33625.133;   -8.135;37846.949
525.033;33450.496;   -7.896;38321.949
525.619;33619.418;  -12.476;38579.285
526.205;34772.883;   -9.516;40622.875
526.791;37269.863;   -6.926;42258.836
527.377;37165.219;   -8.346;42966.902
527.963;38052.008;   -8.717;42018.949
528.549;37178.656;  -11.016;42476.828
529.135;35596.793;   -8.536;41854.852
529.721;33916.684;   -9.666;41237.711
530.306;32173.252;  -10.066;41259.445
530.892;30425.439;  -11.356;41506.047
531.478;30987.820;   -6.596;43559.613
532.063;35430.371;   -8.836;47695.563
532.649;38337.699;  -10.047;50808.324
533.235;39481.738;   -9.746;51787.500
533.820;39276.832;   -6.566;52145.035
534.406;39447.934;  -10.817;51133.488
534.991;37374.711;   -9.416;49996.805
535.576;33308.016;   -9.036;48882.852
536.162;32176.701;   -6.156;46942.285
536.747;34334.555;  -11.607;45711.746
537.333;40652.500;  -11.787;48510.180
537.918;47410.641;  -12.437;50439.891
538.503;49164.590;   -7.196;50863.711
539.088;46635.480;  -10.556;50906.922
539.673;46512.449;   -8.767;52621.965
540.259;47057.719;  -10.026;52368.094
540.844;44630.012;   -7.416;50879.109
541.429;46406.945;   -9.467;52077.777
542.014;48570.453;   -9.527;52716.695
542.599;47510.266;   -9.946;52363.281
543.184;44524.531;   -7.927;53187.137
543.769;45607.621;   -9.297;54697.605
544.354;45678.297;  -10.127;53913.914
544.938;44286.594;   -9.267;49680.164
545.523;45951.836;   -6.506;47386.277
546.108;48951.836;   -9.787;49151.949
546.693;50796.914;  -11.587;51384.637
547.278;50782.918;  -10.986;51853.254
547.862;47921.238;   -8.206;51173.750
548.447;43522.703;  -10.067;51691.395
549.031;42607.746;   -9.637;52456.703
549.616;47190.410;   -9.926;52714.516
550.201;47091.668;   -6.347;52414.598
550.785;48339.184;   -7.917;52355.059
551.370;47331.688;  -10.867;54589.453
551.954;46374.590;   -9.047;58267.348
552.538;47114.262;   -7.827;59062.176
553.123;45662.711;  -10.287;58115.285
553.707;43401.445;  -12.178;56556.285
554.291;45018.051;   -8.717;56201.668
554.876;48160.930;   -7.457;55335.762
555.460;48042.941;  -10.387;54155.703
556.044;48328.051;   -9.618;53721.484
556.628;46474.816;  -11.567;53731.016
557.212;45353.703;   -8.097;54312.531
557.796;43937.625;  -11.077;53797.773
558.380;44179.141;  -11.108;56145.984
558.964;44583.578;   -9.057;57277.930
559.548;45677.211;   -6.977;56459.641
560.132;43656.441;  -11.457;54434.543
560.716;41990.832;  -11.378;54800.617
561.300;42978.156;   -9.577;57606.945
561.884;44198.371;   -7.127;58972.445
562.467;42247.871;   -7.118;57327.570
563.051;41390.020;  -13.358;54962.434
563.635;42949.996;  -10.178;52594.473
564.219;43515.363;   -7.837;50610.410
564.802;44211.715;  -11.398;49551.180
565.386;43822.145;  -12.788;48370.953
565.969;43132.605;   -9.077;48178.871
566.553;41803.711;   -6.207;49957.305
567.136;42623.887;   -8.568;50369.594
567.720;39541.113;  -11.868;49492.004
568.303;37393.195;   -8.268;50616.352
568.887;37294.848;   -8.698;50727.148
569.470;37949.125;   -6.808;51698.379
570.053;37146.566;  -13.188;52122.078
570.637;34961.359;  -12.037;52536.438
571.220;34707.043;   -8.577;51186.098
571.803;35641.000;   -8.498;51032.762
572.386;37730.434;  -10.498;49609.887
572.969;40162.688;   -9.388;48285.926
573.552;38821.844;   -8.338;47624.285
574.135;37352.438;   -8.518;45498.641
574.718;34719.082;  -13.628;41970.434
575.301;34107.145;  -10.893;41447.137
575.884;33495.211;   -8.158;40923.836
576.467;34471.195;  -10.328;45267.723
577.050;35662.492;  -13.058;48175.543
577.633;36981.258;   -9.458;47729.328
578.216;36427.770;   -8.928;47579.793
578.799;35656.676;   -9.358;47820.996
579.381;34748.680;  -11.388;48115.551
579.964;32531.094;  -11.718;47333.766
580.547;34326.297;   -8.588;46668.969
581.129;35240.254;   -8.859;44466.141
581.712;36225.188;  -10.729;44164.922
582.294;36732.891;  -11.118;46477.855
582.877;36696.754;   -5.218;48244.254
583.459;34959.566;   -8.679;47437.895
584.042;32688.184;  -10.709;46943.219
584.624;32407.096;  -11.669;46792.227
585.206;32293.969;   -8.218;46557.250
585.789;32580.840;  -10.569;45793.773
586.371;34937.223;  -11.859;43836.391
586.953;35679.902;  -10.719;42972.492
587.536;36786.863;   -7.198;42487.211
588.118;37501.473;   -8.720;42086.414
588.700;33558.613;  -10.439;43389.930
589.282;32473.570;   -9.198;43646.039
589.864;33381.770;   -9.199;43438.109
590.446;34736.262;  -11.319;43151.926
591.028;34659.832;  -11.159;42781.867
591.610;33256.859;  -11.779;42839.098
592.192;30438.611;   -7.668;42820.402
592.774;29030.207;  -11.949;40724.277
593.356;28097.875;  -12.129;39874.789
593.937;27240.072;  -10.669;39980.648
594.519;29394.480;   -6.509;42069.633
595.101;31364.646;  -10.849;42976.031
595.683;31427.533;  -11.679;44084.441
596.264;32298.266;   -9.049;43478.797
596.846;32150.627;   -8.849;43803.672
597.427;32115.121;   -9.570;42986.934
598.009;33319.004;  -12.620;42832.219
598.591;33795.973;  -10.039;42580.086
599.172;33548.063;  -10.369;43061.805
599.753;33812.867;   -9.140;41691.469
600.335;35055.098;  -11.430;40692.520
600.916;33050.793;   -9.939;39982.422
601.498;30798.648;   -8.479;40318.617
602.079;29396.990;  -10.920;40670.609
602.660;29071.508;  -11.480;41450.898
603.241;30785.377;  -11.699;41137.738
603.823;29556.613;   -9.579;38868.797
604.404;28625.412;  -10.620;38182.785
604.985;30455.910;  -10.450;38078.047
605.566;30633.883;   -9.129;38056.633
606.147;30683.729;   -7.510;37020.418
606.728;32077.643;  -10.660;37883.359
607.309;30549.566;  -11.740;38748.273
607.890;30293.775;   -9.759;38850.230
608.471;29887.025;   -8.250;37457.918
609.051;29233.139;   -9.240;36066.457
609.632;28085.498;  -12.120;35991.074
610.213;28201.186;   -9.110;37402.641
610.794;29095.939;   -8.030;38383.363
611.374;29101.930;   -8.110;40562.387
611.955;30024.156;  -13.560;38533.727
612.536;31525.063;  -11.400;36951.789
613.116;31083.400;   -8.070;37197.891
613.697;31279.092;  -10.830;38411.125
614.277;29268.824;  -11.641;38673.938
614.858;29924.660;  -13.310;37075.863
615.438;29581.701;   -7.460;35092.906
616.019;27425.176;   -7.601;33666.301
616.599;27736.404;  -12.020;34189.023
617.179;29382.266;  -11.780;36952.047
617.760;30528.977;   -8.570;39582.574
618.340;31421.213;  -11.471;38943.977
618.920;32371.461;  -11.170;37594.156
619.500;32385.414;  -11.071;37866.938
620.080;31418.877;   -7.750;37869.043
620.660;32421.777;  -12.711;36868.617
621.241;34054.902;  -10.211;36352.309
621.821;34534.266;  -10.961;35459.520
622.401;33437.000;   -7.720;35207.414
622.980;32409.332;   -8.981;35980.422
623.560;30966.021;   -9.331;37351.328
624.140;29520.588;   -9.850;34388.582
624.720;24719.338;   -7.451;32368.764
625.300;21397.043;   -9.070;32638.629
625.880;24752.195;  -12.601;34599.035
626.459;28753.465;  -11.751;36831.738
627.039;31614.563;   -9.281;38299.098
627.619;31581.973;   -8.801;38289.574
628.198;30116.088;  -12.071;37220.695
628.778;29163.338;   -9.461;37632.563
629.357;29832.621;   -8.491;38003.012
629.937;29886.393;   -9.721;38402.039
630.516;29362.746;   -9.951;37868.801
631.096;29207.045;  -11.731;35760.410
631.675;31350.199;   -8.572;35225.219
632.254;36400.488;  -11.282;35130.289
632.834;35948.926;  -13.322;35794.570
633.413;34195.523;  -10.301;35788.922
633.992;31883.439;   -8.582;34532.863
634.571;32491.008;   -8.352;33590.113
635.151;35291.246;  -11.912;34943.863
635.730;33929.133;  -10.511;35352.523
636.309;30391.201;   -7.731;35366.605
636.888;27768.023;   -9.952;36165.637
637.467;28161.549;  -11.672;37515.902
638.046;29701.160;   -8.901;39288.695
638.625;32641.285;   -7.912;38279.699
639.204;32521.201;  -10.022;37741.598
639.782;31402.287;  -12.252;38364.551
640.361;27779.471;  -10.041;36740.621
640.940;25130.123;  -11.161;34950.082
641.519;25950.160;   -9.701;34137.398
642.097;28645.846;  -11.271;35654.258
642.676;31382.631;   -8.651;35637.957
643.255;32574.898;   -8.711;36567.074
643.833;31865.174;   -9.581;37809.434
644.412;31709.156;  -13.711;37337.293
644.990;30582.252;  -11.811;37018.531
645.569;30325.512;   -9.411;36518.469
646.147;29971.879;  -10.291;36186.430
646.726;30200.326;  -12.401;36267.688
647.304;31288.883;  -10.411;36647.625
647.882;32740.545;   -9.651;39286.742
648.461;34387.559;   -9.631;39157.703
649.039;32724.238;  -11.881;35412.883
649.617;31589.191;   -9.661;34744.918
650.195;30888.570;   -9.301;35403.098
650.773;29641.156;  -10.511;35053.797
651.352;27269.178;  -11.521;33756.816
651.930;24875.928;  -12.211;31868.773
652.508;23346.287;   -9.171;33121.551
653.086;27108.127;   -9.371;33564.793
653.663;30218.918;  -13.161;34054.668
654.241;28908.768;  -13.031;35693.309
654.819;30369.809;   -9.371;36422.906
655.397;30431.223;  -10.511;38213.484
655.975;29811.932;  -10.371;39507.625
656.553;29473.627;  -10.051;39498.223
657.130;28128.166;  -10.061;40395.480
657.708;27449.857;   -9.561;39242.020
658.286;27633.930;  -11.511;38920.020
658.863;28914.691;  -10.261;40202.898
659.441;32232.904;   -7.531;39677.938
660.018;32225.559;   -9.501;40413.355
660.596;30723.068;  -13.301;39931.414
661.173;32184.230;  -11.211;39604.531
661.750;32581.176;   -9.951;39700.070
662.328;31511.604;   -9.390;39292.809
662.905;30632.381;  -11.330;38235.648
663.482;26531.098;   -9.050;36212.305
664.060;24521.453;   -8.240;35944.945
664.637;27317.227;  -10.050;35170.785
665.214;28729.658;  -11.760;34197.523
665.791;30400.313;  -10.530;34549.520
666.368;29668.777;   -9.690;35118.578
666.945;29996.811;   -9.320;36019.418
667.522;31443.061;  -11.860;36048.438
668.099;31189.307;  -10.770;36243.914
668.676;29914.727;   -6.260;35958.875
669.253;28652.777;   -7.000;37384.730
669.830;29044.324;  -10.190;36779.629
670.407;29000.207;   -9.550;35231.289
670.984;28727.955;   -9.260;35544.270
671.560;29500.121;   -9.280;35466.867
672.137;28861.813;  -11.810;34280.863
672.714;29775.074;  -11.490;34632.863
673.290;30999.469;   -7.740;35135.422
673.867;31029.033;  -10.660;36114.480
674.443;31035.211;  -12.230;36152.859
675.020;29011.865;  -10.450;35327.238
675.596;29892.207;   -9.260;35795.176
676.173;30472.381;  -10.780;35430.355
676.749;30030.193;  -13.690;33549.516
677.326;29838.244;  -11.980;32210.012
677.902;29872.600;   -8.630;32068.871
678.478;29240.000;  -10.730;32583.891
679.054;28291.770;  -10.520;32088.928
679.631;28653.586;  -11.920;30978.848
680.207;30112.662;   -7.490;33160.887
680.783;31614.381;   -9.860;35570.363
681.359;30744.285;  -13.380;36125.184
681.935;30487.357;  -12.480;35240.922
682.511;30470.844;   -7.900;34429.961
683.087;30865.271;   -7.710;34463.680
683.663;30164.770;  -11.480;34648.898
684.239;28647.936;  -14.090;34546.457
684.815;27871.457;   -7.560;35586.375
685.390;28045.748;   -9.910;35821.895
685.966;28602.408;  -11.159;35085.871
686.542;30965.432;  -11.169;34198.230
687.118;33388.820;   -5.959;32847.707
687.693;33963.742;  -10.329;32794.027
688.269;33631.211;  -12.059;33072.367
688.844;31852.750;  -10.909;33141.664
689.420;29866.232;   -8.019;33965.742
689.995;28047.699;   -8.399;34655.523
690.571;26642.246;  -10.949;33576.742
691.146;26604.240;   -9.619;32657.219
691.722;26396.012;   -8.999;32526.979
692.297;26061.596;  -11.589;33014.617
692.872;27458.383;  -11.739;34012.254
693.448;27278.193;  -11.059;34237.434
694.023;26317.723;  -10.139;34142.672
694.598;28227.320;   -9.029;34132.031
695.173;28938.174;  -13.319;34205.250
695.748;27992.213;  -10.169;32882.488
696.323;27974.543;   -8.339;32864.906
696.898;28228.137;   -8.169;33170.004
697.473;28443.869;  -12.309;32432.984
698.048;27760.689;  -10.989;31649.303
698.623;27304.553;   -9.329;30778.141
699.198;28744.141;   -9.849;31140.119
699.773;30116.307;  -12.329;31764.299
700.348;28848.984;  -10.389;31780.816
700.922;28856.775;   -9.269;32046.375
701.497;29916.281;   -9.329;32603.574
702.072;30227.811;  -10.789;34799.871
702.646;28886.850;  -10.839;35793.172
703.221;26581.670;   -9.099;35201.590
703.795;28534.342;  -10.939;34764.527
704.370;29137.662;  -12.859;34307.367
704.944;29241.406;  -11.559;33509.887
705.519;29842.387;   -7.939;31388.584
706.093;31014.244;  -10.499;31340.104
706.668;31497.682;  -11.289;32630.281
707.242;30454.205;  -11.509;32728.779
707.816;29168.971;   -9.639;32947.238
708.390;27633.219;  -11.429;33277.855
708.965;27919.967;  -11.869;33834.336
709.539;27668.658;  -11.689;33709.273
710.113;27825.260;  -10.478;33044.313
710.687;27557.566;  -10.228;31953.992
711.261;26092.602;  -13.698;30505.949
711.835;25926.664;  -13.378;30262.369
712.409;26321.055;   -9.698;31254.447
712.983;28465.324;  -11.898;32754.986
713.557;29859.635;  -15.138;34018.824
714.131;29526.332;  -14.098;34579.625
714.704;28440.939;   -9.958;33890.262
715.278;26065.588;  -10.028;33531.102
715.852;24803.107;  -11.148;33601.660
716.425;25695.260;   -9.068;33515.117
716.999;26829.537;  -10.038;33185.555
717.573;27840.156;   -9.798;33905.996
718.146;28839.512;  -12.378;35199.293
718.720;28946.572;  -11.918;35060.551
719.293;28633.631;   -8.088;34973.230
719.867;31553.525;  -10.888;36394.449
720.440;31533.402;  -11.938;36663.008
721.013;29796.057;  -12.818;35102.426
721.587;28215.201;  -10.298;33985.266
722.160;26935.826;  -10.048;33524.965
722.733;25852.990;  -12.108;32987.043
723.306;26137.645;  -10.818;33066.301
723.880;28384.270;   -8.908;33399.500
724.453;30815.287;   -9.878;33468.297
725.026;30227.850;  -11.188;33816.637
725.599;27361.482;  -11.678;32797.996
726.172;27079.596;   -9.618;33187.434
726.745;27993.020;   -8.258;35136.613
727.318;29206.164;  -12.978;35751.730
727.891;29987.424;  -12.148;35890.430
728.463;29528.666;   -8.968;34822.090
729.036;28127.383;  -10.188;32895.086
729.609;28652.498;  -11.788;31823.225
730.182;26010.977;  -11.788;31445.283
730.754;23667.828;  -10.268;32373.223
731.327;23868.170;   -9.998;33676.820
731.900;24038.393;  -12.228;33417.000
732.472;24786.824;  -13.848;31978.498
733.045;26542.137;   -8.698;30368.777
733.617;26684.566;  -10.607;30574.215
734.190;26986.211;  -11.507;31280.975
734.762;24671.352;  -13.647;31674.412
735.334;22682.467;   -9.767;31247.291
735.907;22978.564;   -9.897;29876.211
736.479;23336.988;  -11.637;29808.488
737.051;23130.486;   -9.567;30233.547
737.623;23776.010;   -8.187;31469.086
738.195;24031.832;  -11.187;31784.225
738.768;25912.809;  -12.337;32120.523
739.340;26872.207;  -12.227;32094.342
739.912;26109.654;  -11.057;31312.680
740.484;24670.410;  -10.207;31946.238
741.056;22958.484;  -10.047;32984.059
741.628;24167.904;  -13.627;33897.715
742.199;26334.824;   -7.177;33213.016
742.771;24831.164;  -10.797;31369.113
743.343;22701.410;  -11.997;31865.473
743.915;21822.779;  -12.867;32388.631
744.487;21817.947;   -7.617;31079.568
745.058;21976.252;   -9.557;30570.107
745.630;22523.406;   -9.877;29970.127
746.201;23738.619;  -14.177;29186.766
746.773;24624.814;   -9.237;28805.723
747.344;24493.514;   -9.847;29591.223
747.916;22713.486;  -11.657;31412.201
748.487;22593.301;  -10.587;32194.898
749.059;23814.789;   -8.707;32533.719
749.630;24615.443;  -10.537;32158.518
750.201;23679.500;  -11.687;30855.395
750.773;21873.283;  -11.647;28622.555
751.344;21584.168;   -7.147;28405.732
751.915;22619.391;   -9.757;28461.551
752.486;22897.117;  -12.427;27842.850
753.057;20866.910;  -12.227;27845.008
753.628;19584.412;  -10.417;27728.107
754.199;20455.936;  -11.767;27381.086
754.770;21451.467;  -11.187;25882.203
755.341;21628.379;  -10.507;25886.184
755.912;21949.820;   -9.387;26050.861
756.483;21594.621;  -10.647;26798.779
757.054;19844.975;  -11.837;27048.238
757.625;18375.703;  -12.716;26294.838
758.195;18048.027;   -9.666;26142.076
758.766;17742.041;   -8.656;26392.234
759.337;18349.324;  -12.856;26334.594
759.907;19764.713;  -13.366;27579.652
760.478;20651.699;   -8.576;28352.770
761.048;20177.494;  -10.526;27325.088
761.619;19223.309;  -11.116;26460.428
762.189;19287.686;  -12.136;26029.826
762.760;20219.951;   -9.456;26430.145
763.330;21480.365;   -7.136;26670.902
763.900;21209.541;  -11.786;26603.021
764.471;18794.617;  -11.546;25542.740
765.041;17347.582;   -8.096;24358.459
765.611;17180.223;   -8.876;23991.297
766.181;17466.502;  -12.196;24470.236
766.751;18559.680;  -11.636;24845.975
767.321;18420.482;  -10.156;24533.633
767.891;16518.154;  -11.766;24916.492
768.461;15927.151;  -14.936;24776.771
769.031;16395.275;  -12.356;24757.988
769.601;18066.498;   -7.526;24181.088
770.171;18175.197;  -10.766;23670.387
770.741;17220.350;  -13.176;22960.045
771.311;17219.635;  -10.616;22917.523
771.880;17803.912;   -9.576;23562.941
772.450;17690.213;  -10.336;24216.500
773.020;17549.623;  -13.516;24140.398
773.589;16655.336;  -13.466;24414.857
774.159;15907.609;   -8.686;23858.717
774.729;15567.066;   -9.476;22942.135
775.298;15263.605;  -13.666;22324.033
775.867;14829.721;  -11.716;21140.313
776.437;15009.340;   -9.906;20838.092
777.006;14858.191;  -12.166;20599.510
777.576;14557.663;  -12.356;20508.809
778.145;14484.011;  -11.646;20732.947
778.714;14486.709;   -8.226;21062.465
779.283;13925.774;   -9.556;20949.664
779.853;13340.844;  -14.116;20508.623
780.422;13778.386;  -11.506;20649.082
780.991;13407.133;   -9.556;21527.520
781.560;12161.359;   -9.095;22632.658
782.129;11930.856;  -12.135;23048.277
782.698;11952.678;  -10.865;23438.555
783.267;11542.051;   -9.335;23267.734
783.836;11397.721;  -11.045;22415.133
784.404;12346.130;  -13.865;20443.152
784.973;13046.811;  -13.095;19699.150
785.542;13138.345;  -11.575;19763.828
786.111;12982.064;   -9.705;20341.408
786.679;12465.791;  -12.105;20207.967
787.248;12151.591;  -12.455;19516.465
787.817;11984.138;  -11.535;18900.363
788.385;11664.329;   -9.765;17879.121
788.954;11160.924;  -14.005;17658.301
789.522;10553.099;  -11.955;17788.879
790.090;10991.922;  -10.135;18118.277
790.659;11596.301;  -10.975;18338.736
791.227;11157.715;  -13.375;18508.615
791.795;11488.206;  -12.375;17898.254
792.364;11853.547;  -10.725;17295.133
792.932;12270.106;   -9.715;16822.051
793.500;12540.344;  -12.675;17040.148
794.068;12768.581;  -13.495;17179.787
794.636;12935.632;  -10.885;16664.246
795.204;12187.367;  -11.045;16524.545
795.772;12192.774;  -13.175;17274.564
796.340;11736.049;  -12.445;17891.002
796.908;11471.082;   -9.735;17648.561
797.476;11367.178;   -9.815;17064.080
798.044;10953.155;  -13.985;16672.777
798.612;10195.001;  -13.115;17023.996
799.180; 9794.652;  -10.185;16561.615
799.747; 9644.273;   -9.055;15962.773
800.315; 9366.136;  -12.385;15296.992
800.883; 9131.294;  -15.035;14801.771
801.450; 9324.316;  -10.365;14534.430
802.018; 9472.979;   -9.855;14173.248
802.585; 9484.157;  -11.905;14029.547
803.153; 9432.520;  -11.585;13836.846
803.720; 9233.353;   -9.095;13567.324
804.287; 8750.996;   -9.135;13360.622
804.855; 8254.374;  -11.604;13681.981
805.422; 8153.203;  -11.794;13536.560
805.989; 8258.450;  -10.734;13355.958
806.556; 8447.202;  -10.444;13747.896
807.124; 8675.227;  -12.764;13987.376
807.691; 8627.228;  -12.964;14038.674
808.258; 8448.270;  -11.134;14120.152
808.825; 8110.242;   -9.854;13860.111
809.392; 8222.823;  -10.504;13268.790
809.959; 7774.385;  -13.054;12680.389
810.526; 7257.377;   -8.294;12427.308
811.093; 7219.821;   -8.394;12030.105
811.659; 7858.084;  -12.304;11653.664
812.226; 8458.306;  -13.944;11637.183
812.793; 8220.518;  -10.484;11611.521
813.360; 7571.488;  -10.144;11885.181
813.926; 7233.423;  -11.684;12770.539
814.493; 7027.303;  -13.644;12677.638
815.060; 6625.775;   -9.724;11974.336
815.626; 6567.611;   -9.854;11594.715
816.193; 6944.284;  -13.254;11579.474
816.759; 6974.456;  -13.204;11666.972
817.325; 6982.570;   -9.434;11325.530
817.892; 7303.929;  -10.134;11105.369
818.458; 7741.789;  -13.474;10843.928
819.024; 7399.644;  -11.854;10714.406
819.591; 7089.510;  -10.244;10469.165
820.157; 6889.154;  -10.704;10235.523
820.723; 6354.868;  -12.324;10847.563
821.289; 6046.917;   -9.444;11040.980
821.855; 5998.893;   -8.374;10357.100
822.421; 5990.639;  -10.234; 9978.918
822.987; 5983.585;  -13.294; 9754.177
823.553; 5602.580;  -10.884;10065.755
824.119; 5371.877;   -8.884;10036.294
824.685; 5516.542;   -6.784;10029.192
825.251; 5656.000;  -12.004;10199.230
825.816; 5606.495;  -11.474; 9820.189
826.382; 5328.439;   -9.174; 9297.248
826.948; 5457.966;   -9.214; 9381.347
827.513; 5873.240;  -10.774; 9450.726
828.079; 5750.020;  -11.924; 9472.444
828.645; 5135.926;  -10.543; 9292.643
829.210; 4933.443;  -10.533; 9065.341
829.776; 4900.395;  -10.753; 9132.620
830.341; 4787.891;  -10.173; 9092.878
830.906; 4937.906;  -10.743; 9078.557
831.472; 5299.796;  -11.113; 8534.535
832.037; 5138.945;  -10.603; 8677.874
832.602; 4634.560;  -13.323; 8628.692
833.167; 4374.953;  -10.823; 8879.031
833.733; 4317.081;  -10.113; 9189.790
834.298; 4457.032;  -13.583; 9052.608
834.863; 4585.543;  -12.703; 8895.087
835.428; 4596.667;  -10.523; 8824.266
835.993; 4427.769;   -6.963; 8845.385
836.558; 4220.201;  -10.763; 8888.563
837.123; 4267.659;   -9.903; 8966.582
837.688; 4513.547;   -9.913; 8617.860
838.253; 4794.542;  -10.283; 8590.699
838.817; 4991.885;  -12.963; 8443.797
839.382; 4924.410;  -14.243; 8799.356
839.947; 4619.746;  -10.733; 8810.595
840.511; 4336.916;   -9.383; 8796.394
841.076; 3951.692;  -12.563; 8347.231
841.641; 3992.858;  -12.953; 8224.330
842.205; 4094.355;   -7.043; 8223.349
842.770; 4118.192;   -8.163; 8622.107
843.334; 4242.906;  -12.503; 8410.386
843.898; 4186.231;  -11.693; 8337.465
844.463; 4181.878;  -10.203; 8506.283
845.027; 3991.117;   -9.533; 8280.962
845.591; 3808.671;  -13.443; 8231.141
846.156; 3826.450;  -13.143; 7969.179
846.720; 3742.045;   -9.433; 7768.278
847.284; 3630.496;  -11.033; 7630.957
847.848; 3492.028;  -10.403; 7472.395
848.412; 3409.916;  -11.553; 7437.394
848.976; 3461.394;   -8.393; 7674.592
849.540; 3374.756;   -8.713; 7836.011
850.104; 3416.289;  -12.463; 7913.669
850.668; 3776.584;  -12.973; 7694.508
851.232; 3954.084;  -10.793; 7756.887
851.796; 3831.124;  -10.662; 7926.545
852.359; 3517.551;  -13.082; 7827.844
852.923; 3328.047;  -12.192; 7641.163
853.487; 3167.520;  -11.912; 7342.501
854.050; 3149.731;  -10.892; 7042.820
854.614; 3307.923;  -13.992; 7151.338
855.177; 3425.968;  -11.732; 7105.077
855.741; 3454.756;   -8.962; 6989.675
856.304; 3349.801;   -9.442; 6596.634
856.868; 3318.610;  -14.192; 6356.272
857.431; 3420.719;  -12.702; 6468.571
857.995; 3535.322;   -9.942; 6373.210
858.558; 3559.432;   -9.112; 6324.448
859.121; 3295.432;  -12.932; 6408.327
859.684; 3129.664;  -13.442; 6347.886
860.247; 3239.797;  -10.632; 6321.264
860.810; 3284.416;  -11.272; 6301.903
861.374; 3051.707;   -9.832; 6607.881
861.937; 2787.193;  -11.762; 6408.200
862.500; 2784.555;   -9.722; 6572.639
863.062; 2941.087;  -10.512; 6387.297
863.625; 3096.195;  -11.232; 6190.836
864.188; 3261.851;  -14.112; 5807.254
864.751; 3341.045;  -11.302; 5682.413
865.314; 3249.023;  -10.112; 5547.492
865.876; 3013.774;  -12.182; 5500.150
866.439; 2964.376;  -10.722; 5415.909
867.002; 2924.039;   -9.252; 5501.567
867.564; 2740.934;   -9.572; 5413.946
868.127; 2536.140;  -13.142; 5160.325
868.689; 2415.197;  -12.902; 5133.183
869.252; 2306.156;   -9.732; 5252.382
869.814; 2200.535;   -9.432; 5297.141
870.377; 2199.392;  -11.552; 5390.919
870.939; 2264.299;   -9.052; 5599.898
871.501; 2341.819;  -10.982; 5248.336
872.063; 2357.124;  -12.292; 4854.235
872.626; 2295.025;  -14.912; 4817.074
873.188; 2288.104;  -13.112; 4987.732
873.750; 2267.125;  -13.442; 4868.651
874.312; 2174.991;   -9.402; 4779.330
874.874; 2092.073;  -11.062; 4866.348
875.436; 2011.926;  -13.931; 4718.887
875.998; 2008.447;   -9.561; 4660.005
876.560; 2040.268;  -11.321; 4462.964
877.122; 1984.041;  -12.221; 4145.042
877.683; 1873.733;  -12.191; 4056.481
878.245; 1788.370;  -12.101; 3950.740
878.807; 1827.705;   -8.971; 4058.958
879.369; 1862.607;  -12.071; 3954.677
879.930; 1774.183;  -14.621; 3941.495
880.492; 1706.724;  -10.311; 4067.014
881.053; 1677.371;  -10.901; 3859.633
881.615; 1578.201;  -14.411; 3776.071
882.176; 1477.429;  -13.761; 3734.750
882.738; 1421.315;   -9.181; 3678.489
883.299; 1392.141;  -11.791; 3405.407
883.860; 1375.880;  -13.121; 3351.106
884.422; 1369.705;  -11.211; 3394.044
884.983; 1363.785;  -10.091; 3166.443
885.544; 1345.641;   -8.461; 3189.802
886.105; 1282.701;  -12.361; 3160.360
886.666; 1119.693;  -14.141; 3093.059
887.227;  879.416;  -11.361; 2941.957
887.788;  668.455;  -11.401; 2974.836
888.349;  552.759;  -13.791; 2721.214
888.910;  541.088;  -13.191; 2696.493
889.471;  567.295;   -9.881; 2560.172
890.032;  591.129;   -9.881; 2558.190
890.593;  605.400;  -10.371; 2567.669
891.153;  613.808;  -13.301; 2460.307
891.714;  602.452;  -11.431; 2372.046
892.275;  594.924;  -11.291; 2309.505
892.835;  580.921;  -11.471; 2382.543
893.396;  550.110;  -11.541; 2295.502
893.956;  507.459;  -11.181; 2162.420
894.517;  476.751;  -11.741; 2125.439
895.077;  473.119;  -11.671; 2086.978
895.638;  477.405;  -11.311; 2126.316
896.198;  455.106;   -9.831; 1838.275
896.758;  419.570;   -8.421; 1892.813
897.319;  392.113;  -12.351; 1792.232
897.879;  379.106;  -13.511; 1762.751
898.439;  357.550;  -12.001; 1661.149
898.999;  336.831;  -10.180; 1781.468
899.559;  328.467;  -12.030; 1703.347
900.119;  324.696;  -15.710; 1537.525
900.679;  320.894;   -8.900; 1638.384
901.239;  306.903;   -8.340; 1527.902
901.799;  298.276;  -13.910; 1456.441
902.359;  292.618;  -13.460; 1357.140
902.919;  286.807;  -11.490; 1331.118
903.479;  275.911;  -12.110; 1317.257
904.038;  256.238;  -11.720; 1262.595
904.598;  241.949;  -13.610; 1152.034
905.158;  238.808;  -11.040; 1240.893
905.717;  232.396;  -10.900; 1233.691
906.277;  221.610;  -15.080; 1217.330
906.836;  209.965;  -13.380; 1222.408
907.396;  201.053;  -10.780; 1193.047
907.955;  194.740;   -8.500; 1182.526
908.515;  188.855;  -12.760; 1099.364
909.074;  183.539;  -11.900; 1092.863
909.633;  178.278;   -8.950; 1069.121
910.192;  174.581;   -8.770; 1196.460
910.752;  170.551;  -12.390; 1029.960
911.311;  165.611;  -13.680; 1009.780
911.870;  163.508;  -12.370;  971.460
912.429;  165.121;  -10.900; 1094.080
912.988;  164.391;  -11.690; 1081.060
913.547;  159.789;  -13.240;  940.380
914.106;  155.221;  -11.990;  999.420
914.665;  153.023;   -9.990;  984.020
915.224;  151.709;  -12.880; 1035.760
915.782;  151.340;  -12.350;  922.560
916.341;  151.275;   -9.110; 1049.840
916.900;  147.097;   -9.270;  925.260
917.458;  145.435;  -13.240;  884.220
918.017;  145.189;  -13.550;  942.600
918.576;  145.406;  -12.320;  904.440
919.134;  143.580;  -11.490;  837.980
919.693;  140.870;  -13.670;  893.060
920.251;  138.658;  -15.470;  876.500
920.809;  138.177;  -11.290;  839.580
921.368;  138.921;  -10.210;  885.360
921.926;  138.149;  -12.140;  842.940
922.484;  135.857;  -13.080;  903.360
923.042;  135.248;  -11.720;  880.340
923.601;  138.467;   -7.480;  998.680
924.159;  137.704;  -11.570;  935.560
924.717;  133.163;  -13.840;  841.080
925.275;  133.027;  -10.640;  903.240
925.833;  132.734;  -11.540;  779.320
926.391;  133.853;  -12.960;  938.380
926.949;  131.891;  -14.130;  857.680
927.506;  132.607;  -11.750;  903.500
928.064;  133.628;  -10.250;  877.580
928.622;  132.339;  -13.030;  880.100
929.180;  131.853;  -13.400;  814.180
929.737;  132.664;  -10.700;  808.540
930.295;  136.103;  -10.070;  928.480
930.853;  137.560;  -11.960;  849.100
931.410;  138.116;  -13.120;  821.120
931.968;  137.414;  -10.770;  940.660
932.525;  137.253;  -10.680;  909.380
933.082;  138.036;  -13.130;  811.440
933.640;  138.728;  -13.210;  925.900
934.197;  137.324;  -11.060;  886.360
934.754;  138.429;   -9.580;  897.780
935.312;  140.700;  -14.000;  863.340
935.869;  145.245;  -10.710; 1012.980
936.426;  145.542;   -9.860;  872.800
936.983;  146.060;   -9.710;  889.020
937.540;  146.831;  -13.990;  838.280
938.097;  145.583;  -14.040;  940.120
938.654;  145.181;  -10.310;  898.860
939.211;  147.211;  -10.560;  952.480
939.768;  151.254;  -13.900;  915.420
940.324;  154.672;  -14.760;  904.200
940.881;  155.319;  -10.370;  878.500
941.438;  157.259;   -8.260; 1021.200
941.995;  153.865;  -12.540;  992.560
942.551;  150.433;  -14.670;  875.620
943.108;  150.130;  -10.450;  937.920
943.664;  152.709;  -10.750;  869.340
944.221;  157.492;  -11.550; 1088.140
944.777;  152.542;  -14.770;  869.680
945.334;  153.053;  -12.820;  884.840
945.890;  154.693;  -10.130;  946.480
946.446;  155.952;  -13.470;  947.020
947.003;  157.290;  -12.120;  964.940
947.559;  159.745;   -9.980; 1063.040
948.115;  159.596;   -9.080; 1026.540
948.671;  157.754;  -10.830;  967.300
949.227;  154.337;  -12.440;  859.560
949.783;  151.897;  -12.910;  858.900
950.339;  154.476;  -10.270;  991.000
950.895;  154.448;  -13.630; 1023.840
951.451;  152.369;  -15.100;  925.280
952.007;  153.124;  -11.330;  998.540
952.563;  153.366;  -10.580;  937.780
953.118;  152.275;  -13.440;  904.940
953.674;  150.932;  -12.710;  935.780
954.230;  150.530;  -10.350;  949.640
954.785;  148.943;   -9.190;  936.640
955.341;  146.896;  -11.200;  998.160
955.897;  143.899;  -16.560;  834.660
956.452;  145.886;  -12.570;  953.840
957.008;  145.541;   -7.970; 1083.640
957.563;  143.827;  -11.940; 1009.540
958.118;  137.846;  -13.450;  877.700
958.674;  138.455;  -12.030;  946.780
959.229;  139.866;   -9.410; 1013.980
959.784;  138.149;  -12.000;  832.400
960.339;  136.895;  -14.780; 1001.280
960.894;  133.335;   -9.860;  963.760
961.449;  129.961;   -9.970;  859.960
962.004;  130.032;  -10.900; 1212.840
962.559;  124.321;  -13.150;  860.140
963.114;  121.554;  -13.740;  742.480
963.669;  121.125;   -9.820;  915.500
964.224;  120.291;  -13.890;  874.340
964.779;  118.879;  -12.600;  828.420
965.334;  119.449;  -10.950; 1017.860
965.888;  119.039;  -11.170;  875.360
966.443;  123.107;  -12.540;  972.380
966.998;  121.617;  -15.780;  819.460
967.552;  120.873;   -9.760;  908.380
968.107;  117.788;   -9.060;  868.300
968.661;  119.242;  -11.950;  922.440
969.216;  118.276;  -12.800;  856.280
969.770;  117.971;  -11.210;  917.200
970.324;  117.129;  -11.610;  923.140
970.879;  115.383;  -11.370;  947.180
971.433;  111.082;  -12.540;  952.720
971.987;  106.346;  -11.320;  895.340
972.541;  103.367;  -10.720;  917.100
973.095;  103.476;   -9.680; 1009.460
973.649;  101.505;  -11.440;  809.480
974.203;  100.998;  -11.210;  829.040
974.757;  100.995;  -10.240;  855.220
975.311;  101.026;  -13.720;  872.600
975.865;   99.608;  -13.770;  881.820
976.419;   98.239;  -11.690;  857.400
976.973;   98.348;   -9.510;  849.620
977.526;  100.347;  -12.620;  949.920
978.080;   99.149;  -12.010;  796.780
978.634;   99.947;  -10.170;  921.320
979.187;   98.551;   -9.020;  905.400
979.741;   96.989;   -9.820; 1018.380
980.294;   90.648;  -14.870;  789.160
980.848;   88.576;  -12.380;  717.220
981.401;   91.048;  -10.350;  816.540
981.955;   93.872;  -13.720;  844.300
982.508;   92.172;  -11.490;  746.340
983.061;   92.198;  -10.000;  915.260
983.615;   88.360;  -11.480;  798.800
984.168;   85.544;  -13.220;  770.080
984.721;   84.795;  -13.960;  880.760
985.274;   83.525;  -10.870;  867.500
985.827;   83.062;   -9.790;  834.220
986.380;   80.878;  -13.120;  721.340
986.933;   79.854;  -12.450;  864.800
987.486;   76.730;  -10.210;  861.920
988.039;   77.139;   -8.430;  863.100
988.591;   75.733;  -10.520;  893.260
989.144;   72.795;  -14.860;  737.260
989.697;   71.272;  -13.080;  758.740
990.250;   72.861;  -10.150;  858.100
990.802;   71.346;  -13.430;  755.860
991.355;   72.523;  -12.750;  974.880
991.907;   69.537;  -12.040;  864.320
992.460;   66.552;  -11.330;  753.760
993.012;   66.906;  -13.610;  749.540
993.565;   65.938;  -13.460;  711.360
994.117;   67.873;   -9.360;  950.780
994.669;   64.677;  -11.300;  701.320
995.221;   62.877;  -13.540;  791.920
995.774;   60.233;  -13.430;  787.580
996.326;   58.681;  -12.520;  740.220
996.878;   58.494;  -10.950;  838.420
997.430;   57.432;  -14.300;  699.860
997.982;   55.725;  -13.760;  750.140
998.534;   54.622;  -11.530;  739.060
999.086;   54.148;  -10.310;  738.220
999.638;   53.339;  -12.530;  661.380
1000.190;   52.152;  -11.840;  699.320
1000.741;   51.202;  -10.260;  742.700
1001.293;   51.276;   -8.860;  686.020
1001.845;   49.750;  -13.700;  676.640
1002.396;   50.225;  -12.100;  743.400
1002.948;   49.266;  -12.760;  737.400
1003.500;   48.664;  -10.380;  723.780
1004.051;   49.371;  -11.900;  907.580
1004.603;   46.999;  -12.250;  791.820
1005.154;   42.908;  -13.210;  608.980
1005.705;   42.620;  -10.950;  723.960
1006.257;   42.216;  -13.880;  707.220
1006.808;   41.476;  -12.840;  685.460
1007.359;   40.880;  -10.570;  763.240
1007.910;   39.969;   -9.620;  646.640
1008.461;   40.193;  -13.630;  732.940
1009.013;   38.600;  -17.200;  588.340
1009.564;   39.568;  -10.200;  793.520
1010.115;   37.659;  -12.570;  597.040
1010.665;   37.181;  -15.150;  602.160
1011.216;   36.865;  -14.480;  667.920
1011.767;   35.731;  -11.340;  697.920
1012.318;   37.273;   -9.780;  736.980
1012.869;   35.981;  -12.380;  679.000
1013.419;   34.824;  -15.560;  603.120
1013.970;   35.143;  -11.010;  666.640
1014.521;   34.710;  -11.610;  620.620
1015.071;   35.543;  -13.450;  670.380
1015.622;   34.223;  -13.870;  635.460
1016.172;   33.969;  -11.610;  596.820
1016.723;   33.658;  -12.120;  614.380
1017.273;   33.863;  -13.620;  604.160
1017.823;   33.610;  -14.140;  650.340
1018.374;   32.508;  -12.800;  611.760
1018.924;   32.615;  -12.340;  716.880
1019.474;   33.249;  -11.410;  718.880
1020.024;   31.946;  -14.770;  657.580
1020.574;   31.876;   -9.780;  726.160
1021.124;   33.141;   -8.560;  673.580
1021.674;   31.820;  -15.190;  559.120
1022.224;   32.727;  -13.530;  708.940
1022.774;   31.698;  -13.280;  668.820
1023.324;   31.960;  -10.690;  753.520
1023.874;   34.103;  -10.240;  875.760
1024.423;   30.955;  -12.540;  613.700
1024.973;   29.821;  -10.010;  610.760
1025.523;   30.050;  -10.550;  620.960
1026.072;   30.025;  -13.560;  606.420
1026.622;   29.212;  -15.120;  675.740
1027.172;   30.456;  -11.260;  715.660
1027.721;   29.619;  -11.410;  601.220
1028.270;   29.714;  -13.530;  663.400
1028.820;   28.866;  -13.680;  638.080
1029.369;   28.327;  -13.520;  612.700
1029.918;   29.528;  -10.980;  649.840
1030.468;   28.751;  -13.530;  564.780
1031.017;   28.881;  -13.170;  634.800
1031.566;   27.224;  -12.200;  608.900
1032.115;   28.687;   -9.960;  694.500
1032.664;   27.636;  -13.210;  596.480
1033.213;   28.009;  -12.500;  735.420
1033.762;   27.533;  -11.910;  635.620
1034.311;   27.244;   -9.640;  677.220
1034.860;   28.316;  -13.310;  691.000
1035.408;   27.453;  -11.830;  722.720
1035.957;   27.475;  -12.000;  719.540
1036.506;   25.700;  -11.690;  530.800
1037.055;   28.768;  -10.990;  844.320
1037.603;   26.470;  -15.120;  664.000
1038.152;   24.001;  -12.450;  534.760
1038.700;   25.186;  -10.560;  585.740
1039.249;   25.979;  -11.080;  681.220
1039.797;   25.495;  -12.540;  633.360
1040.345;   25.293;  -11.920;  705.420
1040.894;   25.051;  -11.410;  625.300
1041.442;   25.645;  -14.320;  632.200
1041.990;   23.641;  -16.240;  559.160
1042.538;   23.456;  -11.680;  536.180
1043.087;   23.761;  -10.760;  570.860
1043.635;   24.951;  -11.850;  670.500
1044.183;   23.591;  -15.480;  586.400
1044.731;   23.466;  -11.770;  576.000
1045.279;   23.668;  -13.090;  674.920
1045.827;   26.103;  -12.440;  892.400
1046.374;   22.401;  -13.840;  515.420
1046.922;   21.772;  -13.220;  590.580
1047.470;   23.935;  -10.230;  691.300
1048.018;   23.432;  -14.590;  647.960
1048.565;   24.203;  -12.050;  708.600
1049.113;   21.694;  -11.650;  557.000
1049.660;   21.806;  -10.510;  629.660
1050.208;   23.282;  -13.310;  675.640
1050.755;   21.313;  -15.900;  606.580
1051.303;   21.804;  -11.430;  686.820
1051.850;   21.469;   -8.480;  635.120
1052.397;   19.924;  -15.010;  473.960
1052.945;   21.333;  -13.960;  617.760
1053.492;   22.123;  -13.150;  741.840
1054.039;   22.031;   -9.630;  720.180
1054.586;   21.142;  -13.680;  557.240
1055.133;   21.131;  -14.570;  693.140
1055.680;   21.131;  -13.820;  646.620
1056.227;   19.798;  -11.730;  542.780
1056.774;   21.428;  -12.480;  794.980
1057.321;   20.094;  -13.930;  523.260
1057.868;   19.563;  -11.690;  651.320
1058.415;   19.818;   -9.520;  651.980
1058.961;   20.839;  -13.160;  678.940
1059.508;   19.903;  -12.920;  643.820
1060.055;   18.898;  -11.920;  581.780
1060.601;   19.640;  -11.500;  624.300
1061.148;   19.790;  -14.330;  616.820
1061.694;   18.881;  -16.870;  592.580
1062.241;   17.738;  -10.330;  596.320
1062.787;   19.064;  -10.620;  663.140
1063.334;   20.771;  -10.110;  808.560
1063.880;   18.730;  -13.400;  668.360
1064.426;   19.090;  -10.680;  706.820
1064.972;   18.122;   -9.920;  601.340
1065.518;   17.347;  -10.980;  566.640
1066.065;   18.358;  -14.890;  624.460
1066.611;   17.020;  -12.870;  598.800
1067.157;   18.073;  -12.950;  641.860
1067.703;   18.123;  -13.540;  668.480
1068.249;   18.193;  -13.540;  605.220
1068.794;   17.124;  -12.600;  626.880
1069.340;   17.150;  -10.620;  578.960
1069.886;   17.510;  -12.830;  590.700
1070.432;   15.931;  -14.870;  541.720
1070.977;   15.510;  -11.980;  601.080
1071.523;   16.459;   -8.200;  573.060
1072.068;   17.309;  -12.330;  582.000
1072.614;   16.972;  -16.370;  527.760
1073.160;   16.740;  -11.100;  687.040
1073.705;   15.082;  -10.480;  572.520
1074.250;   16.375;  -14.520;  559.900
1074.796;   17.177;  -11.460;  655.160
1075.341;   16.497;  -11.950;  664.100
1075.886;   16.151;  -11.460;  594.240
1076.431;   15.503;  -13.770;  649.880
1076.976;   15.446;  -12.680;  639.220
1077.521;   14.746;  -13.170;  583.080
1078.067;   14.519;  -10.860;  579.400
1078.612;   15.585;  -13.920;  661.620
1079.156;   15.259;  -13.880;  601.540
1079.701;   14.854;  -13.120;  693.260
1080.246;   15.620;   -9.940;  696.300
1080.791;   15.482;  -14.740;  625.020
1081.336;   14.832;  -13.750;  659.320
1081.880;   13.710;  -13.400;  649.680
1082.425;   13.804;  -12.220;  573.480
1082.970;   15.727;  -11.610;  717.040
1083.514;   13.754;  -13.580;  597.000
1084.059;   12.131;  -12.810;  586.720
1084.603;   12.815;  -12.320;  565.840
1085.147;   14.082;  -13.190;  645.220
1085.692;   14.840;  -12.480;  716.800
1086.236;   12.034;  -13.020;  503.140
1086.780;   14.394;   -9.190;  751.440
1087.325;   13.640;  -12.480;  654.620
1087.869;   13.593;  -12.450;  610.700
1088.413;   13.177;  -12.240;  705.040
1088.957;   12.008;   -9.020;  543.400
1089.501;   14.088;  -10.320;  766.640
1090.045;   13.673;  -12.720;  726.480
1090.589;   10.884;  -13.690;  569.920
1091.133;   12.730;  -10.020;  673.340
1091.676;   12.928;  -12.330;  591.940
1092.220;   12.298;  -14.970;  600.920
1092.764;   12.886;  -12.430;  706.960
1093.307;   12.501;   -9.800;  673.780
1093.851;   11.177;  -14.970;  556.540
1094.395;   12.651;  -15.310;  683.140
1094.938;   11.134;  -10.370;  632.520
1095.482;   11.653;  -11.050;  559.800
1096.025;   12.340;  -11.840;  710.880
1096.568;   12.345;  -12.840;  779.280
1097.112;    9.155;  -14.700;  508.180
1097.655;   11.070;   -8.720;  603.000
1098.198;   10.616;  -13.610;  600.180
1098.741;   10.489;  -13.350;  612.860
1099.285;   11.043;  -11.230;  657.300
1099.828;    8.874;  -11.840;  439.400
1100.371;   10.794;  -10.840;  608.160
1100.914;   10.175;  -14.190;  682.660
1101.457;    9.706;  -11.240;  679.900
1101.999;    8.975;  -11.270;  584.680
1102.542;   10.059;  -11.480;  641.440
1103.085;   10.123;  -11.750;  658.500
1103.628;   10.216;  -11.400;  762.060
1104.170;    9.759;  -10.490;  588.280
1104.713;   10.133;  -10.600;  646.700
1105.256;    9.548;  -14.360;  557.440
1105.798;    7.846;  -13.210;  499.980
1106.341;   10.572;  -10.270;  728.900
1106.883;   10.094;  -12.200;  521.340
1107.425;    9.379;  -13.110;  668.180
1107.968;    8.244;  -12.840;  612.380
1108.510;   10.110;   -6.480;  684.960
1109.052;    8.259;  -13.940;  612.620
1109.594;    7.927;  -13.690;  554.440
1110.136;    8.472;  -11.880;  643.220
1110.679;    7.963;   -9.500;  633.080
1111.221;    9.152;  -14.160;  604.460
1111.763;    7.669;  -13.980;  559.220
1112.304;    7.372;  -13.880;  547.140
1112.846;    8.549;  -12.210;  666.240
1113.388;   10.993;  -11.390;  942.180
1113.930;    8.124;  -14.540;  694.200
1114.472;    7.287;  -12.640;  606.540
1115.013;    6.536;  -11.620;  551.280
1115.555;    7.322;  -13.640;  587.100
1116.097;    6.775;  -15.380;  579.480
1116.638;    7.013;  -12.640;  684.600
1117.180;    7.627;   -9.850;  667.740
1117.721;    7.502;  -13.690;  568.580
1118.262;    7.666;  -12.680;  677.960
1118.804;    6.905;  -12.530;  637.340
1119.345;    6.380;  -11.690;  578.400
1119.886;    7.609;  -13.380;  704.040
1120.427;    5.727;  -14.070;  589.020
1120.969;    5.375;  -13.500;  597.920
1121.510;    5.424;  -11.480;  563.060
1122.051;    6.521;  -12.830;  723.580
1122.592;    5.449;  -14.290;  655.420
1123.133;    4.102;  -12.400;  547.940
1123.673;    6.964;  -10.130;  706.480
1124.214;    5.738;  -12.930;  612.460
1124.755;    6.506;  -14.380;  639.460
1125.296;    5.299;  -14.000;  627.320
1125.836;    6.043;  -10.070;  691.500
1126.377;    5.487;  -12.640;  599.660
1126.918;    5.774;  -12.960;  614.980
1127.458;    4.351;  -13.350;  622.220
1127.999;    6.417;  -10.750;  656.980
1128.539;    6.420;  -12.350;  694.240
1129.079;    4.806;  -14.860;  632.720
1129.620;    3.620;  -13.840;  558.100
1130.160;    3.606;  -12.330;  539.480
1130.700;    5.823;  -14.530;  640.840
1131.240;    5.769;  -12.530;  643.700
1131.781;    4.118;  -14.450;  619.680
1132.321;    4.295;   -9.790;  599.120
1132.861;    3.464;  -14.860;  564.200
1133.401;    3.840;  -14.290;  593.940
1133.941;    3.955;  -11.750;  626.280
1134.481;    3.567;   -9.920;  597.580
1135.020;    4.153;  -12.290;  609.160
1135.560;    4.260;  -11.650;  674.940
1136.100;    2.702;  -16.270;  501.160
1136.640;    3.263;  -10.890;  510.480
1137.179;    3.510;  -14.180;  537.960
1137.719;    3.684;  -16.250;  605.400
1138.258;    3.016;  -14.230;  587.360
1138.798;    3.912;   -9.090;  663.780
1139.337;    2.595;  -15.130;  482.840
1139.877;    3.741;  -13.680;  642.360
1140.416;    4.575;  -11.320;  878.060
1140.955;    2.462;  -10.860;  535.380
1141.494;    3.720;  -12.920;  669.280
1142.034;    2.921;  -13.930;  583.520
1142.573;    3.370;  -11.440;  646.280
1143.112;    2.638;  -12.000;  553.480
1143.651;    2.783;  -13.670;  536.480
1144.190;    3.513;  -12.730;  691.640
1144.729;    2.422;  -14.560;  607.420
1145.267;    1.905;  -11.830;  584.900
1145.806;    3.145;  -12.230;  637.040
1146.345;    1.926;  -14.130;  635.020
1146.884;    1.294;  -11.590;  622.500
1147.422;    0.900;  -12.550;  533.060
1147.961;    4.308;  -11.180;  708.460
1148.500;    3.075;  -11.510;  669.720
1149.038;    2.935;  -11.640;  632.500
1149.577;    2.309;  -10.130;  698.640
1150.115;    0.756;  -13.970;  452.280
1150.653;    2.393;  -14.520;  607.340
1151.192;    1.390;  -12.810;  552.920
1151.730;    2.230;   -9.100;  652.560
1152.268;    1.116;  -12.220;  589.520
1152.806;    0.832;  -14.140;  571.180
1153.344;   -0.384;  -12.350;  577.640
1153.882;    1.249;   -8.980;  600.060
1154.421;    0.743;  -15.190;  470.620
1154.958;    1.301;  -15.210;  595.240
1155.496;    1.669;  -12.850;  645.280
1156.034;    0.844;   -9.940;  721.880
1156.572;    3.305;  -13.570;  667.060
1157.110;    0.339;  -14.590;  473.940
1157.647;    0.755;  -13.030;  676.960
1158.185;    0.287;  -12.140;  564.320
1158.723;   -0.216;  -14.390;  509.200
1159.260;    1.148;  -14.090;  701.700
1159.798;    0.735;  -11.920;  658.160
1160.335;   -0.088;  -11.110;  631.820

