
Integration time [ms]:   3.276
Averaging Nr. [scans]: 1000
Smoothing Nr. [pixels]: 0
Data measured with spectrometer [name]: 7414430SP
Wave   ;Sample   ;Dark     ;Reference
[nm]   ;[counts] ;[counts] ;[counts] 

288.544;  150.975;    7.793;  793.890
289.143;  154.822;    7.462;  681.602
289.742;  154.927;    8.602;  828.814
290.341;  140.501;    1.321;  789.841
290.940;  129.988;   -0.709;  730.702
291.538;  130.847;    0.881;  881.108
292.137;  131.492;    0.122;  792.581
292.736;  135.102;   -1.929;  975.101
293.335;  131.673;   -8.229;  735.086
293.934;  131.975;   -5.279;  781.677
294.532;  131.115;   -1.369; 1031.958
295.131;  116.386;   -7.641;  834.394
295.730;  116.932;   -8.420;  809.588
296.328;  115.285;   -5.611;  783.442
296.927;  116.432;   -5.781;  779.652
297.525;  117.585;   -6.361;  781.236
298.124;  108.268;  -11.382;  654.009
298.722;  111.396;   -7.641;  761.933
299.321;  109.065;   -6.811;  708.597
299.919;  108.353;   -6.991;  751.918
300.518;  104.681;  -10.362;  689.338
301.116;  106.419;   -9.581;  691.381
301.715;  106.576;   -4.891;  730.222
302.313;  105.228;   -8.801;  704.943
302.911;  100.703;   -8.522;  733.830
303.509;  105.448;   -6.171;  925.627
304.108;  103.748;   -7.311;  760.383
304.706;  102.995;   -8.321;  801.664
305.304;   97.282;  -10.222;  796.707
305.902;  102.851;   -6.021;  784.484
306.500;   98.493;   -4.971;  728.200
307.098;   95.479;   -7.061;  746.560
307.696;   95.357;   -8.801;  780.432
308.294;   94.587;   -6.411;  731.359
308.892;   97.174;   -2.901;  759.769
309.490;   93.102;   -5.041;  712.161
310.088;   91.652;   -5.002;  788.444
310.686;   96.171;   -2.041;  821.749
311.284;   92.088;   -2.351;  766.040
311.882;   89.349;   -4.422;  731.225
312.480;   86.520;   -4.192;  697.167
313.078;   87.542;   -1.172;  808.331
313.675;   88.378;   -2.601;  691.600
314.273;   83.891;   -1.312;  797.837
314.871;   83.038;   -3.942;  589.829
315.468;   81.196;   -2.802;  652.090
316.066;   84.091;   -0.701;  694.427
316.664;   76.706;   -4.362;  656.351
317.261;   80.859;   -2.872;  910.128
317.859;   76.489;   -2.022;  768.735
318.456;   76.840;   -0.531;  830.096
319.054;   72.244;   -3.912;  787.828
319.651;   71.478;   -4.752;  759.928
320.249;   70.960;   -2.602;  810.188
320.846;   67.655;   -0.821;  714.286
321.443;   65.846;   -4.642;  832.135
322.041;   62.726;   -5.002;  812.315
322.638;   60.858;   -3.982;  701.456
323.235;   61.500;   -3.411;  665.683
323.833;   59.449;   -7.361;  740.354
324.430;   54.350;   -8.611;  615.900
325.027;   54.983;   -4.061;  876.855
325.624;   55.836;   -4.031;  644.532
326.221;   51.933;   -7.481;  689.717
326.818;   51.235;   -5.281;  818.332
327.415;   54.856;   -7.460;  748.828
328.012;   55.134;   -5.510;  690.585
328.609;   53.289;   -7.880;  731.389
329.206;   51.106;   -8.331;  778.621
329.803;   52.181;   -5.121;  737.841
330.400;   54.638;   -4.510;  704.260
330.997;   55.694;   -6.441;  817.147
331.594;   54.034;   -8.831;  788.185
332.191;   59.604;   -7.621;  728.722
332.787;   61.786;   -4.591;  844.463
333.384;   60.592;   -7.412;  763.093
333.981;   59.418;   -8.293;  815.687
334.578;   62.133;   -7.052;  708.378
335.174;   65.548;   -3.102;  731.469
335.771;   64.753;   -5.943;  836.456
336.367;   62.189;   -7.393;  710.631
336.964;   65.019;   -4.063;  793.266
337.561;   63.418;   -3.813;  731.112
338.157;   58.823;   -4.654;  911.916
338.754;   56.638;   -7.934;  796.589
339.350;   54.120;   -4.414;  722.493
339.946;   57.361;   -4.664;  773.135
340.543;   47.630;   -6.375;  846.136
341.139;   43.526;   -9.815;  720.836
341.735;   40.536;   -4.526;  772.593
342.332;   39.353;   -4.895;  691.472
342.928;   39.533;   -4.295;  795.394
343.524;   33.952;   -5.476;  761.684
344.120;   30.878;   -5.856;  738.562
344.716;   34.106;   -2.155;  723.717
345.313;   31.747;   -6.275;  795.342
345.909;   26.567;   -8.815;  627.336
346.505;   27.744;   -5.305;  740.247
347.101;   29.321;   -2.674;  827.864
347.697;   28.597;   -4.344;  785.398
348.293;   23.727;   -9.975;  627.244
348.889;   24.979;   -5.774;  745.914
349.485;   24.261;   -5.004;  688.205
350.081;   24.455;   -4.704;  772.592
350.676;   19.597;   -6.635;  691.606
351.272;   23.838;   -4.504;  809.530
351.868;   23.923;   -3.914;  780.497
352.464;   20.812;   -9.044;  723.932
353.059;   16.981;   -8.314;  646.017
353.655;   21.331;   -7.024;  777.063
354.251;   21.561;   -5.343;  759.845
354.846;   16.451;   -8.604;  740.646
355.442;   13.628;   -6.945;  753.071
356.038;   16.761;   -7.564;  751.708
356.633;   16.385;   -5.814;  728.594
357.229;   14.226;   -7.364;  724.757
357.824;   12.470;   -8.024;  703.600
358.420;   11.174;   -9.384;  679.726
359.015;   12.250;   -5.104;  695.357
359.610;   13.171;   -6.854;  763.920
360.206;    6.570;  -10.185;  603.240
360.801;   10.113;   -7.054;  646.503
361.396;   12.919;   -5.034;  725.975
361.992;    7.058;   -8.284;  668.220
362.587;    4.186;   -8.625;  670.160
363.182;    6.809;   -7.674;  689.631
363.777;    8.084;   -5.164;  738.242
364.372;    7.907;   -8.604;  737.314
364.967;    3.747;   -9.055;  680.744
365.563;    8.505;   -6.114;  815.567
366.158;    4.796;   -5.814;  685.161
366.753;    5.170;   -7.854;  649.263
367.348;    3.702;   -7.804;  746.056
367.942;    3.633;   -7.954;  697.298
368.537;    2.920;   -4.984;  754.245
369.132;    3.207;   -8.564;  703.428
369.727;   -1.184;   -8.855;  638.079
370.322;    0.977;   -6.245;  580.186
370.917;    0.161;   -6.425;  710.646
371.511;    2.420;   -6.294;  861.834
372.106;   -0.077;   -7.685;  776.964
372.701;   -3.581;   -7.335;  585.988
373.296;    1.705;   -4.564;  863.135
373.890;   -3.236;  -10.235;  647.840
374.485;   -5.323;   -7.885;  691.199
375.079;   -0.530;   -7.324;  738.685
375.674;    0.936;   -3.494;  812.970
376.268;   -4.628;   -8.525;  691.759
376.863;   -9.953;  -10.086;  580.327
377.457;   -3.834;   -7.025;  662.490
378.052;   -5.118;   -3.585;  764.884
378.646;   -6.255;   -7.595;  741.167
379.240;   -6.512;   -8.335;  721.176
379.835;   -5.581;   -5.785;  636.978
380.429;   -7.133;   -4.335;  562.557
381.023;   -7.588;   -6.805;  779.205
381.617;  -10.101;   -9.195;  680.106
382.212;   -6.971;   -6.905;  685.303
382.806;   -5.599;   -3.745;  760.690
383.400;  -10.369;   -7.745;  672.281
383.994;  -10.854;   -9.765;  664.870
384.588;   -6.891;   -6.564;  697.701
385.182;   -5.980;   -5.344;  726.624
385.776;   -7.492;   -8.514;  706.875
386.370;  -11.164;   -9.555;  681.968
386.964;   -8.923;   -8.715;  684.155
387.558;   -7.844;   -6.174;  598.360
388.152;  -10.452;   -8.725;  681.959
388.745;   -9.293;   -7.965;  814.707
389.339;   -7.118;   -5.924;  747.642
389.933;   -6.680;   -5.524;  695.370
390.527;   -7.815;   -7.114;  859.029
391.120;  -13.341;  -10.725;  595.318
391.714;  -10.889;   -8.035;  711.633
392.308;   -7.647;   -3.574;  780.253
392.901;  -11.269;   -7.245;  642.460
393.495;  -13.329;   -9.285;  595.414
394.089;  -10.445;   -5.895;  760.452
394.682;  -11.594;   -4.295;  697.188
395.275;  -11.819;   -9.875;  719.927
395.869;  -13.565;   -8.485;  667.314
396.462;  -11.604;   -7.455;  616.609
397.056;   -7.483;   -5.424;  776.621
397.649;  -11.772;   -6.605;  731.575
398.242;   -9.638;   -8.224;  712.645
398.836;   -9.193;   -7.474;  766.408
399.429;   -9.524;   -7.094;  631.041
400.022;  -13.706;   -9.475;  665.902
400.615;  -11.868;   -7.145;  805.609
401.208;   -8.915;   -7.174;  691.451
401.802;  -11.372;   -5.515;  699.329
402.395;  -13.036;   -9.875;  683.502
402.988;  -13.719;   -8.845;  696.627
403.581;  -10.013;   -8.874;  646.878
404.174;   -8.235;   -5.324;  686.568
404.767;  -11.077;   -9.575;  638.583
405.360;  -13.962;  -10.965;  621.445
405.953;   -7.720;   -8.764;  759.034
406.545;   -7.187;   -7.514;  725.342
407.138;  -11.822;  -10.025;  618.350
407.731;  -10.842;  -10.034;  613.303
408.324;   -6.299;   -9.374;  660.554
408.917;   -7.119;   -6.534;  681.864
409.509;   -9.384;   -8.004;  740.396
410.102;  -11.308;   -9.875;  643.948
410.695;   -5.448;   -8.604;  665.758
411.287;   -6.468;   -6.794;  599.821
411.880;   -7.126;   -9.334;  585.421
412.472;  -10.443;  -10.254;  613.092
413.065;   -8.054;   -6.714;  629.408
413.657;   -5.258;   -7.234;  576.678
414.250;   -5.477;  -10.544;  646.681
414.842;   -6.802;   -9.744;  676.353
415.434;   -5.259;   -6.994;  570.463
416.027;   -0.422;   -5.893;  652.196
416.619;   -2.571;   -7.264;  713.400
417.211;   -2.861;  -10.374;  599.352
417.804;    1.183;   -7.993;  628.499
418.396;   -3.330;   -7.234;  607.643
418.988;   -1.314;   -9.443;  659.238
419.580;   -4.650;  -10.724;  568.276
420.172;   -2.358;  -10.323;  536.196
420.764;    1.388;   -8.793;  672.482
421.356;    1.204;  -11.143;  636.898
421.948;   -0.144;   -8.293;  677.661
422.540;    5.030;   -7.893;  680.027
423.132;    5.078;   -7.082;  600.641
423.724;    0.751;   -8.653;  561.267
424.316;    3.227;  -10.213;  621.345
424.908;    6.181;   -9.762;  591.517
425.500;    6.989;   -5.572;  647.978
426.092;    7.956;   -8.422;  648.268
426.683;    6.242;   -9.283;  684.836
427.275;    9.411;   -7.852;  641.471
427.867;   10.184;   -5.272;  668.948
428.458;   11.177;   -7.682;  732.344
429.050;    9.570;  -10.612;  680.749
429.642;   12.111;   -9.882;  743.124
430.233;   12.304;   -6.962;  569.356
430.825;   13.875;   -6.842;  724.809
431.416;   10.744;   -9.672;  698.241
432.008;   14.616;   -6.552;  651.723
432.599;   15.921;   -6.891;  656.073
433.190;   12.945;  -10.912;  637.670
433.782;   12.132;  -11.172;  590.395
434.373;   19.843;   -6.061;  884.765
434.964;   18.105;   -8.251;  602.920
435.556;   15.696;   -9.722;  634.537
436.147;   18.977;   -9.082;  758.490
436.738;   19.253;   -8.041;  701.099
437.329;   24.435;   -7.341;  721.723
437.920;   16.851;   -8.162;  666.688
438.511;   17.226;  -11.802;  564.526
439.103;   24.377;  -10.191;  623.998
439.694;   25.290;   -7.601;  681.583
440.285;   26.366;   -8.541;  764.432
440.876;   25.127;   -9.751;  845.738
441.466;   23.630;   -9.401;  575.162
442.057;   29.023;   -7.760;  665.814
442.648;   28.148;   -9.971;  746.255
443.239;   26.808;  -11.001;  620.477
443.830;   32.082;   -7.990;  704.958
444.421;   33.328;   -7.910;  655.474
445.011;   29.329;   -8.131;  693.619
445.602;   29.632;   -7.111;  743.126
446.193;   32.043;  -10.920;  488.117
446.783;   36.192;   -6.500;  640.397
447.374;   30.923;   -8.671;  692.759
447.964;   32.096;  -10.781;  713.770
448.555;   39.978;   -9.650;  822.742
449.145;   37.451;   -8.660;  662.853
449.736;   37.556;   -8.990;  803.179
450.326;   37.717;   -9.500;  713.626
450.917;   43.067;   -8.680;  675.324
451.507;   42.187;   -7.520;  600.661
452.097;   42.979;   -8.590;  746.267
452.688;   43.830;  -11.340;  742.160
453.278;   43.127;  -10.100;  566.840
453.868;   49.193;   -6.019;  793.550
454.458;   45.886;   -9.440;  651.141
455.048;   46.583;  -10.560;  711.783
455.639;   48.018;  -11.799;  567.096
456.229;   51.980;   -6.899;  710.694
456.819;   53.229;   -7.389;  751.158
457.409;   53.645;  -11.119;  773.993
457.999;   56.297;   -9.289;  737.505
458.589;   56.123;   -6.139;  686.606
459.179;   55.928;   -8.729;  717.658
459.769;   54.513;   -9.789;  627.099
460.358;   59.024;  -10.259;  797.262
460.948;   58.892;   -7.299;  689.503
461.538;   60.715;  -10.289;  660.677
462.128;   59.540;  -11.269;  664.934
462.717;   65.115;   -9.368;  710.326
463.307;   68.419;   -7.908;  705.846
463.897;   64.152;   -9.599;  656.942
464.486;   64.316;   -9.769;  837.128
465.076;   69.189;   -8.048;  733.776
465.666;   72.194;   -9.358;  652.900
466.255;   69.168;   -7.919;  785.651
466.845;   68.878;  -11.689;  666.749
467.434;   72.412;   -7.818;  725.873
468.023;   72.936;   -7.678;  658.357
468.613;   71.049;  -10.939;  713.946
469.202;   75.140;  -10.118;  646.507
469.791;   79.357;   -9.108;  737.811
470.381;   81.859;   -6.058;  742.813
470.970;   80.973;  -10.428;  711.099
471.559;   81.179;  -10.268;  733.291
472.148;   83.935;   -8.448;  675.737
472.738;   86.986;   -6.917;  765.466
473.327;   86.120;  -11.978;  637.529
473.916;   85.843;  -11.888;  737.446
474.505;   90.516;   -9.437;  751.703
475.094;   93.116;   -6.747;  806.570
475.683;   92.983;   -9.367;  797.699
476.272;   94.187;  -12.637;  730.632
476.861;   97.355;  -10.027;  706.754
477.449;  103.625;   -8.716;  728.487
478.038;   97.801;   -9.577;  692.513
478.627;   98.086;   -9.718;  714.852
479.216;  106.350;   -8.947;  769.441
479.805;  109.391;   -6.256;  783.375
480.393;  108.627;   -7.937; 1008.945
480.982;  107.464;   -7.717;  874.501
481.571;  114.197;   -9.266;  858.333
482.159;  114.652;   -7.636;  705.386
482.748;  114.416;   -9.667;  821.385
483.336;  118.758;  -10.376;  858.209
483.925;  120.748;   -7.147;  774.373
484.513;  126.646;   -7.996;  758.962
485.102;  124.048;  -10.027;  810.965
485.690;  131.939;  -10.446; 1011.050
486.278;  134.269;   -8.446;  979.329
486.867;  135.323;   -6.356;  809.662
487.455;  136.673;   -9.136;  898.229
488.043;  139.219;  -10.646;  748.361
488.631;  148.115;   -7.456; 1005.079
489.220;  152.487;   -6.636;  908.626
489.808;  153.594;  -11.036;  741.415
490.396;  161.003;  -10.246;  914.645
490.984;  167.385;   -8.556;  830.161
491.572;  178.531;   -5.886;  940.315
492.160;  184.611;   -9.486;  919.081
492.748;  198.307;  -10.976;  884.341
493.336;  223.102;   -8.776; 1019.693
493.924;  253.551;   -5.465;  958.077
494.512;  283.521;   -9.986; 1066.638
495.100;  325.070;  -10.636; 1103.280
495.687;  382.653;  -10.885; 1206.373
496.275;  449.566;   -8.126; 1150.796
496.863;  520.212;  -10.586; 1281.171
497.451;  625.685;  -11.926; 1386.805
498.038;  771.831;  -10.885; 1556.729
498.626;  887.259;   -6.315; 1741.407
499.214; 1041.613;   -7.326; 2016.609
499.801; 1243.442;  -11.906; 2220.633
500.389; 1505.366;  -10.466; 2312.494
500.976; 1836.471;   -5.236; 2744.849
501.564; 2288.126;   -8.936; 3148.565
502.151; 2672.446;  -13.176; 3515.999
502.738; 3130.950;  -10.646; 3971.274
503.326; 3533.454;   -9.525; 4403.796
503.913; 3932.495;  -10.856; 5161.749
504.500; 4282.631;  -11.586; 5986.420
505.088; 4728.921;  -10.336; 6381.201
505.675; 5281.684;   -6.355; 6925.547
506.262; 5958.820;   -9.046; 7619.060
506.849; 6696.269;  -10.416; 8733.969
507.436; 7219.406;  -10.305; 9790.121
508.023; 7849.651;   -5.496; 9985.472
508.610; 8099.076;   -7.856;10434.618
509.197; 8775.012;  -10.097;11198.435
509.784;10214.866;  -10.886;12391.194
510.371;11329.020;   -9.315;13603.713
510.958;12091.335;   -9.936;14426.586
511.545;12856.806;   -9.326;15243.775
512.132;13807.155;  -10.075;15945.876
512.719;14414.796;   -7.796;16340.369
513.305;15419.869;  -10.606;18011.766
513.892;16157.504;  -11.486;19754.971
514.479;17545.611;   -9.126;20967.805
515.066;19175.141;   -6.026;22299.793
515.652;20450.834;   -8.466;22908.660
516.239;21690.846;  -10.886;23798.875
516.825;22851.207;  -11.496;25567.275
517.412;23901.832;   -5.796;28154.959
517.998;24795.582;  -10.506;28344.111
518.585;24979.941;  -10.076;27134.219
519.171;25396.805;   -8.315;27268.576
519.758;26695.908;   -8.596;28964.129
520.344;28743.232;   -8.466;30664.494
520.930;29040.082;  -11.006;32550.605
521.516;30467.479;  -10.495;35422.895
522.103;33085.148;   -5.526;38280.004
522.689;33954.855;   -8.746;37835.117
523.275;33621.090;  -11.376;37288.613
523.861;34843.523;  -11.156;37281.395
524.447;36216.773;   -8.135;37846.949
525.033;35562.973;   -7.896;38321.949
525.619;35659.473;  -12.476;38579.285
526.205;37359.402;   -9.516;40622.875
526.791;40486.262;   -6.926;42258.836
527.377;40617.082;   -8.346;42966.902
527.963;42406.766;   -8.717;42018.949
528.549;41184.039;  -11.016;42476.828
529.135;39526.625;   -8.536;41854.852
529.721;38848.449;   -9.666;41237.711
530.306;38440.633;  -10.066;41259.445
530.892;38359.816;  -11.356;41506.047
531.478;39765.973;   -6.596;43559.613
532.063;42559.320;   -8.836;47695.563
532.649;43162.809;  -10.047;50808.324
533.235;44129.113;   -9.746;51787.500
533.820;45160.391;   -6.566;52145.035
534.406;46435.086;  -10.817;51133.488
534.991;46168.391;   -9.416;49996.805
535.576;44705.926;   -9.036;48882.852
536.162;45349.695;   -6.156;46942.285
536.747;46493.254;  -11.607;45711.746
537.333;50112.176;  -11.787;48510.180
537.918;53856.656;  -12.437;50439.891
538.503;52414.320;   -7.196;50863.711
539.088;48679.578;  -10.556;50906.922
539.673;48574.418;   -8.767;52621.965
540.259;48260.695;  -10.026;52368.094
540.844;45495.066;   -7.416;50879.109
541.429;46580.527;   -9.467;52077.777
542.014;50043.621;   -9.527;52716.695
542.599;49907.016;   -9.946;52363.281
543.184;46982.375;   -7.927;53187.137
543.769;48153.180;   -9.297;54697.605
544.354;47755.762;  -10.127;53913.914
544.938;46643.406;   -9.267;49680.164
545.523;48882.168;   -6.506;47386.277
546.108;51269.766;   -9.787;49151.949
546.693;53524.285;  -11.587;51384.637
547.278;53497.125;  -10.986;51853.254
547.862;50275.012;   -8.206;51173.750
548.447;45531.020;  -10.067;51691.395
549.031;44647.195;   -9.637;52456.703
549.616;49565.281;   -9.926;52714.516
550.201;48882.852;   -6.347;52414.598
550.785;49837.637;   -7.917;52355.059
551.370;49087.008;  -10.867;54589.453
551.954;48964.516;   -9.047;58267.348
552.538;50296.262;   -7.827;59062.176
553.123;48505.512;  -10.287;58115.285
553.707;45911.410;  -12.178;56556.285
554.291;46596.836;   -8.717;56201.668
554.876;48716.086;   -7.457;55335.762
555.460;49443.988;  -10.387;54155.703
556.044;51383.180;   -9.618;53721.484
556.628;49556.063;  -11.567;53731.016
557.212;48043.488;   -8.097;54312.531
557.796;45837.977;  -11.077;53797.773
558.380;46059.508;  -11.108;56145.984
558.964;47033.672;   -9.057;57277.930
559.548;48155.406;   -6.977;56459.641
560.132;45939.645;  -11.457;54434.543
560.716;44589.969;  -11.378;54800.617
561.300;45572.477;   -9.577;57606.945
561.884;46601.137;   -7.127;58972.445
562.467;45067.676;   -7.118;57327.570
563.051;44577.324;  -13.358;54962.434
563.635;45434.320;  -10.178;52594.473
564.219;45621.773;   -7.837;50610.410
564.802;46221.680;  -11.398;49551.180
565.386;46481.555;  -12.788;48370.953
565.969;46345.277;   -9.077;48178.871
566.553;44918.996;   -6.207;49957.305
567.136;45193.277;   -8.568;50369.594
567.720;41449.035;  -11.868;49492.004
568.303;39493.918;   -8.268;50616.352
568.887;39394.859;   -8.698;50727.148
569.470;39712.313;   -6.808;51698.379
570.053;38955.594;  -13.188;52122.078
570.637;37207.180;  -12.037;52536.438
571.220;36560.512;   -8.577;51186.098
571.803;36820.211;   -8.498;51032.762
572.386;38930.578;  -10.498;49609.887
572.969;41653.633;   -9.388;48285.926
573.552;40112.844;   -8.338;47624.285
574.135;38870.043;   -8.518;45498.641
574.718;36410.480;  -13.628;41970.434
575.301;35206.020;  -10.893;41447.137
575.884;34001.559;   -8.158;40923.836
576.467;35141.527;  -10.328;45267.723
577.050;37139.773;  -13.058;48175.543
577.633;38967.906;   -9.458;47729.328
578.216;37940.590;   -8.928;47579.793
578.799;36774.199;   -9.358;47820.996
579.381;35573.273;  -11.388;48115.551
579.964;33770.020;  -11.718;47333.766
580.547;35227.500;   -8.588;46668.969
581.129;36081.254;   -8.859;44466.141
581.712;36713.828;  -10.729;44164.922
582.294;37546.633;  -11.118;46477.855
582.877;37769.461;   -5.218;48244.254
583.459;35615.879;   -8.679;47437.895
584.042;33572.824;  -10.709;46943.219
584.624;33849.340;  -11.669;46792.227
585.206;33371.379;   -8.218;46557.250
585.789;33482.016;  -10.569;45793.773
586.371;36334.832;  -11.859;43836.391
586.953;37253.316;  -10.719;42972.492
587.536;38172.887;   -7.198;42487.211
588.118;38351.188;   -8.720;42086.414
588.700;34579.414;  -10.439;43389.930
589.282;33561.754;   -9.198;43646.039
589.864;34210.016;   -9.199;43438.109
590.446;35402.480;  -11.319;43151.926
591.028;35408.137;  -11.159;42781.867
591.610;34322.188;  -11.779;42839.098
592.192;31363.297;   -7.668;42820.402
592.774;29745.813;  -11.949;40724.277
593.356;28665.379;  -12.129;39874.789
593.937;28085.738;  -10.669;39980.648
594.519;30128.492;   -6.509;42069.633
595.101;32370.982;  -10.849;42976.031
595.683;32558.836;  -11.679;44084.441
596.264;33560.520;   -9.049;43478.797
596.846;32899.762;   -8.849;43803.672
597.427;32390.643;   -9.570;42986.934
598.009;34115.207;  -12.620;42832.219
598.591;34578.832;  -10.039;42580.086
599.172;33719.773;  -10.369;43061.805
599.753;33742.219;   -9.140;41691.469
600.335;35306.426;  -11.430;40692.520
600.916;33795.598;   -9.939;39982.422
601.498;31299.889;   -8.479;40318.617
602.079;29866.021;  -10.920;40670.609
602.660;29677.834;  -11.480;41450.898
603.241;31114.193;  -11.699;41137.738
603.823;29971.303;   -9.579;38868.797
604.404;29516.549;  -10.620;38182.785
604.985;31014.313;  -10.450;38078.047
605.566;30583.738;   -9.129;38056.633
606.147;30570.678;   -7.510;37020.418
606.728;32673.840;  -10.660;37883.359
607.309;31587.143;  -11.740;38748.273
607.890;30812.943;   -9.759;38850.230
608.471;30329.668;   -8.250;37457.918
609.051;29695.627;   -9.240;36066.457
609.632;28641.002;  -12.120;35991.074
610.213;29368.379;   -9.110;37402.641
610.794;30178.371;   -8.030;38383.363
611.374;29496.646;   -8.110;40562.387
611.955;29891.107;  -13.560;38533.727
612.536;31498.178;  -11.400;36951.789
613.116;31110.967;   -8.070;37197.891
613.697;31413.236;  -10.830;38411.125
614.277;29725.332;  -11.641;38673.938
614.858;30692.174;  -13.310;37075.863
615.438;30134.904;   -7.460;35092.906
616.019;27375.873;   -7.601;33666.301
616.599;27934.607;  -12.020;34189.023
617.179;29963.375;  -11.780;36952.047
617.760;30759.203;   -8.570;39582.574
618.340;31807.314;  -11.471;38943.977
618.920;33391.336;  -11.170;37594.156
619.500;33191.133;  -11.071;37866.938
620.080;32237.875;   -7.750;37869.043
620.660;33144.855;  -12.711;36868.617
621.241;34375.004;  -10.211;36352.309
621.821;34551.945;  -10.961;35459.520
622.401;33876.254;   -7.720;35207.414
622.980;32918.285;   -8.981;35980.422
623.560;31407.711;   -9.331;37351.328
624.140;30390.313;   -9.850;34388.582
624.720;25500.664;   -7.451;32368.764
625.300;21797.621;   -9.070;32638.629
625.880;25156.498;  -12.601;34599.035
626.459;29058.500;  -11.751;36831.738
627.039;32166.041;   -9.281;38299.098
627.619;32350.396;   -8.801;38289.574
628.198;30618.850;  -12.071;37220.695
628.778;29618.334;   -9.461;37632.563
629.357;30274.309;   -8.491;38003.012
629.937;30232.877;   -9.721;38402.039
630.516;29633.420;   -9.951;37868.801
631.096;29546.584;  -11.731;35760.410
631.675;32219.025;   -8.572;35225.219
632.254;37664.211;  -11.282;35130.289
632.834;37002.613;  -13.322;35794.570
633.413;34989.832;  -10.301;35788.922
633.992;32225.762;   -8.582;34532.863
634.571;33249.008;   -8.352;33590.113
635.151;36197.016;  -11.912;34943.863
635.730;34715.867;  -10.511;35352.523
636.309;31140.096;   -7.731;35366.605
636.888;28385.838;   -9.952;36165.637
637.467;29016.797;  -11.672;37515.902
638.046;30909.475;   -8.901;39288.695
638.625;33999.957;   -7.912;38279.699
639.204;33830.027;  -10.022;37741.598
639.782;32194.381;  -12.252;38364.551
640.361;28485.066;  -10.041;36740.621
640.940;25580.758;  -11.161;34950.082
641.519;25969.457;   -9.701;34137.398
642.097;28477.691;  -11.271;35654.258
642.676;31607.764;   -8.651;35637.957
643.255;32622.412;   -8.711;36567.074
643.833;31727.330;   -9.581;37809.434
644.412;32000.627;  -13.711;37337.293
644.990;31283.186;  -11.811;37018.531
645.569;31023.363;   -9.411;36518.469
646.147;30189.758;  -10.291;36186.430
646.726;29659.809;  -12.401;36267.688
647.304;30733.514;  -10.411;36647.625
647.882;32681.533;   -9.651;39286.742
648.461;34530.258;   -9.631;39157.703
649.039;32890.973;  -11.881;35412.883
649.617;31998.100;   -9.661;34744.918
650.195;31525.547;   -9.301;35403.098
650.773;30374.398;  -10.511;35053.797
651.352;27722.053;  -11.521;33756.816
651.930;25333.896;  -12.211;31868.773
652.508;23805.498;   -9.171;33121.551
653.086;27798.775;   -9.371;33564.793
653.663;30844.420;  -13.161;34054.668
654.241;29576.650;  -13.031;35693.309
654.819;31026.199;   -9.371;36422.906
655.397;30932.488;  -10.511;38213.484
655.975;30656.285;  -10.371;39507.625
656.553;30767.795;  -10.051;39498.223
657.130;29097.922;  -10.061;40395.480
657.708;28266.891;   -9.561;39242.020
658.286;28431.361;  -11.511;38920.020
658.863;29656.555;  -10.261;40202.898
659.441;32487.824;   -7.531;39677.938
660.018;31947.684;   -9.501;40413.355
660.596;30768.875;  -13.301;39931.414
661.173;32573.947;  -11.211;39604.531
661.750;32789.504;   -9.951;39700.070
662.328;31806.240;   -9.390;39292.809
662.905;31000.531;  -11.330;38235.648
663.482;26644.428;   -9.050;36212.305
664.060;24532.012;   -8.240;35944.945
664.637;27221.422;  -10.050;35170.785
665.214;29072.434;  -11.760;34197.523
665.791;31011.115;  -10.530;34549.520
666.368;29821.365;   -9.690;35118.578
666.945;30198.369;   -9.320;36019.418
667.522;31835.887;  -11.860;36048.438
668.099;31927.818;  -10.770;36243.914
668.676;31029.102;   -6.260;35958.875
669.253;29372.961;   -7.000;37384.730
669.830;29797.762;  -10.190;36779.629
670.407;29612.344;   -9.550;35231.289
670.984;29609.504;   -9.260;35544.270
671.560;30214.752;   -9.280;35466.867
672.137;28985.320;  -11.810;34280.863
672.714;29636.820;  -11.490;34632.863
673.290;30251.813;   -7.740;35135.422
673.867;30216.314;  -10.660;36114.480
674.443;30615.539;  -12.230;36152.859
675.020;29080.963;  -10.450;35327.238
675.596;29882.217;   -9.260;35795.176
676.173;30331.047;  -10.780;35430.355
676.749;30034.330;  -13.690;33549.516
677.326;30159.697;  -11.980;32210.012
677.902;30302.049;   -8.630;32068.871
678.478;29435.258;  -10.730;32583.891
679.054;28785.215;  -10.520;32088.928
679.631;29509.996;  -11.920;30978.848
680.207;30738.619;   -7.490;33160.887
680.783;32128.793;   -9.860;35570.363
681.359;31341.604;  -13.380;36125.184
681.935;30674.215;  -12.480;35240.922
682.511;29829.287;   -7.900;34429.961
683.087;29799.264;   -7.710;34463.680
683.663;29349.297;  -11.480;34648.898
684.239;28456.922;  -14.090;34546.457
684.815;28075.008;   -7.560;35586.375
685.390;28430.242;   -9.910;35821.895
685.966;28901.566;  -11.159;35085.871
686.542;31586.125;  -11.169;34198.230
687.118;33692.066;   -5.959;32847.707
687.693;33921.652;  -10.329;32794.027
688.269;33264.320;  -12.059;33072.367
688.844;31350.291;  -10.909;33141.664
689.420;29361.699;   -8.019;33965.742
689.995;27092.186;   -8.399;34655.523
690.571;25764.193;  -10.949;33576.742
691.146;26192.291;   -9.619;32657.219
691.722;25705.990;   -8.999;32526.979
692.297;25377.033;  -11.589;33014.617
692.872;27296.621;  -11.739;34012.254
693.448;26893.020;  -11.059;34237.434
694.023;26027.824;  -10.139;34142.672
694.598;28200.996;   -9.029;34132.031
695.173;28727.309;  -13.319;34205.250
695.748;28119.098;  -10.169;32882.488
696.323;28047.188;   -8.339;32864.906
696.898;28096.137;   -8.169;33170.004
697.473;27896.568;  -12.309;32432.984
698.048;27463.350;  -10.989;31649.303
698.623;27568.189;   -9.329;30778.141
699.198;29273.441;   -9.849;31140.119
699.773;30281.957;  -12.329;31764.299
700.348;28888.396;  -10.389;31780.816
700.922;28949.441;   -9.269;32046.375
701.497;29486.818;   -9.329;32603.574
702.072;29589.229;  -10.789;34799.871
702.646;28585.822;  -10.839;35793.172
703.221;26340.846;   -9.099;35201.590
703.795;28408.713;  -10.939;34764.527
704.370;28989.066;  -12.859;34307.367
704.944;29208.902;  -11.559;33509.887
705.519;30208.236;   -7.939;31388.584
706.093;31421.020;  -10.499;31340.104
706.668;31891.646;  -11.289;32630.281
707.242;30448.260;  -11.509;32728.779
707.816;28689.924;   -9.639;32947.238
708.390;27235.316;  -11.429;33277.855
708.965;28068.508;  -11.869;33834.336
709.539;28473.828;  -11.689;33709.273
710.113;28924.877;  -10.478;33044.313
710.687;28531.912;  -10.228;31953.992
711.261;26563.527;  -13.698;30505.949
711.835;26175.869;  -13.378;30262.369
712.409;26864.365;   -9.698;31254.447
712.983;28627.285;  -11.898;32754.986
713.557;29671.426;  -15.138;34018.824
714.131;29340.369;  -14.098;34579.625
714.704;28488.914;   -9.958;33890.262
715.278;26117.848;  -10.028;33531.102
715.852;25270.598;  -11.148;33601.660
716.425;26157.344;   -9.068;33515.117
716.999;26824.119;  -10.038;33185.555
717.573;27846.461;   -9.798;33905.996
718.146;29211.924;  -12.378;35199.293
718.720;28976.988;  -11.918;35060.551
719.293;28291.293;   -8.088;34973.230
719.867;31172.154;  -10.888;36394.449
720.440;31124.027;  -11.938;36663.008
721.013;29438.820;  -12.818;35102.426
721.587;28016.025;  -10.298;33985.266
722.160;26599.516;  -10.048;33524.965
722.733;25632.418;  -12.108;32987.043
723.306;26291.438;  -10.818;33066.301
723.880;28412.223;   -8.908;33399.500
724.453;30229.082;   -9.878;33468.297
725.026;29189.580;  -11.188;33816.637
725.599;26507.988;  -11.678;32797.996
726.172;26740.973;   -9.618;33187.434
726.745;27961.666;   -8.258;35136.613
727.318;29514.869;  -12.978;35751.730
727.891;30294.172;  -12.148;35890.430
728.463;30131.256;   -8.968;34822.090
729.036;29007.340;  -10.188;32895.086
729.609;29244.936;  -11.788;31823.225
730.182;26115.455;  -11.788;31445.283
730.754;23630.451;  -10.268;32373.223
731.327;23664.863;   -9.998;33676.820
731.900;23719.523;  -12.228;33417.000
732.472;25009.422;  -13.848;31978.498
733.045;27140.283;   -8.698;30368.777
733.617;27067.615;  -10.607;30574.215
734.190;26656.473;  -11.507;31280.975
734.762;23952.850;  -13.647;31674.412
735.334;22286.293;   -9.767;31247.291
735.907;22643.564;   -9.897;29876.211
736.479;22569.512;  -11.637;29808.488
737.051;22248.895;   -9.567;30233.547
737.623;23460.031;   -8.187;31469.086
738.195;24383.361;  -11.187;31784.225
738.768;26279.895;  -12.337;32120.523
739.340;26370.805;  -12.227;32094.342
739.912;25135.854;  -11.057;31312.680
740.484;23971.637;  -10.207;31946.238
741.056;22820.215;  -10.047;32984.059
741.628;24476.352;  -13.627;33897.715
742.199;26753.369;   -7.177;33213.016
742.771;25081.693;  -10.797;31369.113
743.343;22727.945;  -11.997;31865.473
743.915;21665.338;  -12.867;32388.631
744.487;21838.057;   -7.617;31079.568
745.058;22009.646;   -9.557;30570.107
745.630;22677.248;   -9.877;29970.127
746.201;23649.895;  -14.177;29186.766
746.773;23941.904;   -9.237;28805.723
747.344;23839.365;   -9.847;29591.223
747.916;22332.029;  -11.657;31412.201
748.487;22208.008;  -10.587;32194.898
749.059;23359.906;   -8.707;32533.719
749.630;24346.547;  -10.537;32158.518
750.201;23433.301;  -11.687;30855.395
750.773;21674.920;  -11.647;28622.555
751.344;21674.775;   -7.147;28405.732
751.915;22658.127;   -9.757;28461.551
752.486;22175.201;  -12.427;27842.850
753.057;19945.742;  -12.227;27845.008
753.628;18782.785;  -10.417;27728.107
754.199;19926.211;  -11.767;27381.086
754.770;21142.799;  -11.187;25882.203
755.341;21176.244;  -10.507;25886.184
755.912;21284.742;   -9.387;26050.861
756.483;20609.668;  -10.647;26798.779
757.054;18764.025;  -11.837;27048.238
757.625;17542.828;  -12.716;26294.838
758.195;17421.604;   -9.666;26142.076
758.766;17121.191;   -8.656;26392.234
759.337;17847.760;  -12.856;26334.594
759.907;19625.922;  -13.366;27579.652
760.478;20477.875;   -8.576;28352.770
761.048;19858.805;  -10.526;27325.088
761.619;19026.340;  -11.116;26460.428
762.189;18977.898;  -12.136;26029.826
762.760;19906.125;   -9.456;26430.145
763.330;21148.871;   -7.136;26670.902
763.900;20663.613;  -11.786;26603.021
764.471;18019.072;  -11.546;25542.740
765.041;16720.865;   -8.096;24358.459
765.611;16825.627;   -8.876;23991.297
766.181;17269.322;  -12.196;24470.236
766.751;18098.383;  -11.636;24845.975
767.321;18061.555;  -10.156;24533.633
767.891;16203.438;  -11.766;24916.492
768.461;15578.834;  -14.936;24776.771
769.031;16028.728;  -12.356;24757.988
769.601;17635.875;   -7.526;24181.088
770.171;17604.084;  -10.766;23670.387
770.741;16631.184;  -13.176;22960.045
771.311;16826.873;  -10.616;22917.523
771.880;17247.334;   -9.576;23562.941
772.450;16742.555;  -10.336;24216.500
773.020;16632.320;  -13.516;24140.398
773.589;16285.474;  -13.466;24414.857
774.159;15817.040;   -8.686;23858.717
774.729;15334.438;   -9.476;22942.135
775.298;14879.408;  -13.666;22324.033
775.867;14515.104;  -11.716;21140.313
776.437;14607.587;   -9.906;20838.092
777.006;14294.491;  -12.166;20599.510
777.576;14233.189;  -12.356;20508.809
778.145;14402.966;  -11.646;20732.947
778.714;14296.538;   -8.226;21062.465
779.283;13503.427;   -9.556;20949.664
779.853;12992.777;  -14.116;20508.623
780.422;13366.138;  -11.506;20649.082
780.991;12962.510;   -9.556;21527.520
781.560;11899.828;   -9.095;22632.658
782.129;11684.281;  -12.135;23048.277
782.698;11709.403;  -10.865;23438.555
783.267;11377.417;   -9.335;23267.734
783.836;11316.812;  -11.045;22415.133
784.404;12321.022;  -13.865;20443.152
784.973;12829.706;  -13.095;19699.150
785.542;12686.098;  -11.575;19763.828
786.111;12542.419;   -9.705;20341.408
786.679;12131.369;  -12.105;20207.967
787.248;11910.468;  -12.455;19516.465
787.817;11742.493;  -11.535;18900.363
788.385;11351.466;   -9.765;17879.121
788.954;10790.989;  -14.005;17658.301
789.522;10284.524;  -11.955;17788.879
790.090;10823.672;  -10.135;18118.277
790.659;11287.311;  -10.975;18338.736
791.227;10677.933;  -13.375;18508.615
791.795;11018.391;  -12.375;17898.254
792.364;11407.362;  -10.725;17295.133
792.932;11776.618;   -9.715;16822.051
793.500;12003.313;  -12.675;17040.148
794.068;12221.563;  -13.495;17179.787
794.636;12346.660;  -10.885;16664.246
795.204;11831.756;  -11.045;16524.545
795.772;11889.684;  -13.175;17274.564
796.340;11424.462;  -12.445;17891.002
796.908;11228.005;   -9.735;17648.561
797.476;11189.198;   -9.815;17064.080
798.044;10782.644;  -13.985;16672.777
798.612; 9996.817;  -13.115;17023.996
799.180; 9665.884;  -10.185;16561.615
799.747; 9561.442;   -9.055;15962.773
800.315; 9250.141;  -12.385;15296.992
800.883; 8939.500;  -15.035;14801.771
801.450; 8948.408;  -10.365;14534.430
802.018; 9004.286;   -9.855;14173.248
802.585; 9062.729;  -11.905;14029.547
803.153; 9099.453;  -11.585;13836.846
803.720; 8988.620;   -9.095;13567.324
804.287; 8661.423;   -9.135;13360.622
804.855; 8240.987;  -11.604;13681.981
805.422; 8076.937;  -11.794;13536.560
805.989; 8064.101;  -10.734;13355.958
806.556; 8218.571;  -10.444;13747.896
807.124; 8496.258;  -12.764;13987.376
807.691; 8416.680;  -12.964;14038.674
808.258; 8223.378;  -11.134;14120.152
808.825; 7928.092;   -9.854;13860.111
809.392; 7997.747;  -10.504;13268.790
809.959; 7520.393;  -13.054;12680.389
810.526; 7098.490;   -8.294;12427.308
811.093; 7151.655;   -8.394;12030.105
811.659; 7767.377;  -12.304;11653.664
812.226; 8224.743;  -13.944;11637.183
812.793; 7892.959;  -10.484;11611.521
813.360; 7245.386;  -10.144;11885.181
813.926; 6887.819;  -11.684;12770.539
814.493; 6647.369;  -13.644;12677.638
815.060; 6294.685;   -9.724;11974.336
815.626; 6323.953;   -9.854;11594.715
816.193; 6721.458;  -13.254;11579.474
816.759; 6765.714;  -13.204;11666.972
817.325; 6849.605;   -9.434;11325.530
817.892; 7180.839;  -10.134;11105.369
818.458; 7582.608;  -13.474;10843.928
819.024; 7259.480;  -11.854;10714.406
819.591; 6921.880;  -10.244;10469.165
820.157; 6685.609;  -10.704;10235.523
820.723; 6151.134;  -12.324;10847.563
821.289; 5838.197;   -9.444;11040.980
821.855; 5774.506;   -8.374;10357.100
822.421; 5785.889;  -10.234; 9978.918
822.987; 5741.726;  -13.294; 9754.177
823.553; 5437.829;  -10.884;10065.755
824.119; 5267.859;   -8.884;10036.294
824.685; 5374.571;   -6.784;10029.192
825.251; 5469.464;  -12.004;10199.230
825.816; 5397.104;  -11.474; 9820.189
826.382; 5141.051;   -9.174; 9297.248
826.948; 5319.368;   -9.214; 9381.347
827.513; 5745.319;  -10.774; 9450.726
828.079; 5593.933;  -11.924; 9472.444
828.645; 5025.740;  -10.543; 9292.643
829.210; 4899.293;  -10.533; 9065.341
829.776; 4888.118;  -10.753; 9132.620
830.341; 4748.012;  -10.173; 9092.878
830.906; 4882.875;  -10.743; 9078.557
831.472; 5236.533;  -11.113; 8534.535
832.037; 5035.757;  -10.603; 8677.874
832.602; 4505.116;  -13.323; 8628.692
833.167; 4212.565;  -10.823; 8879.031
833.733; 4150.813;  -10.113; 9189.790
834.298; 4260.049;  -13.583; 9052.608
834.863; 4301.626;  -12.703; 8895.087
835.428; 4267.833;  -10.523; 8824.266
835.993; 4173.167;   -6.963; 8845.385
836.558; 4044.262;  -10.763; 8888.563
837.123; 4154.452;   -9.903; 8966.582
837.688; 4358.074;   -9.913; 8617.860
838.253; 4543.101;  -10.283; 8590.699
838.817; 4734.970;  -12.963; 8443.797
839.382; 4682.795;  -14.243; 8799.356
839.947; 4376.306;  -10.733; 8810.595
840.511; 4074.410;   -9.383; 8796.394
841.076; 3718.470;  -12.563; 8347.231
841.641; 3759.651;  -12.953; 8224.330
842.205; 3853.450;   -7.043; 8223.349
842.770; 3932.558;   -8.163; 8622.107
843.334; 4122.028;  -12.503; 8410.386
843.898; 4117.480;  -11.693; 8337.465
844.463; 4165.486;  -10.203; 8506.283
845.027; 3957.945;   -9.533; 8280.962
845.591; 3754.998;  -13.443; 8231.141
846.156; 3759.627;  -13.143; 7969.179
846.720; 3629.718;   -9.433; 7768.278
847.284; 3495.887;  -11.033; 7630.957
847.848; 3328.563;  -10.403; 7472.395
848.412; 3235.135;  -11.553; 7437.394
848.976; 3278.235;   -8.393; 7674.592
849.540; 3222.942;   -8.713; 7836.011
850.104; 3302.249;  -12.463; 7913.669
850.668; 3640.990;  -12.973; 7694.508
851.232; 3771.597;  -10.793; 7756.887
851.796; 3603.523;  -10.662; 7926.545
852.359; 3295.675;  -13.082; 7827.844
852.923; 3131.393;  -12.192; 7641.163
853.487; 2959.716;  -11.912; 7342.501
854.050; 2887.117;  -10.892; 7042.820
854.614; 3014.486;  -13.992; 7151.338
855.177; 3121.253;  -11.732; 7105.077
855.741; 3173.236;   -8.962; 6989.675
856.304; 3090.758;   -9.442; 6596.634
856.868; 3024.662;  -14.192; 6356.272
857.431; 3125.392;  -12.702; 6468.571
857.995; 3241.817;   -9.942; 6373.210
858.558; 3253.381;   -9.112; 6324.448
859.121; 3002.591;  -12.932; 6408.327
859.684; 2871.972;  -13.442; 6347.886
860.247; 2985.071;  -10.632; 6321.264
860.810; 2985.005;  -11.272; 6301.903
861.374; 2761.578;   -9.832; 6607.881
861.937; 2517.092;  -11.762; 6408.200
862.500; 2491.341;   -9.722; 6572.639
863.062; 2647.499;  -10.512; 6387.297
863.625; 2820.703;  -11.232; 6190.836
864.188; 2980.427;  -14.112; 5807.254
864.751; 3026.488;  -11.302; 5682.413
865.314; 2916.628;  -10.112; 5547.492
865.876; 2734.899;  -12.182; 5500.150
866.439; 2731.367;  -10.722; 5415.909
867.002; 2706.268;   -9.252; 5501.567
867.564; 2505.581;   -9.572; 5413.946
868.127; 2296.893;  -13.142; 5160.325
868.689; 2201.495;  -12.902; 5133.183
869.252; 2133.924;   -9.732; 5252.382
869.814; 2053.292;   -9.432; 5297.141
870.377; 2070.201;  -11.552; 5390.919
870.939; 2146.042;   -9.052; 5599.898
871.501; 2204.012;  -10.982; 5248.336
872.063; 2207.455;  -12.292; 4854.235
872.626; 2163.320;  -14.912; 4817.074
873.188; 2168.483;  -13.112; 4987.732
873.750; 2133.869;  -13.442; 4868.651
874.312; 2041.271;   -9.402; 4779.330
874.874; 1957.124;  -11.062; 4866.348
875.436; 1882.420;  -13.931; 4718.887
875.998; 1880.498;   -9.561; 4660.005
876.560; 1899.198;  -11.321; 4462.964
877.122; 1844.403;  -12.221; 4145.042
877.683; 1751.886;  -12.191; 4056.481
878.245; 1679.799;  -12.101; 3950.740
878.807; 1717.569;   -8.971; 4058.958
879.369; 1743.314;  -12.071; 3954.677
879.930; 1657.641;  -14.621; 3941.495
880.492; 1599.427;  -10.311; 4067.014
881.053; 1573.271;  -10.901; 3859.633
881.615; 1462.235;  -14.411; 3776.071
882.176; 1367.550;  -13.761; 3734.750
882.738; 1333.859;   -9.181; 3678.489
883.299; 1308.656;  -11.791; 3405.407
883.860; 1305.520;  -13.121; 3351.106
884.422; 1313.535;  -11.211; 3394.044
884.983; 1270.145;  -10.091; 3166.443
885.544; 1179.413;   -8.461; 3189.802
886.105; 1101.646;  -12.361; 3160.360
886.666; 1035.058;  -14.141; 3093.059
887.227;  975.130;  -11.361; 2941.957
887.788;  913.375;  -11.401; 2974.836
888.349;  849.723;  -13.791; 2721.214
888.910;  846.559;  -13.191; 2696.493
889.471;  853.874;   -9.881; 2560.172
890.032;  841.616;   -9.881; 2558.190
890.593;  817.807;  -10.371; 2567.669
891.153;  789.461;  -13.301; 2460.307
891.714;  741.917;  -11.431; 2372.046
892.275;  706.976;  -11.291; 2309.505
892.835;  671.370;  -11.471; 2382.543
893.396;  615.790;  -11.541; 2295.502
893.956;  558.073;  -11.181; 2162.420
894.517;  520.497;  -11.741; 2125.439
895.077;  513.290;  -11.671; 2086.978
895.638;  514.156;  -11.311; 2126.316
896.198;  485.433;   -9.831; 1838.275
896.758;  443.376;   -8.421; 1892.813
897.319;  411.889;  -12.351; 1792.232
897.879;  394.652;  -13.511; 1762.751
898.439;  370.944;  -12.001; 1661.149
898.999;  345.189;  -10.180; 1781.468
899.559;  336.791;  -12.030; 1703.347
900.119;  331.862;  -15.710; 1537.525
900.679;  328.190;   -8.900; 1638.384
901.239;  316.157;   -8.340; 1527.902
901.799;  303.991;  -13.910; 1456.441
902.359;  298.654;  -13.460; 1357.140
902.919;  292.147;  -11.490; 1331.118
903.479;  277.967;  -12.110; 1317.257
904.038;  257.601;  -11.720; 1262.595
904.598;  241.662;  -13.610; 1152.034
905.158;  236.758;  -11.040; 1240.893
905.717;  231.567;  -10.900; 1233.691
906.277;  219.935;  -15.080; 1217.330
906.836;  212.374;  -13.380; 1222.408
907.396;  203.301;  -10.780; 1193.047
907.955;  196.441;   -8.500; 1182.526
908.515;  190.531;  -12.760; 1099.364
909.074;  184.209;  -11.900; 1092.863
909.633;  177.518;   -8.950; 1069.121
910.192;  173.527;   -8.770; 1196.460
910.752;  169.043;  -12.390; 1029.960
911.311;  164.258;  -13.680; 1009.780
911.870;  162.244;  -12.370;  971.460
912.429;  163.396;  -10.900; 1094.080
912.988;  162.202;  -11.690; 1081.060
913.547;  156.748;  -13.240;  940.380
914.106;  152.422;  -11.990;  999.420
914.665;  149.270;   -9.990;  984.020
915.224;  147.643;  -12.880; 1035.760
915.782;  147.934;  -12.350;  922.560
916.341;  148.088;   -9.110; 1049.840
916.900;  143.641;   -9.270;  925.260
917.458;  142.214;  -13.240;  884.220
918.017;  141.260;  -13.550;  942.600
918.576;  141.458;  -12.320;  904.440
919.134;  138.542;  -11.490;  837.980
919.693;  136.643;  -13.670;  893.060
920.251;  134.946;  -15.470;  876.500
920.809;  133.853;  -11.290;  839.580
921.368;  133.672;  -10.210;  885.360
921.926;  132.628;  -12.140;  842.940
922.484;  131.697;  -13.080;  903.360
923.042;  131.188;  -11.720;  880.340
923.601;  134.369;   -7.480;  998.680
924.159;  132.330;  -11.570;  935.560
924.717;  129.276;  -13.840;  841.080
925.275;  129.641;  -10.640;  903.240
925.833;  128.753;  -11.540;  779.320
926.391;  130.407;  -12.960;  938.380
926.949;  127.483;  -14.130;  857.680
927.506;  128.628;  -11.750;  903.500
928.064;  129.469;  -10.250;  877.580
928.622;  127.195;  -13.030;  880.100
929.180;  127.015;  -13.400;  814.180
929.737;  128.407;  -10.700;  808.540
930.295;  131.659;  -10.070;  928.480
930.853;  133.448;  -11.960;  849.100
931.410;  133.635;  -13.120;  821.120
931.968;  133.486;  -10.770;  940.660
932.525;  133.095;  -10.680;  909.380
933.082;  133.352;  -13.130;  811.440
933.640;  134.056;  -13.210;  925.900
934.197;  132.847;  -11.060;  886.360
934.754;  132.831;   -9.580;  897.780
935.312;  136.429;  -14.000;  863.340
935.869;  140.796;  -10.710; 1012.980
936.426;  140.480;   -9.860;  872.800
936.983;  141.617;   -9.710;  889.020
937.540;  141.125;  -13.990;  838.280
938.097;  140.014;  -14.040;  940.120
938.654;  139.464;  -10.310;  898.860
939.211;  142.609;  -10.560;  952.480
939.768;  146.226;  -13.900;  915.420
940.324;  149.539;  -14.760;  904.200
940.881;  149.463;  -10.370;  878.500
941.438;  150.100;   -8.260; 1021.200
941.995;  146.817;  -12.540;  992.560
942.551;  144.537;  -14.670;  875.620
943.108;  144.612;  -10.450;  937.920
943.664;  146.487;  -10.750;  869.340
944.221;  150.084;  -11.550; 1088.140
944.777;  146.452;  -14.770;  869.680
945.334;  148.718;  -12.820;  884.840
945.890;  151.075;  -10.130;  946.480
946.446;  152.007;  -13.470;  947.020
947.003;  153.036;  -12.120;  964.940
947.559;  155.164;   -9.980; 1063.040
948.115;  153.888;   -9.080; 1026.540
948.671;  151.550;  -10.830;  967.300
949.227;  148.611;  -12.440;  859.560
949.783;  145.706;  -12.910;  858.900
950.339;  147.599;  -10.270;  991.000
950.895;  147.642;  -13.630; 1023.840
951.451;  147.409;  -15.100;  925.280
952.007;  148.407;  -11.330;  998.540
952.563;  148.912;  -10.580;  937.780
953.118;  149.373;  -13.440;  904.940
953.674;  147.335;  -12.710;  935.780
954.230;  147.401;  -10.350;  949.640
954.785;  146.739;   -9.190;  936.640
955.341;  142.599;  -11.200;  998.160
955.897;  141.627;  -16.560;  834.660
956.452;  141.914;  -12.570;  953.840
957.008;  142.275;   -7.970; 1083.640
957.563;  139.150;  -11.940; 1009.540
958.118;  134.832;  -13.450;  877.700
958.674;  135.102;  -12.030;  946.780
959.229;  135.627;   -9.410; 1013.980
959.784;  134.480;  -12.000;  832.400
960.339;  133.776;  -14.780; 1001.280
960.894;  129.785;   -9.860;  963.760
961.449;  126.800;   -9.970;  859.960
962.004;  126.639;  -10.900; 1212.840
962.559;  121.042;  -13.150;  860.140
963.114;  119.216;  -13.740;  742.480
963.669;  119.116;   -9.820;  915.500
964.224;  117.847;  -13.890;  874.340
964.779;  117.081;  -12.600;  828.420
965.334;  118.259;  -10.950; 1017.860
965.888;  117.875;  -11.170;  875.360
966.443;  120.304;  -12.540;  972.380
966.998;  118.481;  -15.780;  819.460
967.552;  117.113;   -9.760;  908.380
968.107;  113.979;   -9.060;  868.300
968.661;  115.754;  -11.950;  922.440
969.216;  115.783;  -12.800;  856.280
969.770;  116.360;  -11.210;  917.200
970.324;  115.433;  -11.610;  923.140
970.879;  112.156;  -11.370;  947.180
971.433;  109.052;  -12.540;  952.720
971.987;  104.165;  -11.320;  895.340
972.541;  101.007;  -10.720;  917.100
973.095;  101.031;   -9.680; 1009.460
973.649;   98.929;  -11.440;  809.480
974.203;   98.842;  -11.210;  829.040
974.757;   98.660;  -10.240;  855.220
975.311;   98.539;  -13.720;  872.600
975.865;   97.910;  -13.770;  881.820
976.419;   96.330;  -11.690;  857.400
976.973;   96.162;   -9.510;  849.620
977.526;   98.730;  -12.620;  949.920
978.080;   97.741;  -12.010;  796.780
978.634;   98.732;  -10.170;  921.320
979.187;   96.369;   -9.020;  905.400
979.741;   94.595;   -9.820; 1018.380
980.294;   88.800;  -14.870;  789.160
980.848;   86.780;  -12.380;  717.220
981.401;   88.937;  -10.350;  816.540
981.955;   91.634;  -13.720;  844.300
982.508;   89.828;  -11.490;  746.340
983.061;   90.610;  -10.000;  915.260
983.615;   86.527;  -11.480;  798.800
984.168;   83.621;  -13.220;  770.080
984.721;   82.766;  -13.960;  880.760
985.274;   82.106;  -10.870;  867.500
985.827;   81.125;   -9.790;  834.220
986.380;   78.456;  -13.120;  721.340
986.933;   78.002;  -12.450;  864.800
987.486;   76.987;  -10.210;  861.920
988.039;   74.703;   -8.430;  863.100
988.591;   73.265;  -10.520;  893.260
989.144;   70.874;  -14.860;  737.260
989.697;   69.847;  -13.080;  758.740
990.250;   70.826;  -10.150;  858.100
990.802;   69.803;  -13.430;  755.860
991.355;   70.756;  -12.750;  974.880
991.907;   68.629;  -12.040;  864.320
992.460;   66.501;  -11.330;  753.760
993.012;   65.928;  -13.610;  749.540
993.565;   64.757;  -13.460;  711.360
994.117;   66.405;   -9.360;  950.780
994.669;   62.543;  -11.300;  701.320
995.221;   61.150;  -13.540;  791.920
995.774;   58.774;  -13.430;  787.580
996.326;   57.760;  -12.520;  740.220
996.878;   57.017;  -10.950;  838.420
997.430;   55.330;  -14.300;  699.860
997.982;   54.253;  -13.760;  750.140
998.534;   53.573;  -11.530;  739.060
999.086;   52.553;  -10.310;  738.220
999.638;   51.183;  -12.530;  661.380
1000.190;   50.368;  -11.840;  699.320
1000.741;   50.230;  -10.260;  742.700
1001.293;   49.896;   -8.860;  686.020
1001.845;   49.169;  -13.700;  676.640
1002.396;   48.698;  -12.100;  743.400
1002.948;   48.418;  -12.760;  737.400
1003.500;   46.852;  -10.380;  723.780
1004.051;   47.336;  -11.900;  907.580
1004.603;   45.231;  -12.250;  791.820
1005.154;   41.811;  -13.210;  608.980
1005.705;   41.761;  -10.950;  723.960
1006.257;   40.475;  -13.880;  707.220
1006.808;   40.308;  -12.840;  685.460
1007.359;   39.888;  -10.570;  763.240
1007.910;   38.626;   -9.620;  646.640
1008.461;   38.348;  -13.630;  732.940
1009.013;   37.102;  -17.200;  588.340
1009.564;   38.211;  -10.200;  793.520
1010.115;   36.650;  -12.570;  597.040
1010.665;   35.287;  -15.150;  602.160
1011.216;   36.576;  -14.480;  667.920
1011.767;   35.457;  -11.340;  697.920
1012.318;   35.874;   -9.780;  736.980
1012.869;   34.250;  -12.380;  679.000
1013.419;   34.258;  -15.560;  603.120
1013.970;   34.868;  -11.010;  666.640
1014.521;   33.815;  -11.610;  620.620
1015.071;   33.435;  -13.450;  670.380
1015.622;   33.578;  -13.870;  635.460
1016.172;   33.103;  -11.610;  596.820
1016.723;   32.844;  -12.120;  614.380
1017.273;   32.790;  -13.620;  604.160
1017.823;   32.450;  -14.140;  650.340
1018.374;   31.619;  -12.800;  611.760
1018.924;   32.222;  -12.340;  716.880
1019.474;   32.178;  -11.410;  718.880
1020.024;   31.308;  -14.770;  657.580
1020.574;   31.509;   -9.780;  726.160
1021.124;   31.071;   -8.560;  673.580
1021.674;   30.242;  -15.190;  559.120
1022.224;   31.837;  -13.530;  708.940
1022.774;   30.758;  -13.280;  668.820
1023.324;   31.100;  -10.690;  753.520
1023.874;   32.172;  -10.240;  875.760
1024.423;   30.020;  -12.540;  613.700
1024.973;   30.359;  -10.010;  610.760
1025.523;   28.722;  -10.550;  620.960
1026.072;   28.643;  -13.560;  606.420
1026.622;   28.198;  -15.120;  675.740
1027.172;   29.860;  -11.260;  715.660
1027.721;   28.615;  -11.410;  601.220
1028.270;   29.045;  -13.530;  663.400
1028.820;   28.472;  -13.680;  638.080
1029.369;   27.925;  -13.520;  612.700
1029.918;   27.844;  -10.980;  649.840
1030.468;   27.918;  -13.530;  564.780
1031.017;   28.695;  -13.170;  634.800
1031.566;   26.517;  -12.200;  608.900
1032.115;   27.674;   -9.960;  694.500
1032.664;   26.542;  -13.210;  596.480
1033.213;   26.988;  -12.500;  735.420
1033.762;   26.675;  -11.910;  635.620
1034.311;   25.915;   -9.640;  677.220
1034.860;   26.766;  -13.310;  691.000
1035.408;   26.479;  -11.830;  722.720
1035.957;   26.820;  -12.000;  719.540
1036.506;   24.841;  -11.690;  530.800
1037.055;   27.288;  -10.990;  844.320
1037.603;   25.249;  -15.120;  664.000
1038.152;   23.884;  -12.450;  534.760
1038.700;   24.598;  -10.560;  585.740
1039.249;   24.299;  -11.080;  681.220
1039.797;   24.863;  -12.540;  633.360
1040.345;   24.428;  -11.920;  705.420
1040.894;   24.219;  -11.410;  625.300
1041.442;   23.475;  -14.320;  632.200
1041.990;   23.386;  -16.240;  559.160
1042.538;   23.113;  -11.680;  536.180
1043.087;   22.737;  -10.760;  570.860
1043.635;   24.162;  -11.850;  670.500
1044.183;   23.245;  -15.480;  586.400
1044.731;   22.506;  -11.770;  576.000
1045.279;   22.192;  -13.090;  674.920
1045.827;   24.320;  -12.440;  892.400
1046.374;   21.384;  -13.840;  515.420
1046.922;   20.687;  -13.220;  590.580
1047.470;   22.311;  -10.230;  691.300
1048.018;   22.108;  -14.590;  647.960
1048.565;   23.450;  -12.050;  708.600
1049.113;   20.604;  -11.650;  557.000
1049.660;   20.820;  -10.510;  629.660
1050.208;   22.370;  -13.310;  675.640
1050.755;   21.169;  -15.900;  606.580
1051.303;   21.449;  -11.430;  686.820
1051.850;   20.952;   -8.480;  635.120
1052.397;   19.753;  -15.010;  473.960
1052.945;   20.051;  -13.960;  617.760
1053.492;   21.583;  -13.150;  741.840
1054.039;   21.763;   -9.630;  720.180
1054.586;   19.757;  -13.680;  557.240
1055.133;   20.591;  -14.570;  693.140
1055.680;   19.943;  -13.820;  646.620
1056.227;   19.783;  -11.730;  542.780
1056.774;   20.686;  -12.480;  794.980
1057.321;   18.789;  -13.930;  523.260
1057.868;   18.998;  -11.690;  651.320
1058.415;   19.481;   -9.520;  651.980
1058.961;   19.434;  -13.160;  678.940
1059.508;   18.850;  -12.920;  643.820
1060.055;   19.495;  -11.920;  581.780
1060.601;   19.904;  -11.500;  624.300
1061.148;   18.796;  -14.330;  616.820
1061.694;   17.917;  -16.870;  592.580
1062.241;   17.853;  -10.330;  596.320
1062.787;   18.868;  -10.620;  663.140
1063.334;   19.764;  -10.110;  808.560
1063.880;   18.123;  -13.400;  668.360
1064.426;   18.059;  -10.680;  706.820
1064.972;   17.475;   -9.920;  601.340
1065.518;   16.104;  -10.980;  566.640
1066.065;   17.253;  -14.890;  624.460
1066.611;   16.327;  -12.870;  598.800
1067.157;   17.477;  -12.950;  641.860
1067.703;   17.319;  -13.540;  668.480
1068.249;   16.905;  -13.540;  605.220
1068.794;   16.920;  -12.600;  626.880
1069.340;   15.819;  -10.620;  578.960
1069.886;   16.758;  -12.830;  590.700
1070.432;   15.100;  -14.870;  541.720
1070.977;   15.224;  -11.980;  601.080
1071.523;   15.995;   -8.200;  573.060
1072.068;   15.853;  -12.330;  582.000
1072.614;   15.757;  -16.370;  527.760
1073.160;   16.781;  -11.100;  687.040
1073.705;   14.937;  -10.480;  572.520
1074.250;   15.086;  -14.520;  559.900
1074.796;   16.161;  -11.460;  655.160
1075.341;   15.500;  -11.950;  664.100
1075.886;   15.103;  -11.460;  594.240
1076.431;   15.088;  -13.770;  649.880
1076.976;   14.370;  -12.680;  639.220
1077.521;   14.422;  -13.170;  583.080
1078.067;   13.787;  -10.860;  579.400
1078.612;   14.755;  -13.920;  661.620
1079.156;   14.856;  -13.880;  601.540
1079.701;   14.733;  -13.120;  693.260
1080.246;   14.737;   -9.940;  696.300
1080.791;   14.402;  -14.740;  625.020
1081.336;   14.473;  -13.750;  659.320
1081.880;   14.098;  -13.400;  649.680
1082.425;   12.741;  -12.220;  573.480
1082.970;   15.254;  -11.610;  717.040
1083.514;   13.066;  -13.580;  597.000
1084.059;   11.944;  -12.810;  586.720
1084.603;   13.696;  -12.320;  565.840
1085.147;   13.083;  -13.190;  645.220
1085.692;   13.469;  -12.480;  716.800
1086.236;   11.788;  -13.020;  503.140
1086.780;   14.093;   -9.190;  751.440
1087.325;   12.864;  -12.480;  654.620
1087.869;   13.112;  -12.450;  610.700
1088.413;   13.596;  -12.240;  705.040
1088.957;   11.019;   -9.020;  543.400
1089.501;   13.384;  -10.320;  766.640
1090.045;   12.810;  -12.720;  726.480
1090.589;   10.738;  -13.690;  569.920
1091.133;   11.771;  -10.020;  673.340
1091.676;   12.349;  -12.330;  591.940
1092.220;   12.035;  -14.970;  600.920
1092.764;   12.277;  -12.430;  706.960
1093.307;   11.673;   -9.800;  673.780
1093.851;   10.584;  -14.970;  556.540
1094.395;   11.070;  -15.310;  683.140
1094.938;   10.512;  -10.370;  632.520
1095.482;   11.139;  -11.050;  559.800
1096.025;   11.376;  -11.840;  710.880
1096.568;   11.701;  -12.840;  779.280
1097.112;    9.666;  -14.700;  508.180
1097.655;   11.084;   -8.720;  603.000
1098.198;    8.989;  -13.610;  600.180
1098.741;    9.397;  -13.350;  612.860
1099.285;   10.420;  -11.230;  657.300
1099.828;    8.157;  -11.840;  439.400
1100.371;    9.950;  -10.840;  608.160
1100.914;    9.802;  -14.190;  682.660
1101.457;    9.457;  -11.240;  679.900
1101.999;    8.437;  -11.270;  584.680
1102.542;    9.706;  -11.480;  641.440
1103.085;    9.166;  -11.750;  658.500
1103.628;   10.284;  -11.400;  762.060
1104.170;    9.356;  -10.490;  588.280
1104.713;    9.207;  -10.600;  646.700
1105.256;    9.181;  -14.360;  557.440
1105.798;    8.358;  -13.210;  499.980
1106.341;   10.250;  -10.270;  728.900
1106.883;    8.390;  -12.200;  521.340
1107.425;    8.818;  -13.110;  668.180
1107.968;    7.629;  -12.840;  612.380
1108.510;    9.100;   -6.480;  684.960
1109.052;    6.996;  -13.940;  612.620
1109.594;    7.975;  -13.690;  554.440
1110.136;    8.613;  -11.880;  643.220
1110.679;    7.104;   -9.500;  633.080
1111.221;    7.687;  -14.160;  604.460
1111.763;    7.049;  -13.980;  559.220
1112.304;    6.650;  -13.880;  547.140
1112.846;    7.727;  -12.210;  666.240
1113.388;   11.121;  -11.390;  942.180
1113.930;    7.972;  -14.540;  694.200
1114.472;    6.597;  -12.640;  606.540
1115.013;    5.838;  -11.620;  551.280
1115.555;    6.060;  -13.640;  587.100
1116.097;    5.861;  -15.380;  579.480
1116.638;    6.842;  -12.640;  684.600
1117.180;    7.424;   -9.850;  667.740
1117.721;    6.881;  -13.690;  568.580
1118.262;    6.866;  -12.680;  677.960
1118.804;    6.816;  -12.530;  637.340
1119.345;    5.379;  -11.690;  578.400
1119.886;    6.972;  -13.380;  704.040
1120.427;    5.207;  -14.070;  589.020
1120.969;    5.893;  -13.500;  597.920
1121.510;    5.039;  -11.480;  563.060
1122.051;    5.786;  -12.830;  723.580
1122.592;    5.503;  -14.290;  655.420
1123.133;    4.787;  -12.400;  547.940
1123.673;    5.691;  -10.130;  706.480
1124.214;    4.893;  -12.930;  612.460
1124.755;    5.445;  -14.380;  639.460
1125.296;    5.335;  -14.000;  627.320
1125.836;    6.143;  -10.070;  691.500
1126.377;    4.873;  -12.640;  599.660
1126.918;    5.002;  -12.960;  614.980
1127.458;    4.083;  -13.350;  622.220
1127.999;    5.551;  -10.750;  656.980
1128.539;    5.239;  -12.350;  694.240
1129.079;    4.463;  -14.860;  632.720
1129.620;    3.909;  -13.840;  558.100
1130.160;    3.867;  -12.330;  539.480
1130.700;    4.953;  -14.530;  640.840
1131.240;    5.147;  -12.530;  643.700
1131.781;    4.107;  -14.450;  619.680
1132.321;    3.340;   -9.790;  599.120
1132.861;    2.929;  -14.860;  564.200
1133.401;    2.920;  -14.290;  593.940
1133.941;    3.468;  -11.750;  626.280
1134.481;    3.583;   -9.920;  597.580
1135.020;    2.849;  -12.290;  609.160
1135.560;    3.946;  -11.650;  674.940
1136.100;    2.501;  -16.270;  501.160
1136.640;    3.061;  -10.890;  510.480
1137.179;    3.707;  -14.180;  537.960
1137.719;    2.725;  -16.250;  605.400
1138.258;    2.443;  -14.230;  587.360
1138.798;    3.304;   -9.090;  663.780
1139.337;    2.061;  -15.130;  482.840
1139.877;    3.169;  -13.680;  642.360
1140.416;    4.778;  -11.320;  878.060
1140.955;    1.993;  -10.860;  535.380
1141.494;    2.389;  -12.920;  669.280
1142.034;    1.773;  -13.930;  583.520
1142.573;    3.235;  -11.440;  646.280
1143.112;    1.503;  -12.000;  553.480
1143.651;    2.373;  -13.670;  536.480
1144.190;    3.026;  -12.730;  691.640
1144.729;    1.923;  -14.560;  607.420
1145.267;    2.386;  -11.830;  584.900
1145.806;    3.227;  -12.230;  637.040
1146.345;    1.681;  -14.130;  635.020
1146.884;    1.384;  -11.590;  622.500
1147.422;    0.631;  -12.550;  533.060
1147.961;    3.457;  -11.180;  708.460
1148.500;    2.309;  -11.510;  669.720
1149.038;    2.284;  -11.640;  632.500
1149.577;    1.963;  -10.130;  698.640
1150.115;    0.373;  -13.970;  452.280
1150.653;    1.422;  -14.520;  607.340
1151.192;    1.209;  -12.810;  552.920
1151.730;    1.207;   -9.100;  652.560
1152.268;    0.777;  -12.220;  589.520
1152.806;    0.989;  -14.140;  571.180
1153.344;   -0.729;  -12.350;  577.640
1153.882;    0.948;   -8.980;  600.060
1154.421;    0.017;  -15.190;  470.620
1154.958;    0.471;  -15.210;  595.240
1155.496;    1.815;  -12.850;  645.280
1156.034;    0.910;   -9.940;  721.880
1156.572;    1.671;  -13.570;  667.060
1157.110;   -0.358;  -14.590;  473.940
1157.647;    0.544;  -13.030;  676.960
1158.185;   -0.015;  -12.140;  564.320
1158.723;   -0.393;  -14.390;  509.200
1159.260;    0.085;  -14.090;  701.700
1159.798;    0.403;  -11.920;  658.160
1160.335;   -0.308;  -11.110;  631.820

