
Integration time [ms]:   3.276
Averaging Nr. [scans]: 1000
Smoothing Nr. [pixels]: 0
Data measured with spectrometer [name]: 7414430SP
Wave   ;Sample   ;Dark     ;Reference
[nm]   ;[counts] ;[counts] ;[counts] 

288.544;  150.624;    7.793;  793.890
289.143;  154.196;    7.462;  681.602
289.742;  155.512;    8.602;  828.814
290.341;  140.437;    1.321;  789.841
290.940;  129.549;   -0.709;  730.702
291.538;  129.849;    0.881;  881.108
292.137;  130.486;    0.122;  792.581
292.736;  135.748;   -1.929;  975.101
293.335;  131.767;   -8.229;  735.086
293.934;  131.043;   -5.279;  781.677
294.532;  129.890;   -1.369; 1031.958
295.131;  116.767;   -7.641;  834.394
295.730;  116.221;   -8.420;  809.588
296.328;  115.121;   -5.611;  783.442
296.927;  116.042;   -5.781;  779.652
297.525;  117.528;   -6.361;  781.236
298.124;  108.371;  -11.382;  654.009
298.722;  111.045;   -7.641;  761.933
299.321;  109.671;   -6.811;  708.597
299.919;  107.393;   -6.991;  751.918
300.518;  103.556;  -10.362;  689.338
301.116;  104.938;   -9.581;  691.381
301.715;  106.103;   -4.891;  730.222
302.313;  105.453;   -8.801;  704.943
302.911;   99.879;   -8.522;  733.830
303.509;  104.673;   -6.171;  925.627
304.108;  103.707;   -7.311;  760.383
304.706;  103.310;   -8.321;  801.664
305.304;   96.425;  -10.222;  796.707
305.902;  101.127;   -6.021;  784.484
306.500;   98.355;   -4.971;  728.200
307.098;   96.331;   -7.061;  746.560
307.696;   93.417;   -8.801;  780.432
308.294;   95.157;   -6.411;  731.359
308.892;   96.984;   -2.901;  759.769
309.490;   93.325;   -5.041;  712.161
310.088;   90.709;   -5.002;  788.444
310.686;   95.271;   -2.041;  821.749
311.284;   91.120;   -2.351;  766.040
311.882;   89.694;   -4.422;  731.225
312.480;   85.791;   -4.192;  697.167
313.078;   86.473;   -1.172;  808.331
313.675;   88.939;   -2.601;  691.600
314.273;   83.329;   -1.312;  797.837
314.871;   82.189;   -3.942;  589.829
315.468;   79.081;   -2.802;  652.090
316.066;   83.710;   -0.701;  694.427
316.664;   76.419;   -4.362;  656.351
317.261;   80.389;   -2.872;  910.128
317.859;   75.205;   -2.022;  768.735
318.456;   76.558;   -0.531;  830.096
319.054;   72.161;   -3.912;  787.828
319.651;   70.007;   -4.752;  759.928
320.249;   69.111;   -2.602;  810.188
320.846;   67.394;   -0.821;  714.286
321.443;   66.488;   -4.642;  832.135
322.041;   61.664;   -5.002;  812.315
322.638;   59.090;   -3.982;  701.456
323.235;   61.175;   -3.411;  665.683
323.833;   58.764;   -7.361;  740.354
324.430;   53.672;   -8.611;  615.900
325.027;   54.055;   -4.061;  876.855
325.624;   54.929;   -4.031;  644.532
326.221;   51.769;   -7.481;  689.717
326.818;   51.024;   -5.281;  818.332
327.415;   53.245;   -7.460;  748.828
328.012;   54.863;   -5.510;  690.585
328.609;   53.355;   -7.880;  731.389
329.206;   50.054;   -8.331;  778.621
329.803;   49.867;   -5.121;  737.841
330.400;   54.264;   -4.510;  704.260
330.997;   55.597;   -6.441;  817.147
331.594;   53.015;   -8.831;  788.185
332.191;   57.830;   -7.621;  728.722
332.787;   61.345;   -4.591;  844.463
333.384;   60.588;   -7.412;  763.093
333.981;   58.116;   -8.293;  815.687
334.578;   60.542;   -7.052;  708.378
335.174;   64.412;   -3.102;  731.469
335.771;   64.283;   -5.943;  836.456
336.367;   61.204;   -7.393;  710.631
336.964;   64.376;   -4.063;  793.266
337.561;   62.073;   -3.813;  731.112
338.157;   58.726;   -4.654;  911.916
338.754;   55.902;   -7.934;  796.589
339.350;   53.055;   -4.414;  722.493
339.946;   55.156;   -4.664;  773.135
340.543;   47.787;   -6.375;  846.136
341.139;   42.410;   -9.815;  720.836
341.735;   39.383;   -4.526;  772.593
342.332;   38.800;   -4.895;  691.472
342.928;   39.154;   -4.295;  795.394
343.524;   32.880;   -5.476;  761.684
344.120;   29.190;   -5.856;  738.562
344.716;   33.068;   -2.155;  723.717
345.313;   30.852;   -6.275;  795.342
345.909;   25.264;   -8.815;  627.336
346.505;   25.431;   -5.305;  740.247
347.101;   27.425;   -2.674;  827.864
347.697;   28.087;   -4.344;  785.398
348.293;   22.499;   -9.975;  627.244
348.889;   22.703;   -5.774;  745.914
349.485;   23.003;   -5.004;  688.205
350.081;   22.797;   -4.704;  772.592
350.676;   18.311;   -6.635;  691.606
351.272;   22.348;   -4.504;  809.530
351.868;   22.195;   -3.914;  780.497
352.464;   20.104;   -9.044;  723.932
353.059;   15.168;   -8.314;  646.017
353.655;   19.333;   -7.024;  777.063
354.251;   20.653;   -5.343;  759.845
354.846;   15.850;   -8.604;  740.646
355.442;   12.186;   -6.945;  753.071
356.038;   13.826;   -7.564;  751.708
356.633;   14.702;   -5.814;  728.594
357.229;   12.735;   -7.364;  724.757
357.824;   10.512;   -8.024;  703.600
358.420;    9.361;   -9.384;  679.726
359.015;   10.429;   -5.104;  695.357
359.610;   11.850;   -6.854;  763.920
360.206;    5.343;  -10.185;  603.240
360.801;    7.532;   -7.054;  646.503
361.396;   10.471;   -5.034;  725.975
361.992;    6.858;   -8.284;  668.220
362.587;    3.539;   -8.625;  670.160
363.182;    5.035;   -7.674;  689.631
363.777;    6.191;   -5.164;  738.242
364.372;    6.670;   -8.604;  737.314
364.967;    1.537;   -9.055;  680.744
365.563;    5.838;   -6.114;  815.567
366.158;    3.200;   -5.814;  685.161
366.753;    4.480;   -7.854;  649.263
367.348;    2.097;   -7.804;  746.056
367.942;    1.501;   -7.954;  697.298
368.537;    1.255;   -4.984;  754.245
369.132;    1.478;   -8.564;  703.428
369.727;   -3.156;   -8.855;  638.079
370.322;   -1.776;   -6.245;  580.186
370.917;   -1.545;   -6.425;  710.646
371.511;    1.257;   -6.294;  861.834
372.106;   -2.567;   -7.685;  776.964
372.701;   -6.137;   -7.335;  585.988
373.296;   -0.532;   -4.564;  863.135
373.890;   -4.075;  -10.235;  647.840
374.485;   -6.597;   -7.885;  691.199
375.079;   -3.782;   -7.324;  738.685
375.674;   -1.102;   -3.494;  812.970
376.268;   -5.268;   -8.525;  691.759
376.863;  -11.942;  -10.086;  580.327
377.457;   -6.421;   -7.025;  662.490
378.052;   -7.657;   -3.585;  764.884
378.646;   -7.464;   -7.595;  741.167
379.240;   -8.873;   -8.335;  721.176
379.835;   -8.182;   -5.785;  636.978
380.429;   -8.713;   -4.335;  562.557
381.023;   -9.236;   -6.805;  779.205
381.617;  -11.792;   -9.195;  680.106
382.212;   -9.142;   -6.905;  685.303
382.806;   -7.531;   -3.745;  760.690
383.400;  -11.558;   -7.745;  672.281
383.994;  -13.707;   -9.765;  664.870
384.588;   -9.443;   -6.564;  697.701
385.182;   -7.371;   -5.344;  726.624
385.776;   -8.997;   -8.514;  706.875
386.370;  -13.237;   -9.555;  681.968
386.964;  -11.717;   -8.715;  684.155
387.558;   -9.468;   -6.174;  598.360
388.152;  -12.674;   -8.725;  681.959
388.745;  -11.600;   -7.965;  814.707
389.339;  -10.444;   -5.924;  747.642
389.933;   -8.053;   -5.524;  695.370
390.527;   -9.391;   -7.114;  859.029
391.120;  -16.682;  -10.725;  595.318
391.714;  -13.342;   -8.035;  711.633
392.308;  -10.236;   -3.574;  780.253
392.901;  -13.117;   -7.245;  642.460
393.495;  -15.594;   -9.285;  595.414
394.089;  -14.200;   -5.895;  760.452
394.682;  -14.672;   -4.295;  697.188
395.275;  -13.752;   -9.875;  719.927
395.869;  -16.125;   -8.485;  667.314
396.462;  -15.023;   -7.455;  616.609
397.056;   -9.995;   -5.424;  776.621
397.649;  -14.710;   -6.605;  731.575
398.242;  -12.781;   -8.224;  712.645
398.836;  -12.563;   -7.474;  766.408
399.429;  -12.446;   -7.094;  631.041
400.022;  -15.524;   -9.475;  665.902
400.615;  -14.143;   -7.145;  805.609
401.208;  -12.479;   -7.174;  691.451
401.802;  -14.208;   -5.515;  699.329
402.395;  -14.704;   -9.875;  683.502
402.988;  -17.104;   -8.845;  696.627
403.581;  -12.906;   -8.874;  646.878
404.174;  -10.794;   -5.324;  686.568
404.767;  -12.972;   -9.575;  638.583
405.360;  -16.091;  -10.965;  621.445
405.953;  -10.312;   -8.764;  759.034
406.545;   -9.402;   -7.514;  725.342
407.138;  -14.131;  -10.025;  618.350
407.731;  -13.324;  -10.034;  613.303
408.324;   -9.717;   -9.374;  660.554
408.917;  -10.054;   -6.534;  681.864
409.509;  -11.012;   -8.004;  740.396
410.102;  -14.125;   -9.875;  643.948
410.695;   -8.119;   -8.604;  665.758
411.287;   -8.108;   -6.794;  599.821
411.880;   -9.896;   -9.334;  585.421
412.472;  -13.340;  -10.254;  613.092
413.065;  -10.648;   -6.714;  629.408
413.657;   -8.029;   -7.234;  576.678
414.250;   -7.806;  -10.544;  646.681
414.842;   -9.767;   -9.744;  676.353
415.434;   -8.231;   -6.994;  570.463
416.027;   -3.334;   -5.893;  652.196
416.619;   -6.166;   -7.264;  713.400
417.211;   -6.565;  -10.374;  599.352
417.804;   -2.582;   -7.993;  628.499
418.396;   -5.833;   -7.234;  607.643
418.988;   -3.203;   -9.443;  659.238
419.580;   -7.937;  -10.724;  568.276
420.172;   -5.553;  -10.323;  536.196
420.764;   -0.845;   -8.793;  672.482
421.356;   -1.918;  -11.143;  636.898
421.948;   -3.281;   -8.293;  677.661
422.540;    0.760;   -7.893;  680.027
423.132;    1.255;   -7.082;  600.641
423.724;   -1.946;   -8.653;  561.267
424.316;   -0.285;  -10.213;  621.345
424.908;    2.964;   -9.762;  591.517
425.500;    3.701;   -5.572;  647.978
426.092;    4.094;   -8.422;  648.268
426.683;    2.988;   -9.283;  684.836
427.275;    6.089;   -7.852;  641.471
427.867;    8.087;   -5.272;  668.948
428.458;    8.496;   -7.682;  732.344
429.050;    6.672;  -10.612;  680.749
429.642;    8.365;   -9.882;  743.124
430.233;    9.389;   -6.962;  569.356
430.825;   10.911;   -6.842;  724.809
431.416;    7.126;   -9.672;  698.241
432.008;   11.045;   -6.552;  651.723
432.599;   12.290;   -6.891;  656.073
433.190;    9.460;  -10.912;  637.670
433.782;    7.741;  -11.172;  590.395
434.373;   15.526;   -6.061;  884.765
434.964;   14.676;   -8.251;  602.920
435.556;   12.816;   -9.722;  634.537
436.147;   14.934;   -9.082;  758.490
436.738;   14.921;   -8.041;  701.099
437.329;   20.736;   -7.341;  721.723
437.920;   13.504;   -8.162;  666.688
438.511;   12.961;  -11.802;  564.526
439.103;   19.232;  -10.191;  623.998
439.694;   21.272;   -7.601;  681.583
440.285;   23.499;   -8.541;  764.432
440.876;   20.352;   -9.751;  845.738
441.466;   19.110;   -9.401;  575.162
442.057;   25.361;   -7.760;  665.814
442.648;   24.681;   -9.971;  746.255
443.239;   22.509;  -11.001;  620.477
443.830;   27.261;   -7.990;  704.958
444.421;   29.271;   -7.910;  655.474
445.011;   26.251;   -8.131;  693.619
445.602;   24.731;   -7.111;  743.126
446.193;   26.827;  -10.920;  488.117
446.783;   31.601;   -6.500;  640.397
447.374;   26.436;   -8.671;  692.759
447.964;   27.939;  -10.781;  713.770
448.555;   35.332;   -9.650;  822.742
449.145;   32.875;   -8.660;  662.853
449.736;   34.062;   -8.990;  803.179
450.326;   33.662;   -9.500;  713.626
450.917;   37.888;   -8.680;  675.324
451.507;   37.430;   -7.520;  600.661
452.097;   38.280;   -8.590;  746.267
452.688;   39.154;  -11.340;  742.160
453.278;   38.638;  -10.100;  566.840
453.868;   44.076;   -6.019;  793.550
454.458;   42.023;   -9.440;  651.141
455.048;   41.436;  -10.560;  711.783
455.639;   43.281;  -11.799;  567.096
456.229;   46.700;   -6.899;  710.694
456.819;   49.944;   -7.389;  751.158
457.409;   49.129;  -11.119;  773.993
457.999;   51.146;   -9.289;  737.505
458.589;   51.638;   -6.139;  686.606
459.179;   52.233;   -8.729;  717.658
459.769;   49.633;   -9.789;  627.099
460.358;   54.071;  -10.259;  797.262
460.948;   54.029;   -7.299;  689.503
461.538;   56.322;  -10.289;  660.677
462.128;   53.545;  -11.269;  664.934
462.717;   60.144;   -9.368;  710.326
463.307;   63.904;   -7.908;  705.846
463.897;   60.039;   -9.599;  656.942
464.486;   58.534;   -9.769;  837.128
465.076;   62.886;   -8.048;  733.776
465.666;   66.196;   -9.358;  652.900
466.255;   64.612;   -7.919;  785.651
466.845;   63.142;  -11.689;  666.749
467.434;   65.941;   -7.818;  725.873
468.023;   67.746;   -7.678;  658.357
468.613;   65.392;  -10.939;  713.946
469.202;   69.522;  -10.118;  646.507
469.791;   73.003;   -9.108;  737.811
470.381;   75.938;   -6.058;  742.813
470.970;   75.035;  -10.428;  711.099
471.559;   75.397;  -10.268;  733.291
472.148;   77.801;   -8.448;  675.737
472.738;   81.228;   -6.917;  765.466
473.327;   81.438;  -11.978;  637.529
473.916;   79.930;  -11.888;  737.446
474.505;   84.685;   -9.437;  751.703
475.094;   87.327;   -6.747;  806.570
475.683;   87.658;   -9.367;  797.699
476.272;   87.745;  -12.637;  730.632
476.861;   89.923;  -10.027;  706.754
477.449;   97.169;   -8.716;  728.487
478.038;   92.060;   -9.577;  692.513
478.627;   92.092;   -9.718;  714.852
479.216;   98.812;   -8.947;  769.441
479.805;  102.239;   -6.256;  783.375
480.393;  102.459;   -7.937; 1008.945
480.982;  100.615;   -7.717;  874.501
481.571;  106.483;   -9.266;  858.333
482.159;  107.708;   -7.636;  705.386
482.748;  108.251;   -9.667;  821.385
483.336;  111.538;  -10.376;  858.209
483.925;  112.805;   -7.147;  774.373
484.513;  119.427;   -7.996;  758.962
485.102;  116.416;  -10.027;  810.965
485.690;  125.082;  -10.446; 1011.050
486.278;  126.387;   -8.446;  979.329
486.867;  127.743;   -6.356;  809.662
487.455;  130.416;   -9.136;  898.229
488.043;  130.522;  -10.646;  748.361
488.631;  139.175;   -7.456; 1005.079
489.220;  143.946;   -6.636;  908.626
489.808;  144.447;  -11.036;  741.415
490.396;  151.630;  -10.246;  914.645
490.984;  157.187;   -8.556;  830.161
491.572;  168.222;   -5.886;  940.315
492.160;  174.111;   -9.486;  919.081
492.748;  185.333;  -10.976;  884.341
493.336;  207.191;   -8.776; 1019.693
493.924;  234.200;   -5.465;  958.077
494.512;  263.037;   -9.986; 1066.638
495.100;  299.648;  -10.636; 1103.280
495.687;  356.394;  -10.885; 1206.373
496.275;  420.113;   -8.126; 1150.796
496.863;  491.060;  -10.586; 1281.171
497.451;  590.189;  -11.926; 1386.805
498.038;  725.258;  -10.885; 1556.729
498.626;  832.637;   -6.315; 1741.407
499.214;  984.346;   -7.326; 2016.609
499.801; 1180.292;  -11.906; 2220.633
500.389; 1419.878;  -10.466; 2312.494
500.976; 1726.501;   -5.236; 2744.849
501.564; 2162.822;   -8.936; 3148.565
502.151; 2522.836;  -13.176; 3515.999
502.738; 2944.107;  -10.646; 3971.274
503.326; 3341.063;   -9.525; 4403.796
503.913; 3741.261;  -10.856; 5161.749
504.500; 4119.130;  -11.586; 5986.420
505.088; 4498.291;  -10.336; 6381.201
505.675; 5048.209;   -6.355; 6925.547
506.262; 5751.106;   -9.046; 7619.060
506.849; 6491.927;  -10.416; 8733.969
507.436; 7032.858;  -10.305; 9790.121
508.023; 7604.828;   -5.496; 9985.472
508.610; 7797.643;   -7.856;10434.618
509.197; 8410.552;  -10.097;11198.435
509.784; 9775.395;  -10.886;12391.194
510.371;10946.873;   -9.315;13603.713
510.958;11730.370;   -9.936;14426.586
511.545;12454.841;   -9.326;15243.775
512.132;13301.704;  -10.075;15945.876
512.719;13828.709;   -7.796;16340.369
513.305;14947.176;  -10.606;18011.766
513.892;15637.291;  -11.486;19754.971
514.479;16813.242;   -9.126;20967.805
515.066;18263.906;   -6.026;22299.793
515.652;19753.547;   -8.466;22908.660
516.239;21066.564;  -10.886;23798.875
516.825;22060.910;  -11.496;25567.275
517.412;23005.215;   -5.796;28154.959
517.998;23622.625;  -10.506;28344.111
518.585;23648.889;  -10.076;27134.219
519.171;24296.596;   -8.315;27268.576
519.758;26017.797;   -8.596;28964.129
520.344;27994.301;   -8.466;30664.494
520.930;27809.406;  -11.006;32550.605
521.516;28742.914;  -10.495;35422.895
522.103;30637.762;   -5.526;38280.004
522.689;31216.301;   -8.746;37835.117
523.275;30818.703;  -11.376;37288.613
523.861;32411.984;  -11.156;37281.395
524.447;34089.820;   -8.135;37846.949
525.033;33815.434;   -7.896;38321.949
525.619;33965.594;  -12.476;38579.285
526.205;35270.566;   -9.516;40622.875
526.791;37720.090;   -6.926;42258.836
527.377;37644.207;   -8.346;42966.902
527.963;38623.824;   -8.717;42018.949
528.549;37617.262;  -11.016;42476.828
529.135;36043.234;   -8.536;41854.852
529.721;34388.250;   -9.666;41237.711
530.306;32429.857;  -10.066;41259.445
530.892;30479.250;  -11.356;41506.047
531.478;31206.332;   -6.596;43559.613
532.063;35958.449;   -8.836;47695.563
532.649;38838.645;  -10.047;50808.324
533.235;39811.965;   -9.746;51787.500
533.820;39331.168;   -6.566;52145.035
534.406;39249.320;  -10.817;51133.488
534.991;36976.391;   -9.416;49996.805
535.576;32482.381;   -9.036;48882.852
536.162;31156.537;   -6.156;46942.285
536.747;34707.371;  -11.607;45711.746
537.333;43038.285;  -11.787;48510.180
537.918;50213.816;  -12.437;50439.891
538.503;51026.926;   -7.196;50863.711
539.088;47791.684;  -10.556;50906.922
539.673;47817.887;   -8.767;52621.965
540.259;48114.027;  -10.026;52368.094
540.844;45166.352;   -7.416;50879.109
541.429;46615.570;   -9.467;52077.777
542.014;48839.867;   -9.527;52716.695
542.599;48034.824;   -9.946;52363.281
543.184;45134.129;   -7.927;53187.137
543.769;46307.844;   -9.297;54697.605
544.354;46367.594;  -10.127;53913.914
544.938;44922.277;   -9.267;49680.164
545.523;46538.973;   -6.506;47386.277
546.108;49230.945;   -9.787;49151.949
546.693;51169.348;  -11.587;51384.637
547.278;51427.930;  -10.986;51853.254
547.862;48418.828;   -8.206;51173.750
548.447;43893.363;  -10.067;51691.395
549.031;42922.828;   -9.637;52456.703
549.616;47494.910;   -9.926;52714.516
550.201;47206.406;   -6.347;52414.598
550.785;48489.023;   -7.917;52355.059
551.370;47682.563;  -10.867;54589.453
551.954;47163.465;   -9.047;58267.348
552.538;48090.813;   -7.827;59062.176
553.123;46590.508;  -10.287;58115.285
553.707;44264.871;  -12.178;56556.285
554.291;45666.188;   -8.717;56201.668
554.876;48559.078;   -7.457;55335.762
555.460;48620.609;  -10.387;54155.703
556.044;49044.211;   -9.618;53721.484
556.628;46972.418;  -11.567;53731.016
557.212;45848.648;   -8.097;54312.531
557.796;44680.430;  -11.077;53797.773
558.380;44847.055;  -11.108;56145.984
558.964;44797.598;   -9.057;57277.930
559.548;45832.656;   -6.977;56459.641
560.132;43949.188;  -11.457;54434.543
560.716;42421.051;  -11.378;54800.617
561.300;43585.555;   -9.577;57606.945
561.884;44679.777;   -7.127;58972.445
562.467;42643.449;   -7.118;57327.570
563.051;41938.668;  -13.358;54962.434
563.635;43645.855;  -10.178;52594.473
564.219;44110.137;   -7.837;50610.410
564.802;44628.922;  -11.398;49551.180
565.386;44274.164;  -12.788;48370.953
565.969;43717.293;   -9.077;48178.871
566.553;42476.973;   -6.207;49957.305
567.136;43207.422;   -8.568;50369.594
567.720;40047.727;  -11.868;49492.004
568.303;37909.793;   -8.268;50616.352
568.887;37884.348;   -8.698;50727.148
569.470;38523.895;   -6.808;51698.379
570.053;37595.328;  -13.188;52122.078
570.637;35350.336;  -12.037;52536.438
571.220;35127.160;   -8.577;51186.098
571.803;36208.645;   -8.498;51032.762
572.386;38518.492;  -10.498;49609.887
572.969;40893.656;   -9.388;48285.926
573.552;39076.840;   -8.338;47624.285
574.135;37599.785;   -8.518;45498.641
574.718;35085.090;  -13.628;41970.434
575.301;34314.695;  -10.893;41447.137
575.884;33544.301;   -8.158;40923.836
576.467;34623.309;  -10.328;45267.723
577.050;36071.008;  -13.058;48175.543
577.633;37427.441;   -9.458;47729.328
578.216;36770.500;   -8.928;47579.793
578.799;35978.469;   -9.358;47820.996
579.381;35043.309;  -11.388;48115.551
579.964;32919.402;  -11.718;47333.766
580.547;34937.402;   -8.588;46668.969
581.129;35749.328;   -8.859;44466.141
581.712;36355.094;  -10.729;44164.922
582.294;36814.613;  -11.118;46477.855
582.877;36952.531;   -5.218;48244.254
583.459;34961.430;   -8.679;47437.895
584.042;32813.465;  -10.709;46943.219
584.624;32879.965;  -11.669;46792.227
585.206;32551.158;   -8.218;46557.250
585.789;32856.824;  -10.569;45793.773
586.371;35368.496;  -11.859;43836.391
586.953;36066.766;  -10.719;42972.492
587.536;36971.539;   -7.198;42487.211
588.118;37353.367;   -8.720;42086.414
588.700;33626.738;  -10.439;43389.930
589.282;32675.113;   -9.198;43646.039
589.864;33545.691;   -9.199;43438.109
590.446;34725.633;  -11.319;43151.926
591.028;34707.156;  -11.159;42781.867
591.610;33430.738;  -11.779;42839.098
592.192;30717.529;   -7.668;42820.402
592.774;29416.729;  -11.949;40724.277
593.356;28451.064;  -12.129;39874.789
593.937;27419.471;  -10.669;39980.648
594.519;29607.742;   -6.509;42069.633
595.101;31774.176;  -10.849;42976.031
595.683;31846.775;  -11.679;44084.441
596.264;32716.043;   -9.049;43478.797
596.846;32445.457;   -8.849;43803.672
597.427;32265.170;   -9.570;42986.934
598.009;33575.531;  -12.620;42832.219
598.591;33996.359;  -10.039;42580.086
599.172;33586.555;  -10.369;43061.805
599.753;33831.039;   -9.140;41691.469
600.335;35023.965;  -11.430;40692.520
600.916;33173.836;   -9.939;39982.422
601.498;31069.625;   -8.479;40318.617
602.079;29589.930;  -10.920;40670.609
602.660;29240.602;  -11.480;41450.898
603.241;31028.020;  -11.699;41137.738
603.823;29724.059;   -9.579;38868.797
604.404;28931.436;  -10.620;38182.785
604.985;30641.980;  -10.450;38078.047
605.566;30743.633;   -9.129;38056.633
606.147;30768.299;   -7.510;37020.418
606.728;32341.980;  -10.660;37883.359
607.309;30967.549;  -11.740;38748.273
607.890;30655.951;   -9.759;38850.230
608.471;30091.729;   -8.250;37457.918
609.051;29386.191;   -9.240;36066.457
609.632;28157.441;  -12.120;35991.074
610.213;28506.455;   -9.110;37402.641
610.794;29461.664;   -8.030;38383.363
611.374;29264.592;   -8.110;40562.387
611.955;29876.496;  -13.560;38533.727
612.536;31272.119;  -11.400;36951.789
613.116;31128.033;   -8.070;37197.891
613.697;31536.889;  -10.830;38411.125
614.277;29643.768;  -11.641;38673.938
614.858;30355.193;  -13.310;37075.863
615.438;29981.717;   -7.460;35092.906
616.019;27735.385;   -7.601;33666.301
616.599;27978.660;  -12.020;34189.023
617.179;29556.627;  -11.780;36952.047
617.760;30613.141;   -8.570;39582.574
618.340;31493.039;  -11.471;38943.977
618.920;32542.654;  -11.170;37594.156
619.500;32512.617;  -11.071;37866.938
620.080;31637.391;   -7.750;37869.043
620.660;32774.406;  -12.711;36868.617
621.241;34394.820;  -10.211;36352.309
621.821;34766.039;  -10.961;35459.520
622.401;33515.805;   -7.720;35207.414
622.980;32519.338;   -8.981;35980.422
623.560;31182.174;   -9.331;37351.328
624.140;29920.438;   -9.850;34388.582
624.720;24969.646;   -7.451;32368.764
625.300;21557.666;   -9.070;32638.629
625.880;24999.570;  -12.601;34599.035
626.459;29070.453;  -11.751;36831.738
627.039;31931.854;   -9.281;38299.098
627.619;31900.156;   -8.801;38289.574
628.198;30452.492;  -12.071;37220.695
628.778;29445.023;   -9.461;37632.563
629.357;30075.471;   -8.491;38003.012
629.937;30294.350;   -9.721;38402.039
630.516;29783.434;   -9.951;37868.801
631.096;29577.490;  -11.731;35760.410
631.675;31818.396;   -8.572;35225.219
632.254;36975.508;  -11.282;35130.289
632.834;36572.656;  -13.322;35794.570
633.413;34869.555;  -10.301;35788.922
633.992;32270.996;   -8.582;34532.863
634.571;32634.254;   -8.352;33590.113
635.151;35360.844;  -11.912;34943.863
635.730;34172.586;  -10.511;35352.523
636.309;30803.477;   -7.731;35366.605
636.888;28153.865;   -9.952;36165.637
637.467;28627.127;  -11.672;37515.902
638.046;30043.461;   -8.901;39288.695
638.625;33013.168;   -7.912;38279.699
639.204;32858.402;  -10.022;37741.598
639.782;31644.742;  -12.252;38364.551
640.361;27932.951;  -10.041;36740.621
640.940;25244.357;  -11.161;34950.082
641.519;25879.605;   -9.701;34137.398
642.097;28752.486;  -11.271;35654.258
642.676;31707.412;   -8.651;35637.957
643.255;32829.547;   -8.711;36567.074
643.833;32032.443;   -9.581;37809.434
644.412;32075.598;  -13.711;37337.293
644.990;31086.777;  -11.811;37018.531
645.569;30921.174;   -9.411;36518.469
646.147;30398.219;  -10.291;36186.430
646.726;30355.574;  -12.401;36267.688
647.304;31237.436;  -10.411;36647.625
647.882;32686.547;   -9.651;39286.742
648.461;34526.109;   -9.631;39157.703
649.039;32986.207;  -11.881;35412.883
649.617;31963.297;   -9.661;34744.918
650.195;31157.842;   -9.301;35403.098
650.773;29756.941;  -10.511;35053.797
651.352;27405.678;  -11.521;33756.816
651.930;25061.031;  -12.211;31868.773
652.508;23599.527;   -9.171;33121.551
653.086;27546.289;   -9.371;33564.793
653.663;30499.322;  -13.161;34054.668
654.241;29183.559;  -13.031;35693.309
654.819;30621.311;   -9.371;36422.906
655.397;30593.441;  -10.511;38213.484
655.975;30159.877;  -10.371;39507.625
656.553;29800.512;  -10.051;39498.223
657.130;28363.428;  -10.061;40395.480
657.708;27703.594;   -9.561;39242.020
658.286;27845.758;  -11.511;38920.020
658.863;29081.182;  -10.261;40202.898
659.441;32407.410;   -7.531;39677.938
660.018;32287.127;   -9.501;40413.355
660.596;30913.814;  -13.301;39931.414
661.173;32528.635;  -11.211;39604.531
661.750;32945.910;   -9.951;39700.070
662.328;31786.465;   -9.390;39292.809
662.905;30692.334;  -11.330;38235.648
663.482;26451.621;   -9.050;36212.305
664.060;24577.531;   -8.240;35944.945
664.637;27506.949;  -10.050;35170.785
665.214;29047.998;  -11.760;34197.523
665.791;30643.125;  -10.530;34549.520
666.368;29840.000;   -9.690;35118.578
666.945;30376.617;   -9.320;36019.418
667.522;31840.848;  -11.860;36048.438
668.099;31535.908;  -10.770;36243.914
668.676;30201.027;   -6.260;35958.875
669.253;28944.580;   -7.000;37384.730
669.830;29397.258;  -10.190;36779.629
670.407;29372.623;   -9.550;35231.289
670.984;29183.691;   -9.260;35544.270
671.560;29921.176;   -9.280;35466.867
672.137;29191.857;  -11.810;34280.863
672.714;30136.740;  -11.490;34632.863
673.290;31329.795;   -7.740;35135.422
673.867;31314.432;  -10.660;36114.480
674.443;31154.766;  -12.230;36152.859
675.020;29235.541;  -10.450;35327.238
675.596;30043.930;   -9.260;35795.176
676.173;30673.941;  -10.780;35430.355
676.749;30340.115;  -13.690;33549.516
677.326;30080.965;  -11.980;32210.012
677.902;29940.859;   -8.630;32068.871
678.478;29330.926;  -10.730;32583.891
679.054;28478.797;  -10.520;32088.928
679.631;28843.805;  -11.920;30978.848
680.207;30413.248;   -7.490;33160.887
680.783;32020.857;   -9.860;35570.363
681.359;31173.135;  -13.380;36125.184
681.935;30859.270;  -12.480;35240.922
682.511;30579.740;   -7.900;34429.961
683.087;30889.051;   -7.710;34463.680
683.663;30141.883;  -11.480;34648.898
684.239;28685.471;  -14.090;34546.457
684.815;28029.783;   -7.560;35586.375
685.390;28071.211;   -9.910;35821.895
685.966;28572.547;  -11.159;35085.871
686.542;31158.625;  -11.169;34198.230
687.118;33587.777;   -5.959;32847.707
687.693;34139.227;  -10.329;32794.027
688.269;33870.363;  -12.059;33072.367
688.844;32060.287;  -10.909;33141.664
689.420;29962.859;   -8.019;33965.742
689.995;27997.910;   -8.399;34655.523
690.571;26645.598;  -10.949;33576.742
691.146;26799.344;   -9.619;32657.219
691.722;26620.959;   -8.999;32526.979
692.297;26224.189;  -11.589;33014.617
692.872;27617.395;  -11.739;34012.254
693.448;27344.262;  -11.059;34237.434
694.023;26428.430;  -10.139;34142.672
694.598;28431.139;   -9.029;34132.031
695.173;29173.070;  -13.319;34205.250
695.748;28274.070;  -10.169;32882.488
696.323;28206.553;   -8.339;32864.906
696.898;28454.301;   -8.169;33170.004
697.473;28483.111;  -12.309;32432.984
698.048;27765.684;  -10.989;31649.303
698.623;27496.188;   -9.329;30778.141
699.198;29054.412;   -9.849;31140.119
699.773;30399.658;  -12.329;31764.299
700.348;29060.938;  -10.389;31780.816
700.922;28926.086;   -9.269;32046.375
701.497;29856.328;   -9.329;32603.574
702.072;30155.533;  -10.789;34799.871
702.646;28809.988;  -10.839;35793.172
703.221;26620.166;   -9.099;35201.590
703.795;28681.314;  -10.939;34764.527
704.370;29248.285;  -12.859;34307.367
704.944;29258.008;  -11.559;33509.887
705.519;29808.850;   -7.939;31388.584
706.093;31166.033;  -10.499;31340.104
706.668;31719.521;  -11.289;32630.281
707.242;30699.531;  -11.509;32728.779
707.816;29338.861;   -9.639;32947.238
708.390;27693.207;  -11.429;33277.855
708.965;27993.285;  -11.869;33834.336
709.539;27847.859;  -11.689;33709.273
710.113;28083.098;  -10.478;33044.313
710.687;27815.947;  -10.228;31953.992
711.261;26381.266;  -13.698;30505.949
711.835;26226.289;  -13.378;30262.369
712.409;26639.242;   -9.698;31254.447
712.983;28665.076;  -11.898;32754.986
713.557;30024.473;  -15.138;34018.824
714.131;29689.246;  -14.098;34579.625
714.704;28557.994;   -9.958;33890.262
715.278;26111.510;  -10.028;33531.102
715.852;24887.896;  -11.148;33601.660
716.425;25980.521;   -9.068;33515.117
716.999;27033.797;  -10.038;33185.555
717.573;27889.682;   -9.798;33905.996
718.146;28956.020;  -12.378;35199.293
718.720;29004.801;  -11.918;35060.551
719.293;28666.494;   -8.088;34973.230
719.867;31660.615;  -10.888;36394.449
720.440;31553.777;  -11.938;36663.008
721.013;29808.574;  -12.818;35102.426
721.587;28221.104;  -10.298;33985.266
722.160;27073.158;  -10.048;33524.965
722.733;26044.330;  -12.108;32987.043
723.306;26262.199;  -10.818;33066.301
723.880;28506.346;   -8.908;33399.500
724.453;30825.926;   -9.878;33468.297
725.026;30048.664;  -11.188;33816.637
725.599;27211.852;  -11.678;32797.996
726.172;27135.846;   -9.618;33187.434
726.745;28077.701;   -8.258;35136.613
727.318;29356.666;  -12.978;35751.730
727.891;30082.404;  -12.148;35890.430
728.463;29621.449;   -8.968;34822.090
729.036;28353.898;  -10.188;32895.086
729.609;28822.232;  -11.788;31823.225
730.182;26070.842;  -11.788;31445.283
730.754;23706.713;  -10.268;32373.223
731.327;23922.561;   -9.998;33676.820
731.900;24177.445;  -12.228;33417.000
732.472;24969.615;  -13.848;31978.498
733.045;26576.287;   -8.698;30368.777
733.617;26741.098;  -10.607;30574.215
734.190;26998.008;  -11.507;31280.975
734.762;24709.744;  -13.647;31674.412
735.334;22807.953;   -9.767;31247.291
735.907;23114.701;   -9.897;29876.211
736.479;23420.367;  -11.637;29808.488
737.051;23133.660;   -9.567;30233.547
737.623;23721.086;   -8.187;31469.086
738.195;24123.297;  -11.187;31784.225
738.768;26258.674;  -12.337;32120.523
739.340;27068.092;  -12.227;32094.342
739.912;26089.672;  -11.057;31312.680
740.484;24613.740;  -10.207;31946.238
741.056;23017.602;  -10.047;32984.059
741.628;24255.777;  -13.627;33897.715
742.199;26401.186;   -7.177;33213.016
742.771;24866.445;  -10.797;31369.113
743.343;22597.754;  -11.997;31865.473
743.915;21759.865;  -12.867;32388.631
744.487;21934.252;   -7.617;31079.568
745.058;22130.482;   -9.557;30570.107
745.630;22696.516;   -9.877;29970.127
746.201;23905.473;  -14.177;29186.766
746.773;24668.037;   -9.237;28805.723
747.344;24444.318;   -9.847;29591.223
747.916;22637.764;  -11.657;31412.201
748.487;22628.293;  -10.587;32194.898
749.059;23935.832;   -8.707;32533.719
749.630;24735.938;  -10.537;32158.518
750.201;23867.877;  -11.687;30855.395
750.773;22079.037;  -11.647;28622.555
751.344;21839.994;   -7.147;28405.732
751.915;22851.545;   -9.757;28461.551
752.486;23008.088;  -12.427;27842.850
753.057;20911.104;  -12.227;27845.008
753.628;19596.932;  -10.417;27728.107
754.199;20487.939;  -11.767;27381.086
754.770;21536.883;  -11.187;25882.203
755.341;21746.820;  -10.507;25886.184
755.912;21967.248;   -9.387;26050.861
756.483;21511.035;  -10.647;26798.779
757.054;19724.953;  -11.837;27048.238
757.625;18316.172;  -12.716;26294.838
758.195;18156.484;   -9.666;26142.076
758.766;17885.539;   -8.656;26392.234
759.337;18416.352;  -12.856;26334.594
759.907;19857.115;  -13.366;27579.652
760.478;20814.668;   -8.576;28352.770
761.048;20352.883;  -10.526;27325.088
761.619;19407.666;  -11.116;26460.428
762.189;19437.906;  -12.136;26029.826
762.760;20442.238;   -9.456;26430.145
763.330;21657.039;   -7.136;26670.902
763.900;21273.684;  -11.786;26603.021
764.471;18825.553;  -11.546;25542.740
765.041;17431.500;   -8.096;24358.459
765.611;17246.695;   -8.876;23991.297
766.181;17485.338;  -12.196;24470.236
766.751;18587.221;  -11.636;24845.975
767.321;18476.553;  -10.156;24533.633
767.891;16463.207;  -11.766;24916.492
768.461;15806.153;  -14.936;24776.771
769.031;16308.989;  -12.356;24757.988
769.601;17998.031;   -7.526;24181.088
770.171;18052.057;  -10.766;23670.387
770.741;17111.111;  -13.176;22960.045
771.311;17185.949;  -10.616;22917.523
771.880;17783.693;   -9.576;23562.941
772.450;17719.416;  -10.336;24216.500
773.020;17739.641;  -13.516;24140.398
773.589;16927.387;  -13.466;24414.857
774.159;16117.473;   -8.686;23858.717
774.729;15593.485;   -9.476;22942.135
775.298;15177.926;  -13.666;22324.033
775.867;14798.281;  -11.716;21140.313
776.437;15002.936;   -9.906;20838.092
777.006;14805.879;  -12.166;20599.510
777.576;14510.300;  -12.356;20508.809
778.145;14495.406;  -11.646;20732.947
778.714;14567.270;   -8.226;21062.465
779.283;14052.680;   -9.556;20949.664
779.853;13507.843;  -14.116;20508.623
780.422;13913.124;  -11.506;20649.082
780.991;13451.396;   -9.556;21527.520
781.560;12127.378;   -9.095;22632.658
782.129;11845.600;  -12.135;23048.277
782.698;11848.525;  -10.865;23438.555
783.267;11492.168;   -9.335;23267.734
783.836;11454.920;  -11.045;22415.133
784.404;12496.171;  -13.865;20443.152
784.973;13210.867;  -13.095;19699.150
785.542;13261.706;  -11.575;19763.828
786.111;13055.286;   -9.705;20341.408
786.679;12513.933;  -12.105;20207.967
787.248;12241.873;  -12.455;19516.465
787.817;12104.078;  -11.535;18900.363
788.385;11749.899;   -9.765;17879.121
788.954;11192.597;  -14.005;17658.301
789.522;10578.637;  -11.955;17788.879
790.090;11008.189;  -10.135;18118.277
790.659;11599.050;  -10.975;18338.736
791.227;11201.979;  -13.375;18508.615
791.795;11572.519;  -12.375;17898.254
792.364;11930.814;  -10.725;17295.133
792.932;12331.261;   -9.715;16822.051
793.500;12595.610;  -12.675;17040.148
794.068;12799.496;  -13.495;17179.787
794.636;12935.854;  -10.885;16664.246
795.204;12223.215;  -11.045;16524.545
795.772;12230.262;  -13.175;17274.564
796.340;11782.111;  -12.445;17891.002
796.908;11539.271;   -9.735;17648.561
797.476;11377.006;   -9.815;17064.080
798.044;10904.491;  -13.985;16672.777
798.612;10153.612;  -13.115;17023.996
799.180; 9786.974;  -10.185;16561.615
799.747; 9644.358;   -9.055;15962.773
800.315; 9383.608;  -12.385;15296.992
800.883; 9177.851;  -15.035;14801.771
801.450; 9362.485;  -10.365;14534.430
802.018; 9483.023;   -9.855;14173.248
802.585; 9504.821;  -11.905;14029.547
803.153; 9472.347;  -11.585;13836.846
803.720; 9259.025;   -9.095;13567.324
804.287; 8765.873;   -9.135;13360.622
804.855; 8286.839;  -11.604;13681.981
805.422; 8164.706;  -11.794;13536.560
805.989; 8252.488;  -10.734;13355.958
806.556; 8469.154;  -10.444;13747.896
807.124; 8720.068;  -12.764;13987.376
807.691; 8668.733;  -12.964;14038.674
808.258; 8500.606;  -11.134;14120.152
808.825; 8149.664;   -9.854;13860.111
809.392; 8227.452;  -10.504;13268.790
809.959; 7745.655;  -13.054;12680.389
810.526; 7249.508;   -8.294;12427.308
811.093; 7236.912;   -8.394;12030.105
811.659; 7861.213;  -12.304;11653.664
812.226; 8439.617;  -13.944;11637.183
812.793; 8164.660;  -10.484;11611.521
813.360; 7519.264;  -10.144;11885.181
813.926; 7213.624;  -11.684;12770.539
814.493; 7019.840;  -13.644;12677.638
815.060; 6644.318;   -9.724;11974.336
815.626; 6577.030;   -9.854;11594.715
816.193; 6934.334;  -13.254;11579.474
816.759; 6972.270;  -13.204;11666.972
817.325; 6992.557;   -9.434;11325.530
817.892; 7300.488;  -10.134;11105.369
818.458; 7732.827;  -13.474;10843.928
819.024; 7404.647;  -11.854;10714.406
819.591; 7100.212;  -10.244;10469.165
820.157; 6918.354;  -10.704;10235.523
820.723; 6423.994;  -12.324;10847.563
821.289; 6091.878;   -9.444;11040.980
821.855; 6007.791;   -8.374;10357.100
822.421; 5960.977;  -10.234; 9978.918
822.987; 5917.573;  -13.294; 9754.177
823.553; 5550.784;  -10.884;10065.755
824.119; 5365.968;   -8.884;10036.294
824.685; 5531.215;   -6.784;10029.192
825.251; 5667.146;  -12.004;10199.230
825.816; 5589.594;  -11.474; 9820.189
826.382; 5294.182;   -9.174; 9297.248
826.948; 5433.647;   -9.214; 9381.347
827.513; 5833.869;  -10.774; 9450.726
828.079; 5695.375;  -11.924; 9472.444
828.645; 5087.496;  -10.543; 9292.643
829.210; 4915.758;  -10.533; 9065.341
829.776; 4899.354;  -10.753; 9132.620
830.341; 4786.808;  -10.173; 9092.878
830.906; 4939.739;  -10.743; 9078.557
831.472; 5282.696;  -11.113; 8534.535
832.037; 5085.221;  -10.603; 8677.874
832.602; 4582.438;  -13.323; 8628.692
833.167; 4359.983;  -10.823; 8879.031
833.733; 4316.279;  -10.113; 9189.790
834.298; 4447.549;  -13.583; 9052.608
834.863; 4561.189;  -12.703; 8895.087
835.428; 4555.431;  -10.523; 8824.266
835.993; 4397.408;   -6.963; 8845.385
836.558; 4212.871;  -10.763; 8888.563
837.123; 4290.102;   -9.903; 8966.582
837.688; 4531.742;   -9.913; 8617.860
838.253; 4790.061;  -10.283; 8590.699
838.817; 4986.397;  -12.963; 8443.797
839.382; 4923.418;  -14.243; 8799.356
839.947; 4619.704;  -10.733; 8810.595
840.511; 4317.080;   -9.383; 8796.394
841.076; 3920.646;  -12.563; 8347.231
841.641; 3967.108;  -12.953; 8224.330
842.205; 4086.757;   -7.043; 8223.349
842.770; 4134.704;   -8.163; 8622.107
843.334; 4265.045;  -12.503; 8410.386
843.898; 4229.938;  -11.693; 8337.465
844.463; 4245.133;  -10.203; 8506.283
845.027; 4047.820;   -9.533; 8280.962
845.591; 3855.950;  -13.443; 8231.141
846.156; 3850.499;  -13.143; 7969.179
846.720; 3753.997;   -9.433; 7768.278
847.284; 3628.737;  -11.033; 7630.957
847.848; 3496.053;  -10.403; 7472.395
848.412; 3410.445;  -11.553; 7437.394
848.976; 3459.595;   -8.393; 7674.592
849.540; 3378.719;   -8.713; 7836.011
850.104; 3428.702;  -12.463; 7913.669
850.668; 3793.540;  -12.973; 7694.508
851.232; 3957.506;  -10.793; 7756.887
851.796; 3818.625;  -10.662; 7926.545
852.359; 3503.514;  -13.082; 7827.844
852.923; 3320.015;  -12.192; 7641.163
853.487; 3159.600;  -11.912; 7342.501
854.050; 3133.164;  -10.892; 7042.820
854.614; 3282.323;  -13.992; 7151.338
855.177; 3398.199;  -11.732; 7105.077
855.741; 3436.456;   -8.962; 6989.675
856.304; 3339.470;   -9.442; 6596.634
856.868; 3315.900;  -14.192; 6356.272
857.431; 3436.484;  -12.702; 6468.571
857.995; 3572.874;   -9.942; 6373.210
858.558; 3599.504;   -9.112; 6324.448
859.121; 3320.472;  -12.932; 6408.327
859.684; 3144.786;  -13.442; 6347.886
860.247; 3248.682;  -10.632; 6321.264
860.810; 3277.634;  -11.272; 6301.903
861.374; 3030.396;   -9.832; 6607.881
861.937; 2763.393;  -11.762; 6408.200
862.500; 2752.054;   -9.722; 6572.639
863.062; 2911.886;  -10.512; 6387.297
863.625; 3063.802;  -11.232; 6190.836
864.188; 3231.047;  -14.112; 5807.254
864.751; 3328.986;  -11.302; 5682.413
865.314; 3252.572;  -10.112; 5547.492
865.876; 3029.189;  -12.182; 5500.150
866.439; 2990.394;  -10.722; 5415.909
867.002; 2944.126;   -9.252; 5501.567
867.564; 2751.902;   -9.572; 5413.946
868.127; 2535.200;  -13.142; 5160.325
868.689; 2410.764;  -12.902; 5133.183
869.252; 2300.294;   -9.732; 5252.382
869.814; 2193.665;   -9.432; 5297.141
870.377; 2198.214;  -11.552; 5390.919
870.939; 2266.055;   -9.052; 5599.898
871.501; 2345.738;  -10.982; 5248.336
872.063; 2364.458;  -12.292; 4854.235
872.626; 2307.632;  -14.912; 4817.074
873.188; 2307.825;  -13.112; 4987.732
873.750; 2282.890;  -13.442; 4868.651
874.312; 2193.795;   -9.402; 4779.330
874.874; 2111.289;  -11.062; 4866.348
875.436; 2028.553;  -13.931; 4718.887
875.998; 2023.108;   -9.561; 4660.005
876.560; 2046.694;  -11.321; 4462.964
877.122; 1985.345;  -12.221; 4145.042
877.683; 1881.572;  -12.191; 4056.481
878.245; 1804.960;  -12.101; 3950.740
878.807; 1849.926;   -8.971; 4058.958
879.369; 1885.016;  -12.071; 3954.677
879.930; 1796.523;  -14.621; 3941.495
880.492; 1733.961;  -10.311; 4067.014
881.053; 1709.995;  -10.901; 3859.633
881.615; 1606.909;  -14.411; 3776.071
882.176; 1499.347;  -13.761; 3734.750
882.738; 1442.509;   -9.181; 3678.489
883.299; 1416.855;  -11.791; 3405.407
883.860; 1420.215;  -13.121; 3351.106
884.422; 1446.768;  -11.211; 3394.044
884.983; 1471.888;  -10.091; 3166.443
885.544; 1459.121;   -8.461; 3189.802
886.105; 1340.443;  -12.361; 3160.360
886.666; 1081.240;  -14.141; 3093.059
887.227;  785.737;  -11.361; 2941.957
887.788;  598.627;  -11.401; 2974.836
888.349;  532.454;  -13.791; 2721.214
888.910;  549.079;  -13.191; 2696.493
889.471;  588.438;   -9.881; 2560.172
890.032;  610.724;   -9.881; 2558.190
890.593;  621.669;  -10.371; 2567.669
891.153;  624.896;  -13.301; 2460.307
891.714;  609.747;  -11.431; 2372.046
892.275;  600.694;  -11.291; 2309.505
892.835;  585.926;  -11.471; 2382.543
893.396;  552.947;  -11.541; 2295.502
893.956;  508.490;  -11.181; 2162.420
894.517;  477.591;  -11.741; 2125.439
895.077;  474.236;  -11.671; 2086.978
895.638;  477.528;  -11.311; 2126.316
896.198;  456.106;   -9.831; 1838.275
896.758;  419.394;   -8.421; 1892.813
897.319;  393.997;  -12.351; 1792.232
897.879;  380.287;  -13.511; 1762.751
898.439;  358.806;  -12.001; 1661.149
898.999;  336.503;  -10.180; 1781.468
899.559;  327.900;  -12.030; 1703.347
900.119;  323.259;  -15.710; 1537.525
900.679;  320.150;   -8.900; 1638.384
901.239;  309.078;   -8.340; 1527.902
901.799;  299.663;  -13.910; 1456.441
902.359;  292.689;  -13.460; 1357.140
902.919;  287.180;  -11.490; 1331.118
903.479;  276.402;  -12.110; 1317.257
904.038;  256.796;  -11.720; 1262.595
904.598;  241.950;  -13.610; 1152.034
905.158;  238.225;  -11.040; 1240.893
905.717;  233.590;  -10.900; 1233.691
906.277;  221.351;  -15.080; 1217.330
906.836;  210.263;  -13.380; 1222.408
907.396;  201.037;  -10.780; 1193.047
907.955;  193.272;   -8.500; 1182.526
908.515;  188.726;  -12.760; 1099.364
909.074;  183.886;  -11.900; 1092.863
909.633;  178.732;   -8.950; 1069.121
910.192;  175.562;   -8.770; 1196.460
910.752;  171.057;  -12.390; 1029.960
911.311;  166.362;  -13.680; 1009.780
911.870;  163.967;  -12.370;  971.460
912.429;  165.848;  -10.900; 1094.080
912.988;  165.270;  -11.690; 1081.060
913.547;  161.069;  -13.240;  940.380
914.106;  155.056;  -11.990;  999.420
914.665;  153.079;   -9.990;  984.020
915.224;  151.639;  -12.880; 1035.760
915.782;  151.140;  -12.350;  922.560
916.341;  151.310;   -9.110; 1049.840
916.900;  147.536;   -9.270;  925.260
917.458;  145.931;  -13.240;  884.220
918.017;  145.150;  -13.550;  942.600
918.576;  144.370;  -12.320;  904.440
919.134;  142.937;  -11.490;  837.980
919.693;  141.098;  -13.670;  893.060
920.251;  139.207;  -15.470;  876.500
920.809;  138.475;  -11.290;  839.580
921.368;  138.340;  -10.210;  885.360
921.926;  137.725;  -12.140;  842.940
922.484;  135.379;  -13.080;  903.360
923.042;  135.425;  -11.720;  880.340
923.601;  138.906;   -7.480;  998.680
924.159;  137.801;  -11.570;  935.560
924.717;  132.701;  -13.840;  841.080
925.275;  133.808;  -10.640;  903.240
925.833;  132.826;  -11.540;  779.320
926.391;  134.660;  -12.960;  938.380
926.949;  131.769;  -14.130;  857.680
927.506;  132.976;  -11.750;  903.500
928.064;  133.506;  -10.250;  877.580
928.622;  133.117;  -13.030;  880.100
929.180;  131.391;  -13.400;  814.180
929.737;  132.763;  -10.700;  808.540
930.295;  136.456;  -10.070;  928.480
930.853;  138.512;  -11.960;  849.100
931.410;  138.232;  -13.120;  821.120
931.968;  137.956;  -10.770;  940.660
932.525;  138.693;  -10.680;  909.380
933.082;  138.450;  -13.130;  811.440
933.640;  139.146;  -13.210;  925.900
934.197;  137.368;  -11.060;  886.360
934.754;  137.996;   -9.580;  897.780
935.312;  141.683;  -14.000;  863.340
935.869;  145.257;  -10.710; 1012.980
936.426;  145.370;   -9.860;  872.800
936.983;  147.192;   -9.710;  889.020
937.540;  147.268;  -13.990;  838.280
938.097;  145.353;  -14.040;  940.120
938.654;  145.313;  -10.310;  898.860
939.211;  148.617;  -10.560;  952.480
939.768;  151.530;  -13.900;  915.420
940.324;  154.308;  -14.760;  904.200
940.881;  155.958;  -10.370;  878.500
941.438;  156.685;   -8.260; 1021.200
941.995;  154.091;  -12.540;  992.560
942.551;  150.461;  -14.670;  875.620
943.108;  150.119;  -10.450;  937.920
943.664;  152.639;  -10.750;  869.340
944.221;  156.756;  -11.550; 1088.140
944.777;  153.047;  -14.770;  869.680
945.334;  152.570;  -12.820;  884.840
945.890;  156.044;  -10.130;  946.480
946.446;  154.979;  -13.470;  947.020
947.003;  157.300;  -12.120;  964.940
947.559;  160.229;   -9.980; 1063.040
948.115;  159.183;   -9.080; 1026.540
948.671;  157.814;  -10.830;  967.300
949.227;  154.309;  -12.440;  859.560
949.783;  151.721;  -12.910;  858.900
950.339;  155.379;  -10.270;  991.000
950.895;  155.439;  -13.630; 1023.840
951.451;  153.573;  -15.100;  925.280
952.007;  153.103;  -11.330;  998.540
952.563;  153.181;  -10.580;  937.780
953.118;  151.807;  -13.440;  904.940
953.674;  151.279;  -12.710;  935.780
954.230;  150.537;  -10.350;  949.640
954.785;  148.963;   -9.190;  936.640
955.341;  148.066;  -11.200;  998.160
955.897;  144.992;  -16.560;  834.660
956.452;  146.679;  -12.570;  953.840
957.008;  146.392;   -7.970; 1083.640
957.563;  145.341;  -11.940; 1009.540
958.118;  138.240;  -13.450;  877.700
958.674;  138.752;  -12.030;  946.780
959.229;  140.652;   -9.410; 1013.980
959.784;  139.255;  -12.000;  832.400
960.339;  137.780;  -14.780; 1001.280
960.894;  134.242;   -9.860;  963.760
961.449;  130.842;   -9.970;  859.960
962.004;  130.696;  -10.900; 1212.840
962.559;  125.281;  -13.150;  860.140
963.114;  121.894;  -13.740;  742.480
963.669;  121.372;   -9.820;  915.500
964.224;  121.344;  -13.890;  874.340
964.779;  120.170;  -12.600;  828.420
965.334;  119.534;  -10.950; 1017.860
965.888;  119.826;  -11.170;  875.360
966.443;  122.864;  -12.540;  972.380
966.998;  121.982;  -15.780;  819.460
967.552;  121.125;   -9.760;  908.380
968.107;  118.083;   -9.060;  868.300
968.661;  118.990;  -11.950;  922.440
969.216;  119.178;  -12.800;  856.280
969.770;  117.927;  -11.210;  917.200
970.324;  118.725;  -11.610;  923.140
970.879;  115.270;  -11.370;  947.180
971.433;  111.165;  -12.540;  952.720
971.987;  106.479;  -11.320;  895.340
972.541;  104.418;  -10.720;  917.100
973.095;  104.384;   -9.680; 1009.460
973.649;  101.169;  -11.440;  809.480
974.203;   99.834;  -11.210;  829.040
974.757;  101.131;  -10.240;  855.220
975.311;  101.536;  -13.720;  872.600
975.865;   99.996;  -13.770;  881.820
976.419;   97.793;  -11.690;  857.400
976.973;   98.348;   -9.510;  849.620
977.526;  100.098;  -12.620;  949.920
978.080;   98.806;  -12.010;  796.780
978.634;   99.716;  -10.170;  921.320
979.187;   98.616;   -9.020;  905.400
979.741;   96.075;   -9.820; 1018.380
980.294;   90.607;  -14.870;  789.160
980.848;   88.606;  -12.380;  717.220
981.401;   90.977;  -10.350;  816.540
981.955;   93.088;  -13.720;  844.300
982.508;   92.059;  -11.490;  746.340
983.061;   91.444;  -10.000;  915.260
983.615;   89.500;  -11.480;  798.800
984.168;   86.268;  -13.220;  770.080
984.721;   85.168;  -13.960;  880.760
985.274;   83.545;  -10.870;  867.500
985.827;   82.908;   -9.790;  834.220
986.380;   81.290;  -13.120;  721.340
986.933;   79.545;  -12.450;  864.800
987.486;   77.823;  -10.210;  861.920
988.039;   76.894;   -8.430;  863.100
988.591;   75.990;  -10.520;  893.260
989.144;   72.802;  -14.860;  737.260
989.697;   71.312;  -13.080;  758.740
990.250;   72.861;  -10.150;  858.100
990.802;   72.492;  -13.430;  755.860
991.355;   71.872;  -12.750;  974.880
991.907;   70.103;  -12.040;  864.320
992.460;   68.333;  -11.330;  753.760
993.012;   66.620;  -13.610;  749.540
993.565;   65.568;  -13.460;  711.360
994.117;   67.345;   -9.360;  950.780
994.669;   64.127;  -11.300;  701.320
995.221;   62.355;  -13.540;  791.920
995.774;   60.400;  -13.430;  787.580
996.326;   57.897;  -12.520;  740.220
996.878;   59.228;  -10.950;  838.420
997.430;   56.733;  -14.300;  699.860
997.982;   55.282;  -13.760;  750.140
998.534;   54.840;  -11.530;  739.060
999.086;   53.850;  -10.310;  738.220
999.638;   53.525;  -12.530;  661.380
1000.190;   51.940;  -11.840;  699.320
1000.741;   50.869;  -10.260;  742.700
1001.293;   52.433;   -8.860;  686.020
1001.845;   50.782;  -13.700;  676.640
1002.396;   49.931;  -12.100;  743.400
1002.948;   48.712;  -12.760;  737.400
1003.500;   48.436;  -10.380;  723.780
1004.051;   49.676;  -11.900;  907.580
1004.603;   46.581;  -12.250;  791.820
1005.154;   43.068;  -13.210;  608.980
1005.705;   42.561;  -10.950;  723.960
1006.257;   42.022;  -13.880;  707.220
1006.808;   40.823;  -12.840;  685.460
1007.359;   39.775;  -10.570;  763.240
1007.910;   40.143;   -9.620;  646.640
1008.461;   39.760;  -13.630;  732.940
1009.013;   38.277;  -17.200;  588.340
1009.564;   38.825;  -10.200;  793.520
1010.115;   38.049;  -12.570;  597.040
1010.665;   38.114;  -15.150;  602.160
1011.216;   37.503;  -14.480;  667.920
1011.767;   36.113;  -11.340;  697.920
1012.318;   37.892;   -9.780;  736.980
1012.869;   36.457;  -12.380;  679.000
1013.419;   35.238;  -15.560;  603.120
1013.970;   34.976;  -11.010;  666.640
1014.521;   35.126;  -11.610;  620.620
1015.071;   35.183;  -13.450;  670.380
1015.622;   34.590;  -13.870;  635.460
1016.172;   33.377;  -11.610;  596.820
1016.723;   34.519;  -12.120;  614.380
1017.273;   34.130;  -13.620;  604.160
1017.823;   33.327;  -14.140;  650.340
1018.374;   32.411;  -12.800;  611.760
1018.924;   33.451;  -12.340;  716.880
1019.474;   34.108;  -11.410;  718.880
1020.024;   31.291;  -14.770;  657.580
1020.574;   32.283;   -9.780;  726.160
1021.124;   32.844;   -8.560;  673.580
1021.674;   32.106;  -15.190;  559.120
1022.224;   32.699;  -13.530;  708.940
1022.774;   31.537;  -13.280;  668.820
1023.324;   32.404;  -10.690;  753.520
1023.874;   33.520;  -10.240;  875.760
1024.423;   30.600;  -12.540;  613.700
1024.973;   29.688;  -10.010;  610.760
1025.523;   30.261;  -10.550;  620.960
1026.072;   30.588;  -13.560;  606.420
1026.622;   29.481;  -15.120;  675.740
1027.172;   30.475;  -11.260;  715.660
1027.721;   29.240;  -11.410;  601.220
1028.270;   30.159;  -13.530;  663.400
1028.820;   29.396;  -13.680;  638.080
1029.369;   28.772;  -13.520;  612.700
1029.918;   29.576;  -10.980;  649.840
1030.468;   29.320;  -13.530;  564.780
1031.017;   28.813;  -13.170;  634.800
1031.566;   27.237;  -12.200;  608.900
1032.115;   28.928;   -9.960;  694.500
1032.664;   27.696;  -13.210;  596.480
1033.213;   28.070;  -12.500;  735.420
1033.762;   26.895;  -11.910;  635.620
1034.311;   27.196;   -9.640;  677.220
1034.860;   28.627;  -13.310;  691.000
1035.408;   26.546;  -11.830;  722.720
1035.957;   27.339;  -12.000;  719.540
1036.506;   25.353;  -11.690;  530.800
1037.055;   27.838;  -10.990;  844.320
1037.603;   26.193;  -15.120;  664.000
1038.152;   24.426;  -12.450;  534.760
1038.700;   25.219;  -10.560;  585.740
1039.249;   26.092;  -11.080;  681.220
1039.797;   25.874;  -12.540;  633.360
1040.345;   24.888;  -11.920;  705.420
1040.894;   25.799;  -11.410;  625.300
1041.442;   24.856;  -14.320;  632.200
1041.990;   23.179;  -16.240;  559.160
1042.538;   23.282;  -11.680;  536.180
1043.087;   24.307;  -10.760;  570.860
1043.635;   25.637;  -11.850;  670.500
1044.183;   23.654;  -15.480;  586.400
1044.731;   22.515;  -11.770;  576.000
1045.279;   23.617;  -13.090;  674.920
1045.827;   26.159;  -12.440;  892.400
1046.374;   22.104;  -13.840;  515.420
1046.922;   21.649;  -13.220;  590.580
1047.470;   23.415;  -10.230;  691.300
1048.018;   24.231;  -14.590;  647.960
1048.565;   23.760;  -12.050;  708.600
1049.113;   21.494;  -11.650;  557.000
1049.660;   22.206;  -10.510;  629.660
1050.208;   22.789;  -13.310;  675.640
1050.755;   21.593;  -15.900;  606.580
1051.303;   21.989;  -11.430;  686.820
1051.850;   21.648;   -8.480;  635.120
1052.397;   21.129;  -15.010;  473.960
1052.945;   20.991;  -13.960;  617.760
1053.492;   21.618;  -13.150;  741.840
1054.039;   22.019;   -9.630;  720.180
1054.586;   20.647;  -13.680;  557.240
1055.133;   21.131;  -14.570;  693.140
1055.680;   20.466;  -13.820;  646.620
1056.227;   20.496;  -11.730;  542.780
1056.774;   22.058;  -12.480;  794.980
1057.321;   19.668;  -13.930;  523.260
1057.868;   20.065;  -11.690;  651.320
1058.415;   20.201;   -9.520;  651.980
1058.961;   20.978;  -13.160;  678.940
1059.508;   19.750;  -12.920;  643.820
1060.055;   19.325;  -11.920;  581.780
1060.601;   19.789;  -11.500;  624.300
1061.148;   19.973;  -14.330;  616.820
1061.694;   18.803;  -16.870;  592.580
1062.241;   18.255;  -10.330;  596.320
1062.787;   19.037;  -10.620;  663.140
1063.334;   20.549;  -10.110;  808.560
1063.880;   18.073;  -13.400;  668.360
1064.426;   18.514;  -10.680;  706.820
1064.972;   18.324;   -9.920;  601.340
1065.518;   17.148;  -10.980;  566.640
1066.065;   17.504;  -14.890;  624.460
1066.611;   16.612;  -12.870;  598.800
1067.157;   18.343;  -12.950;  641.860
1067.703;   18.583;  -13.540;  668.480
1068.249;   18.227;  -13.540;  605.220
1068.794;   17.219;  -12.600;  626.880
1069.340;   16.934;  -10.620;  578.960
1069.886;   17.765;  -12.830;  590.700
1070.432;   16.077;  -14.870;  541.720
1070.977;   15.658;  -11.980;  601.080
1071.523;   16.767;   -8.200;  573.060
1072.068;   16.908;  -12.330;  582.000
1072.614;   15.535;  -16.370;  527.760
1073.160;   15.771;  -11.100;  687.040
1073.705;   15.580;  -10.480;  572.520
1074.250;   15.688;  -14.520;  559.900
1074.796;   16.692;  -11.460;  655.160
1075.341;   15.576;  -11.950;  664.100
1075.886;   15.458;  -11.460;  594.240
1076.431;   15.451;  -13.770;  649.880
1076.976;   15.413;  -12.680;  639.220
1077.521;   14.941;  -13.170;  583.080
1078.067;   14.920;  -10.860;  579.400
1078.612;   15.626;  -13.920;  661.620
1079.156;   14.655;  -13.880;  601.540
1079.701;   14.837;  -13.120;  693.260
1080.246;   15.761;   -9.940;  696.300
1080.791;   15.466;  -14.740;  625.020
1081.336;   14.923;  -13.750;  659.320
1081.880;   13.688;  -13.400;  649.680
1082.425;   13.748;  -12.220;  573.480
1082.970;   16.086;  -11.610;  717.040
1083.514;   14.156;  -13.580;  597.000
1084.059;   13.001;  -12.810;  586.720
1084.603;   13.089;  -12.320;  565.840
1085.147;   14.026;  -13.190;  645.220
1085.692;   14.838;  -12.480;  716.800
1086.236;   11.901;  -13.020;  503.140
1086.780;   14.363;   -9.190;  751.440
1087.325;   14.326;  -12.480;  654.620
1087.869;   12.872;  -12.450;  610.700
1088.413;   13.563;  -12.240;  705.040
1088.957;   12.017;   -9.020;  543.400
1089.501;   14.263;  -10.320;  766.640
1090.045;   12.685;  -12.720;  726.480
1090.589;    9.927;  -13.690;  569.920
1091.133;   12.606;  -10.020;  673.340
1091.676;   12.963;  -12.330;  591.940
1092.220;   12.185;  -14.970;  600.920
1092.764;   12.239;  -12.430;  706.960
1093.307;   12.998;   -9.800;  673.780
1093.851;   11.135;  -14.970;  556.540
1094.395;   12.006;  -15.310;  683.140
1094.938;   11.145;  -10.370;  632.520
1095.482;   11.156;  -11.050;  559.800
1096.025;   12.507;  -11.840;  710.880
1096.568;   11.911;  -12.840;  779.280
1097.112;    9.004;  -14.700;  508.180
1097.655;   11.563;   -8.720;  603.000
1098.198;   10.908;  -13.610;  600.180
1098.741;    9.445;  -13.350;  612.860
1099.285;   11.326;  -11.230;  657.300
1099.828;    9.013;  -11.840;  439.400
1100.371;   10.708;  -10.840;  608.160
1100.914;   10.451;  -14.190;  682.660
1101.457;    9.351;  -11.240;  679.900
1101.999;    8.926;  -11.270;  584.680
1102.542;   10.290;  -11.480;  641.440
1103.085;    9.935;  -11.750;  658.500
1103.628;   10.372;  -11.400;  762.060
1104.170;    9.214;  -10.490;  588.280
1104.713;   10.891;  -10.600;  646.700
1105.256;    9.519;  -14.360;  557.440
1105.798;    7.322;  -13.210;  499.980
1106.341;   10.619;  -10.270;  728.900
1106.883;    9.737;  -12.200;  521.340
1107.425;    9.113;  -13.110;  668.180
1107.968;    8.007;  -12.840;  612.380
1108.510;    9.074;   -6.480;  684.960
1109.052;    8.276;  -13.940;  612.620
1109.594;    7.560;  -13.690;  554.440
1110.136;    8.999;  -11.880;  643.220
1110.679;    7.741;   -9.500;  633.080
1111.221;    9.239;  -14.160;  604.460
1111.763;    7.423;  -13.980;  559.220
1112.304;    6.761;  -13.880;  547.140
1112.846;    8.303;  -12.210;  666.240
1113.388;   10.868;  -11.390;  942.180
1113.930;    7.906;  -14.540;  694.200
1114.472;    6.301;  -12.640;  606.540
1115.013;    6.090;  -11.620;  551.280
1115.555;    7.162;  -13.640;  587.100
1116.097;    6.144;  -15.380;  579.480
1116.638;    6.768;  -12.640;  684.600
1117.180;    7.453;   -9.850;  667.740
1117.721;    7.246;  -13.690;  568.580
1118.262;    8.194;  -12.680;  677.960
1118.804;    7.132;  -12.530;  637.340
1119.345;    6.133;  -11.690;  578.400
1119.886;    8.678;  -13.380;  704.040
1120.427;    6.171;  -14.070;  589.020
1120.969;    5.281;  -13.500;  597.920
1121.510;    5.277;  -11.480;  563.060
1122.051;    7.357;  -12.830;  723.580
1122.592;    5.537;  -14.290;  655.420
1123.133;    3.949;  -12.400;  547.940
1123.673;    6.476;  -10.130;  706.480
1124.214;    6.076;  -12.930;  612.460
1124.755;    6.868;  -14.380;  639.460
1125.296;    5.555;  -14.000;  627.320
1125.836;    6.491;  -10.070;  691.500
1126.377;    6.164;  -12.640;  599.660
1126.918;    6.170;  -12.960;  614.980
1127.458;    4.556;  -13.350;  622.220
1127.999;    5.175;  -10.750;  656.980
1128.539;    6.008;  -12.350;  694.240
1129.079;    4.733;  -14.860;  632.720
1129.620;    3.944;  -13.840;  558.100
1130.160;    4.208;  -12.330;  539.480
1130.700;    5.367;  -14.530;  640.840
1131.240;    5.093;  -12.530;  643.700
1131.781;    3.358;  -14.450;  619.680
1132.321;    4.275;   -9.790;  599.120
1132.861;    3.250;  -14.860;  564.200
1133.401;    2.593;  -14.290;  593.940
1133.941;    3.516;  -11.750;  626.280
1134.481;    3.206;   -9.920;  597.580
1135.020;    4.818;  -12.290;  609.160
1135.560;    4.329;  -11.650;  674.940
1136.100;    2.559;  -16.270;  501.160
1136.640;    2.745;  -10.890;  510.480
1137.179;    3.841;  -14.180;  537.960
1137.719;    3.121;  -16.250;  605.400
1138.258;    2.978;  -14.230;  587.360
1138.798;    3.759;   -9.090;  663.780
1139.337;    2.579;  -15.130;  482.840
1139.877;    3.303;  -13.680;  642.360
1140.416;    4.846;  -11.320;  878.060
1140.955;    1.967;  -10.860;  535.380
1141.494;    3.769;  -12.920;  669.280
1142.034;    2.384;  -13.930;  583.520
1142.573;    3.228;  -11.440;  646.280
1143.112;    2.233;  -12.000;  553.480
1143.651;    2.874;  -13.670;  536.480
1144.190;    3.978;  -12.730;  691.640
1144.729;    2.019;  -14.560;  607.420
1145.267;    2.471;  -11.830;  584.900
1145.806;    3.637;  -12.230;  637.040
1146.345;    1.374;  -14.130;  635.020
1146.884;    2.113;  -11.590;  622.500
1147.422;    1.271;  -12.550;  533.060
1147.961;    4.017;  -11.180;  708.460
1148.500;    2.765;  -11.510;  669.720
1149.038;    3.150;  -11.640;  632.500
1149.577;    2.614;  -10.130;  698.640
1150.115;    1.149;  -13.970;  452.280
1150.653;    1.430;  -14.520;  607.340
1151.192;    1.042;  -12.810;  552.920
1151.730;    1.849;   -9.100;  652.560
1152.268;    1.717;  -12.220;  589.520
1152.806;    1.328;  -14.140;  571.180
1153.344;   -0.714;  -12.350;  577.640
1153.882;    1.582;   -8.980;  600.060
1154.421;    0.151;  -15.190;  470.620
1154.958;    0.490;  -15.210;  595.240
1155.496;    1.184;  -12.850;  645.280
1156.034;    1.184;   -9.940;  721.880
1156.572;    2.564;  -13.570;  667.060
1157.110;   -0.479;  -14.590;  473.940
1157.647;    0.549;  -13.030;  676.960
1158.185;    0.637;  -12.140;  564.320
1158.723;   -0.352;  -14.390;  509.200
1159.260;    0.644;  -14.090;  701.700
1159.798;    0.073;  -11.920;  658.160
1160.335;    0.532;  -11.110;  631.820

