
Integration time [ms]:   3.276
Averaging Nr. [scans]: 1000
Smoothing Nr. [pixels]: 0
Data measured with spectrometer [name]: 7414430SP
Wave   ;Sample   ;Dark     ;Reference
[nm]   ;[counts] ;[counts] ;[counts] 

288.544;  149.068;    7.793;  793.890
289.143;  154.292;    7.462;  681.602
289.742;  154.850;    8.602;  828.814
290.341;  139.799;    1.321;  789.841
290.940;  129.021;   -0.709;  730.702
291.538;  130.066;    0.881;  881.108
292.137;  129.780;    0.122;  792.581
292.736;  134.026;   -1.929;  975.101
293.335;  130.779;   -8.229;  735.086
293.934;  131.495;   -5.279;  781.677
294.532;  130.225;   -1.369; 1031.958
295.131;  115.526;   -7.641;  834.394
295.730;  115.299;   -8.420;  809.588
296.328;  115.257;   -5.611;  783.442
296.927;  116.280;   -5.781;  779.652
297.525;  116.434;   -6.361;  781.236
298.124;  106.921;  -11.382;  654.009
298.722;  111.221;   -7.641;  761.933
299.321;  109.104;   -6.811;  708.597
299.919;  106.571;   -6.991;  751.918
300.518;  104.215;  -10.362;  689.338
301.116;  105.900;   -9.581;  691.381
301.715;  105.498;   -4.891;  730.222
302.313;  103.949;   -8.801;  704.943
302.911;   98.931;   -8.522;  733.830
303.509;  105.403;   -6.171;  925.627
304.108;  102.270;   -7.311;  760.383
304.706;  101.139;   -8.321;  801.664
305.304;   95.940;  -10.222;  796.707
305.902;  101.118;   -6.021;  784.484
306.500;   97.829;   -4.971;  728.200
307.098;   96.199;   -7.061;  746.560
307.696;   93.005;   -8.801;  780.432
308.294;   94.659;   -6.411;  731.359
308.892;   97.181;   -2.901;  759.769
309.490;   92.109;   -5.041;  712.161
310.088;   90.330;   -5.002;  788.444
310.686;   94.426;   -2.041;  821.749
311.284;   90.849;   -2.351;  766.040
311.882;   87.889;   -4.422;  731.225
312.480;   85.345;   -4.192;  697.167
313.078;   86.649;   -1.172;  808.331
313.675;   87.839;   -2.601;  691.600
314.273;   83.313;   -1.312;  797.837
314.871;   82.687;   -3.942;  589.829
315.468;   80.448;   -2.802;  652.090
316.066;   83.128;   -0.701;  694.427
316.664;   75.695;   -4.362;  656.351
317.261;   79.547;   -2.872;  910.128
317.859;   74.876;   -2.022;  768.735
318.456;   76.432;   -0.531;  830.096
319.054;   71.312;   -3.912;  787.828
319.651;   70.470;   -4.752;  759.928
320.249;   69.200;   -2.602;  810.188
320.846;   67.199;   -0.821;  714.286
321.443;   65.004;   -4.642;  832.135
322.041;   61.432;   -5.002;  812.315
322.638;   59.458;   -3.982;  701.456
323.235;   60.797;   -3.411;  665.683
323.833;   57.750;   -7.361;  740.354
324.430;   52.773;   -8.611;  615.900
325.027;   54.813;   -4.061;  876.855
325.624;   54.374;   -4.031;  644.532
326.221;   51.437;   -7.481;  689.717
326.818;   50.237;   -5.281;  818.332
327.415;   54.497;   -7.460;  748.828
328.012;   53.661;   -5.510;  690.585
328.609;   52.162;   -7.880;  731.389
329.206;   49.988;   -8.331;  778.621
329.803;   50.340;   -5.121;  737.841
330.400;   52.894;   -4.510;  704.260
330.997;   54.493;   -6.441;  817.147
331.594;   52.786;   -8.831;  788.185
332.191;   58.813;   -7.621;  728.722
332.787;   61.457;   -4.591;  844.463
333.384;   59.208;   -7.412;  763.093
333.981;   57.596;   -8.293;  815.687
334.578;   60.459;   -7.052;  708.378
335.174;   63.904;   -3.102;  731.469
335.771;   63.285;   -5.943;  836.456
336.367;   60.622;   -7.393;  710.631
336.964;   63.876;   -4.063;  793.266
337.561;   62.511;   -3.813;  731.112
338.157;   58.229;   -4.654;  911.916
338.754;   54.775;   -7.934;  796.589
339.350;   53.470;   -4.414;  722.493
339.946;   55.924;   -4.664;  773.135
340.543;   47.013;   -6.375;  846.136
341.139;   41.568;   -9.815;  720.836
341.735;   40.275;   -4.526;  772.593
342.332;   38.787;   -4.895;  691.472
342.928;   38.172;   -4.295;  795.394
343.524;   32.969;   -5.476;  761.684
344.120;   29.332;   -5.856;  738.562
344.716;   33.208;   -2.155;  723.717
345.313;   30.303;   -6.275;  795.342
345.909;   24.515;   -8.815;  627.336
346.505;   27.675;   -5.305;  740.247
347.101;   27.296;   -2.674;  827.864
347.697;   27.426;   -4.344;  785.398
348.293;   22.601;   -9.975;  627.244
348.889;   22.944;   -5.774;  745.914
349.485;   22.588;   -5.004;  688.205
350.081;   22.598;   -4.704;  772.592
350.676;   18.572;   -6.635;  691.606
351.272;   22.993;   -4.504;  809.530
351.868;   22.034;   -3.914;  780.497
352.464;   19.694;   -9.044;  723.932
353.059;   15.615;   -8.314;  646.017
353.655;   18.793;   -7.024;  777.063
354.251;   20.459;   -5.343;  759.845
354.846;   14.402;   -8.604;  740.646
355.442;   11.800;   -6.945;  753.071
356.038;   14.596;   -7.564;  751.708
356.633;   15.302;   -5.814;  728.594
357.229;   12.490;   -7.364;  724.757
357.824;   10.130;   -8.024;  703.600
358.420;    9.743;   -9.384;  679.726
359.015;   10.706;   -5.104;  695.357
359.610;   11.602;   -6.854;  763.920
360.206;    5.128;  -10.185;  603.240
360.801;    8.793;   -7.054;  646.503
361.396;   11.070;   -5.034;  725.975
361.992;    5.930;   -8.284;  668.220
362.587;    2.512;   -8.625;  670.160
363.182;    5.205;   -7.674;  689.631
363.777;    6.276;   -5.164;  738.242
364.372;    5.815;   -8.604;  737.314
364.967;    1.176;   -9.055;  680.744
365.563;    5.560;   -6.114;  815.567
366.158;    3.117;   -5.814;  685.161
366.753;    3.430;   -7.854;  649.263
367.348;    1.990;   -7.804;  746.056
367.942;    1.613;   -7.954;  697.298
368.537;    1.848;   -4.984;  754.245
369.132;    0.939;   -8.564;  703.428
369.727;   -2.785;   -8.855;  638.079
370.322;   -1.041;   -6.245;  580.186
370.917;   -1.535;   -6.425;  710.646
371.511;    0.597;   -6.294;  861.834
372.106;   -2.765;   -7.685;  776.964
372.701;   -5.643;   -7.335;  585.988
373.296;    0.237;   -4.564;  863.135
373.890;   -4.537;  -10.235;  647.840
374.485;   -7.032;   -7.885;  691.199
375.079;   -2.558;   -7.324;  738.685
375.674;   -2.228;   -3.494;  812.970
376.268;   -6.130;   -8.525;  691.759
376.863;  -12.217;  -10.086;  580.327
377.457;   -6.039;   -7.025;  662.490
378.052;   -7.656;   -3.585;  764.884
378.646;   -8.675;   -7.595;  741.167
379.240;   -8.858;   -8.335;  721.176
379.835;   -7.394;   -5.785;  636.978
380.429;   -9.611;   -4.335;  562.557
381.023;   -9.652;   -6.805;  779.205
381.617;  -12.286;   -9.195;  680.106
382.212;   -9.294;   -6.905;  685.303
382.806;   -8.094;   -3.745;  760.690
383.400;  -11.707;   -7.745;  672.281
383.994;  -13.530;   -9.765;  664.870
384.588;   -9.317;   -6.564;  697.701
385.182;   -7.475;   -5.344;  726.624
385.776;   -9.778;   -8.514;  706.875
386.370;  -12.967;   -9.555;  681.968
386.964;  -11.308;   -8.715;  684.155
387.558;   -9.769;   -6.174;  598.360
388.152;  -13.049;   -8.725;  681.959
388.745;  -12.285;   -7.965;  814.707
389.339;   -9.741;   -5.924;  747.642
389.933;   -8.868;   -5.524;  695.370
390.527;   -9.985;   -7.114;  859.029
391.120;  -16.303;  -10.725;  595.318
391.714;  -13.131;   -8.035;  711.633
392.308;  -10.326;   -3.574;  780.253
392.901;  -14.330;   -7.245;  642.460
393.495;  -15.396;   -9.285;  595.414
394.089;  -12.919;   -5.895;  760.452
394.682;  -13.714;   -4.295;  697.188
395.275;  -14.813;   -9.875;  719.927
395.869;  -15.766;   -8.485;  667.314
396.462;  -14.048;   -7.455;  616.609
397.056;  -10.194;   -5.424;  776.621
397.649;  -14.958;   -6.605;  731.575
398.242;  -12.322;   -8.224;  712.645
398.836;  -11.626;   -7.474;  766.408
399.429;  -12.287;   -7.094;  631.041
400.022;  -16.011;   -9.475;  665.902
400.615;  -13.910;   -7.145;  805.609
401.208;  -12.235;   -7.174;  691.451
401.802;  -14.468;   -5.515;  699.329
402.395;  -15.700;   -9.875;  683.502
402.988;  -16.853;   -8.845;  696.627
403.581;  -13.759;   -8.874;  646.878
404.174;  -10.192;   -5.324;  686.568
404.767;  -13.817;   -9.575;  638.583
405.360;  -16.977;  -10.965;  621.445
405.953;  -10.672;   -8.764;  759.034
406.545;   -9.264;   -7.514;  725.342
407.138;  -14.606;  -10.025;  618.350
407.731;  -13.610;  -10.034;  613.303
408.324;   -8.984;   -9.374;  660.554
408.917;   -9.724;   -6.534;  681.864
409.509;  -12.027;   -8.004;  740.396
410.102;  -14.426;   -9.875;  643.948
410.695;   -7.737;   -8.604;  665.758
411.287;   -8.627;   -6.794;  599.821
411.880;  -10.861;   -9.334;  585.421
412.472;  -14.685;  -10.254;  613.092
413.065;  -10.302;   -6.714;  629.408
413.657;   -8.064;   -7.234;  576.678
414.250;   -8.277;  -10.544;  646.681
414.842;  -10.997;   -9.744;  676.353
415.434;   -7.968;   -6.994;  570.463
416.027;   -3.032;   -5.893;  652.196
416.619;   -5.373;   -7.264;  713.400
417.211;   -6.770;  -10.374;  599.352
417.804;   -3.359;   -7.993;  628.499
418.396;   -6.684;   -7.234;  607.643
418.988;   -4.687;   -9.443;  659.238
419.580;   -8.263;  -10.724;  568.276
420.172;   -5.953;  -10.323;  536.196
420.764;   -1.605;   -8.793;  672.482
421.356;   -3.057;  -11.143;  636.898
421.948;   -3.541;   -8.293;  677.661
422.540;    2.027;   -7.893;  680.027
423.132;    0.806;   -7.082;  600.641
423.724;   -2.958;   -8.653;  561.267
424.316;   -1.510;  -10.213;  621.345
424.908;    2.175;   -9.762;  591.517
425.500;    4.019;   -5.572;  647.978
426.092;    3.692;   -8.422;  648.268
426.683;    1.757;   -9.283;  684.836
427.275;    6.333;   -7.852;  641.471
427.867;    7.959;   -5.272;  668.948
428.458;    7.701;   -7.682;  732.344
429.050;    5.803;  -10.612;  680.749
429.642;    8.761;   -9.882;  743.124
430.233;    9.759;   -6.962;  569.356
430.825;    9.865;   -6.842;  724.809
431.416;    6.444;   -9.672;  698.241
432.008;   10.813;   -6.552;  651.723
432.599;   12.264;   -6.891;  656.073
433.190;    8.874;  -10.912;  637.670
433.782;    7.793;  -11.172;  590.395
434.373;   14.679;   -6.061;  884.765
434.964;   14.638;   -8.251;  602.920
435.556;   11.778;   -9.722;  634.537
436.147;   14.461;   -9.082;  758.490
436.738;   14.513;   -8.041;  701.099
437.329;   20.062;   -7.341;  721.723
437.920;   12.734;   -8.162;  666.688
438.511;   12.456;  -11.802;  564.526
439.103;   19.059;  -10.191;  623.998
439.694;   20.853;   -7.601;  681.583
440.285;   21.493;   -8.541;  764.432
440.876;   19.823;   -9.751;  845.738
441.466;   19.692;   -9.401;  575.162
442.057;   24.038;   -7.760;  665.814
442.648;   23.331;   -9.971;  746.255
443.239;   21.170;  -11.001;  620.477
443.830;   26.733;   -7.990;  704.958
444.421;   28.703;   -7.910;  655.474
445.011;   25.436;   -8.131;  693.619
445.602;   24.992;   -7.111;  743.126
446.193;   26.634;  -10.920;  488.117
446.783;   31.761;   -6.500;  640.397
447.374;   26.508;   -8.671;  692.759
447.964;   27.095;  -10.781;  713.770
448.555;   35.769;   -9.650;  822.742
449.145;   32.328;   -8.660;  662.853
449.736;   32.452;   -8.990;  803.179
450.326;   32.938;   -9.500;  713.626
450.917;   37.878;   -8.680;  675.324
451.507;   37.478;   -7.520;  600.661
452.097;   37.534;   -8.590;  746.267
452.688;   37.267;  -11.340;  742.160
453.278;   38.258;  -10.100;  566.840
453.868;   42.983;   -6.019;  793.550
454.458;   40.859;   -9.440;  651.141
455.048;   40.345;  -10.560;  711.783
455.639;   42.925;  -11.799;  567.096
456.229;   45.735;   -6.899;  710.694
456.819;   46.983;   -7.389;  751.158
457.409;   47.800;  -11.119;  773.993
457.999;   51.083;   -9.289;  737.505
458.589;   51.050;   -6.139;  686.606
459.179;   50.192;   -8.729;  717.658
459.769;   47.592;   -9.789;  627.099
460.358;   53.781;  -10.259;  797.262
460.948;   53.540;   -7.299;  689.503
461.538;   55.071;  -10.289;  660.677
462.128;   52.621;  -11.269;  664.934
462.717;   58.942;   -9.368;  710.326
463.307;   63.006;   -7.908;  705.846
463.897;   58.800;   -9.599;  656.942
464.486;   57.120;   -9.769;  837.128
465.076;   62.265;   -8.048;  733.776
465.666;   66.312;   -9.358;  652.900
466.255;   63.316;   -7.919;  785.651
466.845;   61.972;  -11.689;  666.749
467.434;   66.165;   -7.818;  725.873
468.023;   67.465;   -7.678;  658.357
468.613;   64.068;  -10.939;  713.946
469.202;   68.396;  -10.118;  646.507
469.791;   73.624;   -9.108;  737.811
470.381;   75.035;   -6.058;  742.813
470.970;   74.245;  -10.428;  711.099
471.559;   73.513;  -10.268;  733.291
472.148;   76.823;   -8.448;  675.737
472.738;   79.975;   -6.917;  765.466
473.327;   79.462;  -11.978;  637.529
473.916;   78.066;  -11.888;  737.446
474.505;   83.443;   -9.437;  751.703
475.094;   86.120;   -6.747;  806.570
475.683;   85.468;   -9.367;  797.699
476.272;   86.388;  -12.637;  730.632
476.861;   89.245;  -10.027;  706.754
477.449;   96.028;   -8.716;  728.487
478.038;   90.943;   -9.577;  692.513
478.627;   90.420;   -9.718;  714.852
479.216;   97.931;   -8.947;  769.441
479.805;  101.025;   -6.256;  783.375
480.393;  100.550;   -7.937; 1008.945
480.982;   98.989;   -7.717;  874.501
481.571;  105.308;   -9.266;  858.333
482.159;  106.488;   -7.636;  705.386
482.748;  105.945;   -9.667;  821.385
483.336;  110.554;  -10.376;  858.209
483.925;  111.188;   -7.147;  774.373
484.513;  117.911;   -7.996;  758.962
485.102;  114.446;  -10.027;  810.965
485.690;  123.088;  -10.446; 1011.050
486.278;  125.408;   -8.446;  979.329
486.867;  126.536;   -6.356;  809.662
487.455;  126.942;   -9.136;  898.229
488.043;  129.289;  -10.646;  748.361
488.631;  137.505;   -7.456; 1005.079
489.220;  141.475;   -6.636;  908.626
489.808;  141.046;  -11.036;  741.415
490.396;  149.446;  -10.246;  914.645
490.984;  154.855;   -8.556;  830.161
491.572;  165.182;   -5.886;  940.315
492.160;  170.552;   -9.486;  919.081
492.748;  181.239;  -10.976;  884.341
493.336;  203.921;   -8.776; 1019.693
493.924;  230.413;   -5.465;  958.077
494.512;  257.140;   -9.986; 1066.638
495.100;  294.786;  -10.636; 1103.280
495.687;  349.057;  -10.885; 1206.373
496.275;  411.334;   -8.126; 1150.796
496.863;  480.917;  -10.586; 1281.171
497.451;  581.699;  -11.926; 1386.805
498.038;  710.457;  -10.885; 1556.729
498.626;  818.343;   -6.315; 1741.407
499.214;  966.933;   -7.326; 2016.609
499.801; 1161.326;  -11.906; 2220.633
500.389; 1411.710;  -10.466; 2312.494
500.976; 1718.991;   -5.236; 2744.849
501.564; 2162.547;   -8.936; 3148.565
502.151; 2535.485;  -13.176; 3515.999
502.738; 2981.186;  -10.646; 3971.274
503.326; 3368.093;   -9.525; 4403.796
503.913; 3746.129;  -10.856; 5161.749
504.500; 4107.381;  -11.586; 5986.420
505.088; 4528.809;  -10.336; 6381.201
505.675; 5057.858;   -6.355; 6925.547
506.262; 5769.081;   -9.046; 7619.060
506.849; 6471.066;  -10.416; 8733.969
507.436; 6947.179;  -10.305; 9790.121
508.023; 7512.074;   -5.496; 9985.472
508.610; 7764.052;   -7.856;10434.618
509.197; 8397.750;  -10.097;11198.435
509.784; 9766.984;  -10.886;12391.194
510.371;10816.422;   -9.315;13603.713
510.958;11534.240;   -9.936;14426.586
511.545;12270.461;   -9.326;15243.775
512.132;13099.262;  -10.075;15945.876
512.719;13664.885;   -7.796;16340.369
513.305;14626.711;  -10.606;18011.766
513.892;15353.275;  -11.486;19754.971
514.479;16658.215;   -9.126;20967.805
515.066;18126.129;   -6.026;22299.793
515.652;19422.746;   -8.466;22908.660
516.239;20699.584;  -10.886;23798.875
516.825;21721.000;  -11.496;25567.275
517.412;22732.189;   -5.796;28154.959
517.998;23324.078;  -10.506;28344.111
518.585;23431.766;  -10.076;27134.219
519.171;23925.906;   -8.315;27268.576
519.758;25284.037;   -8.596;28964.129
520.344;26984.014;   -8.466;30664.494
520.930;26957.703;  -11.006;32550.605
521.516;28298.736;  -10.495;35422.895
522.103;30469.408;   -5.526;38280.004
522.689;30998.834;   -8.746;37835.117
523.275;30409.008;  -11.376;37288.613
523.861;31524.168;  -11.156;37281.395
524.447;32875.195;   -8.135;37846.949
525.033;32636.256;   -7.896;38321.949
525.619;32564.162;  -12.476;38579.285
526.205;33932.637;   -9.516;40622.875
526.791;36019.359;   -6.926;42258.836
527.377;35880.020;   -8.346;42966.902
527.963;36285.750;   -8.717;42018.949
528.549;32979.855;  -11.016;42476.828
529.135;29900.139;   -8.536;41854.852
529.721;29880.240;   -9.666;41237.711
530.306;32077.938;  -10.066;41259.445
530.892;34116.313;  -11.356;41506.047
531.478;36344.605;   -6.596;43559.613
532.063;39370.984;   -8.836;47695.563
532.649;39736.848;  -10.047;50808.324
533.235;40408.031;   -9.746;51787.500
533.820;40769.336;   -6.566;52145.035
534.406;41896.715;  -10.817;51133.488
534.991;41319.254;   -9.416;49996.805
535.576;39331.402;   -9.036;48882.852
536.162;38875.633;   -6.156;46942.285
536.747;37937.742;  -11.607;45711.746
537.333;38430.469;  -11.787;48510.180
537.918;38453.590;  -12.437;50439.891
538.503;37702.598;   -7.196;50863.711
539.088;38025.090;  -10.556;50906.922
539.673;41854.926;   -8.767;52621.965
540.259;44524.996;  -10.026;52368.094
540.844;43105.227;   -7.416;50879.109
541.429;44727.113;   -9.467;52077.777
542.014;47462.316;   -9.527;52716.695
542.599;46670.918;   -9.946;52363.281
543.184;44345.355;   -7.927;53187.137
543.769;45969.367;   -9.297;54697.605
544.354;45368.629;  -10.127;53913.914
544.938;44009.383;   -9.267;49680.164
545.523;45876.141;   -6.506;47386.277
546.108;48516.652;   -9.787;49151.949
546.693;50468.902;  -11.587;51384.637
547.278;50292.645;  -10.986;51853.254
547.862;47395.492;   -8.206;51173.750
548.447;42882.523;  -10.067;51691.395
549.031;42309.199;   -9.637;52456.703
549.616;47169.109;   -9.926;52714.516
550.201;46469.891;   -6.347;52414.598
550.785;47731.293;   -7.917;52355.059
551.370;46716.051;  -10.867;54589.453
551.954;46328.855;   -9.047;58267.348
552.538;47027.922;   -7.827;59062.176
553.123;45368.883;  -10.287;58115.285
553.707;43277.492;  -12.178;56556.285
554.291;44768.992;   -8.717;56201.668
554.876;47134.566;   -7.457;55335.762
555.460;47433.270;  -10.387;54155.703
556.044;48446.543;   -9.618;53721.484
556.628;47003.438;  -11.567;53731.016
557.212;45770.707;   -8.097;54312.531
557.796;44264.953;  -11.077;53797.773
558.380;44286.855;  -11.108;56145.984
558.964;44720.637;   -9.057;57277.930
559.548;45819.445;   -6.977;56459.641
560.132;44099.137;  -11.457;54434.543
560.716;42764.277;  -11.378;54800.617
561.300;43926.492;   -9.577;57606.945
561.884;45030.629;   -7.127;58972.445
562.467;43425.641;   -7.118;57327.570
563.051;42764.852;  -13.358;54962.434
563.635;43791.156;  -10.178;52594.473
564.219;44080.168;   -7.837;50610.410
564.802;45027.855;  -11.398;49551.180
565.386;44941.238;  -12.788;48370.953
565.969;44234.910;   -9.077;48178.871
566.553;43447.555;   -6.207;49957.305
567.136;44003.199;   -8.568;50369.594
567.720;40396.691;  -11.868;49492.004
568.303;38285.121;   -8.268;50616.352
568.887;38375.027;   -8.698;50727.148
569.470;38598.113;   -6.808;51698.379
570.053;37205.336;  -13.188;52122.078
570.637;35610.438;  -12.037;52536.438
571.220;35540.207;   -8.577;51186.098
571.803;36197.422;   -8.498;51032.762
572.386;38488.922;  -10.498;49609.887
572.969;40978.930;   -9.388;48285.926
573.552;38978.414;   -8.338;47624.285
574.135;37554.270;   -8.518;45498.641
574.718;35257.891;  -13.628;41970.434
575.301;34293.645;  -10.893;41447.137
575.884;33329.398;   -8.158;40923.836
576.467;34507.168;  -10.328;45267.723
577.050;36603.082;  -13.058;48175.543
577.633;37991.289;   -9.458;47729.328
578.216;36976.168;   -8.928;47579.793
578.799;36097.344;   -9.358;47820.996
579.381;34978.184;  -11.388;48115.551
579.964;33307.063;  -11.718;47333.766
580.547;34970.078;   -8.588;46668.969
581.129;35999.973;   -8.859;44466.141
581.712;36730.434;  -10.729;44164.922
582.294;37251.758;  -11.118;46477.855
582.877;37149.504;   -5.218;48244.254
583.459;34757.141;   -8.679;47437.895
584.042;32790.680;  -10.709;46943.219
584.624;33389.648;  -11.669;46792.227
585.206;32892.570;   -8.218;46557.250
585.789;32944.918;  -10.569;45793.773
586.371;35791.000;  -11.859;43836.391
586.953;36231.820;  -10.719;42972.492
587.536;37612.859;   -7.198;42487.211
588.118;37591.555;   -8.720;42086.414
588.700;34036.059;  -10.439;43389.930
589.282;33216.188;   -9.198;43646.039
589.864;34061.637;   -9.199;43438.109
590.446;34990.043;  -11.319;43151.926
591.028;34901.387;  -11.159;42781.867
591.610;33906.410;  -11.779;42839.098
592.192;31346.996;   -7.668;42820.402
592.774;29845.230;  -11.949;40724.277
593.356;28595.900;  -12.129;39874.789
593.937;27544.982;  -10.669;39980.648
594.519;29720.619;   -6.509;42069.633
595.101;31876.127;  -10.849;42976.031
595.683;31972.797;  -11.679;44084.441
596.264;32965.887;   -9.049;43478.797
596.846;32385.314;   -8.849;43803.672
597.427;32330.500;   -9.570;42986.934
598.009;33996.742;  -12.620;42832.219
598.591;34367.074;  -10.039;42580.086
599.172;33492.148;  -10.369;43061.805
599.753;33626.398;   -9.140;41691.469
600.335;35118.801;  -11.430;40692.520
600.916;33360.801;   -9.939;39982.422
601.498;30842.576;   -8.479;40318.617
602.079;29312.057;  -10.920;40670.609
602.660;29237.420;  -11.480;41450.898
603.241;30822.709;  -11.699;41137.738
603.823;29640.410;   -9.579;38868.797
604.404;29328.855;  -10.620;38182.785
604.985;30916.143;  -10.450;38078.047
605.566;30644.367;   -9.129;38056.633
606.147;30782.211;   -7.510;37020.418
606.728;32326.074;  -10.660;37883.359
607.309;30961.334;  -11.740;38748.273
607.890;30453.785;   -9.759;38850.230
608.471;29927.705;   -8.250;37457.918
609.051;29053.070;   -9.240;36066.457
609.632;27982.291;  -12.120;35991.074
610.213;28736.971;   -9.110;37402.641
610.794;29440.932;   -8.030;38383.363
611.374;28958.037;   -8.110;40562.387
611.955;29531.129;  -13.560;38533.727
612.536;30846.965;  -11.400;36951.789
613.116;30772.814;   -8.070;37197.891
613.697;31036.797;  -10.830;38411.125
614.277;29459.947;  -11.641;38673.938
614.858;30350.768;  -13.310;37075.863
615.438;29530.750;   -7.460;35092.906
616.019;26902.803;   -7.601;33666.301
616.599;27600.244;  -12.020;34189.023
617.179;29427.613;  -11.780;36952.047
617.760;30459.762;   -8.570;39582.574
618.340;31512.445;  -11.471;38943.977
618.920;32703.057;  -11.170;37594.156
619.500;32503.436;  -11.071;37866.938
620.080;31590.242;   -7.750;37869.043
620.660;32755.934;  -12.711;36868.617
621.241;34130.109;  -10.211;36352.309
621.821;34376.270;  -10.961;35459.520
622.401;33362.125;   -7.720;35207.414
622.980;32634.877;   -8.981;35980.422
623.560;31184.195;   -9.331;37351.328
624.140;29929.236;   -9.850;34388.582
624.720;24840.107;   -7.451;32368.764
625.300;21368.357;   -9.070;32638.629
625.880;24765.502;  -12.601;34599.035
626.459;28727.621;  -11.751;36831.738
627.039;31759.684;   -9.281;38299.098
627.619;31657.381;   -8.801;38289.574
628.198;30121.025;  -12.071;37220.695
628.778;29333.082;   -9.461;37632.563
629.357;29978.158;   -8.491;38003.012
629.937;29886.926;   -9.721;38402.039
630.516;29348.438;   -9.951;37868.801
631.096;29126.115;  -11.731;35760.410
631.675;31826.854;   -8.572;35225.219
632.254;36777.965;  -11.282;35130.289
632.834;36128.113;  -13.322;35794.570
633.413;34299.781;  -10.301;35788.922
633.992;31576.275;   -8.582;34532.863
634.571;32379.580;   -8.352;33590.113
635.151;35356.375;  -11.912;34943.863
635.730;33755.570;  -10.511;35352.523
636.309;30327.779;   -7.731;35366.605
636.888;27862.738;   -9.952;36165.637
637.467;28686.434;  -11.672;37515.902
638.046;30287.199;   -8.901;39288.695
638.625;33431.762;   -7.912;38279.699
639.204;33197.945;  -10.022;37741.598
639.782;31722.854;  -12.252;38364.551
640.361;28012.318;  -10.041;36740.621
640.940;25226.996;  -11.161;34950.082
641.519;25882.119;   -9.701;34137.398
642.097;28804.355;  -11.271;35654.258
642.676;31665.154;   -8.651;35637.957
643.255;32302.367;   -8.711;36567.074
643.833;31479.043;   -9.581;37809.434
644.412;31453.531;  -13.711;37337.293
644.990;30482.984;  -11.811;37018.531
645.569;30544.346;   -9.411;36518.469
646.147;29589.588;  -10.291;36186.430
646.726;29271.465;  -12.401;36267.688
647.304;30453.814;  -10.411;36647.625
647.882;32374.594;   -9.651;39286.742
648.461;34122.652;   -9.631;39157.703
649.039;32377.359;  -11.881;35412.883
649.617;31663.764;   -9.661;34744.918
650.195;31256.885;   -9.301;35403.098
650.773;29775.205;  -10.511;35053.797
651.352;27355.033;  -11.521;33756.816
651.930;25018.689;  -12.211;31868.773
652.508;23485.443;   -9.171;33121.551
653.086;27410.072;   -9.371;33564.793
653.663;30233.486;  -13.161;34054.668
654.241;29090.680;  -13.031;35693.309
654.819;30778.781;   -9.371;36422.906
655.397;30958.475;  -10.511;38213.484
655.975;30584.947;  -10.371;39507.625
656.553;30329.604;  -10.051;39498.223
657.130;28755.160;  -10.061;40395.480
657.708;28023.646;   -9.561;39242.020
658.286;28085.904;  -11.511;38920.020
658.863;29399.744;  -10.261;40202.898
659.441;32507.688;   -7.531;39677.938
660.018;31993.068;   -9.501;40413.355
660.596;30807.051;  -13.301;39931.414
661.173;32758.939;  -11.211;39604.531
661.750;32865.629;   -9.951;39700.070
662.328;31565.670;   -9.390;39292.809
662.905;30632.904;  -11.330;38235.648
663.482;26391.652;   -9.050;36212.305
664.060;24556.453;   -8.240;35944.945
664.637;27327.969;  -10.050;35170.785
665.214;29188.055;  -11.760;34197.523
665.791;30657.959;  -10.530;34549.520
666.368;29456.215;   -9.690;35118.578
666.945;30184.734;   -9.320;36019.418
667.522;31837.271;  -11.860;36048.438
668.099;31527.098;  -10.770;36243.914
668.676;30292.447;   -6.260;35958.875
669.253;28986.457;   -7.000;37384.730
669.830;29682.955;  -10.190;36779.629
670.407;29405.287;   -9.550;35231.289
670.984;29365.059;   -9.260;35544.270
671.560;29946.311;   -9.280;35466.867
672.137;29133.676;  -11.810;34280.863
672.714;29926.553;  -11.490;34632.863
673.290;30476.742;   -7.740;35135.422
673.867;30620.563;  -10.660;36114.480
674.443;30547.535;  -12.230;36152.859
675.020;28842.545;  -10.450;35327.238
675.596;29947.322;   -9.260;35795.176
676.173;30403.656;  -10.780;35430.355
676.749;30194.402;  -13.690;33549.516
677.326;30191.389;  -11.980;32210.012
677.902;30164.080;   -8.630;32068.871
678.478;29467.455;  -10.730;32583.891
679.054;28820.064;  -10.520;32088.928
679.631;29157.908;  -11.920;30978.848
680.207;30761.227;   -7.490;33160.887
680.783;32397.543;   -9.860;35570.363
681.359;31423.930;  -13.380;36125.184
681.935;30786.836;  -12.480;35240.922
682.511;29980.020;   -7.900;34429.961
683.087;30109.316;   -7.710;34463.680
683.663;29662.838;  -11.480;34648.898
684.239;28414.982;  -14.090;34546.457
684.815;28100.283;   -7.560;35586.375
685.390;28515.186;   -9.910;35821.895
685.966;29031.271;  -11.159;35085.871
686.542;31426.551;  -11.169;34198.230
687.118;33556.055;   -5.959;32847.707
687.693;33730.906;  -10.329;32794.027
688.269;33396.371;  -12.059;33072.367
688.844;31585.209;  -10.909;33141.664
689.420;29427.662;   -8.019;33965.742
689.995;27145.109;   -8.399;34655.523
690.571;25832.855;  -10.949;33576.742
691.146;26321.500;   -9.619;32657.219
691.722;25799.982;   -8.999;32526.979
692.297;25609.627;  -11.589;33014.617
692.872;27398.318;  -11.739;34012.254
693.448;26952.764;  -11.059;34237.434
694.023;26144.932;  -10.139;34142.672
694.598;28186.531;   -9.029;34132.031
695.173;28505.646;  -13.319;34205.250
695.748;27798.408;  -10.169;32882.488
696.323;27936.541;   -8.339;32864.906
696.898;28195.740;   -8.169;33170.004
697.473;28023.037;  -12.309;32432.984
698.048;27419.090;  -10.989;31649.303
698.623;27320.955;   -9.329;30778.141
699.198;29242.658;   -9.849;31140.119
699.773;30159.797;  -12.329;31764.299
700.348;28529.773;  -10.389;31780.816
700.922;28593.195;   -9.269;32046.375
701.497;29454.600;   -9.329;32603.574
702.072;29559.973;  -10.789;34799.871
702.646;28264.480;  -10.839;35793.172
703.221;26307.441;   -9.099;35201.590
703.795;28377.164;  -10.939;34764.527
704.370;28688.182;  -12.859;34307.367
704.944;29117.676;  -11.559;33509.887
705.519;29983.766;   -7.939;31388.584
706.093;31418.547;  -10.499;31340.104
706.668;31767.652;  -11.289;32630.281
707.242;30702.766;  -11.509;32728.779
707.816;29119.920;   -9.639;32947.238
708.390;27568.412;  -11.429;33277.855
708.965;28031.463;  -11.869;33834.336
709.539;28079.732;  -11.689;33709.273
710.113;28603.928;  -10.478;33044.313
710.687;28056.875;  -10.228;31953.992
711.261;26385.057;  -13.698;30505.949
711.835;26234.717;  -13.378;30262.369
712.409;27035.313;   -9.698;31254.447
712.983;28986.672;  -11.898;32754.986
713.557;29951.324;  -15.138;34018.824
714.131;29487.215;  -14.098;34579.625
714.704;28452.471;   -9.958;33890.262
715.278;26234.213;  -10.028;33531.102
715.852;25277.254;  -11.148;33601.660
716.425;26161.416;   -9.068;33515.117
716.999;26942.857;  -10.038;33185.555
717.573;27948.916;   -9.798;33905.996
718.146;29026.824;  -12.378;35199.293
718.720;28982.746;  -11.918;35060.551
719.293;28454.313;   -8.088;34973.230
719.867;31374.504;  -10.888;36394.449
720.440;31060.221;  -11.938;36663.008
721.013;29369.010;  -12.818;35102.426
721.587;27959.172;  -10.298;33985.266
722.160;27004.928;  -10.048;33524.965
722.733;25940.633;  -12.108;32987.043
723.306;26212.236;  -10.818;33066.301
723.880;28622.334;   -8.908;33399.500
724.453;30608.842;   -9.878;33468.297
725.026;29677.184;  -11.188;33816.637
725.599;26997.061;  -11.678;32797.996
726.172;27288.783;   -9.618;33187.434
726.745;28179.846;   -8.258;35136.613
727.318;29309.965;  -12.978;35751.730
727.891;29680.094;  -12.148;35890.430
728.463;29560.164;   -8.968;34822.090
729.036;28782.746;  -10.188;32895.086
729.609;29244.988;  -11.788;31823.225
730.182;26198.615;  -11.788;31445.283
730.754;23732.939;  -10.268;32373.223
731.327;23785.707;   -9.998;33676.820
731.900;24102.143;  -12.228;33417.000
732.472;25429.637;  -13.848;31978.498
733.045;27349.613;   -8.698;30368.777
733.617;27432.223;  -10.607;30574.215
734.190;27027.113;  -11.507;31280.975
734.762;24101.945;  -13.647;31674.412
735.334;22356.342;   -9.767;31247.291
735.907;23014.486;   -9.897;29876.211
736.479;23172.918;  -11.637;29808.488
737.051;22892.188;   -9.567;30233.547
737.623;23827.988;   -8.187;31469.086
738.195;24632.797;  -11.187;31784.225
738.768;26605.992;  -12.337;32120.523
739.340;26791.971;  -12.227;32094.342
739.912;25568.291;  -11.057;31312.680
740.484;24057.074;  -10.207;31946.238
741.056;22933.102;  -10.047;32984.059
741.628;24726.672;  -13.627;33897.715
742.199;26909.871;   -7.177;33213.016
742.771;25235.402;  -10.797;31369.113
743.343;22968.373;  -11.997;31865.473
743.915;21983.918;  -12.867;32388.631
744.487;22050.484;   -7.617;31079.568
745.058;22255.357;   -9.557;30570.107
745.630;22736.041;   -9.877;29970.127
746.201;23549.848;  -14.177;29186.766
746.773;23947.291;   -9.237;28805.723
747.344;23705.902;   -9.847;29591.223
747.916;22260.213;  -11.657;31412.201
748.487;22417.854;  -10.587;32194.898
749.059;23541.109;   -8.707;32533.719
749.630;24195.605;  -10.537;32158.518
750.201;23276.715;  -11.687;30855.395
750.773;21608.801;  -11.647;28622.555
751.344;21660.850;   -7.147;28405.732
751.915;22915.865;   -9.757;28461.551
752.486;22791.760;  -12.427;27842.850
753.057;20549.207;  -12.227;27845.008
753.628;19363.625;  -10.417;27728.107
754.199;20518.199;  -11.767;27381.086
754.770;21562.381;  -11.187;25882.203
755.341;21585.830;  -10.507;25886.184
755.912;21582.410;   -9.387;26050.861
756.483;21081.523;  -10.647;26798.779
757.054;19281.078;  -11.837;27048.238
757.625;17985.197;  -12.716;26294.838
758.195;17744.631;   -9.666;26142.076
758.766;17489.400;   -8.656;26392.234
759.337;18284.434;  -12.856;26334.594
759.907;19981.855;  -13.366;27579.652
760.478;20881.295;   -8.576;28352.770
761.048;20252.104;  -10.526;27325.088
761.619;19383.980;  -11.116;26460.428
762.189;19398.871;  -12.136;26029.826
762.760;20505.369;   -9.456;26430.145
763.330;21608.004;   -7.136;26670.902
763.900;21011.314;  -11.786;26603.021
764.471;18464.420;  -11.546;25542.740
765.041;17223.217;   -8.096;24358.459
765.611;17283.643;   -8.876;23991.297
766.181;17674.473;  -12.196;24470.236
766.751;18627.227;  -11.636;24845.975
767.321;18381.031;  -10.156;24533.633
767.891;16444.973;  -11.766;24916.492
768.461;15968.157;  -14.936;24776.771
769.031;16560.967;  -12.356;24757.988
769.601;18110.092;   -7.526;24181.088
770.171;17879.752;  -10.766;23670.387
770.741;17100.088;  -13.176;22960.045
771.311;17292.109;  -10.616;22917.523
771.880;17635.982;   -9.576;23562.941
772.450;17324.037;  -10.336;24216.500
773.020;17332.406;  -13.516;24140.398
773.589;16666.727;  -13.466;24414.857
774.159;16048.527;   -8.686;23858.717
774.729;15704.799;   -9.476;22942.135
775.298;15214.656;  -13.666;22324.033
775.867;14815.340;  -11.716;21140.313
776.437;14905.795;   -9.906;20838.092
777.006;14704.047;  -12.166;20599.510
777.576;14576.575;  -12.356;20508.809
778.145;14684.746;  -11.646;20732.947
778.714;14555.126;   -8.226;21062.465
779.283;13808.776;   -9.556;20949.664
779.853;13316.862;  -14.116;20508.623
780.422;13809.629;  -11.506;20649.082
780.991;13399.917;   -9.556;21527.520
781.560;12231.742;   -9.095;22632.658
782.129;12066.146;  -12.135;23048.277
782.698;12099.669;  -10.865;23438.555
783.267;11687.670;   -9.335;23267.734
783.836;11634.968;  -11.045;22415.133
784.404;12703.308;  -13.865;20443.152
784.973;13290.532;  -13.095;19699.150
785.542;13205.390;  -11.575;19763.828
786.111;13007.479;   -9.705;20341.408
786.679;12480.063;  -12.105;20207.967
787.248;12252.282;  -12.455;19516.465
787.817;12098.077;  -11.535;18900.363
788.385;11710.693;   -9.765;17879.121
788.954;11121.551;  -14.005;17658.301
789.522;10594.663;  -11.955;17788.879
790.090;11168.149;  -10.135;18118.277
790.659;11566.626;  -10.975;18338.736
791.227;11051.091;  -13.375;18508.615
791.795;11457.612;  -12.375;17898.254
792.364;11815.864;  -10.725;17295.133
792.932;12146.965;   -9.715;16822.051
793.500;12321.378;  -12.675;17040.148
794.068;12557.965;  -13.495;17179.787
794.636;12676.790;  -10.885;16664.246
795.204;12090.823;  -11.045;16524.545
795.772;12151.784;  -13.175;17274.564
796.340;11650.053;  -12.445;17891.002
796.908;11449.185;   -9.735;17648.561
797.476;11339.711;   -9.815;17064.080
798.044;10902.926;  -13.985;16672.777
798.612;10104.789;  -13.115;17023.996
799.180; 9720.636;  -10.185;16561.615
799.747; 9654.088;   -9.055;15962.773
800.315; 9414.778;  -12.385;15296.992
800.883; 9070.812;  -15.035;14801.771
801.450; 9074.702;  -10.365;14534.430
802.018; 9144.400;   -9.855;14173.248
802.585; 9285.098;  -11.905;14029.547
803.153; 9332.093;  -11.585;13836.846
803.720; 9120.089;   -9.095;13567.324
804.287; 8639.765;   -9.135;13360.622
804.855; 8213.260;  -11.604;13681.981
805.422; 8106.249;  -11.794;13536.560
805.989; 8118.664;  -10.734;13355.958
806.556; 8294.413;  -10.444;13747.896
807.124; 8531.985;  -12.764;13987.376
807.691; 8505.165;  -12.964;14038.674
808.258; 8303.651;  -11.134;14120.152
808.825; 7986.725;   -9.854;13860.111
809.392; 8056.833;  -10.504;13268.790
809.959; 7574.508;  -13.054;12680.389
810.526; 7127.645;   -8.294;12427.308
811.093; 7185.158;   -8.394;12030.105
811.659; 7821.960;  -12.304;11653.664
812.226; 8332.418;  -13.944;11637.183
812.793; 8023.801;  -10.484;11611.521
813.360; 7382.178;  -10.144;11885.181
813.926; 7080.177;  -11.684;12770.539
814.493; 6869.493;  -13.644;12677.638
815.060; 6473.906;   -9.724;11974.336
815.626; 6482.484;   -9.854;11594.715
816.193; 6892.629;  -13.254;11579.474
816.759; 6909.098;  -13.204;11666.972
817.325; 6983.454;   -9.434;11325.530
817.892; 7358.345;  -10.134;11105.369
818.458; 7809.943;  -13.474;10843.928
819.024; 7424.101;  -11.854;10714.406
819.591; 7096.978;  -10.244;10469.165
820.157; 6857.162;  -10.704;10235.523
820.723; 6341.760;  -12.324;10847.563
821.289; 6042.827;   -9.444;11040.980
821.855; 5959.505;   -8.374;10357.100
822.421; 5944.611;  -10.234; 9978.918
822.987; 5946.241;  -13.294; 9754.177
823.553; 5632.138;  -10.884;10065.755
824.119; 5458.748;   -8.884;10036.294
824.685; 5550.590;   -6.784;10029.192
825.251; 5635.084;  -12.004;10199.230
825.816; 5595.253;  -11.474; 9820.189
826.382; 5370.434;   -9.174; 9297.248
826.948; 5585.744;   -9.214; 9381.347
827.513; 5987.783;  -10.774; 9450.726
828.079; 5803.523;  -11.924; 9472.444
828.645; 5215.580;  -10.543; 9292.643
829.210; 5128.383;  -10.533; 9065.341
829.776; 5111.309;  -10.753; 9132.620
830.341; 4993.478;  -10.173; 9092.878
830.906; 5185.923;  -10.743; 9078.557
831.472; 5531.673;  -11.113; 8534.535
832.037; 5259.369;  -10.603; 8677.874
832.602; 4696.239;  -13.323; 8628.692
833.167; 4439.355;  -10.823; 8879.031
833.733; 4381.789;  -10.113; 9189.790
834.298; 4522.125;  -13.583; 9052.608
834.863; 4592.209;  -12.703; 8895.087
835.428; 4573.618;  -10.523; 8824.266
835.993; 4430.718;   -6.963; 8845.385
836.558; 4268.159;  -10.763; 8888.563
837.123; 4397.258;   -9.903; 8966.582
837.688; 4633.129;   -9.913; 8617.860
838.253; 4875.484;  -10.283; 8590.699
838.817; 5073.812;  -12.963; 8443.797
839.382; 4978.757;  -14.243; 8799.356
839.947; 4664.062;  -10.733; 8810.595
840.511; 4358.141;   -9.383; 8796.394
841.076; 3974.225;  -12.563; 8347.231
841.641; 4033.916;  -12.953; 8224.330
842.205; 4132.762;   -7.043; 8223.349
842.770; 4238.283;   -8.163; 8622.107
843.334; 4399.852;  -12.503; 8410.386
843.898; 4334.984;  -11.693; 8337.465
844.463; 4353.306;  -10.203; 8506.283
845.027; 4128.674;   -9.533; 8280.962
845.591; 3954.513;  -13.443; 8231.141
846.156; 3930.988;  -13.143; 7969.179
846.720; 3811.688;   -9.433; 7768.278
847.284; 3687.967;  -11.033; 7630.957
847.848; 3555.043;  -10.403; 7472.395
848.412; 3456.351;  -11.553; 7437.394
848.976; 3492.349;   -8.393; 7674.592
849.540; 3427.277;   -8.713; 7836.011
850.104; 3546.618;  -12.463; 7913.669
850.668; 3908.150;  -12.973; 7694.508
851.232; 3998.623;  -10.793; 7756.887
851.796; 3828.958;  -10.662; 7926.545
852.359; 3531.847;  -13.082; 7827.844
852.923; 3368.810;  -12.192; 7641.163
853.487; 3189.247;  -11.912; 7342.501
854.050; 3150.137;  -10.892; 7042.820
854.614; 3283.161;  -13.992; 7151.338
855.177; 3406.473;  -11.732; 7105.077
855.741; 3435.383;   -8.962; 6989.675
856.304; 3320.780;   -9.442; 6596.634
856.868; 3278.048;  -14.192; 6356.272
857.431; 3380.448;  -12.702; 6468.571
857.995; 3503.047;   -9.942; 6373.210
858.558; 3510.976;   -9.112; 6324.448
859.121; 3236.784;  -12.932; 6408.327
859.684; 3114.198;  -13.442; 6347.886
860.247; 3220.786;  -10.632; 6321.264
860.810; 3211.485;  -11.272; 6301.903
861.374; 2952.946;   -9.832; 6607.881
861.937; 2700.619;  -11.762; 6408.200
862.500; 2702.400;   -9.722; 6572.639
863.062; 2882.458;  -10.512; 6387.297
863.625; 3053.831;  -11.232; 6190.836
864.188; 3214.033;  -14.112; 5807.254
864.751; 3275.670;  -11.302; 5682.413
865.314; 3163.106;  -10.112; 5547.492
865.876; 2951.434;  -12.182; 5500.150
866.439; 2936.871;  -10.722; 5415.909
867.002; 2880.436;   -9.252; 5501.567
867.564; 2673.342;   -9.572; 5413.946
868.127; 2450.725;  -13.142; 5160.325
868.689; 2346.904;  -12.902; 5133.183
869.252; 2247.515;   -9.732; 5252.382
869.814; 2151.905;   -9.432; 5297.141
870.377; 2167.844;  -11.552; 5390.919
870.939; 2240.878;   -9.052; 5599.898
871.501; 2306.107;  -10.982; 5248.336
872.063; 2307.913;  -12.292; 4854.235
872.626; 2269.542;  -14.912; 4817.074
873.188; 2299.048;  -13.112; 4987.732
873.750; 2268.024;  -13.442; 4868.651
874.312; 2170.658;   -9.402; 4779.330
874.874; 2077.822;  -11.062; 4866.348
875.436; 1989.003;  -13.931; 4718.887
875.998; 1984.425;   -9.561; 4660.005
876.560; 2011.508;  -11.321; 4462.964
877.122; 1958.054;  -12.221; 4145.042
877.683; 1871.244;  -12.191; 4056.481
878.245; 1807.550;  -12.101; 3950.740
878.807; 1859.591;   -8.971; 4058.958
879.369; 1885.639;  -12.071; 3954.677
879.930; 1777.379;  -14.621; 3941.495
880.492; 1709.006;  -10.311; 4067.014
881.053; 1678.107;  -10.901; 3859.633
881.615; 1603.894;  -14.411; 3776.071
882.176; 1579.252;  -13.761; 3734.750
882.738; 1607.581;   -9.181; 3678.489
883.299; 1571.765;  -11.791; 3405.407
883.860; 1432.446;  -13.121; 3351.106
884.422; 1176.583;  -11.211; 3394.044
884.983;  888.108;  -10.091; 3166.443
885.544;  717.931;   -8.461; 3189.802
886.105;  673.204;  -12.361; 3160.360
886.666;  679.771;  -14.141; 3093.059
887.227;  693.356;  -11.361; 2941.957
887.788;  695.420;  -11.401; 2974.836
888.349;  690.857;  -13.791; 2721.214
888.910;  717.241;  -13.191; 2696.493
889.471;  745.424;   -9.881; 2560.172
890.032;  743.525;   -9.881; 2558.190
890.593;  733.247;  -10.371; 2567.669
891.153;  719.108;  -13.301; 2460.307
891.714;  683.795;  -11.431; 2372.046
892.275;  654.570;  -11.291; 2309.505
892.835;  623.860;  -11.471; 2382.543
893.396;  578.306;  -11.541; 2295.502
893.956;  529.796;  -11.181; 2162.420
894.517;  497.879;  -11.741; 2125.439
895.077;  494.346;  -11.671; 2086.978
895.638;  497.207;  -11.311; 2126.316
896.198;  471.018;   -9.831; 1838.275
896.758;  430.738;   -8.421; 1892.813
897.319;  403.186;  -12.351; 1792.232
897.879;  388.183;  -13.511; 1762.751
898.439;  364.305;  -12.001; 1661.149
898.999;  343.116;  -10.180; 1781.468
899.559;  333.899;  -12.030; 1703.347
900.119;  330.460;  -15.710; 1537.525
900.679;  326.195;   -8.900; 1638.384
901.239;  313.346;   -8.340; 1527.902
901.799;  303.001;  -13.910; 1456.441
902.359;  297.067;  -13.460; 1357.140
902.919;  291.358;  -11.490; 1331.118
903.479;  279.951;  -12.110; 1317.257
904.038;  259.035;  -11.720; 1262.595
904.598;  244.715;  -13.610; 1152.034
905.158;  241.215;  -11.040; 1240.893
905.717;  235.212;  -10.900; 1233.691
906.277;  224.002;  -15.080; 1217.330
906.836;  214.640;  -13.380; 1222.408
907.396;  205.752;  -10.780; 1193.047
907.955;  198.857;   -8.500; 1182.526
908.515;  191.599;  -12.760; 1099.364
909.074;  184.366;  -11.900; 1092.863
909.633;  176.217;   -8.950; 1069.121
910.192;  171.176;   -8.770; 1196.460
910.752;  167.434;  -12.390; 1029.960
911.311;  163.541;  -13.680; 1009.780
911.870;  162.813;  -12.370;  971.460
912.429;  164.420;  -10.900; 1094.080
912.988;  162.534;  -11.690; 1081.060
913.547;  158.774;  -13.240;  940.380
914.106;  155.481;  -11.990;  999.420
914.665;  152.341;   -9.990;  984.020
915.224;  152.011;  -12.880; 1035.760
915.782;  151.597;  -12.350;  922.560
916.341;  150.913;   -9.110; 1049.840
916.900;  147.468;   -9.270;  925.260
917.458;  144.875;  -13.240;  884.220
918.017;  144.382;  -13.550;  942.600
918.576;  144.450;  -12.320;  904.440
919.134;  142.570;  -11.490;  837.980
919.693;  140.560;  -13.670;  893.060
920.251;  138.272;  -15.470;  876.500
920.809;  138.134;  -11.290;  839.580
921.368;  137.455;  -10.210;  885.360
921.926;  136.653;  -12.140;  842.940
922.484;  135.722;  -13.080;  903.360
923.042;  135.092;  -11.720;  880.340
923.601;  138.518;   -7.480;  998.680
924.159;  136.014;  -11.570;  935.560
924.717;  132.899;  -13.840;  841.080
925.275;  132.674;  -10.640;  903.240
925.833;  132.910;  -11.540;  779.320
926.391;  133.586;  -12.960;  938.380
926.949;  131.966;  -14.130;  857.680
927.506;  132.636;  -11.750;  903.500
928.064;  133.487;  -10.250;  877.580
928.622;  131.939;  -13.030;  880.100
929.180;  131.658;  -13.400;  814.180
929.737;  132.619;  -10.700;  808.540
930.295;  136.444;  -10.070;  928.480
930.853;  137.341;  -11.960;  849.100
931.410;  137.970;  -13.120;  821.120
931.968;  138.317;  -10.770;  940.660
932.525;  137.559;  -10.680;  909.380
933.082;  137.835;  -13.130;  811.440
933.640;  138.044;  -13.210;  925.900
934.197;  137.052;  -11.060;  886.360
934.754;  138.827;   -9.580;  897.780
935.312;  140.348;  -14.000;  863.340
935.869;  144.152;  -10.710; 1012.980
936.426;  145.701;   -9.860;  872.800
936.983;  146.592;   -9.710;  889.020
937.540;  145.047;  -13.990;  838.280
938.097;  143.769;  -14.040;  940.120
938.654;  144.564;  -10.310;  898.860
939.211;  147.233;  -10.560;  952.480
939.768;  150.617;  -13.900;  915.420
940.324;  153.432;  -14.760;  904.200
940.881;  155.666;  -10.370;  878.500
941.438;  155.453;   -8.260; 1021.200
941.995;  151.327;  -12.540;  992.560
942.551;  149.252;  -14.670;  875.620
943.108;  149.482;  -10.450;  937.920
943.664;  152.864;  -10.750;  869.340
944.221;  155.286;  -11.550; 1088.140
944.777;  153.297;  -14.770;  869.680
945.334;  152.986;  -12.820;  884.840
945.890;  155.220;  -10.130;  946.480
946.446;  155.522;  -13.470;  947.020
947.003;  156.249;  -12.120;  964.940
947.559;  159.637;   -9.980; 1063.040
948.115;  158.897;   -9.080; 1026.540
948.671;  157.327;  -10.830;  967.300
949.227;  154.965;  -12.440;  859.560
949.783;  151.812;  -12.910;  858.900
950.339;  153.901;  -10.270;  991.000
950.895;  153.865;  -13.630; 1023.840
951.451;  153.081;  -15.100;  925.280
952.007;  153.725;  -11.330;  998.540
952.563;  154.161;  -10.580;  937.780
953.118;  152.408;  -13.440;  904.940
953.674;  151.573;  -12.710;  935.780
954.230;  151.992;  -10.350;  949.640
954.785;  149.097;   -9.190;  936.640
955.341;  146.760;  -11.200;  998.160
955.897;  144.422;  -16.560;  834.660
956.452;  146.935;  -12.570;  953.840
957.008;  145.814;   -7.970; 1083.640
957.563;  143.405;  -11.940; 1009.540
958.118;  138.277;  -13.450;  877.700
958.674;  138.616;  -12.030;  946.780
959.229;  140.060;   -9.410; 1013.980
959.784;  137.322;  -12.000;  832.400
960.339;  137.078;  -14.780; 1001.280
960.894;  133.957;   -9.860;  963.760
961.449;  129.849;   -9.970;  859.960
962.004;  129.590;  -10.900; 1212.840
962.559;  124.295;  -13.150;  860.140
963.114;  122.237;  -13.740;  742.480
963.669;  122.444;   -9.820;  915.500
964.224;  120.533;  -13.890;  874.340
964.779;  118.973;  -12.600;  828.420
965.334;  120.036;  -10.950; 1017.860
965.888;  120.227;  -11.170;  875.360
966.443;  122.580;  -12.540;  972.380
966.998;  121.290;  -15.780;  819.460
967.552;  120.740;   -9.760;  908.380
968.107;  117.423;   -9.060;  868.300
968.661;  118.431;  -11.950;  922.440
969.216;  119.177;  -12.800;  856.280
969.770;  119.764;  -11.210;  917.200
970.324;  118.007;  -11.610;  923.140
970.879;  114.757;  -11.370;  947.180
971.433;  111.488;  -12.540;  952.720
971.987;  106.550;  -11.320;  895.340
972.541;  104.363;  -10.720;  917.100
973.095;  103.402;   -9.680; 1009.460
973.649;  101.682;  -11.440;  809.480
974.203;  101.393;  -11.210;  829.040
974.757;  101.333;  -10.240;  855.220
975.311;  100.345;  -13.720;  872.600
975.865;   99.973;  -13.770;  881.820
976.419;   98.181;  -11.690;  857.400
976.973;   98.603;   -9.510;  849.620
977.526;  100.049;  -12.620;  949.920
978.080;   99.279;  -12.010;  796.780
978.634;  100.252;  -10.170;  921.320
979.187;   98.499;   -9.020;  905.400
979.741;   95.998;   -9.820; 1018.380
980.294;   90.708;  -14.870;  789.160
980.848;   88.834;  -12.380;  717.220
981.401;   90.882;  -10.350;  816.540
981.955;   93.514;  -13.720;  844.300
982.508;   92.259;  -11.490;  746.340
983.061;   92.055;  -10.000;  915.260
983.615;   88.297;  -11.480;  798.800
984.168;   85.114;  -13.220;  770.080
984.721;   83.757;  -13.960;  880.760
985.274;   84.181;  -10.870;  867.500
985.827;   82.745;   -9.790;  834.220
986.380;   80.809;  -13.120;  721.340
986.933;   78.954;  -12.450;  864.800
987.486;   77.512;  -10.210;  861.920
988.039;   76.453;   -8.430;  863.100
988.591;   75.277;  -10.520;  893.260
989.144;   72.051;  -14.860;  737.260
989.697;   70.959;  -13.080;  758.740
990.250;   72.103;  -10.150;  858.100
990.802;   71.484;  -13.430;  755.860
991.355;   72.333;  -12.750;  974.880
991.907;   70.240;  -12.040;  864.320
992.460;   68.147;  -11.330;  753.760
993.012;   66.336;  -13.610;  749.540
993.565;   65.829;  -13.460;  711.360
994.117;   67.741;   -9.360;  950.780
994.669;   64.504;  -11.300;  701.320
995.221;   61.978;  -13.540;  791.920
995.774;   59.604;  -13.430;  787.580
996.326;   59.420;  -12.520;  740.220
996.878;   58.873;  -10.950;  838.420
997.430;   56.253;  -14.300;  699.860
997.982;   55.690;  -13.760;  750.140
998.534;   55.335;  -11.530;  739.060
999.086;   54.636;  -10.310;  738.220
999.638;   52.558;  -12.530;  661.380
1000.190;   51.817;  -11.840;  699.320
1000.741;   51.488;  -10.260;  742.700
1001.293;   51.616;   -8.860;  686.020
1001.845;   49.547;  -13.700;  676.640
1002.396;   49.631;  -12.100;  743.400
1002.948;   49.590;  -12.760;  737.400
1003.500;   47.633;  -10.380;  723.780
1004.051;   48.648;  -11.900;  907.580
1004.603;   46.078;  -12.250;  791.820
1005.154;   42.770;  -13.210;  608.980
1005.705;   42.324;  -10.950;  723.960
1006.257;   42.435;  -13.880;  707.220
1006.808;   40.217;  -12.840;  685.460
1007.359;   41.390;  -10.570;  763.240
1007.910;   39.844;   -9.620;  646.640
1008.461;   39.403;  -13.630;  732.940
1009.013;   38.158;  -17.200;  588.340
1009.564;   39.674;  -10.200;  793.520
1010.115;   37.253;  -12.570;  597.040
1010.665;   36.955;  -15.150;  602.160
1011.216;   36.428;  -14.480;  667.920
1011.767;   37.645;  -11.340;  697.920
1012.318;   37.299;   -9.780;  736.980
1012.869;   35.715;  -12.380;  679.000
1013.419;   35.641;  -15.560;  603.120
1013.970;   35.791;  -11.010;  666.640
1014.521;   35.386;  -11.610;  620.620
1015.071;   35.237;  -13.450;  670.380
1015.622;   34.669;  -13.870;  635.460
1016.172;   34.242;  -11.610;  596.820
1016.723;   34.127;  -12.120;  614.380
1017.273;   33.340;  -13.620;  604.160
1017.823;   33.853;  -14.140;  650.340
1018.374;   33.076;  -12.800;  611.760
1018.924;   33.532;  -12.340;  716.880
1019.474;   33.275;  -11.410;  718.880
1020.024;   31.998;  -14.770;  657.580
1020.574;   32.601;   -9.780;  726.160
1021.124;   33.247;   -8.560;  673.580
1021.674;   31.401;  -15.190;  559.120
1022.224;   32.367;  -13.530;  708.940
1022.774;   31.866;  -13.280;  668.820
1023.324;   32.753;  -10.690;  753.520
1023.874;   32.853;  -10.240;  875.760
1024.423;   30.397;  -12.540;  613.700
1024.973;   30.598;  -10.010;  610.760
1025.523;   30.703;  -10.550;  620.960
1026.072;   29.279;  -13.560;  606.420
1026.622;   28.908;  -15.120;  675.740
1027.172;   31.099;  -11.260;  715.660
1027.721;   29.993;  -11.410;  601.220
1028.270;   29.095;  -13.530;  663.400
1028.820;   29.003;  -13.680;  638.080
1029.369;   29.170;  -13.520;  612.700
1029.918;   28.932;  -10.980;  649.840
1030.468;   28.802;  -13.530;  564.780
1031.017;   28.377;  -13.170;  634.800
1031.566;   27.647;  -12.200;  608.900
1032.115;   28.723;   -9.960;  694.500
1032.664;   27.162;  -13.210;  596.480
1033.213;   27.677;  -12.500;  735.420
1033.762;   27.690;  -11.910;  635.620
1034.311;   27.577;   -9.640;  677.220
1034.860;   27.438;  -13.310;  691.000
1035.408;   27.217;  -11.830;  722.720
1035.957;   28.109;  -12.000;  719.540
1036.506;   25.712;  -11.690;  530.800
1037.055;   28.124;  -10.990;  844.320
1037.603;   25.989;  -15.120;  664.000
1038.152;   25.069;  -12.450;  534.760
1038.700;   26.131;  -10.560;  585.740
1039.249;   25.269;  -11.080;  681.220
1039.797;   25.227;  -12.540;  633.360
1040.345;   25.286;  -11.920;  705.420
1040.894;   25.335;  -11.410;  625.300
1041.442;   24.246;  -14.320;  632.200
1041.990;   23.492;  -16.240;  559.160
1042.538;   23.566;  -11.680;  536.180
1043.087;   23.986;  -10.760;  570.860
1043.635;   24.722;  -11.850;  670.500
1044.183;   23.540;  -15.480;  586.400
1044.731;   23.574;  -11.770;  576.000
1045.279;   23.157;  -13.090;  674.920
1045.827;   25.220;  -12.440;  892.400
1046.374;   22.512;  -13.840;  515.420
1046.922;   22.182;  -13.220;  590.580
1047.470;   24.328;  -10.230;  691.300
1048.018;   23.047;  -14.590;  647.960
1048.565;   23.533;  -12.050;  708.600
1049.113;   21.922;  -11.650;  557.000
1049.660;   21.831;  -10.510;  629.660
1050.208;   22.200;  -13.310;  675.640
1050.755;   20.968;  -15.900;  606.580
1051.303;   23.037;  -11.430;  686.820
1051.850;   21.495;   -8.480;  635.120
1052.397;   20.072;  -15.010;  473.960
1052.945;   20.599;  -13.960;  617.760
1053.492;   21.506;  -13.150;  741.840
1054.039;   22.099;   -9.630;  720.180
1054.586;   20.680;  -13.680;  557.240
1055.133;   21.665;  -14.570;  693.140
1055.680;   20.899;  -13.820;  646.620
1056.227;   19.867;  -11.730;  542.780
1056.774;   21.505;  -12.480;  794.980
1057.321;   19.996;  -13.930;  523.260
1057.868;   20.183;  -11.690;  651.320
1058.415;   20.001;   -9.520;  651.980
1058.961;   20.836;  -13.160;  678.940
1059.508;   19.413;  -12.920;  643.820
1060.055;   20.208;  -11.920;  581.780
1060.601;   20.396;  -11.500;  624.300
1061.148;   18.845;  -14.330;  616.820
1061.694;   18.049;  -16.870;  592.580
1062.241;   19.236;  -10.330;  596.320
1062.787;   19.111;  -10.620;  663.140
1063.334;   20.529;  -10.110;  808.560
1063.880;   18.822;  -13.400;  668.360
1064.426;   18.993;  -10.680;  706.820
1064.972;   18.253;   -9.920;  601.340
1065.518;   16.836;  -10.980;  566.640
1066.065;   18.206;  -14.890;  624.460
1066.611;   17.406;  -12.870;  598.800
1067.157;   18.456;  -12.950;  641.860
1067.703;   17.979;  -13.540;  668.480
1068.249;   17.664;  -13.540;  605.220
1068.794;   17.785;  -12.600;  626.880
1069.340;   16.308;  -10.620;  578.960
1069.886;   17.097;  -12.830;  590.700
1070.432;   15.863;  -14.870;  541.720
1070.977;   16.757;  -11.980;  601.080
1071.523;   16.641;   -8.200;  573.060
1072.068;   16.410;  -12.330;  582.000
1072.614;   16.011;  -16.370;  527.760
1073.160;   16.493;  -11.100;  687.040
1073.705;   15.562;  -10.480;  572.520
1074.250;   15.769;  -14.520;  559.900
1074.796;   16.397;  -11.460;  655.160
1075.341;   16.293;  -11.950;  664.100
1075.886;   15.767;  -11.460;  594.240
1076.431;   15.427;  -13.770;  649.880
1076.976;   14.421;  -12.680;  639.220
1077.521;   15.527;  -13.170;  583.080
1078.067;   15.068;  -10.860;  579.400
1078.612;   14.820;  -13.920;  661.620
1079.156;   15.233;  -13.880;  601.540
1079.701;   15.070;  -13.120;  693.260
1080.246;   15.327;   -9.940;  696.300
1080.791;   14.272;  -14.740;  625.020
1081.336;   14.630;  -13.750;  659.320
1081.880;   15.004;  -13.400;  649.680
1082.425;   13.067;  -12.220;  573.480
1082.970;   15.296;  -11.610;  717.040
1083.514;   13.275;  -13.580;  597.000
1084.059;   13.032;  -12.810;  586.720
1084.603;   13.591;  -12.320;  565.840
1085.147;   13.147;  -13.190;  645.220
1085.692;   14.529;  -12.480;  716.800
1086.236;   12.531;  -13.020;  503.140
1086.780;   14.249;   -9.190;  751.440
1087.325;   13.418;  -12.480;  654.620
1087.869;   12.711;  -12.450;  610.700
1088.413;   13.537;  -12.240;  705.040
1088.957;   11.869;   -9.020;  543.400
1089.501;   13.887;  -10.320;  766.640
1090.045;   12.860;  -12.720;  726.480
1090.589;   11.282;  -13.690;  569.920
1091.133;   12.291;  -10.020;  673.340
1091.676;   12.517;  -12.330;  591.940
1092.220;   11.954;  -14.970;  600.920
1092.764;   12.724;  -12.430;  706.960
1093.307;   13.005;   -9.800;  673.780
1093.851;   11.106;  -14.970;  556.540
1094.395;   12.114;  -15.310;  683.140
1094.938;   11.425;  -10.370;  632.520
1095.482;   11.766;  -11.050;  559.800
1096.025;   11.766;  -11.840;  710.880
1096.568;   11.940;  -12.840;  779.280
1097.112;   10.205;  -14.700;  508.180
1097.655;   11.754;   -8.720;  603.000
1098.198;    9.731;  -13.610;  600.180
1098.741;   10.027;  -13.350;  612.860
1099.285;   11.024;  -11.230;  657.300
1099.828;    8.925;  -11.840;  439.400
1100.371;   10.093;  -10.840;  608.160
1100.914;    9.244;  -14.190;  682.660
1101.457;    9.955;  -11.240;  679.900
1101.999;    9.424;  -11.270;  584.680
1102.542;    9.430;  -11.480;  641.440
1103.085;    9.145;  -11.750;  658.500
1103.628;   10.416;  -11.400;  762.060
1104.170;    9.745;  -10.490;  588.280
1104.713;   10.134;  -10.600;  646.700
1105.256;    8.705;  -14.360;  557.440
1105.798;    8.769;  -13.210;  499.980
1106.341;   10.471;  -10.270;  728.900
1106.883;    8.339;  -12.200;  521.340
1107.425;    9.065;  -13.110;  668.180
1107.968;    8.993;  -12.840;  612.380
1108.510;    9.896;   -6.480;  684.960
1109.052;    7.596;  -13.940;  612.620
1109.594;    7.667;  -13.690;  554.440
1110.136;    8.854;  -11.880;  643.220
1110.679;    7.745;   -9.500;  633.080
1111.221;    8.343;  -14.160;  604.460
1111.763;    6.993;  -13.980;  559.220
1112.304;    7.445;  -13.880;  547.140
1112.846;    8.809;  -12.210;  666.240
1113.388;   10.339;  -11.390;  942.180
1113.930;    8.018;  -14.540;  694.200
1114.472;    7.299;  -12.640;  606.540
1115.013;    6.373;  -11.620;  551.280
1115.555;    6.661;  -13.640;  587.100
1116.097;    5.888;  -15.380;  579.480
1116.638;    7.794;  -12.640;  684.600
1117.180;    7.426;   -9.850;  667.740
1117.721;    7.237;  -13.690;  568.580
1118.262;    7.410;  -12.680;  677.960
1118.804;    7.583;  -12.530;  637.340
1119.345;    6.851;  -11.690;  578.400
1119.886;    7.387;  -13.380;  704.040
1120.427;    6.122;  -14.070;  589.020
1120.969;    5.646;  -13.500;  597.920
1121.510;    5.153;  -11.480;  563.060
1122.051;    6.131;  -12.830;  723.580
1122.592;    5.558;  -14.290;  655.420
1123.133;    4.949;  -12.400;  547.940
1123.673;    6.884;  -10.130;  706.480
1124.214;    5.559;  -12.930;  612.460
1124.755;    6.237;  -14.380;  639.460
1125.296;    6.297;  -14.000;  627.320
1125.836;    6.332;  -10.070;  691.500
1126.377;    4.649;  -12.640;  599.660
1126.918;    6.083;  -12.960;  614.980
1127.458;    4.944;  -13.350;  622.220
1127.999;    5.922;  -10.750;  656.980
1128.539;    5.438;  -12.350;  694.240
1129.079;    4.204;  -14.860;  632.720
1129.620;    4.208;  -13.840;  558.100
1130.160;    4.905;  -12.330;  539.480
1130.700;    5.118;  -14.530;  640.840
1131.240;    4.547;  -12.530;  643.700
1131.781;    4.820;  -14.450;  619.680
1132.321;    4.866;   -9.790;  599.120
1132.861;    3.044;  -14.860;  564.200
1133.401;    2.903;  -14.290;  593.940
1133.941;    5.016;  -11.750;  626.280
1134.481;    4.121;   -9.920;  597.580
1135.020;    3.697;  -12.290;  609.160
1135.560;    3.996;  -11.650;  674.940
1136.100;    3.694;  -16.270;  501.160
1136.640;    3.229;  -10.890;  510.480
1137.179;    3.200;  -14.180;  537.960
1137.719;    3.030;  -16.250;  605.400
1138.258;    2.997;  -14.230;  587.360
1138.798;    3.725;   -9.090;  663.780
1139.337;    2.551;  -15.130;  482.840
1139.877;    2.766;  -13.680;  642.360
1140.416;    5.284;  -11.320;  878.060
1140.955;    2.669;  -10.860;  535.380
1141.494;    3.171;  -12.920;  669.280
1142.034;    2.298;  -13.930;  583.520
1142.573;    2.905;  -11.440;  646.280
1143.112;    2.096;  -12.000;  553.480
1143.651;    2.976;  -13.670;  536.480
1144.190;    2.843;  -12.730;  691.640
1144.729;    2.982;  -14.560;  607.420
1145.267;    3.032;  -11.830;  584.900
1145.806;    2.999;  -12.230;  637.040
1146.345;    1.252;  -14.130;  635.020
1146.884;    1.947;  -11.590;  622.500
1147.422;    1.891;  -12.550;  533.060
1147.961;    3.970;  -11.180;  708.460
1148.500;    2.377;  -11.510;  669.720
1149.038;    3.189;  -11.640;  632.500
1149.577;    1.819;  -10.130;  698.640
1150.115;    0.225;  -13.970;  452.280
1150.653;    1.348;  -14.520;  607.340
1151.192;    1.042;  -12.810;  552.920
1151.730;    2.268;   -9.100;  652.560
1152.268;    1.060;  -12.220;  589.520
1152.806;    0.619;  -14.140;  571.180
1153.344;    0.348;  -12.350;  577.640
1153.882;    0.559;   -8.980;  600.060
1154.421;   -0.073;  -15.190;  470.620
1154.958;   -0.116;  -15.210;  595.240
1155.496;    1.789;  -12.850;  645.280
1156.034;    1.055;   -9.940;  721.880
1156.572;    2.347;  -13.570;  667.060
1157.110;   -0.419;  -14.590;  473.940
1157.647;    1.577;  -13.030;  676.960
1158.185;    0.323;  -12.140;  564.320
1158.723;   -1.002;  -14.390;  509.200
1159.260;   -0.085;  -14.090;  701.700
1159.798;    1.093;  -11.920;  658.160
1160.335;    0.277;  -11.110;  631.820

