
Integration time [ms]:   3.276
Averaging Nr. [scans]: 1000
Smoothing Nr. [pixels]: 0
Data measured with spectrometer [name]: 7414430SP
Wave   ;Sample   ;Dark     ;Reference
[nm]   ;[counts] ;[counts] ;[counts] 

288.544;  150.129;    7.793;  793.890
289.143;  153.754;    7.462;  681.602
289.742;  153.379;    8.602;  828.814
290.341;  139.280;    1.321;  789.841
290.940;  129.456;   -0.709;  730.702
291.538;  129.078;    0.881;  881.108
292.137;  129.775;    0.122;  792.581
292.736;  134.221;   -1.929;  975.101
293.335;  130.850;   -8.229;  735.086
293.934;  130.926;   -5.279;  781.677
294.532;  129.341;   -1.369; 1031.958
295.131;  115.098;   -7.641;  834.394
295.730;  115.916;   -8.420;  809.588
296.328;  114.412;   -5.611;  783.442
296.927;  115.323;   -5.781;  779.652
297.525;  116.837;   -6.361;  781.236
298.124;  107.462;  -11.382;  654.009
298.722;  111.051;   -7.641;  761.933
299.321;  107.853;   -6.811;  708.597
299.919;  106.447;   -6.991;  751.918
300.518;  104.844;  -10.362;  689.338
301.116;  105.446;   -9.581;  691.381
301.715;  105.055;   -4.891;  730.222
302.313;  104.156;   -8.801;  704.943
302.911;   99.584;   -8.522;  733.830
303.509;  103.750;   -6.171;  925.627
304.108;  102.223;   -7.311;  760.383
304.706;  102.157;   -8.321;  801.664
305.304;   96.483;  -10.222;  796.707
305.902;  101.006;   -6.021;  784.484
306.500;   96.716;   -4.971;  728.200
307.098;   95.359;   -7.061;  746.560
307.696;   94.500;   -8.801;  780.432
308.294;   94.080;   -6.411;  731.359
308.892;   95.350;   -2.901;  759.769
309.490;   92.220;   -5.041;  712.161
310.088;   91.326;   -5.002;  788.444
310.686;   95.158;   -2.041;  821.749
311.284;   90.599;   -2.351;  766.040
311.882;   88.321;   -4.422;  731.225
312.480;   85.569;   -4.192;  697.167
313.078;   86.626;   -1.172;  808.331
313.675;   87.104;   -2.601;  691.600
314.273;   82.985;   -1.312;  797.837
314.871;   81.931;   -3.942;  589.829
315.468;   79.846;   -2.802;  652.090
316.066;   82.707;   -0.701;  694.427
316.664;   75.514;   -4.362;  656.351
317.261;   79.663;   -2.872;  910.128
317.859;   74.652;   -2.022;  768.735
318.456;   75.015;   -0.531;  830.096
319.054;   71.452;   -3.912;  787.828
319.651;   71.031;   -4.752;  759.928
320.249;   69.188;   -2.602;  810.188
320.846;   67.091;   -0.821;  714.286
321.443;   63.698;   -4.642;  832.135
322.041;   61.966;   -5.002;  812.315
322.638;   59.891;   -3.982;  701.456
323.235;   60.180;   -3.411;  665.683
323.833;   57.032;   -7.361;  740.354
324.430;   54.143;   -8.611;  615.900
325.027;   53.804;   -4.061;  876.855
325.624;   53.865;   -4.031;  644.532
326.221;   50.938;   -7.481;  689.717
326.818;   50.799;   -5.281;  818.332
327.415;   53.537;   -7.460;  748.828
328.012;   52.943;   -5.510;  690.585
328.609;   52.148;   -7.880;  731.389
329.206;   50.113;   -8.331;  778.621
329.803;   49.718;   -5.121;  737.841
330.400;   52.392;   -4.510;  704.260
330.997;   53.175;   -6.441;  817.147
331.594;   53.080;   -8.831;  788.185
332.191;   57.756;   -7.621;  728.722
332.787;   60.522;   -4.591;  844.463
333.384;   58.740;   -7.412;  763.093
333.981;   58.527;   -8.293;  815.687
334.578;   60.194;   -7.052;  708.378
335.174;   63.435;   -3.102;  731.469
335.771;   63.050;   -5.943;  836.456
336.367;   60.896;   -7.393;  710.631
336.964;   63.909;   -4.063;  793.266
337.561;   61.453;   -3.813;  731.112
338.157;   57.018;   -4.654;  911.916
338.754;   55.178;   -7.934;  796.589
339.350;   52.994;   -4.414;  722.493
339.946;   54.823;   -4.664;  773.135
340.543;   46.772;   -6.375;  846.136
341.139;   42.579;   -9.815;  720.836
341.735;   39.835;   -4.526;  772.593
342.332;   38.555;   -4.895;  691.472
342.928;   38.581;   -4.295;  795.394
343.524;   33.013;   -5.476;  761.684
344.120;   28.797;   -5.856;  738.562
344.716;   31.915;   -2.155;  723.717
345.313;   30.059;   -6.275;  795.342
345.909;   24.784;   -8.815;  627.336
346.505;   26.482;   -5.305;  740.247
347.101;   26.012;   -2.674;  827.864
347.697;   27.120;   -4.344;  785.398
348.293;   22.196;   -9.975;  627.244
348.889;   22.795;   -5.774;  745.914
349.485;   21.788;   -5.004;  688.205
350.081;   22.698;   -4.704;  772.592
350.676;   18.767;   -6.635;  691.606
351.272;   22.981;   -4.504;  809.530
351.868;   21.241;   -3.914;  780.497
352.464;   18.994;   -9.044;  723.932
353.059;   15.202;   -8.314;  646.017
353.655;   18.609;   -7.024;  777.063
354.251;   19.618;   -5.343;  759.845
354.846;   14.092;   -8.604;  740.646
355.442;   12.314;   -6.945;  753.071
356.038;   14.481;   -7.564;  751.708
356.633;   14.239;   -5.814;  728.594
357.229;   12.333;   -7.364;  724.757
357.824;   10.628;   -8.024;  703.600
358.420;    9.058;   -9.384;  679.726
359.015;    9.508;   -5.104;  695.357
359.610;   11.378;   -6.854;  763.920
360.206;    5.407;  -10.185;  603.240
360.801;    8.087;   -7.054;  646.503
361.396;    9.868;   -5.034;  725.975
361.992;    5.424;   -8.284;  668.220
362.587;    2.534;   -8.625;  670.160
363.182;    4.721;   -7.674;  689.631
363.777;    5.159;   -5.164;  738.242
364.372;    5.358;   -8.604;  737.314
364.967;    1.859;   -9.055;  680.744
365.563;    4.683;   -6.114;  815.567
366.158;    2.681;   -5.814;  685.161
366.753;    3.022;   -7.854;  649.263
367.348;    1.676;   -7.804;  746.056
367.942;    1.550;   -7.954;  697.298
368.537;    0.224;   -4.984;  754.245
369.132;    1.270;   -8.564;  703.428
369.727;   -2.333;   -8.855;  638.079
370.322;   -1.563;   -6.245;  580.186
370.917;   -2.467;   -6.425;  710.646
371.511;   -0.284;   -6.294;  861.834
372.106;   -2.804;   -7.685;  776.964
372.701;   -5.915;   -7.335;  585.988
373.296;   -0.313;   -4.564;  863.135
373.890;   -5.479;  -10.235;  647.840
374.485;   -6.564;   -7.885;  691.199
375.079;   -3.736;   -7.324;  738.685
375.674;   -2.642;   -3.494;  812.970
376.268;   -7.607;   -8.525;  691.759
376.863;  -11.548;  -10.086;  580.327
377.457;   -6.427;   -7.025;  662.490
378.052;   -7.511;   -3.585;  764.884
378.646;   -8.366;   -7.595;  741.167
379.240;   -8.590;   -8.335;  721.176
379.835;   -7.967;   -5.785;  636.978
380.429;  -10.660;   -4.335;  562.557
381.023;  -10.671;   -6.805;  779.205
381.617;  -12.239;   -9.195;  680.106
382.212;   -9.244;   -6.905;  685.303
382.806;   -8.673;   -3.745;  760.690
383.400;  -12.562;   -7.745;  672.281
383.994;  -13.278;   -9.765;  664.870
384.588;   -8.631;   -6.564;  697.701
385.182;   -8.288;   -5.344;  726.624
385.776;   -9.773;   -8.514;  706.875
386.370;  -12.577;   -9.555;  681.968
386.964;  -11.578;   -8.715;  684.155
387.558;  -10.624;   -6.174;  598.360
388.152;  -13.601;   -8.725;  681.959
388.745;  -11.695;   -7.965;  814.707
389.339;  -10.402;   -5.924;  747.642
389.933;   -9.080;   -5.524;  695.370
390.527;  -10.852;   -7.114;  859.029
391.120;  -16.291;  -10.725;  595.318
391.714;  -13.784;   -8.035;  711.633
392.308;  -10.399;   -3.574;  780.253
392.901;  -14.300;   -7.245;  642.460
393.495;  -15.610;   -9.285;  595.414
394.089;  -13.933;   -5.895;  760.452
394.682;  -14.795;   -4.295;  697.188
395.275;  -14.787;   -9.875;  719.927
395.869;  -15.430;   -8.485;  667.314
396.462;  -14.163;   -7.455;  616.609
397.056;  -11.678;   -5.424;  776.621
397.649;  -16.097;   -6.605;  731.575
398.242;  -12.636;   -8.224;  712.645
398.836;  -11.926;   -7.474;  766.408
399.429;  -13.639;   -7.094;  631.041
400.022;  -16.920;   -9.475;  665.902
400.615;  -14.180;   -7.145;  805.609
401.208;  -12.125;   -7.174;  691.451
401.802;  -14.588;   -5.515;  699.329
402.395;  -16.081;   -9.875;  683.502
402.988;  -15.874;   -8.845;  696.627
403.581;  -13.460;   -8.874;  646.878
404.174;  -11.173;   -5.324;  686.568
404.767;  -14.906;   -9.575;  638.583
405.360;  -16.830;  -10.965;  621.445
405.953;  -11.342;   -8.764;  759.034
406.545;  -10.786;   -7.514;  725.342
407.138;  -14.889;  -10.025;  618.350
407.731;  -13.360;  -10.034;  613.303
408.324;   -9.598;   -9.374;  660.554
408.917;  -10.918;   -6.534;  681.864
409.509;  -12.852;   -8.004;  740.396
410.102;  -14.287;   -9.875;  643.948
410.695;   -8.669;   -8.604;  665.758
411.287;   -9.870;   -6.794;  599.821
411.880;  -10.604;   -9.334;  585.421
412.472;  -13.276;  -10.254;  613.092
413.065;  -11.101;   -6.714;  629.408
413.657;   -9.611;   -7.234;  576.678
414.250;   -9.139;  -10.544;  646.681
414.842;   -9.624;   -9.744;  676.353
415.434;   -8.375;   -6.994;  570.463
416.027;   -4.671;   -5.893;  652.196
416.619;   -6.672;   -7.264;  713.400
417.211;   -6.912;  -10.374;  599.352
417.804;   -3.603;   -7.993;  628.499
418.396;   -7.449;   -7.234;  607.643
418.988;   -4.779;   -9.443;  659.238
419.580;   -7.462;  -10.724;  568.276
420.172;   -5.538;  -10.323;  536.196
420.764;   -2.516;   -8.793;  672.482
421.356;   -3.566;  -11.143;  636.898
421.948;   -3.787;   -8.293;  677.661
422.540;    0.810;   -7.893;  680.027
423.132;    0.231;   -7.082;  600.641
423.724;   -3.128;   -8.653;  561.267
424.316;   -1.560;  -10.213;  621.345
424.908;    1.998;   -9.762;  591.517
425.500;    3.449;   -5.572;  647.978
426.092;    2.347;   -8.422;  648.268
426.683;    3.107;   -9.283;  684.836
427.275;    4.962;   -7.852;  641.471
427.867;    6.818;   -5.272;  668.948
428.458;    6.992;   -7.682;  732.344
429.050;    6.065;  -10.612;  680.749
429.642;    8.105;   -9.882;  743.124
430.233;    8.033;   -6.962;  569.356
430.825;    9.630;   -6.842;  724.809
431.416;    7.577;   -9.672;  698.241
432.008;   10.329;   -6.552;  651.723
432.599;   11.377;   -6.891;  656.073
433.190;    8.164;  -10.912;  637.670
433.782;    7.936;  -11.172;  590.395
434.373;   14.742;   -6.061;  884.765
434.964;   13.805;   -8.251;  602.920
435.556;   11.337;   -9.722;  634.537
436.147;   14.491;   -9.082;  758.490
436.738;   13.992;   -8.041;  701.099
437.329;   19.583;   -7.341;  721.723
437.920;   12.241;   -8.162;  666.688
438.511;   12.873;  -11.802;  564.526
439.103;   18.925;  -10.191;  623.998
439.694;   20.305;   -7.601;  681.583
440.285;   20.674;   -8.541;  764.432
440.876;   19.547;   -9.751;  845.738
441.466;   19.162;   -9.401;  575.162
442.057;   24.297;   -7.760;  665.814
442.648;   23.304;   -9.971;  746.255
443.239;   21.660;  -11.001;  620.477
443.830;   26.717;   -7.990;  704.958
444.421;   28.101;   -7.910;  655.474
445.011;   24.634;   -8.131;  693.619
445.602;   24.856;   -7.111;  743.126
446.193;   26.570;  -10.920;  488.117
446.783;   30.584;   -6.500;  640.397
447.374;   26.050;   -8.671;  692.759
447.964;   26.724;  -10.781;  713.770
448.555;   34.781;   -9.650;  822.742
449.145;   31.147;   -8.660;  662.853
449.736;   31.692;   -8.990;  803.179
450.326;   32.378;   -9.500;  713.626
450.917;   37.877;   -8.680;  675.324
451.507;   36.072;   -7.520;  600.661
452.097;   37.381;   -8.590;  746.267
452.688;   38.329;  -11.340;  742.160
453.278;   37.807;  -10.100;  566.840
453.868;   41.682;   -6.019;  793.550
454.458;   39.968;   -9.440;  651.141
455.048;   40.516;  -10.560;  711.783
455.639;   42.114;  -11.799;  567.096
456.229;   45.987;   -6.899;  710.694
456.819;   47.407;   -7.389;  751.158
457.409;   48.144;  -11.119;  773.993
457.999;   49.649;   -9.289;  737.505
458.589;   49.632;   -6.139;  686.606
459.179;   49.621;   -8.729;  717.658
459.769;   48.237;   -9.789;  627.099
460.358;   54.038;  -10.259;  797.262
460.948;   52.802;   -7.299;  689.503
461.538;   54.460;  -10.289;  660.677
462.128;   52.937;  -11.269;  664.934
462.717;   58.826;   -9.368;  710.326
463.307;   61.507;   -7.908;  705.846
463.897;   57.840;   -9.599;  656.942
464.486;   57.538;   -9.769;  837.128
465.076;   61.527;   -8.048;  733.776
465.666;   64.941;   -9.358;  652.900
466.255;   62.508;   -7.919;  785.651
466.845;   62.437;  -11.689;  666.749
467.434;   65.079;   -7.818;  725.873
468.023;   66.406;   -7.678;  658.357
468.613;   63.809;  -10.939;  713.946
469.202;   67.602;  -10.118;  646.507
469.791;   71.770;   -9.108;  737.811
470.381;   73.801;   -6.058;  742.813
470.970;   73.338;  -10.428;  711.099
471.559;   74.000;  -10.268;  733.291
472.148;   76.794;   -8.448;  675.737
472.738;   78.818;   -6.917;  765.466
473.327;   79.330;  -11.978;  637.529
473.916;   79.208;  -11.888;  737.446
474.505;   82.400;   -9.437;  751.703
475.094;   84.733;   -6.747;  806.570
475.683;   84.766;   -9.367;  797.699
476.272;   86.259;  -12.637;  730.632
476.861;   88.326;  -10.027;  706.754
477.449;   94.854;   -8.716;  728.487
478.038;   89.289;   -9.577;  692.513
478.627;   91.201;   -9.718;  714.852
479.216;   96.642;   -8.947;  769.441
479.805;   99.682;   -6.256;  783.375
480.393;   99.376;   -7.937; 1008.945
480.982;   99.342;   -7.717;  874.501
481.571;  105.343;   -9.266;  858.333
482.159;  104.975;   -7.636;  705.386
482.748;  104.840;   -9.667;  821.385
483.336;  109.911;  -10.376;  858.209
483.925;  110.224;   -7.147;  774.373
484.513;  116.693;   -7.996;  758.962
485.102;  112.945;  -10.027;  810.965
485.690;  122.572;  -10.446; 1011.050
486.278;  124.336;   -8.446;  979.329
486.867;  124.907;   -6.356;  809.662
487.455;  125.907;   -9.136;  898.229
488.043;  128.606;  -10.646;  748.361
488.631;  136.439;   -7.456; 1005.079
489.220;  140.247;   -6.636;  908.626
489.808;  140.482;  -11.036;  741.415
490.396;  148.584;  -10.246;  914.645
490.984;  153.840;   -8.556;  830.161
491.572;  163.654;   -5.886;  940.315
492.160;  169.662;   -9.486;  919.081
492.748;  180.755;  -10.976;  884.341
493.336;  203.378;   -8.776; 1019.693
493.924;  229.201;   -5.465;  958.077
494.512;  255.344;   -9.986; 1066.638
495.100;  292.981;  -10.636; 1103.280
495.687;  347.040;  -10.885; 1206.373
496.275;  407.950;   -8.126; 1150.796
496.863;  478.820;  -10.586; 1281.171
497.451;  580.635;  -11.926; 1386.805
498.038;  708.915;  -10.885; 1556.729
498.626;  812.856;   -6.315; 1741.407
499.214;  955.219;   -7.326; 2016.609
499.801; 1154.767;  -11.906; 2220.633
500.389; 1396.042;  -10.466; 2312.494
500.976; 1703.559;   -5.236; 2744.849
501.564; 2132.100;   -8.936; 3148.565
502.151; 2508.589;  -13.176; 3515.999
502.738; 2956.913;  -10.646; 3971.274
503.326; 3327.833;   -9.525; 4403.796
503.913; 3696.666;  -10.856; 5161.749
504.500; 4051.828;  -11.586; 5986.420
505.088; 4460.450;  -10.336; 6381.201
505.675; 4977.369;   -6.355; 6925.547
506.262; 5683.577;   -9.046; 7619.060
506.849; 6372.666;  -10.416; 8733.969
507.436; 6852.643;  -10.305; 9790.121
508.023; 7424.461;   -5.496; 9985.472
508.610; 7667.648;   -7.856;10434.618
509.197; 8292.509;  -10.097;11198.435
509.784; 9641.667;  -10.886;12391.194
510.371;10627.622;   -9.315;13603.713
510.958;11325.886;   -9.936;14426.586
511.545;12090.831;   -9.326;15243.775
512.132;12990.396;  -10.075;15945.876
512.719;13650.669;   -7.796;16340.369
513.305;14569.773;  -10.606;18011.766
513.892;15312.171;  -11.486;19754.971
514.479;16586.455;   -9.126;20967.805
515.066;17913.609;   -6.026;22299.793
515.652;19115.578;   -8.466;22908.660
516.239;20455.039;  -10.886;23798.875
516.825;21558.330;  -11.496;25567.275
517.412;22675.391;   -5.796;28154.959
517.998;23199.100;  -10.506;28344.111
518.585;23179.855;  -10.076;27134.219
519.171;23695.857;   -8.315;27268.576
519.758;25216.309;   -8.596;28964.129
520.344;26866.572;   -8.466;30664.494
520.930;26830.967;  -11.006;32550.605
521.516;28463.703;  -10.495;35422.895
522.103;30814.693;   -5.526;38280.004
522.689;31415.900;   -8.746;37835.117
523.275;30695.695;  -11.376;37288.613
523.861;31611.129;  -11.156;37281.395
524.447;32955.293;   -8.135;37846.949
525.033;32781.988;   -7.896;38321.949
525.619;33001.773;  -12.476;38579.285
526.205;34679.527;   -9.516;40622.875
526.791;36878.945;   -6.926;42258.836
527.377;36981.043;   -8.346;42966.902
527.963;38594.750;   -8.717;42018.949
528.549;37003.813;  -11.016;42476.828
529.135;35796.434;   -8.536;41854.852
529.721;35355.313;   -9.666;41237.711
530.306;34821.723;  -10.066;41259.445
530.892;34617.473;  -11.356;41506.047
531.478;35917.426;   -6.596;43559.613
532.063;38661.109;   -8.836;47695.563
532.649;38878.094;  -10.047;50808.324
533.235;39949.664;   -9.746;51787.500
533.820;40944.117;   -6.566;52145.035
534.406;42350.828;  -10.817;51133.488
534.991;42169.816;   -9.416;49996.805
535.576;40766.203;   -9.036;48882.852
536.162;41076.949;   -6.156;46942.285
536.747;42087.902;  -11.607;45711.746
537.333;46015.480;  -11.787;48510.180
537.918;48587.652;  -12.437;50439.891
538.503;46994.715;   -7.196;50863.711
539.088;44054.078;  -10.556;50906.922
539.673;44117.281;   -8.767;52621.965
540.259;43984.590;  -10.026;52368.094
540.844;41309.441;   -7.416;50879.109
541.429;42432.617;   -9.467;52077.777
542.014;45332.570;   -9.527;52716.695
542.599;44773.680;   -9.946;52363.281
543.184;42591.078;   -7.927;53187.137
543.769;44130.852;   -9.297;54697.605
544.354;43458.039;  -10.127;53913.914
544.938;42248.020;   -9.267;49680.164
545.523;43997.082;   -6.506;47386.277
546.108;46412.086;   -9.787;49151.949
546.693;48556.949;  -11.587;51384.637
547.278;48494.602;  -10.986;51853.254
547.862;45518.977;   -8.206;51173.750
548.447;41105.750;  -10.067;51691.395
549.031;40822.164;   -9.637;52456.703
549.616;45633.785;   -9.926;52714.516
550.201;44638.184;   -6.347;52414.598
550.785;45738.953;   -7.917;52355.059
551.370;44950.422;  -10.867;54589.453
551.954;45013.391;   -9.047;58267.348
552.538;45728.129;   -7.827;59062.176
553.123;44215.102;  -10.287;58115.285
553.707;42401.520;  -12.178;56556.285
554.291;43675.695;   -8.717;56201.668
554.876;45704.449;   -7.457;55335.762
555.460;46029.516;  -10.387;54155.703
556.044;47107.680;   -9.618;53721.484
556.628;45662.695;  -11.567;53731.016
557.212;44345.859;   -8.097;54312.531
557.796;42936.344;  -11.077;53797.773
558.380;42744.898;  -11.108;56145.984
558.964;43056.879;   -9.057;57277.930
559.548;44052.797;   -6.977;56459.641
560.132;42706.957;  -11.457;54434.543
560.716;41642.547;  -11.378;54800.617
561.300;42807.551;   -9.577;57606.945
561.884;43810.855;   -7.127;58972.445
562.467;42417.660;   -7.118;57327.570
563.051;41594.555;  -13.358;54962.434
563.635;42359.926;  -10.178;52594.473
564.219;42828.742;   -7.837;50610.410
564.802;43731.348;  -11.398;49551.180
565.386;43771.898;  -12.788;48370.953
565.969;43173.367;   -9.077;48178.871
566.553;42782.773;   -6.207;49957.305
567.136;43039.902;   -8.568;50369.594
567.720;39252.980;  -11.868;49492.004
568.303;37357.832;   -8.268;50616.352
568.887;37528.852;   -8.698;50727.148
569.470;37713.453;   -6.808;51698.379
570.053;36334.086;  -13.188;52122.078
570.637;34778.520;  -12.037;52536.438
571.220;34518.215;   -8.577;51186.098
571.803;34959.398;   -8.498;51032.762
572.386;37369.379;  -10.498;49609.887
572.969;39727.781;   -9.388;48285.926
573.552;37729.891;   -8.338;47624.285
574.135;36472.938;   -8.518;45498.641
574.718;34036.051;  -13.628;41970.434
575.301;32807.379;  -10.893;41447.137
575.884;31578.707;   -8.158;40923.836
576.467;32714.730;  -10.328;45267.723
577.050;34775.926;  -13.058;48175.543
577.633;35554.668;   -9.458;47729.328
578.216;33802.688;   -8.928;47579.793
578.799;32918.074;   -9.358;47820.996
579.381;32317.482;  -11.388;48115.551
579.964;31652.432;  -11.718;47333.766
580.547;33652.813;   -8.588;46668.969
581.129;34936.602;   -8.859;44466.141
581.712;35648.730;  -10.729;44164.922
582.294;36250.152;  -11.118;46477.855
582.877;36058.680;   -5.218;48244.254
583.459;33543.699;   -8.679;47437.895
584.042;31716.975;  -10.709;46943.219
584.624;32455.613;  -11.669;46792.227
585.206;31858.414;   -8.218;46557.250
585.789;31910.590;  -10.569;45793.773
586.371;34380.758;  -11.859;43836.391
586.953;34397.652;  -10.719;42972.492
587.536;35227.523;   -7.198;42487.211
588.118;34064.863;   -8.720;42086.414
588.700;29471.314;  -10.439;43389.930
589.282;26987.666;   -9.198;43646.039
589.864;27306.119;   -9.199;43438.109
590.446;30109.881;  -11.319;43151.926
591.028;32438.305;  -11.159;42781.867
591.610;32861.727;  -11.779;42839.098
592.192;31036.885;   -7.668;42820.402
592.774;29798.613;  -11.949;40724.277
593.356;28632.232;  -12.129;39874.789
593.937;27717.877;  -10.669;39980.648
594.519;29952.436;   -6.509;42069.633
595.101;32001.684;  -10.849;42976.031
595.683;32019.688;  -11.679;44084.441
596.264;33088.555;   -9.049;43478.797
596.846;32231.340;   -8.849;43803.672
597.427;32033.270;   -9.570;42986.934
598.009;33648.809;  -12.620;42832.219
598.591;33946.965;  -10.039;42580.086
599.172;32924.770;  -10.369;43061.805
599.753;33006.906;   -9.140;41691.469
600.335;34641.508;  -11.430;40692.520
600.916;33077.484;   -9.939;39982.422
601.498;30630.967;   -8.479;40318.617
602.079;29177.361;  -10.920;40670.609
602.660;29319.160;  -11.480;41450.898
603.241;30770.455;  -11.699;41137.738
603.823;29489.379;   -9.579;38868.797
604.404;29467.064;  -10.620;38182.785
604.985;30864.693;  -10.450;38078.047
605.566;30337.660;   -9.129;38056.633
606.147;30492.432;   -7.510;37020.418
606.728;32162.760;  -10.660;37883.359
607.309;30815.443;  -11.740;38748.273
607.890;30212.520;   -9.759;38850.230
608.471;29717.537;   -8.250;37457.918
609.051;28824.004;   -9.240;36066.457
609.632;27854.168;  -12.120;35991.074
610.213;28734.803;   -9.110;37402.641
610.794;29314.113;   -8.030;38383.363
611.374;28815.475;   -8.110;40562.387
611.955;29246.656;  -13.560;38533.727
612.536;30502.168;  -11.400;36951.789
613.116;30557.496;   -8.070;37197.891
613.697;30736.096;  -10.830;38411.125
614.277;29364.965;  -11.641;38673.938
614.858;30324.891;  -13.310;37075.863
615.438;29399.336;   -7.460;35092.906
616.019;26594.404;   -7.601;33666.301
616.599;27267.424;  -12.020;34189.023
617.179;29044.518;  -11.780;36952.047
617.760;29930.311;   -8.570;39582.574
618.340;31005.826;  -11.471;38943.977
618.920;32279.947;  -11.170;37594.156
619.500;32171.170;  -11.071;37866.938
620.080;31438.137;   -7.750;37869.043
620.660;32659.021;  -12.711;36868.617
621.241;34026.063;  -10.211;36352.309
621.821;34120.672;  -10.961;35459.520
622.401;33089.742;   -7.720;35207.414
622.980;32385.723;   -8.981;35980.422
623.560;30974.039;   -9.331;37351.328
624.140;29890.760;   -9.850;34388.582
624.720;24659.205;   -7.451;32368.764
625.300;21172.826;   -9.070;32638.629
625.880;24545.162;  -12.601;34599.035
626.459;28518.736;  -11.751;36831.738
627.039;31657.814;   -9.281;38299.098
627.619;31543.270;   -8.801;38289.574
628.198;29880.666;  -12.071;37220.695
628.778;29046.896;   -9.461;37632.563
629.357;29807.750;   -8.491;38003.012
629.937;29875.893;   -9.721;38402.039
630.516;29348.773;   -9.951;37868.801
631.096;28957.441;  -11.731;35760.410
631.675;32002.174;   -8.572;35225.219
632.254;36988.480;  -11.282;35130.289
632.834;36296.301;  -13.322;35794.570
633.413;34261.738;  -10.301;35788.922
633.992;31234.816;   -8.582;34532.863
634.571;32188.752;   -8.352;33590.113
635.151;35071.867;  -11.912;34943.863
635.730;33437.348;  -10.511;35352.523
636.309;30103.656;   -7.731;35366.605
636.888;27849.475;   -9.952;36165.637
637.467;28863.373;  -11.672;37515.902
638.046;30548.000;   -8.901;39288.695
638.625;33671.387;   -7.912;38279.699
639.204;33280.918;  -10.022;37741.598
639.782;31723.273;  -12.252;38364.551
640.361;27959.070;  -10.041;36740.621
640.940;25187.551;  -11.161;34950.082
641.519;25836.346;   -9.701;34137.398
642.097;28844.660;  -11.271;35654.258
642.676;31617.439;   -8.651;35637.957
643.255;32019.887;   -8.711;36567.074
643.833;31128.211;   -9.581;37809.434
644.412;31279.199;  -13.711;37337.293
644.990;30512.549;  -11.811;37018.531
645.569;30775.785;   -9.411;36518.469
646.147;29586.521;  -10.291;36186.430
646.726;29025.766;  -12.401;36267.688
647.304;30066.107;  -10.411;36647.625
647.882;32124.713;   -9.651;39286.742
648.461;33865.160;   -9.631;39157.703
649.039;31939.262;  -11.881;35412.883
649.617;31294.912;   -9.661;34744.918
650.195;31047.596;   -9.301;35403.098
650.773;29501.213;  -10.511;35053.797
651.352;27203.416;  -11.521;33756.816
651.930;25003.920;  -12.211;31868.773
652.508;23431.463;   -9.171;33121.551
653.086;27357.148;   -9.371;33564.793
653.663;29989.479;  -13.161;34054.668
654.241;29042.738;  -13.031;35693.309
654.819;30777.395;   -9.371;36422.906
655.397;30836.414;  -10.511;38213.484
655.975;30609.713;  -10.371;39507.625
656.553;30202.604;  -10.051;39498.223
657.130;28559.256;  -10.061;40395.480
657.708;28129.129;   -9.561;39242.020
658.286;28216.162;  -11.511;38920.020
658.863;29367.518;  -10.261;40202.898
659.441;32374.924;   -7.531;39677.938
660.018;31761.512;   -9.501;40413.355
660.596;30667.371;  -13.301;39931.414
661.173;32680.877;  -11.211;39604.531
661.750;32796.766;   -9.951;39700.070
662.328;31749.965;   -9.390;39292.809
662.905;30776.789;  -11.330;38235.648
663.482;26202.523;   -9.050;36212.305
664.060;24407.207;   -8.240;35944.945
664.637;27299.676;  -10.050;35170.785
665.214;29190.875;  -11.760;34197.523
665.791;30527.328;  -10.530;34549.520
666.368;29255.211;   -9.690;35118.578
666.945;30226.855;   -9.320;36019.418
667.522;31743.879;  -11.860;36048.438
668.099;31548.346;  -10.770;36243.914
668.676;30392.078;   -6.260;35958.875
669.253;28990.043;   -7.000;37384.730
669.830;29687.352;  -10.190;36779.629
670.407;29416.969;   -9.550;35231.289
670.984;29578.855;   -9.260;35544.270
671.560;29961.760;   -9.280;35466.867
672.137;28982.166;  -11.810;34280.863
672.714;29858.768;  -11.490;34632.863
673.290;30303.137;   -7.740;35135.422
673.867;30620.516;  -10.660;36114.480
674.443;30340.260;  -12.230;36152.859
675.020;28651.680;  -10.450;35327.238
675.596;29875.002;   -9.260;35795.176
676.173;30277.125;  -10.780;35430.355
676.749;30089.213;  -13.690;33549.516
677.326;30182.242;  -11.980;32210.012
677.902;30152.320;   -8.630;32068.871
678.478;29416.348;  -10.730;32583.891
679.054;28961.229;  -10.520;32088.928
679.631;29206.467;  -11.920;30978.848
680.207;30716.615;   -7.490;33160.887
680.783;32332.973;   -9.860;35570.363
681.359;31389.135;  -13.380;36125.184
681.935;30746.250;  -12.480;35240.922
682.511;29809.148;   -7.900;34429.961
683.087;30000.982;   -7.710;34463.680
683.663;29733.117;  -11.480;34648.898
684.239;28349.943;  -14.090;34546.457
684.815;27957.760;   -7.560;35586.375
685.390;28350.967;   -9.910;35821.895
685.966;28860.514;  -11.159;35085.871
686.542;31413.525;  -11.169;34198.230
687.118;33431.918;   -5.959;32847.707
687.693;33465.414;  -10.329;32794.027
688.269;33170.000;  -12.059;33072.367
688.844;31243.768;  -10.909;33141.664
689.420;28962.178;   -8.019;33965.742
689.995;26649.268;   -8.399;34655.523
690.571;25402.531;  -10.949;33576.742
691.146;25986.098;   -9.619;32657.219
691.722;25456.594;   -8.999;32526.979
692.297;25651.297;  -11.589;33014.617
692.872;27577.697;  -11.739;34012.254
693.448;26961.996;  -11.059;34237.434
694.023;26182.002;  -10.139;34142.672
694.598;28273.709;   -9.029;34132.031
695.173;28462.592;  -13.319;34205.250
695.748;27701.115;  -10.169;32882.488
696.323;27639.480;   -8.339;32864.906
696.898;27906.730;   -8.169;33170.004
697.473;27718.125;  -12.309;32432.984
698.048;27160.578;  -10.989;31649.303
698.623;27237.904;   -9.329;30778.141
699.198;29336.273;   -9.849;31140.119
699.773;30092.893;  -12.329;31764.299
700.348;28400.061;  -10.389;31780.816
700.922;28390.662;   -9.269;32046.375
701.497;29070.020;   -9.329;32603.574
702.072;29111.832;  -10.789;34799.871
702.646;27895.303;  -10.839;35793.172
703.221;26170.439;   -9.099;35201.590
703.795;28208.725;  -10.939;34764.527
704.370;28429.436;  -12.859;34307.367
704.944;28889.100;  -11.559;33509.887
705.519;29867.188;   -7.939;31388.584
706.093;31387.813;  -10.499;31340.104
706.668;31520.703;  -11.289;32630.281
707.242;30515.164;  -11.509;32728.779
707.816;28992.408;   -9.639;32947.238
708.390;27421.408;  -11.429;33277.855
708.965;28114.680;  -11.869;33834.336
709.539;28452.236;  -11.689;33709.273
710.113;28938.514;  -10.478;33044.313
710.687;28093.635;  -10.228;31953.992
711.261;26277.363;  -13.698;30505.949
711.835;26190.842;  -13.378;30262.369
712.409;27138.107;   -9.698;31254.447
712.983;29011.711;  -11.898;32754.986
713.557;29819.775;  -15.138;34018.824
714.131;29414.600;  -14.098;34579.625
714.704;28530.777;   -9.958;33890.262
715.278;26364.275;  -10.028;33531.102
715.852;25520.057;  -11.148;33601.660
716.425;26399.770;   -9.068;33515.117
716.999;27054.768;  -10.038;33185.555
717.573;28106.902;   -9.798;33905.996
718.146;29199.346;  -12.378;35199.293
718.720;29045.596;  -11.918;35060.551
719.293;28460.436;   -8.088;34973.230
719.867;31336.061;  -10.888;36394.449
720.440;30797.441;  -11.938;36663.008
721.013;29028.801;  -12.818;35102.426
721.587;27760.291;  -10.298;33985.266
722.160;26929.182;  -10.048;33524.965
722.733;25920.572;  -12.108;32987.043
723.306;26286.203;  -10.818;33066.301
723.880;28634.900;   -8.908;33399.500
724.453;30235.215;   -9.878;33468.297
725.026;29164.006;  -11.188;33816.637
725.599;26765.574;  -11.678;32797.996
726.172;27514.148;   -9.618;33187.434
726.745;28662.914;   -8.258;35136.613
727.318;30035.348;  -12.978;35751.730
727.891;30268.055;  -12.148;35890.430
728.463;29863.766;   -8.968;34822.090
729.036;28967.582;  -10.188;32895.086
729.609;29322.648;  -11.788;31823.225
730.182;26172.471;  -11.788;31445.283
730.754;23676.230;  -10.268;32373.223
731.327;23724.455;   -9.998;33676.820
731.900;24186.348;  -12.228;33417.000
732.472;25613.844;  -13.848;31978.498
733.045;27402.967;   -8.698;30368.777
733.617;27452.973;  -10.607;30574.215
734.190;26920.076;  -11.507;31280.975
734.762;23853.250;  -13.647;31674.412
735.334;22317.697;   -9.767;31247.291
735.907;23111.943;   -9.897;29876.211
736.479;23085.660;  -11.637;29808.488
737.051;22717.633;   -9.567;30233.547
737.623;23688.258;   -8.187;31469.086
738.195;24665.875;  -11.187;31784.225
738.768;26717.176;  -12.337;32120.523
739.340;26617.287;  -12.227;32094.342
739.912;25218.068;  -11.057;31312.680
740.484;23816.746;  -10.207;31946.238
741.056;22935.424;  -10.047;32984.059
741.628;24818.490;  -13.627;33897.715
742.199;27029.914;   -7.177;33213.016
742.771;25300.885;  -10.797;31369.113
743.343;22946.486;  -11.997;31865.473
743.915;22008.031;  -12.867;32388.631
744.487;22195.057;   -7.617;31079.568
745.058;22368.307;   -9.557;30570.107
745.630;22822.178;   -9.877;29970.127
746.201;23480.934;  -14.177;29186.766
746.773;23726.660;   -9.237;28805.723
747.344;23612.572;   -9.847;29591.223
747.916;22452.592;  -11.657;31412.201
748.487;22828.543;  -10.587;32194.898
749.059;23986.176;   -8.707;32533.719
749.630;24657.021;  -10.537;32158.518
750.201;23777.895;  -11.687;30855.395
750.773;21989.828;  -11.647;28622.555
751.344;21937.818;   -7.147;28405.732
751.915;23118.625;   -9.757;28461.551
752.486;22783.727;  -12.427;27842.850
753.057;20552.607;  -12.227;27845.008
753.628;19481.607;  -10.417;27728.107
754.199;20708.461;  -11.767;27381.086
754.770;21684.537;  -11.187;25882.203
755.341;21646.518;  -10.507;25886.184
755.912;21542.605;   -9.387;26050.861
756.483;20996.322;  -10.647;26798.779
757.054;19180.619;  -11.837;27048.238
757.625;17918.164;  -12.716;26294.838
758.195;17755.410;   -9.666;26142.076
758.766;17541.260;   -8.656;26392.234
759.337;18369.086;  -12.856;26334.594
759.907;20141.230;  -13.366;27579.652
760.478;20976.963;   -8.576;28352.770
761.048;20210.514;  -10.526;27325.088
761.619;19383.814;  -11.116;26460.428
762.189;19527.734;  -12.136;26029.826
762.760;20800.590;   -9.456;26430.145
763.330;21796.471;   -7.136;26670.902
763.900;21058.625;  -11.786;26603.021
764.471;18387.023;  -11.546;25542.740
765.041;17121.484;   -8.096;24358.459
765.611;17223.434;   -8.876;23991.297
766.181;17689.650;  -12.196;24470.236
766.751;18683.334;  -11.636;24845.975
767.321;18346.398;  -10.156;24533.633
767.891;16288.462;  -11.766;24916.492
768.461;15805.774;  -14.936;24776.771
769.031;16414.201;  -12.356;24757.988
769.601;17922.838;   -7.526;24181.088
770.171;17694.520;  -10.766;23670.387
770.741;17083.234;  -13.176;22960.045
771.311;17411.199;  -10.616;22917.523
771.880;17681.006;   -9.576;23562.941
772.450;17363.197;  -10.336;24216.500
773.020;17453.074;  -13.516;24140.398
773.589;16814.346;  -13.466;24414.857
774.159;16184.044;   -8.686;23858.717
774.729;15810.082;   -9.476;22942.135
775.298;15276.310;  -13.666;22324.033
775.867;14861.986;  -11.716;21140.313
776.437;14878.003;   -9.906;20838.092
777.006;14647.114;  -12.166;20599.510
777.576;14567.145;  -12.356;20508.809
778.145;14742.449;  -11.646;20732.947
778.714;14571.936;   -8.226;21062.465
779.283;13790.777;   -9.556;20949.664
779.853;13373.812;  -14.116;20508.623
780.422;13876.497;  -11.506;20649.082
780.991;13451.770;   -9.556;21527.520
781.560;12317.232;   -9.095;22632.658
782.129;12159.771;  -12.135;23048.277
782.698;12174.302;  -10.865;23438.555
783.267;11763.361;   -9.335;23267.734
783.836;11768.287;  -11.045;22415.133
784.404;12833.215;  -13.865;20443.152
784.973;13352.943;  -13.095;19699.150
785.542;13276.763;  -11.575;19763.828
786.111;13136.522;   -9.705;20341.408
786.679;12563.720;  -12.105;20207.967
787.248;12296.593;  -12.455;19516.465
787.817;12103.673;  -11.535;18900.363
788.385;11703.183;   -9.765;17879.121
788.954;11122.925;  -14.005;17658.301
789.522;10629.350;  -11.955;17788.879
790.090;11212.031;  -10.135;18118.277
790.659;11575.907;  -10.975;18338.736
791.227;11056.659;  -13.375;18508.615
791.795;11521.042;  -12.375;17898.254
792.364;11843.867;  -10.725;17295.133
792.932;12081.538;   -9.715;16822.051
793.500;12253.840;  -12.675;17040.148
794.068;12534.911;  -13.495;17179.787
794.636;12647.011;  -10.885;16664.246
795.204;12125.610;  -11.045;16524.545
795.772;12196.414;  -13.175;17274.564
796.340;11703.344;  -12.445;17891.002
796.908;11531.100;   -9.735;17648.561
797.476;11394.284;   -9.815;17064.080
798.044;10937.329;  -13.985;16672.777
798.612;10116.354;  -13.115;17023.996
799.180; 9723.255;  -10.185;16561.615
799.747; 9660.469;   -9.055;15962.773
800.315; 9417.155;  -12.385;15296.992
800.883; 9042.543;  -15.035;14801.771
801.450; 9012.559;  -10.365;14534.430
802.018; 9068.359;   -9.855;14173.248
802.585; 9214.498;  -11.905;14029.547
803.153; 9284.420;  -11.585;13836.846
803.720; 9117.570;   -9.095;13567.324
804.287; 8669.320;   -9.135;13360.622
804.855; 8264.698;  -11.604;13681.981
805.422; 8148.082;  -11.794;13536.560
805.989; 8157.213;  -10.734;13355.958
806.556; 8374.760;  -10.444;13747.896
807.124; 8655.742;  -12.764;13987.376
807.691; 8613.443;  -12.964;14038.674
808.258; 8379.618;  -11.134;14120.152
808.825; 8019.428;   -9.854;13860.111
809.392; 8068.168;  -10.504;13268.790
809.959; 7610.707;  -13.054;12680.389
810.526; 7210.400;   -8.294;12427.308
811.093; 7297.283;   -8.394;12030.105
811.659; 7884.001;  -12.304;11653.664
812.226; 8320.545;  -13.944;11637.183
812.793; 7955.394;  -10.484;11611.521
813.360; 7319.828;  -10.144;11885.181
813.926; 7059.921;  -11.684;12770.539
814.493; 6872.038;  -13.644;12677.638
815.060; 6496.576;   -9.724;11974.336
815.626; 6522.580;   -9.854;11594.715
816.193; 6915.068;  -13.254;11579.474
816.759; 6900.090;  -13.204;11666.972
817.325; 6965.467;   -9.434;11325.530
817.892; 7363.472;  -10.134;11105.369
818.458; 7829.984;  -13.474;10843.928
819.024; 7446.807;  -11.854;10714.406
819.591; 7139.909;  -10.244;10469.165
820.157; 6931.791;  -10.704;10235.523
820.723; 6441.902;  -12.324;10847.563
821.289; 6128.199;   -9.444;11040.980
821.855; 6001.107;   -8.374;10357.100
822.421; 5922.167;  -10.234; 9978.918
822.987; 5904.918;  -13.294; 9754.177
823.553; 5623.950;  -10.884;10065.755
824.119; 5475.863;   -8.884;10036.294
824.685; 5554.455;   -6.784;10029.192
825.251; 5630.783;  -12.004;10199.230
825.816; 5600.330;  -11.474; 9820.189
826.382; 5395.561;   -9.174; 9297.248
826.948; 5648.686;   -9.214; 9381.347
827.513; 6024.366;  -10.774; 9450.726
828.079; 5792.966;  -11.924; 9472.444
828.645; 5232.715;  -10.543; 9292.643
829.210; 5191.946;  -10.533; 9065.341
829.776; 5176.311;  -10.753; 9132.620
830.341; 5046.029;  -10.173; 9092.878
830.906; 5243.999;  -10.743; 9078.557
831.472; 5570.625;  -11.113; 8534.535
832.037; 5258.081;  -10.603; 8677.874
832.602; 4686.233;  -13.323; 8628.692
833.167; 4445.350;  -10.823; 8879.031
833.733; 4392.375;  -10.113; 9189.790
834.298; 4518.696;  -13.583; 9052.608
834.863; 4565.518;  -12.703; 8895.087
835.428; 4548.926;  -10.523; 8824.266
835.993; 4431.050;   -6.963; 8845.385
836.558; 4299.618;  -10.763; 8888.563
837.123; 4449.129;   -9.903; 8966.582
837.688; 4679.658;   -9.913; 8617.860
838.253; 4900.188;  -10.283; 8590.699
838.817; 5101.208;  -12.963; 8443.797
839.382; 5001.859;  -14.243; 8799.356
839.947; 4673.275;  -10.733; 8810.595
840.511; 4342.294;   -9.383; 8796.394
841.076; 3941.135;  -12.563; 8347.231
841.641; 3995.883;  -12.953; 8224.330
842.205; 4086.602;   -7.043; 8223.349
842.770; 4217.368;   -8.163; 8622.107
843.334; 4420.371;  -12.503; 8410.386
843.898; 4393.268;  -11.693; 8337.465
844.463; 4420.777;  -10.203; 8506.283
845.027; 4187.681;   -9.533; 8280.962
845.591; 4004.900;  -13.443; 8231.141
846.156; 3962.625;  -13.143; 7969.179
846.720; 3832.429;   -9.433; 7768.278
847.284; 3694.263;  -11.033; 7630.957
847.848; 3557.594;  -10.403; 7472.395
848.412; 3459.441;  -11.553; 7437.394
848.976; 3493.001;   -8.393; 7674.592
849.540; 3436.715;   -8.713; 7836.011
850.104; 3576.325;  -12.463; 7913.669
850.668; 3925.941;  -12.973; 7694.508
851.232; 4001.785;  -10.793; 7756.887
851.796; 3827.153;  -10.662; 7926.545
852.359; 3531.108;  -13.082; 7827.844
852.923; 3377.313;  -12.192; 7641.163
853.487; 3202.620;  -11.912; 7342.501
854.050; 3152.951;  -10.892; 7042.820
854.614; 3276.517;  -13.992; 7151.338
855.177; 3395.345;  -11.732; 7105.077
855.741; 3425.557;   -8.962; 6989.675
856.304; 3316.979;   -9.442; 6596.634
856.868; 3269.537;  -14.192; 6356.272
857.431; 3373.770;  -12.702; 6468.571
857.995; 3500.371;   -9.942; 6373.210
858.558; 3501.944;   -9.112; 6324.448
859.121; 3222.496;  -12.932; 6408.327
859.684; 3109.374;  -13.442; 6347.886
860.247; 3211.955;  -10.632; 6321.264
860.810; 3189.490;  -11.272; 6301.903
861.374; 2926.735;   -9.832; 6607.881
861.937; 2679.192;  -11.762; 6408.200
862.500; 2687.090;   -9.722; 6572.639
863.062; 2873.496;  -10.512; 6387.297
863.625; 3043.447;  -11.232; 6190.836
864.188; 3201.147;  -14.112; 5807.254
864.751; 3264.607;  -11.302; 5682.413
865.314; 3141.226;  -10.112; 5547.492
865.876; 2936.596;  -12.182; 5500.150
866.439; 2931.472;  -10.722; 5415.909
867.002; 2868.154;   -9.252; 5501.567
867.564; 2652.915;   -9.572; 5413.946
868.127; 2423.549;  -13.142; 5160.325
868.689; 2320.913;  -12.902; 5133.183
869.252; 2217.164;   -9.732; 5252.382
869.814; 2121.309;   -9.432; 5297.141
870.377; 2142.655;  -11.552; 5390.919
870.939; 2217.712;   -9.052; 5599.898
871.501; 2274.928;  -10.982; 5248.336
872.063; 2273.765;  -12.292; 4854.235
872.626; 2234.870;  -14.912; 4817.074
873.188; 2269.279;  -13.112; 4987.732
873.750; 2233.457;  -13.442; 4868.651
874.312; 2139.831;   -9.402; 4779.330
874.874; 2045.181;  -11.062; 4866.348
875.436; 1952.284;  -13.931; 4718.887
875.998; 1938.043;   -9.561; 4660.005
876.560; 1959.347;  -11.321; 4462.964
877.122; 1900.472;  -12.221; 4145.042
877.683; 1816.322;  -12.191; 4056.481
878.245; 1751.265;  -12.101; 3950.740
878.807; 1795.343;   -8.971; 4058.958
879.369; 1819.151;  -12.071; 3954.677
879.930; 1721.894;  -14.621; 3941.495
880.492; 1659.687;  -10.311; 4067.014
881.053; 1611.467;  -10.901; 3859.633
881.615; 1495.188;  -14.411; 3776.071
882.176; 1400.165;  -13.761; 3734.750
882.738; 1356.318;   -9.181; 3678.489
883.299; 1332.940;  -11.791; 3405.407
883.860; 1340.274;  -13.121; 3351.106
884.422; 1340.155;  -11.211; 3394.044
884.983; 1290.448;  -10.091; 3166.443
885.544; 1206.225;   -8.461; 3189.802
886.105; 1126.027;  -12.361; 3160.360
886.666; 1060.442;  -14.141; 3093.059
887.227; 1004.720;  -11.361; 2941.957
887.788;  939.427;  -11.401; 2974.836
888.349;  878.463;  -13.791; 2721.214
888.910;  878.477;  -13.191; 2696.493
889.471;  887.276;   -9.881; 2560.172
890.032;  865.929;   -9.881; 2558.190
890.593;  843.251;  -10.371; 2567.669
891.153;  817.736;  -13.301; 2460.307
891.714;  764.987;  -11.431; 2372.046
892.275;  722.053;  -11.291; 2309.505
892.835;  678.791;  -11.471; 2382.543
893.396;  624.157;  -11.541; 2295.502
893.956;  565.164;  -11.181; 2162.420
894.517;  530.412;  -11.741; 2125.439
895.077;  527.940;  -11.671; 2086.978
895.638;  527.211;  -11.311; 2126.316
896.198;  497.611;   -9.831; 1838.275
896.758;  454.039;   -8.421; 1892.813
897.319;  422.671;  -12.351; 1792.232
897.879;  405.548;  -13.511; 1762.751
898.439;  380.618;  -12.001; 1661.149
898.999;  355.916;  -10.180; 1781.468
899.559;  346.710;  -12.030; 1703.347
900.119;  342.099;  -15.710; 1537.525
900.679;  337.369;   -8.900; 1638.384
901.239;  323.087;   -8.340; 1527.902
901.799;  312.952;  -13.910; 1456.441
902.359;  307.111;  -13.460; 1357.140
902.919;  300.750;  -11.490; 1331.118
903.479;  286.900;  -12.110; 1317.257
904.038;  266.461;  -11.720; 1262.595
904.598;  250.431;  -13.610; 1152.034
905.158;  247.385;  -11.040; 1240.893
905.717;  238.910;  -10.900; 1233.691
906.277;  227.840;  -15.080; 1217.330
906.836;  217.874;  -13.380; 1222.408
907.396;  209.177;  -10.780; 1193.047
907.955;  201.587;   -8.500; 1182.526
908.515;  195.648;  -12.760; 1099.364
909.074;  189.880;  -11.900; 1092.863
909.633;  184.247;   -8.950; 1069.121
910.192;  179.601;   -8.770; 1196.460
910.752;  174.162;  -12.390; 1029.960
911.311;  170.607;  -13.680; 1009.780
911.870;  167.233;  -12.370;  971.460
912.429;  169.297;  -10.900; 1094.080
912.988;  168.056;  -11.690; 1081.060
913.547;  163.155;  -13.240;  940.380
914.106;  158.296;  -11.990;  999.420
914.665;  154.872;   -9.990;  984.020
915.224;  154.854;  -12.880; 1035.760
915.782;  154.724;  -12.350;  922.560
916.341;  153.573;   -9.110; 1049.840
916.900;  149.029;   -9.270;  925.260
917.458;  148.082;  -13.240;  884.220
918.017;  148.399;  -13.550;  942.600
918.576;  146.076;  -12.320;  904.440
919.134;  145.225;  -11.490;  837.980
919.693;  142.566;  -13.670;  893.060
920.251;  140.945;  -15.470;  876.500
920.809;  139.849;  -11.290;  839.580
921.368;  138.943;  -10.210;  885.360
921.926;  138.074;  -12.140;  842.940
922.484;  137.511;  -13.080;  903.360
923.042;  136.905;  -11.720;  880.340
923.601;  140.030;   -7.480;  998.680
924.159;  138.246;  -11.570;  935.560
924.717;  135.577;  -13.840;  841.080
925.275;  134.247;  -10.640;  903.240
925.833;  134.788;  -11.540;  779.320
926.391;  135.637;  -12.960;  938.380
926.949;  133.340;  -14.130;  857.680
927.506;  134.337;  -11.750;  903.500
928.064;  133.840;  -10.250;  877.580
928.622;  133.023;  -13.030;  880.100
929.180;  133.837;  -13.400;  814.180
929.737;  134.604;  -10.700;  808.540
930.295;  138.500;  -10.070;  928.480
930.853;  140.145;  -11.960;  849.100
931.410;  141.393;  -13.120;  821.120
931.968;  139.753;  -10.770;  940.660
932.525;  138.643;  -10.680;  909.380
933.082;  140.484;  -13.130;  811.440
933.640;  141.817;  -13.210;  925.900
934.197;  139.161;  -11.060;  886.360
934.754;  140.106;   -9.580;  897.780
935.312;  143.296;  -14.000;  863.340
935.869;  147.940;  -10.710; 1012.980
936.426;  148.659;   -9.860;  872.800
936.983;  148.942;   -9.710;  889.020
937.540;  147.605;  -13.990;  838.280
938.097;  146.536;  -14.040;  940.120
938.654;  146.656;  -10.310;  898.860
939.211;  150.197;  -10.560;  952.480
939.768;  154.211;  -13.900;  915.420
940.324;  157.701;  -14.760;  904.200
940.881;  157.329;  -10.370;  878.500
941.438;  158.352;   -8.260; 1021.200
941.995;  155.948;  -12.540;  992.560
942.551;  153.121;  -14.670;  875.620
943.108;  153.380;  -10.450;  937.920
943.664;  155.367;  -10.750;  869.340
944.221;  158.977;  -11.550; 1088.140
944.777;  157.872;  -14.770;  869.680
945.334;  157.779;  -12.820;  884.840
945.890;  158.846;  -10.130;  946.480
946.446;  159.554;  -13.470;  947.020
947.003;  162.108;  -12.120;  964.940
947.559;  163.875;   -9.980; 1063.040
948.115;  163.017;   -9.080; 1026.540
948.671;  161.345;  -10.830;  967.300
949.227;  159.452;  -12.440;  859.560
949.783;  156.475;  -12.910;  858.900
950.339;  158.179;  -10.270;  991.000
950.895;  158.540;  -13.630; 1023.840
951.451;  158.722;  -15.100;  925.280
952.007;  159.161;  -11.330;  998.540
952.563;  159.721;  -10.580;  937.780
953.118;  158.104;  -13.440;  904.940
953.674;  158.505;  -12.710;  935.780
954.230;  157.205;  -10.350;  949.640
954.785;  153.626;   -9.190;  936.640
955.341;  151.052;  -11.200;  998.160
955.897;  151.299;  -16.560;  834.660
956.452;  152.158;  -12.570;  953.840
957.008;  151.886;   -7.970; 1083.640
957.563;  150.010;  -11.940; 1009.540
958.118;  145.025;  -13.450;  877.700
958.674;  145.872;  -12.030;  946.780
959.229;  146.435;   -9.410; 1013.980
959.784;  145.015;  -12.000;  832.400
960.339;  144.097;  -14.780; 1001.280
960.894;  139.987;   -9.860;  963.760
961.449;  135.781;   -9.970;  859.960
962.004;  135.534;  -10.900; 1212.840
962.559;  131.428;  -13.150;  860.140
963.114;  127.940;  -13.740;  742.480
963.669;  128.273;   -9.820;  915.500
964.224;  127.082;  -13.890;  874.340
964.779;  126.637;  -12.600;  828.420
965.334;  126.930;  -10.950; 1017.860
965.888;  126.692;  -11.170;  875.360
966.443;  130.140;  -12.540;  972.380
966.998;  129.652;  -15.780;  819.460
967.552;  127.885;   -9.760;  908.380
968.107;  124.180;   -9.060;  868.300
968.661;  125.646;  -11.950;  922.440
969.216;  125.920;  -12.800;  856.280
969.770;  126.037;  -11.210;  917.200
970.324;  125.743;  -11.610;  923.140
970.879;  124.298;  -11.370;  947.180
971.433;  122.347;  -12.540;  952.720
971.987;  116.340;  -11.320;  895.340
972.541;  109.839;  -10.720;  917.100
973.095;  105.030;   -9.680; 1009.460
973.649;   97.088;  -11.440;  809.480
974.203;   87.821;  -11.210;  829.040
974.757;   83.161;  -10.240;  855.220
975.311;   81.717;  -13.720;  872.600
975.865;   83.853;  -13.770;  881.820
976.419;   84.538;  -11.690;  857.400
976.973;   86.305;   -9.510;  849.620
977.526;   89.949;  -12.620;  949.920
978.080;   90.446;  -12.010;  796.780
978.634;   92.367;  -10.170;  921.320
979.187;   90.974;   -9.020;  905.400
979.741;   89.431;   -9.820; 1018.380
980.294;   86.376;  -14.870;  789.160
980.848;   84.740;  -12.380;  717.220
981.401;   87.029;  -10.350;  816.540
981.955;   88.759;  -13.720;  844.300
982.508;   88.419;  -11.490;  746.340
983.061;   89.140;  -10.000;  915.260
983.615;   85.164;  -11.480;  798.800
984.168;   82.705;  -13.220;  770.080
984.721;   82.269;  -13.960;  880.760
985.274;   80.957;  -10.870;  867.500
985.827;   81.544;   -9.790;  834.220
986.380;   78.884;  -13.120;  721.340
986.933;   78.869;  -12.450;  864.800
987.486;   76.847;  -10.210;  861.920
988.039;   76.446;   -8.430;  863.100
988.591;   74.411;  -10.520;  893.260
989.144;   72.472;  -14.860;  737.260
989.697;   71.060;  -13.080;  758.740
990.250;   71.648;  -10.150;  858.100
990.802;   71.330;  -13.430;  755.860
991.355;   73.575;  -12.750;  974.880
991.907;   70.477;  -12.040;  864.320
992.460;   67.379;  -11.330;  753.760
993.012;   67.034;  -13.610;  749.540
993.565;   66.228;  -13.460;  711.360
994.117;   67.985;   -9.360;  950.780
994.669;   63.751;  -11.300;  701.320
995.221;   61.887;  -13.540;  791.920
995.774;   60.719;  -13.430;  787.580
996.326;   58.882;  -12.520;  740.220
996.878;   59.199;  -10.950;  838.420
997.430;   56.335;  -14.300;  699.860
997.982;   55.449;  -13.760;  750.140
998.534;   53.567;  -11.530;  739.060
999.086;   51.230;  -10.310;  738.220
999.638;   49.789;  -12.530;  661.380
1000.190;   50.548;  -11.840;  699.320
1000.741;   49.600;  -10.260;  742.700
1001.293;   49.533;   -8.860;  686.020
1001.845;   48.474;  -13.700;  676.640
1002.396;   49.597;  -12.100;  743.400
1002.948;   48.714;  -12.760;  737.400
1003.500;   46.369;  -10.380;  723.780
1004.051;   47.973;  -11.900;  907.580
1004.603;   46.669;  -12.250;  791.820
1005.154;   42.561;  -13.210;  608.980
1005.705;   42.351;  -10.950;  723.960
1006.257;   41.560;  -13.880;  707.220
1006.808;   41.683;  -12.840;  685.460
1007.359;   40.503;  -10.570;  763.240
1007.910;   39.836;   -9.620;  646.640
1008.461;   39.165;  -13.630;  732.940
1009.013;   38.794;  -17.200;  588.340
1009.564;   39.460;  -10.200;  793.520
1010.115;   37.037;  -12.570;  597.040
1010.665;   37.146;  -15.150;  602.160
1011.216;   37.691;  -14.480;  667.920
1011.767;   36.824;  -11.340;  697.920
1012.318;   36.951;   -9.780;  736.980
1012.869;   36.404;  -12.380;  679.000
1013.419;   35.180;  -15.560;  603.120
1013.970;   35.488;  -11.010;  666.640
1014.521;   34.961;  -11.610;  620.620
1015.071;   34.811;  -13.450;  670.380
1015.622;   34.743;  -13.870;  635.460
1016.172;   34.682;  -11.610;  596.820
1016.723;   34.369;  -12.120;  614.380
1017.273;   33.482;  -13.620;  604.160
1017.823;   34.390;  -14.140;  650.340
1018.374;   32.583;  -12.800;  611.760
1018.924;   32.840;  -12.340;  716.880
1019.474;   33.172;  -11.410;  718.880
1020.024;   32.330;  -14.770;  657.580
1020.574;   32.842;   -9.780;  726.160
1021.124;   32.797;   -8.560;  673.580
1021.674;   31.420;  -15.190;  559.120
1022.224;   33.130;  -13.530;  708.940
1022.774;   31.740;  -13.280;  668.820
1023.324;   32.379;  -10.690;  753.520
1023.874;   33.331;  -10.240;  875.760
1024.423;   31.747;  -12.540;  613.700
1024.973;   30.151;  -10.010;  610.760
1025.523;   29.102;  -10.550;  620.960
1026.072;   29.641;  -13.560;  606.420
1026.622;   29.949;  -15.120;  675.740
1027.172;   30.865;  -11.260;  715.660
1027.721;   28.743;  -11.410;  601.220
1028.270;   29.533;  -13.530;  663.400
1028.820;   29.946;  -13.680;  638.080
1029.369;   29.583;  -13.520;  612.700
1029.918;   28.914;  -10.980;  649.840
1030.468;   28.938;  -13.530;  564.780
1031.017;   29.056;  -13.170;  634.800
1031.566;   28.106;  -12.200;  608.900
1032.115;   28.357;   -9.960;  694.500
1032.664;   27.142;  -13.210;  596.480
1033.213;   28.349;  -12.500;  735.420
1033.762;   27.642;  -11.910;  635.620
1034.311;   27.810;   -9.640;  677.220
1034.860;   27.533;  -13.310;  691.000
1035.408;   28.025;  -11.830;  722.720
1035.957;   27.641;  -12.000;  719.540
1036.506;   25.477;  -11.690;  530.800
1037.055;   28.072;  -10.990;  844.320
1037.603;   26.279;  -15.120;  664.000
1038.152;   24.948;  -12.450;  534.760
1038.700;   25.310;  -10.560;  585.740
1039.249;   25.721;  -11.080;  681.220
1039.797;   26.210;  -12.540;  633.360
1040.345;   25.600;  -11.920;  705.420
1040.894;   24.903;  -11.410;  625.300
1041.442;   24.166;  -14.320;  632.200
1041.990;   24.081;  -16.240;  559.160
1042.538;   23.782;  -11.680;  536.180
1043.087;   23.885;  -10.760;  570.860
1043.635;   25.052;  -11.850;  670.500
1044.183;   24.195;  -15.480;  586.400
1044.731;   23.744;  -11.770;  576.000
1045.279;   23.495;  -13.090;  674.920
1045.827;   25.049;  -12.440;  892.400
1046.374;   22.852;  -13.840;  515.420
1046.922;   22.324;  -13.220;  590.580
1047.470;   23.595;  -10.230;  691.300
1048.018;   22.717;  -14.590;  647.960
1048.565;   24.354;  -12.050;  708.600
1049.113;   21.671;  -11.650;  557.000
1049.660;   21.464;  -10.510;  629.660
1050.208;   22.025;  -13.310;  675.640
1050.755;   21.728;  -15.900;  606.580
1051.303;   23.070;  -11.430;  686.820
1051.850;   21.514;   -8.480;  635.120
1052.397;   20.414;  -15.010;  473.960
1052.945;   21.232;  -13.960;  617.760
1053.492;   22.416;  -13.150;  741.840
1054.039;   22.157;   -9.630;  720.180
1054.586;   20.323;  -13.680;  557.240
1055.133;   21.205;  -14.570;  693.140
1055.680;   21.029;  -13.820;  646.620
1056.227;   19.453;  -11.730;  542.780
1056.774;   21.561;  -12.480;  794.980
1057.321;   19.647;  -13.930;  523.260
1057.868;   19.656;  -11.690;  651.320
1058.415;   19.092;   -9.520;  651.980
1058.961;   19.807;  -13.160;  678.940
1059.508;   20.058;  -12.920;  643.820
1060.055;   20.357;  -11.920;  581.780
1060.601;   20.076;  -11.500;  624.300
1061.148;   19.154;  -14.330;  616.820
1061.694;   18.547;  -16.870;  592.580
1062.241;   19.705;  -10.330;  596.320
1062.787;   19.179;  -10.620;  663.140
1063.334;   19.840;  -10.110;  808.560
1063.880;   19.215;  -13.400;  668.360
1064.426;   18.572;  -10.680;  706.820
1064.972;   18.198;   -9.920;  601.340
1065.518;   16.884;  -10.980;  566.640
1066.065;   18.697;  -14.890;  624.460
1066.611;   18.245;  -12.870;  598.800
1067.157;   17.975;  -12.950;  641.860
1067.703;   17.952;  -13.540;  668.480
1068.249;   18.100;  -13.540;  605.220
1068.794;   17.288;  -12.600;  626.880
1069.340;   16.250;  -10.620;  578.960
1069.886;   17.853;  -12.830;  590.700
1070.432;   16.941;  -14.870;  541.720
1070.977;   15.760;  -11.980;  601.080
1071.523;   16.408;   -8.200;  573.060
1072.068;   16.311;  -12.330;  582.000
1072.614;   16.761;  -16.370;  527.760
1073.160;   17.234;  -11.100;  687.040
1073.705;   15.194;  -10.480;  572.520
1074.250;   15.357;  -14.520;  559.900
1074.796;   16.837;  -11.460;  655.160
1075.341;   16.495;  -11.950;  664.100
1075.886;   15.432;  -11.460;  594.240
1076.431;   15.219;  -13.770;  649.880
1076.976;   15.528;  -12.680;  639.220
1077.521;   15.213;  -13.170;  583.080
1078.067;   13.767;  -10.860;  579.400
1078.612;   14.785;  -13.920;  661.620
1079.156;   15.081;  -13.880;  601.540
1079.701;   15.095;  -13.120;  693.260
1080.246;   15.473;   -9.940;  696.300
1080.791;   14.509;  -14.740;  625.020
1081.336;   15.030;  -13.750;  659.320
1081.880;   15.205;  -13.400;  649.680
1082.425;   13.407;  -12.220;  573.480
1082.970;   14.966;  -11.610;  717.040
1083.514;   14.253;  -13.580;  597.000
1084.059;   12.898;  -12.810;  586.720
1084.603;   13.167;  -12.320;  565.840
1085.147;   13.666;  -13.190;  645.220
1085.692;   14.833;  -12.480;  716.800
1086.236;   12.672;  -13.020;  503.140
1086.780;   14.887;   -9.190;  751.440
1087.325;   12.791;  -12.480;  654.620
1087.869;   13.747;  -12.450;  610.700
1088.413;   14.026;  -12.240;  705.040
1088.957;   12.381;   -9.020;  543.400
1089.501;   13.675;  -10.320;  766.640
1090.045;   13.438;  -12.720;  726.480
1090.589;   11.339;  -13.690;  569.920
1091.133;   12.192;  -10.020;  673.340
1091.676;   11.994;  -12.330;  591.940
1092.220;   11.892;  -14.970;  600.920
1092.764;   13.060;  -12.430;  706.960
1093.307;   12.575;   -9.800;  673.780
1093.851;   11.414;  -14.970;  556.540
1094.395;   12.476;  -15.310;  683.140
1094.938;   11.390;  -10.370;  632.520
1095.482;   11.102;  -11.050;  559.800
1096.025;   11.497;  -11.840;  710.880
1096.568;   12.867;  -12.840;  779.280
1097.112;    9.811;  -14.700;  508.180
1097.655;   10.737;   -8.720;  603.000
1098.198;   10.189;  -13.610;  600.180
1098.741;   10.877;  -13.350;  612.860
1099.285;   11.310;  -11.230;  657.300
1099.828;    9.083;  -11.840;  439.400
1100.371;   10.467;  -10.840;  608.160
1100.914;   10.760;  -14.190;  682.660
1101.457;   10.442;  -11.240;  679.900
1101.999;    9.490;  -11.270;  584.680
1102.542;    9.974;  -11.480;  641.440
1103.085;    9.535;  -11.750;  658.500
1103.628;   10.932;  -11.400;  762.060
1104.170;    9.167;  -10.490;  588.280
1104.713;   10.098;  -10.600;  646.700
1105.256;    9.531;  -14.360;  557.440
1105.798;    8.554;  -13.210;  499.980
1106.341;   10.320;  -10.270;  728.900
1106.883;    8.847;  -12.200;  521.340
1107.425;    9.024;  -13.110;  668.180
1107.968;    8.969;  -12.840;  612.380
1108.510;    8.895;   -6.480;  684.960
1109.052;    7.539;  -13.940;  612.620
1109.594;    8.430;  -13.690;  554.440
1110.136;    8.866;  -11.880;  643.220
1110.679;    8.306;   -9.500;  633.080
1111.221;    8.803;  -14.160;  604.460
1111.763;    8.544;  -13.980;  559.220
1112.304;    7.710;  -13.880;  547.140
1112.846;    8.090;  -12.210;  666.240
1113.388;   10.347;  -11.390;  942.180
1113.930;    7.997;  -14.540;  694.200
1114.472;    7.880;  -12.640;  606.540
1115.013;    5.787;  -11.620;  551.280
1115.555;    6.336;  -13.640;  587.100
1116.097;    6.573;  -15.380;  579.480
1116.638;    7.917;  -12.640;  684.600
1117.180;    7.767;   -9.850;  667.740
1117.721;    6.427;  -13.690;  568.580
1118.262;    8.014;  -12.680;  677.960
1118.804;    8.052;  -12.530;  637.340
1119.345;    6.664;  -11.690;  578.400
1119.886;    7.545;  -13.380;  704.040
1120.427;    6.272;  -14.070;  589.020
1120.969;    6.067;  -13.500;  597.920
1121.510;    5.705;  -11.480;  563.060
1122.051;    6.585;  -12.830;  723.580
1122.592;    5.797;  -14.290;  655.420
1123.133;    5.133;  -12.400;  547.940
1123.673;    6.812;  -10.130;  706.480
1124.214;    5.456;  -12.930;  612.460
1124.755;    6.735;  -14.380;  639.460
1125.296;    6.345;  -14.000;  627.320
1125.836;    6.471;  -10.070;  691.500
1126.377;    4.918;  -12.640;  599.660
1126.918;    5.680;  -12.960;  614.980
1127.458;    5.447;  -13.350;  622.220
1127.999;    6.213;  -10.750;  656.980
1128.539;    5.760;  -12.350;  694.240
1129.079;    5.121;  -14.860;  632.720
1129.620;    4.434;  -13.840;  558.100
1130.160;    4.351;  -12.330;  539.480
1130.700;    4.789;  -14.530;  640.840
1131.240;    5.829;  -12.530;  643.700
1131.781;    4.287;  -14.450;  619.680
1132.321;    4.394;   -9.790;  599.120
1132.861;    2.979;  -14.860;  564.200
1133.401;    4.042;  -14.290;  593.940
1133.941;    4.651;  -11.750;  626.280
1134.481;    3.014;   -9.920;  597.580
1135.020;    3.884;  -12.290;  609.160
1135.560;    4.267;  -11.650;  674.940
1136.100;    3.125;  -16.270;  501.160
1136.640;    2.860;  -10.890;  510.480
1137.179;    3.135;  -14.180;  537.960
1137.719;    3.825;  -16.250;  605.400
1138.258;    3.667;  -14.230;  587.360
1138.798;    3.305;   -9.090;  663.780
1139.337;    2.134;  -15.130;  482.840
1139.877;    3.577;  -13.680;  642.360
1140.416;    5.174;  -11.320;  878.060
1140.955;    2.230;  -10.860;  535.380
1141.494;    2.995;  -12.920;  669.280
1142.034;    2.541;  -13.930;  583.520
1142.573;    4.070;  -11.440;  646.280
1143.112;    1.991;  -12.000;  553.480
1143.651;    1.996;  -13.670;  536.480
1144.190;    2.987;  -12.730;  691.640
1144.729;    2.510;  -14.560;  607.420
1145.267;    2.177;  -11.830;  584.900
1145.806;    2.637;  -12.230;  637.040
1146.345;    1.873;  -14.130;  635.020
1146.884;    2.536;  -11.590;  622.500
1147.422;    1.214;  -12.550;  533.060
1147.961;    3.197;  -11.180;  708.460
1148.500;    3.136;  -11.510;  669.720
1149.038;    2.936;  -11.640;  632.500
1149.577;    2.766;  -10.130;  698.640
1150.115;    0.345;  -13.970;  452.280
1150.653;    2.572;  -14.520;  607.340
1151.192;    1.315;  -12.810;  552.920
1151.730;    1.658;   -9.100;  652.560
1152.268;    0.465;  -12.220;  589.520
1152.806;    1.896;  -14.140;  571.180
1153.344;    0.244;  -12.350;  577.640
1153.882;    1.053;   -8.980;  600.060
1154.421;   -0.724;  -15.190;  470.620
1154.958;    0.934;  -15.210;  595.240
1155.496;    2.517;  -12.850;  645.280
1156.034;    1.591;   -9.940;  721.880
1156.572;    1.549;  -13.570;  667.060
1157.110;    1.091;  -14.590;  473.940
1157.647;    1.928;  -13.030;  676.960
1158.185;   -0.087;  -12.140;  564.320
1158.723;   -0.529;  -14.390;  509.200
1159.260;    1.629;  -14.090;  701.700
1159.798;    1.234;  -11.920;  658.160
1160.335;    0.396;  -11.110;  631.820

