
Integration time [ms]:   3.882
Averaging Nr. [scans]: 1000
Smoothing Nr. [pixels]: 0
Data measured with spectrometer [name]: 7414430SP
Wave   ;Sample   ;Dark     ;Reference
[nm]   ;[counts] ;[counts] ;[counts] 

288.544;  139.925;    7.153;  793.890
289.143;  142.463;    8.402;  681.602
289.742;  144.885;    7.062;  828.814
290.341;  131.921;    0.191;  789.841
290.940;  122.046;    0.321;  730.702
291.538;  123.003;    3.811;  881.108
292.137;  121.044;   -3.438;  792.581
292.736;  124.634;   -2.809;  975.101
293.335;  120.603;   -5.239;  735.086
293.934;  121.924;   -4.939;  781.677
294.532;  121.926;   -2.199; 1031.958
295.131;  109.200;   -6.831;  834.394
295.730;  107.315;   -6.620;  809.588
296.328;  105.430;   -6.471;  783.442
296.927;  105.550;   -6.571;  779.652
297.525;  106.513;   -7.391;  781.236
298.124;   98.382;   -9.402;  654.009
298.722;  101.758;   -5.781;  761.933
299.321;   99.995;   -6.351;  708.597
299.919;   98.241;   -8.661;  751.918
300.518;   94.255;  -11.922;  689.338
301.116;   95.202;   -6.941;  691.381
301.715;   95.490;   -5.471;  730.222
302.313;   95.331;   -8.361;  704.943
302.911;   90.965;   -9.082;  733.830
303.509;   95.758;   -4.571;  925.627
304.108;   93.422;   -7.111;  760.383
304.706;   93.121;   -7.681;  801.664
305.304;   87.553;   -9.162;  796.707
305.902;   92.955;   -6.761;  784.484
306.500;   88.404;   -6.921;  728.200
307.098;   86.649;   -6.491;  746.560
307.696;   85.061;   -6.941;  780.432
308.294;   84.713;   -6.301;  731.359
308.892;   87.772;   -4.771;  759.769
309.490;   82.802;   -5.141;  712.161
310.088;   81.090;   -2.912;  788.444
310.686;   86.939;   -0.421;  821.749
311.284;   82.079;   -3.461;  766.040
311.882;   79.455;   -6.282;  731.225
312.480;   76.816;   -3.632;  697.167
313.078;   79.146;   -2.112;  808.331
313.675;   78.773;   -1.931;  691.600
314.273;   75.038;   -1.442;  797.837
314.871;   73.961;   -3.002;  589.829
315.468;   72.064;   -2.252;  652.090
316.066;   75.267;   -1.091;  694.427
316.664;   67.878;   -4.512;  656.351
317.261;   72.805;   -0.062;  910.128
317.859;   67.887;   -0.952;  768.735
318.456;   68.575;    0.719;  830.096
319.054;   64.961;   -4.002;  787.828
319.651;   63.874;   -4.972;  759.928
320.249;   62.507;   -1.162;  810.188
320.846;   60.313;   -2.651;  714.286
321.443;   58.506;   -3.832;  832.135
322.041;   56.171;   -4.312;  812.315
322.638;   53.005;   -3.872;  701.456
323.235;   55.053;   -4.361;  665.683
323.833;   52.587;   -4.821;  740.354
324.430;   48.073;   -6.971;  615.900
325.027;   48.964;   -4.361;  876.855
325.624;   49.028;   -5.581;  644.532
326.221;   46.302;   -6.601;  689.717
326.818;   46.498;   -7.301;  818.332
327.415;   48.022;   -6.180;  748.828
328.012;   48.111;   -5.920;  690.585
328.609;   45.956;   -8.390;  731.389
329.206;   44.134;   -6.121;  778.621
329.803;   44.083;   -5.241;  737.841
330.400;   46.545;   -7.420;  704.260
330.997;   47.154;   -5.931;  817.147
331.594;   44.870;   -5.641;  788.185
332.191;   49.799;   -6.451;  728.722
332.787;   53.578;   -4.651;  844.463
333.384;   51.107;   -5.472;  763.093
333.981;   49.682;   -6.303;  815.687
334.578;   52.223;   -5.892;  708.378
335.174;   54.016;   -4.102;  731.469
335.771;   53.585;   -8.053;  836.456
336.367;   50.352;   -7.363;  710.631
336.964;   54.983;   -6.243;  793.266
337.561;   53.341;   -5.653;  731.112
338.157;   49.072;   -7.074;  911.916
338.754;   46.421;   -5.474;  796.589
339.350;   45.111;   -5.624;  722.493
339.946;   47.128;   -5.054;  773.135
340.543;   40.670;   -6.695;  846.136
341.139;   34.413;   -6.215;  720.836
341.735;   32.132;   -5.746;  772.593
342.332;   30.781;   -7.335;  691.472
342.928;   31.974;   -4.835;  795.394
343.524;   26.788;   -4.586;  761.684
344.120;   22.814;   -3.946;  738.562
344.716;   26.008;   -4.835;  723.717
345.313;   24.344;   -5.325;  795.342
345.909;   19.561;   -6.535;  627.336
346.505;   21.345;   -4.725;  740.247
347.101;   21.538;   -4.164;  827.864
347.697;   22.628;   -5.274;  785.398
348.293;   15.922;   -7.145;  627.244
348.889;   17.362;   -4.364;  745.914
349.485;   15.852;   -6.404;  688.205
350.081;   17.779;   -7.534;  772.592
350.676;   12.609;   -6.995;  691.606
351.272;   17.130;   -3.544;  809.530
351.868;   17.055;   -5.324;  780.497
352.464;   14.437;   -7.204;  723.932
353.059;   10.697;   -6.894;  646.017
353.655;   14.664;   -3.754;  777.063
354.251;   15.152;   -6.143;  759.845
354.846;    9.799;   -9.464;  740.646
355.442;    7.480;   -7.555;  753.071
356.038;    9.199;   -5.474;  751.708
356.633;    9.139;   -5.914;  728.594
357.229;    7.358;   -8.944;  724.757
357.824;    6.179;   -6.794;  703.600
358.420;    4.250;   -5.754;  679.726
359.015;    5.555;   -5.664;  695.357
359.610;    6.435;   -8.004;  763.920
360.206;    0.616;   -8.815;  603.240
360.801;    3.889;   -8.834;  646.503
361.396;    6.487;   -6.274;  725.975
361.992;    1.409;   -8.574;  668.220
362.587;   -1.293;   -9.265;  670.160
363.182;    0.601;   -5.484;  689.631
363.777;    1.828;   -5.164;  738.242
364.372;    1.594;   -6.954;  737.314
364.967;   -2.807;   -7.065;  680.744
365.563;    1.713;   -5.684;  815.567
366.158;   -1.348;   -6.484;  685.161
366.753;   -0.309;   -8.004;  649.263
367.348;   -1.577;  -10.114;  746.056
367.942;   -2.389;   -7.764;  697.298
368.537;   -2.597;   -4.554;  754.245
369.132;   -2.877;   -7.664;  703.428
369.727;   -6.880;   -8.905;  638.079
370.322;   -5.861;   -4.945;  580.186
370.917;   -5.534;   -7.095;  710.646
371.511;   -1.518;   -6.574;  861.834
372.106;   -6.422;   -6.515;  776.964
372.701;   -9.790;   -8.225;  585.988
373.296;   -3.604;   -4.494;  863.135
373.890;   -8.858;   -7.965;  647.840
374.485;  -10.895;   -9.745;  691.199
375.079;   -6.785;   -5.554;  738.685
375.674;   -4.992;   -4.724;  812.970
376.268;   -9.092;   -8.365;  691.759
376.863;  -14.988;   -8.126;  580.327
377.457;   -9.096;   -6.045;  662.490
378.052;  -10.735;   -6.835;  764.884
378.646;  -11.549;   -9.375;  741.167
379.240;  -12.209;   -6.185;  721.176
379.835;  -11.298;   -6.135;  636.978
380.429;  -12.878;   -8.365;  562.557
381.023;  -12.276;   -7.935;  779.205
381.617;  -15.612;   -8.325;  680.106
382.212;  -12.672;   -7.405;  685.303
382.806;  -10.436;   -4.155;  760.690
383.400;  -15.377;   -8.945;  672.281
383.994;  -14.878;   -8.365;  664.870
384.588;  -11.783;   -7.824;  697.701
385.182;  -11.000;   -7.984;  726.624
385.776;  -12.456;  -10.404;  706.875
386.370;  -15.568;   -7.335;  681.968
386.964;  -14.146;   -7.485;  684.155
387.558;  -12.336;   -8.174;  598.360
388.152;  -15.863;  -10.415;  681.959
388.745;  -13.994;   -9.595;  814.707
389.339;  -12.734;   -6.454;  747.642
389.933;  -11.352;   -5.804;  695.370
390.527;  -12.318;   -6.854;  859.029
391.120;  -18.662;   -7.665;  595.318
391.714;  -16.416;   -7.245;  711.633
392.308;  -12.681;   -4.514;  780.253
392.901;  -15.698;   -7.935;  642.460
393.495;  -18.525;   -8.585;  595.414
394.089;  -15.701;   -5.245;  760.452
394.682;  -16.667;   -6.305;  697.188
395.275;  -17.375;   -9.335;  719.927
395.869;  -18.793;   -7.375;  667.314
396.462;  -17.173;   -7.055;  616.609
397.056;  -13.026;   -5.434;  776.621
397.649;  -16.967;   -9.525;  731.575
398.242;  -14.798;   -7.574;  712.645
398.836;  -13.170;   -5.134;  766.408
399.429;  -15.515;   -6.544;  631.041
400.022;  -18.535;   -9.215;  665.902
400.615;  -15.737;   -8.105;  805.609
401.208;  -14.801;   -7.614;  691.451
401.802;  -16.343;   -8.085;  699.329
402.395;  -17.727;   -9.575;  683.502
402.988;  -19.038;   -9.285;  696.627
403.581;  -15.651;   -7.514;  646.878
404.174;  -13.371;   -6.404;  686.568
404.767;  -15.868;   -8.775;  638.583
405.360;  -18.484;   -7.415;  621.445
405.953;  -12.781;   -5.624;  759.034
406.545;  -11.916;   -6.474;  725.342
407.138;  -17.015;   -8.445;  618.350
407.731;  -15.309;  -10.044;  613.303
408.324;  -12.243;   -8.484;  660.554
408.917;  -12.141;   -7.624;  681.864
409.509;  -14.592;   -8.304;  740.396
410.102;  -16.776;   -8.495;  643.948
410.695;   -9.654;   -7.824;  665.758
411.287;  -11.561;   -7.754;  599.821
411.880;  -12.625;   -9.294;  585.421
412.472;  -15.415;   -8.814;  613.092
413.065;  -12.538;   -6.674;  629.408
413.657;  -10.338;   -9.664;  576.678
414.250;  -10.149;  -10.264;  646.681
414.842;  -12.297;   -8.664;  676.353
415.434;  -10.051;   -8.584;  570.463
416.027;   -5.907;   -9.423;  652.196
416.619;   -7.690;  -10.764;  713.400
417.211;   -9.202;   -7.404;  599.352
417.804;   -4.661;   -7.383;  628.499
418.396;   -8.439;   -8.334;  607.643
418.988;   -5.855;   -9.633;  659.238
419.580;   -9.595;  -10.554;  568.276
420.172;   -8.050;   -8.683;  536.196
420.764;   -3.281;   -9.713;  672.482
421.356;   -4.631;  -11.303;  636.898
421.948;   -5.091;   -8.453;  677.661
422.540;   -0.510;   -5.793;  680.027
423.132;   -1.147;   -7.162;  600.641
423.724;   -5.175;   -7.933;  561.267
424.316;   -2.637;   -9.083;  621.345
424.908;    0.924;   -8.392;  591.517
425.500;    1.553;   -8.062;  647.978
426.092;    1.568;   -9.692;  648.268
426.683;    1.670;   -8.223;  684.836
427.275;    3.483;   -8.602;  641.471
427.867;    4.477;   -8.382;  668.948
428.458;    5.869;  -10.472;  732.344
429.050;    4.094;   -9.112;  680.749
429.642;    6.555;   -7.752;  743.124
430.233;    6.434;   -8.832;  569.356
430.825;    8.278;   -8.292;  724.809
431.416;    5.198;   -7.522;  698.241
432.008;    8.655;   -9.262;  651.723
432.599;   10.121;   -6.441;  656.073
433.190;    6.727;   -9.222;  637.670
433.782;    6.745;  -11.832;  590.395
434.373;   14.200;   -7.121;  884.765
434.964;   11.633;   -9.141;  602.920
435.556;    9.827;   -9.332;  634.537
436.147;   12.838;   -8.892;  758.490
436.738;   12.384;   -8.151;  701.099
437.329;   18.198;   -8.281;  721.723
437.920;   10.532;   -9.062;  666.688
438.511;   10.240;  -11.182;  564.526
439.103;   16.902;   -7.461;  623.998
439.694;   19.162;   -8.541;  681.583
440.285;   19.439;   -7.351;  764.432
440.876;   18.289;   -8.201;  845.738
441.466;   17.427;  -10.381;  575.162
442.057;   22.736;   -7.620;  665.814
442.648;   21.452;   -8.461;  746.255
443.239;   19.229;   -8.991;  620.477
443.830;   24.105;   -7.910;  704.958
444.421;   26.475;   -7.340;  655.474
445.011;   23.138;   -8.981;  693.619
445.602;   23.245;   -9.341;  743.126
446.193;   24.790;  -11.390;  488.117
446.783;   28.825;  -11.240;  640.397
447.374;   24.336;   -8.471;  692.759
447.964;   25.633;   -8.471;  713.770
448.555;   32.827;   -6.590;  822.742
449.145;   29.921;   -8.200;  662.853
449.736;   30.757;  -11.040;  803.179
450.326;   30.605;   -9.640;  713.626
450.917;   34.714;   -9.480;  675.324
451.507;   34.303;   -8.020;  600.661
452.097;   34.996;  -10.210;  746.267
452.688;   36.143;   -7.810;  742.160
453.278;   35.894;   -9.360;  566.840
453.868;   41.326;   -8.669;  793.550
454.458;   38.568;  -10.950;  651.141
455.048;   39.623;  -10.200;  711.783
455.639;   40.200;   -9.369;  567.096
456.229;   42.987;   -7.739;  710.694
456.819;   45.605;   -8.939;  751.158
457.409;   45.457;   -7.169;  773.993
457.999;   48.572;   -7.779;  737.505
458.589;   48.156;   -7.039;  686.606
459.179;   48.069;   -9.019;  717.658
459.769;   46.303;   -8.909;  627.099
460.358;   51.092;   -8.659;  797.262
460.948;   50.348;   -8.209;  689.503
461.538;   52.080;   -9.879;  660.677
462.128;   50.606;   -9.379;  664.934
462.717;   57.343;   -9.158;  710.326
463.307;   60.819;   -8.638;  705.846
463.897;   55.846;   -8.869;  656.942
464.486;   55.501;   -7.409;  837.128
465.076;   59.774;   -9.618;  733.776
465.666;   62.954;   -7.578;  652.900
466.255;   61.162;   -9.369;  785.651
466.845;   59.698;  -10.049;  666.749
467.434;   63.098;   -8.168;  725.873
468.023;   63.928;   -9.188;  658.357
468.613;   61.752;   -9.849;  713.946
469.202;   65.580;  -12.958;  646.507
469.791;   69.342;   -9.488;  737.811
470.381;   72.083;   -6.468;  742.813
470.970;   72.163;  -10.248;  711.099
471.559;   70.797;  -11.428;  733.291
472.148;   74.082;   -9.738;  675.737
472.738;   76.486;   -7.877;  765.466
473.327;   76.392;  -11.868;  637.529
473.916;   76.153;   -8.578;  737.446
474.505;   80.086;  -11.137;  751.703
475.094;   82.651;   -9.407;  806.570
475.683;   82.372;   -9.977;  797.699
476.272;   83.217;  -10.807;  730.632
476.861;   85.780;  -11.017;  706.754
477.449;   92.092;  -10.316;  728.487
478.038;   86.181;  -10.187;  692.513
478.627;   87.385;  -12.458;  714.852
479.216;   94.502;  -10.127;  769.441
479.805;   97.404;   -6.256;  783.375
480.393;   96.661;   -8.737; 1008.945
480.982;   95.266;   -9.087;  874.501
481.571;  101.474;   -7.806;  858.333
482.159;  102.290;  -10.596;  705.386
482.748;  101.142;  -11.507;  821.385
483.336;  106.283;   -8.366;  858.209
483.925;  106.831;   -7.497;  774.373
484.513;  113.231;   -8.326;  758.962
485.102;  109.945;  -10.277;  810.965
485.690;  118.422;   -8.256; 1011.050
486.278;  119.505;   -7.146;  979.329
486.867;  120.286;   -7.986;  809.662
487.455;  121.663;   -9.926;  898.229
488.043;  122.988;  -10.026;  748.361
488.631;  132.652;   -7.226; 1005.079
489.220;  134.861;   -8.696;  908.626
489.808;  134.559;  -12.276;  741.415
490.396;  142.052;   -9.386;  914.645
490.984;  147.006;   -8.506;  830.161
491.572;  156.451;   -8.226;  940.315
492.160;  160.159;   -9.836;  919.081
492.748;  171.184;  -10.316;  884.341
493.336;  188.168;   -7.146; 1019.693
493.924;  208.467;   -7.965;  958.077
494.512;  232.938;  -10.316; 1066.638
495.100;  264.976;  -10.186; 1103.280
495.687;  312.704;   -7.805; 1206.373
496.275;  369.817;   -9.686; 1150.796
496.863;  438.892;  -11.566; 1281.171
497.451;  530.024;  -11.406; 1386.805
498.038;  650.597;   -8.235; 1556.729
498.626;  755.262;   -7.485; 1741.407
499.214;  897.464;   -8.646; 2016.609
499.801; 1120.029;   -9.936; 2220.633
500.389; 1292.871;   -8.056; 2312.494
500.976; 1452.236;   -6.166; 2744.849
501.564; 1634.147;   -9.126; 3148.565
502.151; 1902.133;  -12.456; 3515.999
502.738; 2282.458;  -10.056; 3971.274
503.326; 2685.804;  -10.605; 4403.796
503.913; 3027.479;  -10.576; 5161.749
504.500; 3498.006;   -9.056; 5986.420
505.088; 3966.607;  -10.136; 6381.201
505.675; 4666.315;   -9.075; 6925.547
506.262; 5166.629;  -11.346; 7619.060
506.849; 5846.769;   -9.376; 8733.969
507.436; 6385.563;   -7.365; 9790.121
508.023; 6705.285;   -8.686; 9985.472
508.610; 7057.173;   -8.846;10434.618
509.197; 7976.438;   -9.077;11198.435
509.784; 9171.388;  -10.246;12391.194
510.371; 9478.447;   -9.825;13603.713
510.958;10031.516;  -10.896;14426.586
511.545;10803.146;   -9.006;15243.775
512.132;11664.050;   -8.765;15945.876
512.719;12597.373;   -8.286;16340.369
513.305;14407.223;   -9.256;18011.766
513.892;16427.998;  -11.106;19754.971
514.479;17732.586;   -8.576;20967.805
515.066;18513.410;   -9.046;22299.793
515.652;18312.307;  -10.676;22908.660
516.239;18133.857;  -10.166;23798.875
516.825;17291.977;  -11.266;25567.275
517.412;17767.004;   -7.446;28154.959
517.998;20726.389;  -10.916;28344.111
518.585;21705.369;   -9.166;27134.219
519.171;22017.230;  -10.135;27268.576
519.758;23858.605;   -8.806;28964.129
520.344;26727.201;   -6.716;30664.494
520.930;28222.254;  -10.166;32550.605
521.516;28612.484;   -9.615;35422.895
522.103;30081.291;   -8.656;38280.004
522.689;32533.381;   -9.646;37835.117
523.275;33189.941;  -10.786;37288.613
523.861;34053.668;   -9.266;37281.395
524.447;34089.887;   -8.285;37846.949
525.033;34174.363;   -9.426;38321.949
525.619;33217.082;   -9.836;38579.285
526.205;33708.164;   -8.136;40622.875
526.791;34765.711;   -9.986;42258.836
527.377;36522.488;   -8.236;42966.902
527.963;35458.898;  -12.117;42018.949
528.549;34272.027;   -8.376;42476.828
529.135;35414.363;   -8.696;41854.852
529.721;37009.324;   -9.686;41237.711
530.306;39204.715;   -8.616;41259.445
530.892;42178.016;   -9.396;41506.047
531.478;42590.188;   -9.926;43559.613
532.063;44318.285;  -10.236;47695.563
532.649;46448.414;   -8.257;50808.324
533.235;47786.715;  -11.476;51787.500
533.820;46658.199;   -8.156;52145.035
534.406;44627.090;  -12.257;51133.488
534.991;42742.570;   -8.686;49996.805
535.576;40704.172;   -9.426;48882.852
536.162;40700.891;   -8.436;46942.285
536.747;39338.184;  -10.957;45711.746
537.333;38651.246;  -13.147;48510.180
537.918;41348.945;   -9.027;50439.891
538.503;42797.855;   -8.256;50863.711
539.088;46616.008;  -10.576;50906.922
539.673;48771.742;  -10.907;52621.965
540.259;48699.953;   -9.126;52368.094
540.844;45711.148;   -9.026;50879.109
541.429;46494.016;   -9.597;52077.777
542.014;50194.449;  -11.447;52716.695
542.599;51168.848;   -9.236;52363.281
543.184;49471.176;  -12.267;53187.137
543.769;50776.734;  -10.367;54697.605
544.354;50828.098;  -10.887;53913.914
544.938;44797.746;  -11.687;49680.164
545.523;40029.000;   -8.286;47386.277
546.108;41070.172;   -9.317;49151.949
546.693;43012.477;  -10.187;51384.637
547.278;42282.988;   -9.926;51853.254
547.862;41325.781;   -9.196;51173.750
548.447;39674.371;   -9.657;51691.395
549.031;38284.352;   -9.127;52456.703
549.616;39795.586;  -10.836;52714.516
550.201;40548.824;   -8.507;52414.598
550.785;39866.938;  -10.537;52355.059
551.370;41231.379;  -11.727;54589.453
551.954;45424.434;   -9.457;58267.348
552.538;48334.020;   -8.147;59062.176
553.123;48147.367;   -9.397;58115.285
553.707;46059.617;   -9.558;56556.285
554.291;47234.352;   -9.417;56201.668
554.876;47021.863;   -7.627;55335.762
555.460;44776.660;  -10.457;54155.703
556.044;42762.980;  -10.078;53721.484
556.628;43520.594;   -9.407;53731.016
557.212;43655.242;   -7.957;54312.531
557.796;43348.211;  -11.327;53797.773
558.380;47672.789;  -10.868;56145.984
558.964;48740.625;   -9.637;57277.930
559.548;47012.320;   -8.807;56459.641
560.132;47906.227;  -10.187;54434.543
560.716;47335.809;   -9.868;54800.617
561.300;47861.113;  -10.217;57606.945
561.884;48056.070;   -4.947;58972.445
562.467;47415.348;   -9.588;57327.570
563.051;45991.164;  -11.138;54962.434
563.635;43909.270;   -9.358;52594.473
564.219;43683.340;   -9.797;50610.410
564.802;44233.047;   -9.918;49551.180
565.386;41876.090;  -10.838;48370.953
565.969;41134.617;   -8.037;48178.871
566.553;40889.156;   -5.667;49957.305
567.136;39264.449;   -8.258;50369.594
567.720;38628.320;  -11.278;49492.004
568.303;41556.215;   -9.028;50616.352
568.887;41228.508;   -7.508;50727.148
569.470;39959.840;  -11.068;51698.379
570.053;39981.563;  -10.028;52122.078
570.637;38483.449;  -11.077;52536.438
571.220;37977.031;   -8.747;51186.098
571.803;39443.094;   -8.868;51032.762
572.386;41567.945;  -10.608;49609.887
572.969;41527.590;  -10.548;48285.926
573.552;39448.246;   -7.898;47624.285
574.135;40328.129;   -9.918;45498.641
574.718;36527.160;  -10.328;41970.434
575.301;33780.863;   -9.548;41447.137
575.884;31034.564;   -8.768;40923.836
576.467;34145.695;   -9.858;45267.723
577.050;34165.102;  -11.018;48175.543
577.633;34985.168;  -10.048;47729.328
578.216;34444.117;  -10.268;47579.793
578.799;31757.688;  -11.808;47820.996
579.381;31863.107;   -7.338;48115.551
579.964;34804.887;   -9.728;47333.766
580.547;36121.184;   -8.928;46668.969
581.129;37412.027;   -9.149;44466.141
581.712;37782.281;  -11.359;44164.922
582.294;35442.258;  -10.738;46477.855
582.877;33859.145;   -8.788;48244.254
583.459;34051.516;   -9.859;47437.895
584.042;36498.027;   -9.649;46943.219
584.624;36253.387;  -10.529;46792.227
585.206;34573.328;  -10.298;46557.250
585.789;34133.508;  -11.029;45793.773
586.371;32157.141;   -9.359;43836.391
586.953;31467.535;   -8.799;42972.492
587.536;31235.432;   -8.928;42487.211
588.118;31095.072;   -9.180;42086.414
588.700;30732.559;  -10.519;43389.930
589.282;29905.664;   -8.098;43646.039
589.864;30211.738;   -8.139;43438.109
590.446;31837.258;  -10.509;43151.926
591.028;32041.055;  -11.119;42781.867
591.610;33775.152;  -10.019;42839.098
592.192;34013.238;   -8.838;42820.402
592.774;30715.719;  -11.549;40724.277
593.356;27611.660;  -11.609;39874.789
593.937;26867.479;  -10.019;39980.648
594.519;29364.051;   -7.839;42069.633
595.101;31875.246;  -10.779;42976.031
595.683;33080.641;  -10.049;44084.441
596.264;32874.809;   -9.969;43478.797
596.846;32311.943;   -9.699;43803.672
597.427;31197.488;  -10.970;42986.934
598.009;30658.117;  -13.090;42832.219
598.591;30182.217;   -9.509;42580.086
599.172;30681.891;   -9.019;43061.805
599.753;31446.221;  -13.310;41691.469
600.335;32222.053;  -11.010;40692.520
600.916;31569.383;  -10.309;39982.422
601.498;30392.529;   -8.209;40318.617
602.079;30001.049;  -11.440;40670.609
602.660;31602.703;   -8.690;41450.898
603.241;32822.750;  -12.759;41137.738
603.823;31371.111;  -10.409;38868.797
604.404;30802.527;  -11.790;38182.785
604.985;32945.320;  -10.280;38078.047
605.566;34495.602;   -8.059;38056.633
606.147;31602.484;   -8.960;37020.418
606.728;29049.193;  -10.710;37883.359
607.309;28457.023;  -12.760;38748.273
607.890;27126.518;   -9.959;38850.230
608.471;27291.889;   -9.780;37457.918
609.051;28901.221;   -8.940;36066.457
609.632;29729.625;  -12.070;35991.074
610.213;29853.920;   -9.610;37402.641
610.794;30297.639;   -8.750;38383.363
611.374;30809.352;  -11.100;40562.387
611.955;31280.951;  -12.200;38533.727
612.536;31406.238;  -10.410;36951.789
613.116;30483.760;  -10.010;37197.891
613.697;28943.830;  -10.480;38411.125
614.277;29000.879;  -12.751;38673.938
614.858;28174.402;  -11.600;37075.863
615.438;27921.000;   -8.190;35092.906
616.019;26522.127;   -8.941;33666.301
616.599;28469.588;  -13.540;34189.023
617.179;31545.762;  -10.890;36952.047
617.760;30883.920;   -7.610;39582.574
618.340;28738.934;  -14.441;38943.977
618.920;28210.828;   -9.180;37594.156
619.500;30365.600;  -11.881;37866.938
620.080;32075.596;   -9.870;37869.043
620.660;30761.617;  -13.211;36868.617
621.241;29501.439;  -11.921;36352.309
621.821;29190.133;  -10.271;35459.520
622.401;30405.189;   -8.200;35207.414
622.980;31780.324;  -11.141;35980.422
623.560;30841.326;  -14.321;37351.328
624.140;29359.850;   -9.360;34388.582
624.720;25606.594;   -7.481;32368.764
625.300;23225.631;  -12.730;32638.629
625.880;26929.592;  -11.441;34599.035
626.459;30274.207;  -10.971;36831.738
627.039;34028.758;   -9.011;38299.098
627.619;34657.152;   -8.521;38289.574
628.198;32698.154;   -9.861;37220.695
628.778;31484.291;   -8.841;37632.563
629.357;31767.383;   -9.891;38003.012
629.937;32222.604;  -11.871;38402.039
630.516;31794.914;  -10.641;37868.801
631.096;33559.488;  -11.391;35760.410
631.675;35096.430;   -6.622;35225.219
632.254;32022.371;  -13.002;35130.289
632.834;30773.848;  -11.622;35794.570
633.413;31701.938;   -8.321;35788.922
633.992;29925.391;   -7.732;34532.863
634.571;29815.707;  -10.992;33590.113
635.151;29328.740;  -10.422;34943.863
635.730;30605.176;  -11.511;35352.523
636.309;31162.059;   -7.901;35366.605
636.888;30179.953;  -11.452;36165.637
637.467;28991.600;  -10.672;37515.902
638.046;29371.740;   -9.301;39288.695
638.625;30738.236;  -11.452;38279.699
639.204;31458.600;  -12.262;37741.598
639.782;31704.750;  -11.892;38364.551
640.361;30521.889;  -11.411;36740.621
640.940;25648.146;  -11.501;34950.082
641.519;27750.744;  -10.921;34137.398
642.097;31483.518;  -10.101;35654.258
642.676;30274.740;  -10.821;35637.957
643.255;31358.277;   -8.631;36567.074
643.833;33754.465;  -11.411;37809.434
644.412;36500.801;  -12.021;37337.293
644.990;36894.402;  -12.271;37018.531
645.569;35763.945;   -9.741;36518.469
646.147;33231.230;   -9.051;36186.430
646.726;33074.348;  -13.861;36267.688
647.304;33414.715;   -9.461;36647.625
647.882;33108.121;  -13.171;39286.742
648.461;33589.473;  -11.911;39157.703
649.039;32211.283;   -9.541;35412.883
649.617;31250.660;   -8.901;34744.918
650.195;29217.412;   -8.591;35403.098
650.773;28590.430;  -13.031;35053.797
651.352;27652.381;  -12.211;33756.816
651.930;25562.189;  -11.361;31868.773
652.508;22523.111;   -8.601;33121.551
653.086;25070.424;   -9.991;33564.793
653.663;29531.203;  -11.931;34054.668
654.241;31772.576;  -10.821;35693.309
654.819;33294.023;   -9.341;36422.906
655.397;31020.975;  -10.851;38213.484
655.975;29664.035;  -11.461;39507.625
656.553;29767.574;   -8.841;39498.223
657.130;29269.857;  -10.371;40395.480
657.708;29887.975;  -11.071;39242.020
658.286;29436.445;  -11.141;38920.020
658.863;30316.443;  -10.861;40202.898
659.441;34454.668;  -11.181;39677.938
660.018;34729.254;  -10.851;40413.355
660.596;34406.953;  -12.571;39931.414
661.173;34786.395;  -12.141;39604.531
661.750;34731.086;  -11.571;39700.070
662.328;32131.457;  -10.780;39292.809
662.905;29548.186;  -10.750;38235.648
663.482;26357.266;  -11.320;36212.305
664.060;25641.303;  -10.160;35944.945
664.637;30421.008;  -13.120;35170.785
665.214;32582.006;  -11.500;34197.523
665.791;30777.482;  -12.430;34549.520
666.368;28428.248;   -9.840;35118.578
666.945;27691.561;  -11.290;36019.418
667.522;28389.662;  -13.540;36048.438
668.099;28950.244;  -10.250;36243.914
668.676;28134.613;  -11.270;35958.875
669.253;27103.313;   -8.210;37384.730
669.830;26333.902;   -9.710;36779.629
670.407;25695.121;   -9.700;35231.289
670.984;26278.434;   -9.190;35544.270
671.560;25662.297;   -9.560;35466.867
672.137;25353.580;  -11.820;34280.863
672.714;28014.893;  -12.460;34632.863
673.290;32482.900;  -10.940;35135.422
673.867;33266.871;  -10.510;36114.480
674.443;29792.525;  -12.110;36152.859
675.020;30938.490;  -11.760;35327.238
675.596;31790.119;   -9.380;35795.176
676.173;30325.273;  -11.120;35430.355
676.749;29310.496;  -13.390;33549.516
677.326;28715.646;  -12.600;32210.012
677.902;27708.479;  -10.830;32068.871
678.478;27790.057;  -12.400;32583.891
679.054;29842.109;   -8.610;32088.928
679.631;29977.547;  -11.640;30978.848
680.207;29782.785;   -8.140;33160.887
680.783;30721.986;  -12.300;35570.363
681.359;29652.840;  -10.910;36125.184
681.935;29868.152;  -11.040;35240.922
682.511;30796.480;  -11.130;34429.961
683.087;31158.471;  -11.080;34463.680
683.663;33364.129;  -10.530;34648.898
684.239;33004.598;  -12.120;34546.457
684.815;30421.420;   -8.870;35586.375
685.390;29569.080;   -8.940;35821.895
685.966;29530.283;  -12.109;35085.871
686.542;28480.879;  -13.539;34198.230
687.118;28415.318;  -10.379;32847.707
687.693;28763.240;  -10.189;32794.027
688.269;27566.729;  -12.939;33072.367
688.844;26432.820;   -8.679;33141.664
689.420;27274.775;  -10.919;33965.742
689.995;27600.117;   -7.489;34655.523
690.571;26957.332;  -12.199;33576.742
691.146;26847.984;   -8.979;32657.219
691.722;28133.650;   -9.119;32526.979
692.297;26782.182;  -10.519;33014.617
692.872;26597.855;  -10.629;34012.254
693.448;27329.586;  -12.119;34237.434
694.023;28026.982;   -8.219;34142.672
694.598;26094.402;  -13.209;34132.031
695.173;25111.145;  -11.879;34205.250
695.748;25937.785;  -12.039;32882.488
696.323;25456.305;  -11.779;32864.906
696.898;25914.813;  -10.219;33170.004
697.473;26651.574;  -13.639;32432.984
698.048;27101.203;  -11.239;31649.303
698.623;29556.234;  -10.859;30778.141
699.198;31819.672;  -13.379;31140.119
699.773;32650.463;  -13.409;31764.299
700.348;33029.586;  -12.329;31780.816
700.922;33562.223;   -8.749;32046.375
701.497;33846.414;  -12.449;32603.574
702.072;32838.910;   -8.879;34799.871
702.646;30668.191;  -10.719;35793.172
703.221;29104.973;   -8.469;35201.590
703.795;28897.203;  -11.389;34764.527
704.370;28992.596;  -12.499;34307.367
704.944;28848.674;  -11.449;33509.887
705.519;28041.238;  -10.659;31388.584
706.093;27333.947;  -12.909;31340.104
706.668;27365.980;  -13.509;32630.281
707.242;26549.820;  -10.049;32728.779
707.816;24706.178;  -10.629;32947.238
708.390;24328.371;  -11.829;33277.855
708.965;24688.189;  -11.159;33834.336
709.539;25601.170;  -11.069;33709.273
710.113;25092.541;  -10.908;33044.313
710.687;23727.406;   -9.488;31953.992
711.261;23766.576;  -13.068;30505.949
711.835;26468.422;  -12.748;30262.369
712.409;27539.844;  -10.678;31254.447
712.983;26739.336;  -11.658;32754.986
713.557;27487.791;  -13.718;34018.824
714.131;28158.693;  -13.388;34579.625
714.704;28159.506;   -9.818;33890.262
715.278;28544.008;  -11.818;33531.102
715.852;29488.936;  -11.328;33601.660
716.425;29750.047;   -9.118;33515.117
716.999;29873.742;  -10.188;33185.555
717.573;30288.213;   -9.808;33905.996
718.146;33063.188;  -11.478;35199.293
718.720;33279.750;  -10.998;35060.551
719.293;31232.369;   -9.508;34973.230
719.867;30416.225;  -12.138;36394.449
720.440;29103.561;  -11.288;36663.008
721.013;31425.781;  -11.428;35102.426
721.587;32316.623;  -11.698;33985.266
722.160;33000.953;  -11.608;33524.965
722.733;32142.406;  -11.428;32987.043
723.306;31511.357;  -12.518;33066.301
723.880;31869.756;   -7.408;33399.500
724.453;30882.031;  -11.048;33468.297
725.026;29432.531;  -11.678;33816.637
725.599;28031.178;  -10.978;32797.996
726.172;27209.842;   -8.838;33187.434
726.745;28006.166;  -11.438;35136.613
727.318;28442.828;   -9.828;35751.730
727.891;26748.748;  -10.868;35890.430
728.463;25022.318;  -11.348;34822.090
729.036;23842.219;  -11.608;32895.086
729.609;24065.502;  -14.738;31823.225
730.182;25096.125;   -8.448;31445.283
730.754;26197.793;  -11.228;32373.223
731.327;26285.088;  -12.018;33676.820
731.900;27921.713;  -13.748;33417.000
732.472;27976.227;  -10.928;31978.498
733.045;26664.723;   -9.478;30368.777
733.617;25260.518;  -12.967;30574.215
734.190;24319.199;  -11.707;31280.975
734.762;23029.406;  -11.067;31674.412
735.334;22464.695;  -10.587;31247.291
735.907;21876.082;  -11.947;29876.211
736.479;22482.941;  -11.667;29808.488
737.051;24944.994;  -10.187;30233.547
737.623;27202.557;   -6.887;31469.086
738.195;29823.828;  -12.117;31784.225
738.768;31670.949;  -14.077;32120.523
739.340;31318.160;  -12.207;32094.342
739.912;28318.434;   -8.977;31312.680
740.484;26206.223;  -11.017;31946.238
741.056;26826.111;  -13.517;32984.059
741.628;28869.318;  -11.507;33897.715
742.199;29242.502;   -7.597;33213.016
742.771;29877.209;  -12.227;31369.113
743.343;29510.488;  -12.427;31865.473
743.915;28126.463;   -9.827;32388.631
744.487;27144.818;  -10.007;31079.568
745.058;25466.178;  -11.887;30570.107
745.630;24557.141;  -10.787;29970.127
746.201;23747.922;  -10.887;29186.766
746.773;23391.494;   -9.707;28805.723
747.344;24140.303;  -11.137;29591.223
747.916;24489.389;  -11.887;31412.201
748.487;23992.574;   -9.707;32194.898
749.059;23452.959;  -10.027;32533.719
749.630;23275.211;  -11.787;32158.518
750.201;22155.543;  -12.767;30855.395
750.773;21718.658;  -11.497;28622.555
751.344;22510.742;   -9.937;28405.732
751.915;23022.082;  -11.567;28461.551
752.486;22482.746;  -13.267;27842.850
753.057;20442.984;  -10.627;27845.008
753.628;18962.051;  -11.657;27728.107
754.199;21192.584;  -12.097;27381.086
754.770;22917.555;  -11.447;25882.203
755.341;22900.949;  -11.997;25886.184
755.912;20649.957;  -10.207;26050.861
756.483;18882.057;  -10.937;26798.779
757.054;18711.396;  -11.527;27048.238
757.625;19033.848;  -12.886;26294.838
758.195;19524.545;  -11.226;26142.076
758.766;19635.014;  -12.366;26392.234
759.337;18518.943;  -11.946;26334.594
759.907;18622.203;  -13.856;27579.652
760.478;19501.064;   -9.606;28352.770
761.048;19186.096;  -11.606;27325.088
761.619;19138.666;  -11.036;26460.428
762.189;18700.855;  -12.206;26029.826
762.760;20140.113;   -9.666;26430.145
763.330;21140.740;   -9.796;26670.902
763.900;19263.719;  -10.896;26603.021
764.471;17649.063;  -11.726;25542.740
765.041;18102.545;   -9.656;24358.459
765.611;19038.445;  -11.276;23991.297
766.181;18823.070;  -12.116;24470.236
766.751;18281.027;  -12.376;24845.975
767.321;18223.822;  -11.626;24533.633
767.891;18459.393;  -10.426;24916.492
768.461;17458.541;  -13.456;24776.771
769.031;15423.052;  -11.616;24757.988
769.601;15148.566;  -11.356;24181.088
770.171;15421.789;  -11.586;23670.387
770.741;15870.675;  -12.696;22960.045
771.311;15885.205;  -10.226;22917.523
771.880;15614.611;  -11.146;23562.941
772.450;16482.488;  -11.716;24216.500
773.020;16924.213;  -13.226;24140.398
773.589;16608.414;  -12.586;24414.857
774.159;16322.063;  -10.246;23858.717
774.729;15769.929;  -11.586;22942.135
775.298;14811.417;  -15.926;22324.033
775.867;14761.464;  -10.426;21140.313
776.437;14705.851;  -11.416;20838.092
777.006;13420.282;  -12.766;20599.510
777.576;13347.813;  -13.666;20508.809
778.145;13708.456;  -10.066;20732.947
778.714;13375.891;  -10.276;21062.465
779.283;13686.940;  -12.086;20949.664
779.853;15017.757;  -14.016;20508.623
780.422;15531.013;  -12.376;20649.082
780.991;14435.684;   -9.246;21527.520
781.560;13455.085;   -9.775;22632.658
782.129;13284.637;  -12.495;23048.277
782.698;13047.165;  -11.775;23438.555
783.267;13365.531;  -10.065;23267.734
783.836;14040.904;  -12.455;22415.133
784.404;14836.505;  -13.385;20443.152
784.973;15598.922;  -11.045;19699.150
785.542;15077.646;   -9.505;19763.828
786.111;14086.535;   -9.385;20341.408
786.679;13999.228;  -13.475;20207.967
787.248;14027.435;  -11.245;19516.465
787.817;12074.146;  -12.485;18900.363
788.385;10308.676;  -11.165;17879.121
788.954;11023.945;  -11.755;17658.301
789.522;11999.425;   -9.625;17788.879
790.090;11689.693;   -9.665;18118.277
790.659;11186.159;   -9.295;18338.736
791.227;12135.630;  -12.175;18508.615
791.795;13617.712;  -12.145;17898.254
792.364;13510.888;  -11.575;17295.133
792.932;12187.918;  -11.085;16822.051
793.500;11035.675;  -11.345;17040.148
794.068;10800.140;  -12.565;17179.787
794.636;11682.548;  -12.105;16664.246
795.204;12193.877;  -11.995;16524.545
795.772;11676.471;  -12.615;17274.564
796.340;11307.512;  -12.425;17891.002
796.908;11108.168;  -11.455;17648.561
797.476;10594.661;  -12.165;17064.080
798.044;10292.998;  -15.795;16672.777
798.612;10373.917;  -10.985;17023.996
799.180;11002.903;  -12.055;16561.615
799.747;11378.646;  -12.525;15962.773
800.315;10261.146;  -14.765;15296.992
800.883; 8990.999;  -12.435;14801.771
801.450; 8804.406;  -11.295;14534.430
802.018; 9260.191;  -11.185;14173.248
802.585; 9261.429;  -11.625;14029.547
803.153; 8304.866;  -10.665;13836.846
803.720; 7912.328;  -10.275;13567.324
804.287; 7829.195;  -12.865;13360.622
804.855; 8067.291;  -12.324;13681.981
805.422; 8377.712;  -11.574;13536.560
805.989; 8214.433;  -11.004;13355.958
806.556; 8448.296;  -12.214;13747.896
807.124; 8876.815;  -13.304;13987.376
807.691; 8607.834;  -12.034;14038.674
808.258; 7891.672;  -11.014;14120.152
808.825; 7758.771;  -11.804;13860.111
809.392; 7688.397;  -11.544;13268.790
809.959; 7543.625;  -14.954;12680.389
810.526; 7937.210;  -10.214;12427.308
811.093; 8480.690;  -10.754;12030.105
811.659; 8105.818;  -12.194;11653.664
812.226; 6905.090;   -9.194;11637.183
812.793; 6548.441;   -9.644;11611.521
813.360; 7355.078;  -11.544;11885.181
813.926; 8219.374;  -12.814;12770.539
814.493; 8214.901;  -11.524;12677.638
815.060; 7904.477;  -12.254;11974.336
815.626; 7462.673;  -12.114;11594.715
816.193; 7095.534;  -11.994;11579.474
816.759; 6969.357;  -11.464;11666.972
817.325; 6659.827;  -10.444;11325.530
817.892; 6314.702;  -11.124;11105.369
818.458; 6152.338;  -11.864;10843.928
819.024; 6391.802;  -10.634;10714.406
819.591; 6489.415;  -10.554;10469.165
820.157; 6765.068;  -13.334;10235.523
820.723; 7076.521;  -13.044;10847.563
821.289; 7221.572;   -9.664;11040.980
821.855; 7418.623;  -10.994;10357.100
822.421; 7427.654;  -11.784; 9978.918
822.987; 7362.807;  -12.554; 9754.177
823.553; 7778.851;  -12.554;10065.755
824.119; 7652.611;   -8.544;10036.294
824.685; 6672.404;  -12.144;10029.192
825.251; 6069.703;  -12.754;10199.230
825.816; 5649.389;  -11.354; 9820.189
826.382; 5429.312;  -11.004; 9297.248
826.948; 5506.374;  -11.004; 9381.347
827.513; 5424.331;  -12.474; 9450.726
828.079; 5378.770;  -13.084; 9472.444
828.645; 5526.856;  -10.813; 9292.643
829.210; 5267.937;  -11.593; 9065.341
829.776; 5166.353;  -12.633; 9132.620
830.341; 5211.958;  -10.473; 9092.878
830.906; 5022.417;   -8.763; 9078.557
831.472; 4740.600;  -13.453; 8534.535
832.037; 4161.196;  -12.173; 8677.874
832.602; 3929.117;  -14.093; 8628.692
833.167; 4171.066;  -13.593; 8879.031
833.733; 4691.624;  -10.793; 9189.790
834.298; 5095.751;  -14.783; 9052.608
834.863; 4744.472;  -11.023; 8895.087
835.428; 4499.111;  -11.113; 8824.266
835.993; 4936.025;   -9.983; 8845.385
836.558; 5163.003;  -13.003; 8888.563
837.123; 4963.866;  -10.733; 8966.582
837.688; 4568.527;   -9.683; 8617.860
838.253; 4402.312;  -12.253; 8590.699
838.817; 4394.397;  -11.643; 8443.797
839.382; 4331.413;  -11.953; 8799.356
839.947; 4433.594;  -11.443; 8810.595
840.511; 4827.543;  -10.843; 8796.394
841.076; 5116.886;  -13.533; 8347.231
841.641; 4935.809;  -11.743; 8224.330
842.205; 4369.842;  -10.013; 8223.349
842.770; 4030.518;  -11.023; 8622.107
843.334; 4119.647;  -14.273; 8410.386
843.898; 4519.163;  -11.323; 8337.465
844.463; 4909.229;  -10.263; 8506.283
845.027; 5073.593;  -10.353; 8280.962
845.591; 5000.980;  -12.163; 8231.141
846.156; 4848.811;  -12.263; 7969.179
846.720; 4816.672;  -11.553; 7768.278
847.284; 4611.875;  -12.393; 7630.957
847.848; 3841.177;  -12.623; 7472.395
848.412; 3233.697;  -11.863; 7437.394
848.976; 3175.980;  -10.203; 7674.592
849.540; 3403.128;  -10.603; 7836.011
850.104; 3638.305;  -12.423; 7913.669
850.668; 3668.581;  -14.613; 7694.508
851.232; 3698.580;  -12.873; 7756.887
851.796; 3946.514;  -14.192; 7926.545
852.359; 4136.075;  -13.652; 7827.844
852.923; 4057.237;  -11.402; 7641.163
853.487; 3744.696;  -12.022; 7342.501
854.050; 3566.844;  -15.202; 7042.820
854.614; 3587.157;  -14.592; 7151.338
855.177; 3554.691;  -12.572; 7105.077
855.741; 3558.859;   -9.932; 6989.675
856.304; 3455.250;  -12.192; 6596.634
856.868; 3283.609;  -13.462; 6356.272
857.431; 3294.288;  -11.542; 6468.571
857.995; 3520.613;  -12.062; 6373.210
858.558; 3564.435;  -11.142; 6324.448
859.121; 3671.969;  -11.742; 6408.327
859.684; 3884.878;  -10.332; 6347.886
860.247; 3824.535;  -11.962; 6321.264
860.810; 3330.500;  -12.332; 6301.903
861.374; 2482.509;  -10.292; 6607.881
861.937; 1830.780;  -12.062; 6408.200
862.500; 1708.286;  -11.702; 6572.639
863.062; 1945.487;  -13.852; 6387.297
863.625; 2219.576;  -12.972; 6190.836
864.188; 2367.176;  -10.292; 5807.254
864.751; 2469.739;  -12.382; 5682.413
865.314; 2431.135;  -13.232; 5547.492
865.876; 2237.679;  -12.772; 5500.150
866.439; 2055.572;  -11.952; 5415.909
867.002; 2135.969;   -9.332; 5501.567
867.564; 2450.270;  -11.712; 5413.946
868.127; 2615.220;  -12.012; 5160.325
868.689; 2343.866;  -11.882; 5133.183
869.252; 2034.510;  -11.572; 5252.382
869.814; 1945.443;  -10.692; 5297.141
870.377; 1994.413;  -12.392; 5390.919
870.939; 2051.419;  -10.582; 5599.898
871.501; 2085.052;  -12.782; 5248.336
872.063; 2115.249;  -15.612; 4854.235
872.626; 2183.055;  -13.922; 4817.074
873.188; 2189.683;  -13.832; 4987.732
873.750; 2147.153;  -10.962; 4868.651
874.312; 2190.505;  -11.022; 4779.330
874.874; 2236.588;  -13.152; 4866.348
875.436; 2175.048;  -13.401; 4718.887
875.998; 2085.244;   -8.891; 4660.005
876.560; 1996.871;  -12.591; 4462.964
877.122; 1926.539;  -14.531; 4145.042
877.683; 1875.199;  -10.781; 4056.481
878.245; 1778.965;  -14.281; 3950.740
878.807; 1726.377;  -10.311; 4058.958
879.369; 1679.393;  -13.201; 3954.677
879.930; 1636.417;  -12.061; 3941.495
880.492; 1628.728;   -9.181; 4067.014
881.053; 1650.858;  -12.051; 3859.633
881.615; 1629.309;  -11.501; 3776.071
882.176; 1545.946;  -12.221; 3734.750
882.738; 1440.260;   -8.931; 3678.489
883.299; 1369.554;  -13.571; 3405.407
883.860; 1372.038;  -12.331; 3351.106
884.422; 1314.350;  -10.201; 3394.044
884.983; 1183.349;  -12.521; 3166.443
885.544; 1067.879;  -12.291; 3189.802
886.105; 1010.247;  -12.991; 3160.360
886.666;  992.854;  -12.901; 3093.059
887.227;  987.526;  -12.061; 2941.957
887.788;  962.756;  -11.641; 2974.836
888.349;  913.540;  -14.691; 2721.214
888.910;  866.480;   -9.681; 2696.493
889.471;  864.151;   -9.971; 2560.172
890.032;  875.999;  -13.151; 2558.190
890.593;  857.210;  -12.051; 2567.669
891.153;  813.054;  -12.841; 2460.307
891.714;  777.524;  -13.561; 2372.046
892.275;  743.520;  -12.401; 2309.505
892.835;  706.315;  -13.191; 2382.543
893.396;  668.764;  -12.551; 2295.502
893.956;  647.857;  -11.981; 2162.420
894.517;  631.255;  -12.221; 2125.439
895.077;  598.952;  -12.021; 2086.978
895.638;  540.171;  -10.891; 2126.316
896.198;  485.088;  -13.171; 1838.275
896.758;  451.524;  -11.891; 1892.813
897.319;  429.523;  -12.491; 1792.232
897.879;  414.246;  -12.401; 1762.751
898.439;  386.168;  -13.431; 1661.149
898.999;  365.140;  -11.340; 1781.468
899.559;  355.486;  -13.930; 1703.347
900.119;  336.374;  -13.730; 1537.525
900.679;  317.489;   -9.210; 1638.384
901.239;  301.187;  -10.860; 1527.902
901.799;  283.341;  -11.450; 1456.441
902.359;  264.609;  -13.800; 1357.140
902.919;  257.446;  -12.130; 1331.118
903.479;  260.150;  -12.650; 1317.257
904.038;  254.294;  -16.110; 1262.595
904.598;  240.623;  -13.690; 1152.034
905.158;  228.658;  -10.290; 1240.893
905.717;  221.823;  -10.670; 1233.691
906.277;  221.289;  -14.040; 1217.330
906.836;  222.144;  -13.510; 1222.408
907.396;  215.986;  -11.530; 1193.047
907.955;  204.962;  -13.190; 1182.526
908.515;  193.127;  -12.950; 1099.364
909.074;  184.986;  -12.390; 1092.863
909.633;  180.002;  -10.340; 1069.121
910.192;  177.623;  -11.170; 1196.460
910.752;  172.983;  -14.200; 1029.960
911.311;  167.888;  -13.810; 1009.780
911.870;  164.988;  -12.750;  971.460
912.429;  164.294;  -12.380; 1094.080
912.988;  161.837;  -11.930; 1081.060
913.547;  156.403;  -10.990;  940.380
914.106;  152.909;  -11.200;  999.420
914.665;  150.582;  -13.150;  984.020
915.224;  149.209;  -13.310; 1035.760
915.782;  147.353;  -13.340;  922.560
916.341;  147.451;  -10.710; 1049.840
916.900;  144.759;  -12.980;  925.260
917.458;  143.116;  -13.060;  884.220
918.017;  141.085;  -10.900;  942.600
918.576;  140.597;  -11.630;  904.440
919.134;  139.087;  -12.860;  837.980
919.693;  139.472;  -15.160;  893.060
920.251;  140.057;  -13.470;  876.500
920.809;  138.821;  -13.700;  839.580
921.368;  139.558;  -13.420;  885.360
921.926;  139.954;  -14.710;  842.940
922.484;  139.376;  -12.560;  903.360
923.042;  139.325;  -11.930;  880.340
923.601;  140.100;  -10.270;  998.680
924.159;  138.305;  -12.960;  935.560
924.717;  138.021;  -13.040;  841.080
925.275;  139.419;  -12.560;  903.240
925.833;  140.447;  -13.040;  779.320
926.391;  143.231;  -13.360;  938.380
926.949;  142.075;  -13.940;  857.680
927.506;  143.044;   -9.400;  903.500
928.064;  142.668;  -10.940;  877.580
928.622;  142.381;  -13.180;  880.100
929.180;  142.788;  -12.730;  814.180
929.737;  143.913;  -12.840;  808.540
930.295;  146.256;  -11.810;  928.480
930.853;  151.276;  -13.650;  849.100
931.410;  152.403;  -13.580;  821.120
931.968;  151.775;  -12.020;  940.660
932.525;  149.272;  -13.320;  909.380
933.082;  146.064;  -13.800;  811.440
933.640;  146.104;  -11.380;  925.900
934.197;  145.619;  -11.480;  886.360
934.754;  148.041;  -13.220;  897.780
935.312;  149.759;  -14.950;  863.340
935.869;  150.722;  -10.940; 1012.980
936.426;  148.429;  -12.100;  872.800
936.983;  149.078;  -12.930;  889.020
937.540;  150.601;  -14.250;  838.280
938.097;  155.034;  -12.600;  940.120
938.654;  161.252;  -11.260;  898.860
939.211;  168.376;  -13.020;  952.480
939.768;  170.657;  -15.760;  915.420
940.324;  171.747;  -13.920;  904.200
940.881;  167.486;  -11.620;  878.500
941.438;  165.436;   -9.870; 1021.200
941.995;  163.767;  -13.920;  992.560
942.551;  162.841;  -12.830;  875.620
943.108;  163.530;  -11.980;  937.920
943.664;  166.264;  -13.740;  869.340
944.221;  172.787;  -12.670; 1088.140
944.777;  169.602;  -13.250;  869.680
945.334;  168.163;  -13.000;  884.840
945.890;  168.823;  -13.020;  946.480
946.446;  170.073;  -13.880;  947.020
947.003;  173.087;  -12.660;  964.940
947.559;  173.765;   -8.730; 1063.040
948.115;  170.309;  -11.960; 1026.540
948.671;  168.176;  -12.360;  967.300
949.227;  164.169;  -12.700;  859.560
949.783;  160.437;  -13.450;  858.900
950.339;  159.337;  -10.620;  991.000
950.895;  156.040;  -14.770; 1023.840
951.451;  152.921;  -13.650;  925.280
952.007;  153.153;  -11.180;  998.540
952.563;  151.255;  -11.680;  937.780
953.118;  152.350;  -13.280;  904.940
953.674;  153.523;  -12.510;  935.780
954.230;  154.346;  -12.220;  949.640
954.785;  150.627;  -12.190;  936.640
955.341;  144.300;  -12.270;  998.160
955.897;  138.837;  -14.900;  834.660
956.452;  139.218;  -12.520;  953.840
957.008;  139.614;   -9.410; 1083.640
957.563;  137.687;  -11.280; 1009.540
958.118;  135.082;  -13.470;  877.700
958.674;  137.019;  -12.190;  946.780
959.229;  138.568;  -12.760; 1013.980
959.784;  143.962;  -15.710;  832.400
960.339;  150.224;  -12.540; 1001.280
960.894;  151.777;  -11.680;  963.760
961.449;  147.636;  -11.410;  859.960
962.004;  146.016;  -10.430; 1212.840
962.559;  140.059;  -14.040;  860.140
963.114;  137.819;  -14.270;  742.480
963.669;  138.268;  -11.320;  915.500
964.224;  136.994;  -14.620;  874.340
964.779;  135.209;  -14.150;  828.420
965.334;  134.907;  -10.850; 1017.860
965.888;  133.690;  -14.530;  875.360
966.443;  136.213;  -13.520;  972.380
966.998;  131.451;  -13.370;  819.460
967.552;  127.815;   -9.960;  908.380
968.107;  123.167;  -12.360;  868.300
968.661;  124.965;  -12.270;  922.440
969.216;  124.076;  -12.140;  856.280
969.770;  124.882;  -11.860;  917.200
970.324;  124.184;  -12.170;  923.140
970.879;  122.351;  -14.160;  947.180
971.433;  119.909;  -12.940;  952.720
971.987;  116.168;  -10.180;  895.340
972.541;  115.431;  -12.130;  917.100
973.095;  115.795;  -14.980; 1009.460
973.649;  113.424;  -14.480;  809.480
974.203;  115.320;  -13.530;  829.040
974.757;  116.928;  -12.060;  855.220
975.311;  114.567;  -13.240;  872.600
975.865;  112.904;  -12.550;  881.820
976.419;  111.567;  -13.180;  857.400
976.973;  111.416;  -14.100;  849.620
977.526;  110.933;  -13.330;  949.920
978.080;  107.352;  -15.390;  796.780
978.634;  107.466;  -11.670;  921.320
979.187;  104.260;  -10.640;  905.400
979.741;  104.293;  -13.330; 1018.380
980.294;  100.644;  -14.480;  789.160
980.848;   98.570;  -13.420;  717.220
981.401;   96.057;  -12.360;  816.540
981.955;   94.619;  -12.480;  844.300
982.508;   90.993;  -14.000;  746.340
983.061;   91.217;  -10.440;  915.260
983.615;   87.051;  -14.340;  798.800
984.168;   84.170;  -14.950;  770.080
984.721;   84.284;  -13.270;  880.760
985.274;   82.166;  -12.240;  867.500
985.827;   79.554;  -12.720;  834.220
986.380;   75.867;  -14.920;  721.340
986.933;   75.887;  -12.860;  864.800
987.486;   74.877;  -10.440;  861.920
988.039;   74.000;  -11.820;  863.100
988.591;   72.681;  -13.760;  893.260
989.144;   71.313;  -14.080;  737.260
989.697;   71.023;  -13.440;  758.740
990.250;   71.879;  -12.050;  858.100
990.802;   70.584;  -14.550;  755.860
991.355;   71.137;  -10.770;  974.880
991.907;   68.962;  -11.710;  864.320
992.460;   66.786;  -12.650;  753.760
993.012;   65.144;  -13.860;  749.540
993.565;   63.228;  -14.310;  711.360
994.117;   63.327;   -9.920;  950.780
994.669;   59.471;  -13.420;  701.320
995.221;   59.092;  -14.200;  791.920
995.774;   58.436;  -13.400;  787.580
996.326;   57.385;  -11.850;  740.220
996.878;   57.265;  -12.230;  838.420
997.430;   55.515;  -14.260;  699.860
997.982;   55.440;  -11.430;  750.140
998.534;   54.775;  -11.590;  739.060
999.086;   54.387;  -11.960;  738.220
999.638;   52.921;  -13.640;  661.380
1000.190;   52.399;  -13.660;  699.320
1000.741;   51.366;   -9.980;  742.700
1001.293;   51.578;  -11.860;  686.020
1001.845;   50.343;  -14.280;  676.640
1002.396;   51.180;  -12.270;  743.400
1002.948;   50.619;  -13.670;  737.400
1003.500;   48.998;  -12.010;  723.780
1004.051;   49.888;  -11.890;  907.580
1004.603;   48.738;  -11.220;  791.820
1005.154;   45.051;  -13.210;  608.980
1005.705;   44.135;  -11.850;  723.960
1006.257;   43.931;  -13.670;  707.220
1006.808;   43.215;  -12.060;  685.460
1007.359;   42.556;  -10.250;  763.240
1007.910;   41.067;  -13.440;  646.640
1008.461;   41.198;  -13.170;  732.940
1009.013;   39.429;  -14.590;  588.340
1009.564;   40.073;  -12.100;  793.520
1010.115;   38.613;  -14.000;  597.040
1010.665;   38.704;  -15.020;  602.160
1011.216;   38.038;  -12.560;  667.920
1011.767;   37.649;  -11.330;  697.920
1012.318;   38.478;  -11.450;  736.980
1012.869;   37.723;  -11.000;  679.000
1013.419;   37.939;  -11.760;  603.120
1013.970;   37.354;  -11.800;  666.640
1014.521;   36.220;  -14.750;  620.620
1015.071;   36.295;  -14.430;  670.380
1015.622;   36.327;  -14.170;  635.460
1016.172;   34.960;  -11.700;  596.820
1016.723;   35.325;  -13.230;  614.380
1017.273;   34.889;  -16.120;  604.160
1017.823;   35.243;  -13.360;  650.340
1018.374;   34.675;  -13.710;  611.760
1018.924;   34.456;  -11.050;  716.880
1019.474;   35.469;  -14.120;  718.880
1020.024;   33.802;  -12.990;  657.580
1020.574;   34.309;  -12.010;  726.160
1021.124;   34.095;  -12.080;  673.580
1021.674;   31.946;  -15.860;  559.120
1022.224;   34.473;  -11.710;  708.940
1022.774;   33.065;  -13.030;  668.820
1023.324;   33.819;  -11.000;  753.520
1023.874;   35.780;  -13.270;  875.760
1024.423;   31.436;  -14.570;  613.700
1024.973;   32.151;  -12.620;  610.760
1025.523;   31.560;  -12.630;  620.960
1026.072;   30.940;  -14.110;  606.420
1026.622;   30.427;  -15.390;  675.740
1027.172;   31.732;   -9.090;  715.660
1027.721;   30.251;  -12.250;  601.220
1028.270;   31.056;  -15.590;  663.400
1028.820;   30.214;  -13.840;  638.080
1029.369;   29.736;  -13.170;  612.700
1029.918;   30.591;  -14.080;  649.840
1030.468;   29.794;  -13.860;  564.780
1031.017;   30.313;  -12.970;  634.800
1031.566;   28.680;  -12.320;  608.900
1032.115;   29.983;  -13.140;  694.500
1032.664;   28.933;  -14.560;  596.480
1033.213;   29.306;  -11.620;  735.420
1033.762;   28.036;  -13.190;  635.620
1034.311;   28.470;  -13.460;  677.220
1034.860;   28.716;  -15.770;  691.000
1035.408;   28.681;  -13.100;  722.720
1035.957;   28.225;  -12.880;  719.540
1036.506;   25.969;  -13.640;  530.800
1037.055;   29.824;  -12.420;  844.320
1037.603;   27.212;  -13.740;  664.000
1038.152;   25.338;  -13.840;  534.760
1038.700;   25.568;  -10.770;  585.740
1039.249;   26.874;  -13.520;  681.220
1039.797;   27.025;  -13.060;  633.360
1040.345;   27.013;  -11.760;  705.420
1040.894;   25.736;  -10.790;  625.300
1041.442;   25.175;  -15.420;  632.200
1041.990;   24.647;  -14.550;  559.160
1042.538;   24.720;  -15.620;  536.180
1043.087;   24.735;  -14.940;  570.860
1043.635;   25.711;  -12.100;  670.500
1044.183;   24.837;  -13.200;  586.400
1044.731;   23.986;  -11.630;  576.000
1045.279;   25.136;  -14.200;  674.920
1045.827;   27.247;  -12.510;  892.400
1046.374;   23.221;  -14.960;  515.420
1046.922;   23.170;  -11.850;  590.580
1047.470;   23.945;  -13.770;  691.300
1048.018;   23.969;  -15.380;  647.960
1048.565;   25.227;  -14.010;  708.600
1049.113;   22.669;  -14.620;  557.000
1049.660;   23.257;  -14.940;  629.660
1050.208;   23.917;  -14.540;  675.640
1050.755;   22.974;  -13.710;  606.580
1051.303;   23.372;  -11.880;  686.820
1051.850;   22.639;  -12.160;  635.120
1052.397;   20.809;  -15.110;  473.960
1052.945;   21.526;  -14.770;  617.760
1053.492;   22.270;  -12.320;  741.840
1054.039;   23.426;  -13.290;  720.180
1054.586;   20.926;  -15.210;  557.240
1055.133;   22.132;  -12.920;  693.140
1055.680;   21.854;  -12.610;  646.620
1056.227;   20.909;  -12.620;  542.780
1056.774;   23.163;  -13.010;  794.980
1057.321;   20.841;  -16.180;  523.260
1057.868;   20.640;  -11.230;  651.320
1058.415;   20.531;  -10.890;  651.980
1058.961;   21.690;  -12.530;  678.940
1059.508;   21.130;  -14.120;  643.820
1060.055;   20.004;  -13.340;  581.780
1060.601;   20.721;  -12.920;  624.300
1061.148;   19.998;  -14.430;  616.820
1061.694;   19.742;  -14.140;  592.580
1062.241;   19.886;  -12.550;  596.320
1062.787;   20.241;  -13.370;  663.140
1063.334;   22.627;  -12.260;  808.560
1063.880;   19.996;  -10.800;  668.360
1064.426;   20.399;   -9.920;  706.820
1064.972;   18.540;  -12.970;  601.340
1065.518;   17.915;  -14.440;  566.640
1066.065;   19.031;  -12.680;  624.460
1066.611;   18.276;  -13.520;  598.800
1067.157;   18.022;  -11.100;  641.860
1067.703;   19.148;  -14.100;  668.480
1068.249;   18.519;  -13.750;  605.220
1068.794;   18.405;  -11.070;  626.880
1069.340;   17.737;  -13.210;  578.960
1069.886;   17.867;  -14.850;  590.700
1070.432;   17.500;  -14.580;  541.720
1070.977;   16.827;  -12.930;  601.080
1071.523;   17.602;  -11.970;  573.060
1072.068;   17.083;  -13.730;  582.000
1072.614;   16.819;  -14.550;  527.760
1073.160;   17.552;  -13.690;  687.040
1073.705;   15.856;  -14.780;  572.520
1074.250;   16.209;  -15.430;  559.900
1074.796;   17.665;  -11.620;  655.160
1075.341;   18.197;  -11.580;  664.100
1075.886;   16.462;  -13.190;  594.240
1076.431;   17.088;  -13.630;  649.880
1076.976;   15.587;  -11.670;  639.220
1077.521;   15.221;  -11.600;  583.080
1078.067;   15.032;  -13.920;  579.400
1078.612;   15.966;  -12.910;  661.620
1079.156;   15.355;  -15.340;  601.540
1079.701;   15.635;  -12.560;  693.260
1080.246;   15.853;  -12.490;  696.300
1080.791;   15.567;  -14.550;  625.020
1081.336;   16.183;  -15.210;  659.320
1081.880;   15.232;  -11.280;  649.680
1082.425;   14.777;  -12.830;  573.480
1082.970;   16.488;  -11.680;  717.040
1083.514;   14.847;  -15.500;  597.000
1084.059;   14.087;  -11.770;  586.720
1084.603;   13.608;  -13.480;  565.840
1085.147;   14.082;  -13.940;  645.220
1085.692;   15.083;  -13.170;  716.800
1086.236;   12.956;  -15.740;  503.140
1086.780;   15.255;  -10.750;  751.440
1087.325;   14.301;  -14.900;  654.620
1087.869;   14.651;  -15.160;  610.700
1088.413;   14.531;  -11.030;  705.040
1088.957;   13.014;  -15.210;  543.400
1089.501;   15.187;  -12.310;  766.640
1090.045;   15.078;  -12.790;  726.480
1090.589;   11.779;  -14.040;  569.920
1091.133;   12.842;  -12.800;  673.340
1091.676;   13.175;  -13.600;  591.940
1092.220;   12.441;  -12.960;  600.920
1092.764;   12.928;  -10.830;  706.960
1093.307;   12.528;  -12.390;  673.780
1093.851;   11.751;  -15.850;  556.540
1094.395;   12.734;  -12.980;  683.140
1094.938;   11.991;  -13.670;  632.520
1095.482;   12.165;  -12.740;  559.800
1096.025;   13.362;  -13.340;  710.880
1096.568;   13.168;  -10.500;  779.280
1097.112;    9.501;  -13.500;  508.180
1097.655;   12.156;  -13.060;  603.000
1098.198;   10.778;  -13.240;  600.180
1098.741;   11.007;  -15.490;  612.860
1099.285;   11.474;  -13.410;  657.300
1099.828;    9.259;  -15.640;  439.400
1100.371;   10.692;  -13.980;  608.160
1100.914;   11.129;  -13.990;  682.660
1101.457;   11.112;  -15.030;  679.900
1101.999;    9.527;  -12.480;  584.680
1102.542;   10.765;  -12.410;  641.440
1103.085;   11.085;  -14.730;  658.500
1103.628;   11.135;  -12.190;  762.060
1104.170;    9.732;  -12.360;  588.280
1104.713;   10.168;  -13.350;  646.700
1105.256;    9.801;  -14.930;  557.440
1105.798;    7.900;  -15.150;  499.980
1106.341;   11.496;  -13.230;  728.900
1106.883;    9.727;  -14.680;  521.340
1107.425;    9.910;  -14.810;  668.180
1107.968;    9.462;  -12.940;  612.380
1108.510;   10.363;  -10.550;  684.960
1109.052;    8.106;  -15.640;  612.620
1109.594;    8.306;  -14.440;  554.440
1110.136;    9.032;  -11.380;  643.220
1110.679;    8.338;  -13.090;  633.080
1111.221;    9.142;  -14.230;  604.460
1111.763;    7.855;  -14.260;  559.220
1112.304;    7.463;  -14.510;  547.140
1112.846;    8.715;  -14.700;  666.240
1113.388;   12.391;  -12.270;  942.180
1113.930;    8.929;  -13.340;  694.200
1114.472;    7.698;  -12.560;  606.540
1115.013;    7.039;  -14.280;  551.280
1115.555;    7.238;  -14.010;  587.100
1116.097;    7.141;  -14.730;  579.480
1116.638;    7.811;  -12.160;  684.600
1117.180;    7.622;  -14.320;  667.740
1117.721;    6.988;  -15.730;  568.580
1118.262;    8.016;  -13.480;  677.960
1118.804;    7.816;  -11.530;  637.340
1119.345;    6.304;  -13.540;  578.400
1119.886;    8.730;  -14.470;  704.040
1120.427;    7.300;  -13.030;  589.020
1120.969;    5.864;  -13.150;  597.920
1121.510;    5.888;  -13.940;  563.060
1122.051;    7.335;  -12.310;  723.580
1122.592;    6.126;  -13.870;  655.420
1123.133;    4.526;  -12.890;  547.940
1123.673;    6.751;  -13.300;  706.480
1124.214;    6.299;  -14.000;  612.460
1124.755;    6.773;  -13.210;  639.460
1125.296;    6.202;  -13.450;  627.320
1125.836;    6.920;  -12.610;  691.500
1126.377;    5.171;  -15.840;  599.660
1126.918;    7.046;  -11.830;  614.980
1127.458;    5.303;  -11.830;  622.220
1127.999;    6.807;  -11.490;  656.980
1128.539;    6.254;  -12.900;  694.240
1129.079;    5.274;  -14.910;  632.720
1129.620;    4.003;  -12.920;  558.100
1130.160;    4.613;  -14.640;  539.480
1130.700;    5.948;  -13.270;  640.840
1131.240;    6.024;  -14.110;  643.700
1131.781;    4.702;  -13.130;  619.680
1132.321;    5.272;  -15.220;  599.120
1132.861;    4.244;  -15.670;  564.200
1133.401;    4.106;  -13.970;  593.940
1133.941;    5.467;  -13.740;  626.280
1134.481;    4.442;  -13.200;  597.580
1135.020;    4.316;  -14.830;  609.160
1135.560;    5.278;  -14.590;  674.940
1136.100;    3.129;  -13.730;  501.160
1136.640;    3.379;  -15.240;  510.480
1137.179;    2.963;  -14.710;  537.960
1137.719;    4.195;  -14.090;  605.400
1138.258;    3.600;  -12.470;  587.360
1138.798;    4.192;  -12.580;  663.780
1139.337;    2.429;  -16.480;  482.840
1139.877;    3.996;  -13.970;  642.360
1140.416;    6.080;   -9.870;  878.060
1140.955;    2.691;  -14.860;  535.380
1141.494;    4.078;  -14.530;  669.280
1142.034;    3.091;  -13.940;  583.520
1142.573;    4.042;  -11.160;  646.280
1143.112;    2.633;  -15.050;  553.480
1143.651;    2.851;  -15.390;  536.480
1144.190;    3.540;  -12.990;  691.640
1144.729;    2.292;  -12.220;  607.420
1145.267;    3.386;  -14.020;  584.900
1145.806;    3.897;  -12.740;  637.040
1146.345;    2.626;  -14.810;  635.020
1146.884;    2.088;  -12.920;  622.500
1147.422;    2.101;  -13.930;  533.060
1147.961;    3.831;  -11.830;  708.460
1148.500;    2.983;  -12.710;  669.720
1149.038;    2.835;  -14.420;  632.500
1149.577;    3.026;  -13.920;  698.640
1150.115;    0.945;  -17.050;  452.280
1150.653;    1.979;  -14.890;  607.340
1151.192;    2.222;  -15.270;  552.920
1151.730;    1.940;  -13.160;  652.560
1152.268;    1.392;  -15.430;  589.520
1152.806;    1.674;  -15.880;  571.180
1153.344;    0.196;  -13.240;  577.640
1153.882;    1.701;  -13.010;  600.060
1154.421;   -0.041;  -16.180;  470.620
1154.958;    0.585;  -13.880;  595.240
1155.496;    1.668;  -13.590;  645.280
1156.034;    1.648;  -11.910;  721.880
1156.572;    2.765;  -12.010;  667.060
1157.110;    0.013;  -16.250;  473.940
1157.647;    1.669;  -15.230;  676.960
1158.185;    0.736;  -13.770;  564.320
1158.723;   -0.022;  -15.300;  509.200
1159.260;    2.168;  -13.130;  701.700
1159.798;    1.637;  -11.300;  658.160
1160.335;    0.103;  -13.210;  631.820

