
Integration time [ms]:   3.276
Averaging Nr. [scans]: 1000
Smoothing Nr. [pixels]: 0
Data measured with spectrometer [name]: 7414430SP
Wave   ;Sample   ;Dark     ;Reference
[nm]   ;[counts] ;[counts] ;[counts] 

288.544;  150.573;    7.793;  793.890
289.143;  154.175;    7.462;  681.602
289.742;  153.929;    8.602;  828.814
290.341;  139.827;    1.321;  789.841
290.940;  129.253;   -0.709;  730.702
291.538;  129.875;    0.881;  881.108
292.137;  129.675;    0.122;  792.581
292.736;  134.691;   -1.929;  975.101
293.335;  131.327;   -8.229;  735.086
293.934;  130.849;   -5.279;  781.677
294.532;  129.072;   -1.369; 1031.958
295.131;  115.476;   -7.641;  834.394
295.730;  115.927;   -8.420;  809.588
296.328;  115.608;   -5.611;  783.442
296.927;  115.464;   -5.781;  779.652
297.525;  116.688;   -6.361;  781.236
298.124;  107.293;  -11.382;  654.009
298.722;  111.330;   -7.641;  761.933
299.321;  107.918;   -6.811;  708.597
299.919;  106.723;   -6.991;  751.918
300.518;  103.679;  -10.362;  689.338
301.116;  106.383;   -9.581;  691.381
301.715;  104.487;   -4.891;  730.222
302.313;  104.796;   -8.801;  704.943
302.911;   99.390;   -8.522;  733.830
303.509;  104.608;   -6.171;  925.627
304.108;  102.165;   -7.311;  760.383
304.706;  101.135;   -8.321;  801.664
305.304;   96.146;  -10.222;  796.707
305.902;  101.632;   -6.021;  784.484
306.500;   96.229;   -4.971;  728.200
307.098;   95.852;   -7.061;  746.560
307.696;   94.384;   -8.801;  780.432
308.294;   94.515;   -6.411;  731.359
308.892;   96.387;   -2.901;  759.769
309.490;   92.485;   -5.041;  712.161
310.088;   91.047;   -5.002;  788.444
310.686;   94.366;   -2.041;  821.749
311.284;   90.889;   -2.351;  766.040
311.882;   88.036;   -4.422;  731.225
312.480;   86.568;   -4.192;  697.167
313.078;   86.326;   -1.172;  808.331
313.675;   87.095;   -2.601;  691.600
314.273;   82.531;   -1.312;  797.837
314.871;   82.827;   -3.942;  589.829
315.468;   80.240;   -2.802;  652.090
316.066;   82.847;   -0.701;  694.427
316.664;   76.811;   -4.362;  656.351
317.261;   80.264;   -2.872;  910.128
317.859;   74.731;   -2.022;  768.735
318.456;   75.686;   -0.531;  830.096
319.054;   71.961;   -3.912;  787.828
319.651;   71.292;   -4.752;  759.928
320.249;   69.620;   -2.602;  810.188
320.846;   65.901;   -0.821;  714.286
321.443;   64.940;   -4.642;  832.135
322.041;   61.791;   -5.002;  812.315
322.638;   59.470;   -3.982;  701.456
323.235;   60.987;   -3.411;  665.683
323.833;   57.826;   -7.361;  740.354
324.430;   53.378;   -8.611;  615.900
325.027;   54.054;   -4.061;  876.855
325.624;   53.543;   -4.031;  644.532
326.221;   50.835;   -7.481;  689.717
326.818;   51.221;   -5.281;  818.332
327.415;   53.490;   -7.460;  748.828
328.012;   53.042;   -5.510;  690.585
328.609;   52.099;   -7.880;  731.389
329.206;   51.246;   -8.331;  778.621
329.803;   50.913;   -5.121;  737.841
330.400;   52.679;   -4.510;  704.260
330.997;   54.187;   -6.441;  817.147
331.594;   53.288;   -8.831;  788.185
332.191;   57.574;   -7.621;  728.722
332.787;   60.245;   -4.591;  844.463
333.384;   59.176;   -7.412;  763.093
333.981;   58.337;   -8.293;  815.687
334.578;   61.303;   -7.052;  708.378
335.174;   63.068;   -3.102;  731.469
335.771;   63.808;   -5.943;  836.456
336.367;   61.001;   -7.393;  710.631
336.964;   64.167;   -4.063;  793.266
337.561;   61.273;   -3.813;  731.112
338.157;   58.252;   -4.654;  911.916
338.754;   55.985;   -7.934;  796.589
339.350;   53.994;   -4.414;  722.493
339.946;   54.626;   -4.664;  773.135
340.543;   47.593;   -6.375;  846.136
341.139;   42.317;   -9.815;  720.836
341.735;   40.040;   -4.526;  772.593
342.332;   38.063;   -4.895;  691.472
342.928;   38.637;   -4.295;  795.394
343.524;   32.745;   -5.476;  761.684
344.120;   29.008;   -5.856;  738.562
344.716;   32.875;   -2.155;  723.717
345.313;   30.476;   -6.275;  795.342
345.909;   25.261;   -8.815;  627.336
346.505;   26.170;   -5.305;  740.247
347.101;   27.269;   -2.674;  827.864
347.697;   27.801;   -4.344;  785.398
348.293;   22.030;   -9.975;  627.244
348.889;   23.268;   -5.774;  745.914
349.485;   22.004;   -5.004;  688.205
350.081;   23.654;   -4.704;  772.592
350.676;   18.071;   -6.635;  691.606
351.272;   22.523;   -4.504;  809.530
351.868;   21.497;   -3.914;  780.497
352.464;   19.771;   -9.044;  723.932
353.059;   15.952;   -8.314;  646.017
353.655;   19.285;   -7.024;  777.063
354.251;   20.254;   -5.343;  759.845
354.846;   15.110;   -8.604;  740.646
355.442;   13.035;   -6.945;  753.071
356.038;   14.583;   -7.564;  751.708
356.633;   14.978;   -5.814;  728.594
357.229;   12.345;   -7.364;  724.757
357.824;   10.889;   -8.024;  703.600
358.420;    9.732;   -9.384;  679.726
359.015;    9.994;   -5.104;  695.357
359.610;   12.042;   -6.854;  763.920
360.206;    5.531;  -10.185;  603.240
360.801;    8.403;   -7.054;  646.503
361.396;   10.507;   -5.034;  725.975
361.992;    5.692;   -8.284;  668.220
362.587;    3.517;   -8.625;  670.160
363.182;    5.244;   -7.674;  689.631
363.777;    5.745;   -5.164;  738.242
364.372;    5.847;   -8.604;  737.314
364.967;    2.019;   -9.055;  680.744
365.563;    6.242;   -6.114;  815.567
366.158;    2.464;   -5.814;  685.161
366.753;    3.280;   -7.854;  649.263
367.348;    2.335;   -7.804;  746.056
367.942;    1.862;   -7.954;  697.298
368.537;    0.314;   -4.984;  754.245
369.132;    1.306;   -8.564;  703.428
369.727;   -2.425;   -8.855;  638.079
370.322;   -1.766;   -6.245;  580.186
370.917;   -2.445;   -6.425;  710.646
371.511;    0.243;   -6.294;  861.834
372.106;   -2.855;   -7.685;  776.964
372.701;   -5.828;   -7.335;  585.988
373.296;    0.112;   -4.564;  863.135
373.890;   -5.348;  -10.235;  647.840
374.485;   -7.248;   -7.885;  691.199
375.079;   -3.473;   -7.324;  738.685
375.674;   -1.536;   -3.494;  812.970
376.268;   -6.632;   -8.525;  691.759
376.863;  -11.611;  -10.086;  580.327
377.457;   -5.690;   -7.025;  662.490
378.052;   -7.905;   -3.585;  764.884
378.646;   -8.345;   -7.595;  741.167
379.240;   -8.676;   -8.335;  721.176
379.835;   -7.895;   -5.785;  636.978
380.429;  -10.059;   -4.335;  562.557
381.023;  -10.372;   -6.805;  779.205
381.617;  -11.676;   -9.195;  680.106
382.212;   -8.137;   -6.905;  685.303
382.806;   -7.874;   -3.745;  760.690
383.400;  -12.017;   -7.745;  672.281
383.994;  -12.946;   -9.765;  664.870
384.588;   -9.028;   -6.564;  697.701
385.182;   -8.525;   -5.344;  726.624
385.776;   -9.486;   -8.514;  706.875
386.370;  -12.570;   -9.555;  681.968
386.964;  -11.316;   -8.715;  684.155
387.558;  -10.172;   -6.174;  598.360
388.152;  -13.724;   -8.725;  681.959
388.745;  -11.508;   -7.965;  814.707
389.339;   -9.834;   -5.924;  747.642
389.933;   -8.945;   -5.524;  695.370
390.527;  -10.459;   -7.114;  859.029
391.120;  -16.392;  -10.725;  595.318
391.714;  -13.400;   -8.035;  711.633
392.308;  -10.391;   -3.574;  780.253
392.901;  -14.478;   -7.245;  642.460
393.495;  -15.043;   -9.285;  595.414
394.089;  -13.482;   -5.895;  760.452
394.682;  -13.723;   -4.295;  697.188
395.275;  -15.000;   -9.875;  719.927
395.869;  -16.162;   -8.485;  667.314
396.462;  -14.377;   -7.455;  616.609
397.056;  -10.928;   -5.424;  776.621
397.649;  -15.158;   -6.605;  731.575
398.242;  -12.635;   -8.224;  712.645
398.836;  -11.912;   -7.474;  766.408
399.429;  -13.343;   -7.094;  631.041
400.022;  -16.481;   -9.475;  665.902
400.615;  -14.024;   -7.145;  805.609
401.208;  -12.182;   -7.174;  691.451
401.802;  -14.098;   -5.515;  699.329
402.395;  -15.025;   -9.875;  683.502
402.988;  -16.304;   -8.845;  696.627
403.581;  -13.574;   -8.874;  646.878
404.174;  -11.044;   -5.324;  686.568
404.767;  -13.683;   -9.575;  638.583
405.360;  -16.072;  -10.965;  621.445
405.953;  -11.042;   -8.764;  759.034
406.545;  -10.852;   -7.514;  725.342
407.138;  -14.407;  -10.025;  618.350
407.731;  -12.565;  -10.034;  613.303
408.324;   -9.061;   -9.374;  660.554
408.917;  -10.645;   -6.534;  681.864
409.509;  -12.329;   -8.004;  740.396
410.102;  -14.034;   -9.875;  643.948
410.695;   -8.334;   -8.604;  665.758
411.287;   -9.439;   -6.794;  599.821
411.880;  -10.971;   -9.334;  585.421
412.472;  -13.903;  -10.254;  613.092
413.065;  -10.660;   -6.714;  629.408
413.657;   -8.709;   -7.234;  576.678
414.250;   -8.532;  -10.544;  646.681
414.842;  -10.026;   -9.744;  676.353
415.434;   -7.508;   -6.994;  570.463
416.027;   -4.351;   -5.893;  652.196
416.619;   -5.967;   -7.264;  713.400
417.211;   -7.035;  -10.374;  599.352
417.804;   -2.937;   -7.993;  628.499
418.396;   -7.126;   -7.234;  607.643
418.988;   -4.886;   -9.443;  659.238
419.580;   -7.556;  -10.724;  568.276
420.172;   -6.076;  -10.323;  536.196
420.764;   -2.396;   -8.793;  672.482
421.356;   -3.246;  -11.143;  636.898
421.948;   -3.571;   -8.293;  677.661
422.540;    1.467;   -7.893;  680.027
423.132;    0.206;   -7.082;  600.641
423.724;   -2.617;   -8.653;  561.267
424.316;    0.255;  -10.213;  621.345
424.908;    2.953;   -9.762;  591.517
425.500;    3.377;   -5.572;  647.978
426.092;    3.842;   -8.422;  648.268
426.683;    3.110;   -9.283;  684.836
427.275;    6.525;   -7.852;  641.471
427.867;    7.196;   -5.272;  668.948
428.458;    7.530;   -7.682;  732.344
429.050;    6.327;  -10.612;  680.749
429.642;    8.491;   -9.882;  743.124
430.233;    8.288;   -6.962;  569.356
430.825;   10.166;   -6.842;  724.809
431.416;    7.810;   -9.672;  698.241
432.008;   10.895;   -6.552;  651.723
432.599;   11.323;   -6.891;  656.073
433.190;    8.684;  -10.912;  637.670
433.782;    7.765;  -11.172;  590.395
434.373;   15.150;   -6.061;  884.765
434.964;   13.550;   -8.251;  602.920
435.556;   10.994;   -9.722;  634.537
436.147;   15.111;   -9.082;  758.490
436.738;   14.695;   -8.041;  701.099
437.329;   19.606;   -7.341;  721.723
437.920;   12.371;   -8.162;  666.688
438.511;   13.135;  -11.802;  564.526
439.103;   19.586;  -10.191;  623.998
439.694;   20.387;   -7.601;  681.583
440.285;   22.018;   -8.541;  764.432
440.876;   19.463;   -9.751;  845.738
441.466;   19.468;   -9.401;  575.162
442.057;   24.371;   -7.760;  665.814
442.648;   23.848;   -9.971;  746.255
443.239;   22.214;  -11.001;  620.477
443.830;   26.419;   -7.990;  704.958
444.421;   28.242;   -7.910;  655.474
445.011;   25.136;   -8.131;  693.619
445.602;   25.039;   -7.111;  743.126
446.193;   26.378;  -10.920;  488.117
446.783;   31.175;   -6.500;  640.397
447.374;   26.982;   -8.671;  692.759
447.964;   27.741;  -10.781;  713.770
448.555;   34.710;   -9.650;  822.742
449.145;   31.949;   -8.660;  662.853
449.736;   32.455;   -8.990;  803.179
450.326;   32.830;   -9.500;  713.626
450.917;   37.237;   -8.680;  675.324
451.507;   36.599;   -7.520;  600.661
452.097;   37.240;   -8.590;  746.267
452.688;   38.862;  -11.340;  742.160
453.278;   38.334;  -10.100;  566.840
453.868;   42.411;   -6.019;  793.550
454.458;   40.593;   -9.440;  651.141
455.048;   40.882;  -10.560;  711.783
455.639;   42.829;  -11.799;  567.096
456.229;   45.687;   -6.899;  710.694
456.819;   47.639;   -7.389;  751.158
457.409;   48.171;  -11.119;  773.993
457.999;   50.959;   -9.289;  737.505
458.589;   50.100;   -6.139;  686.606
459.179;   50.218;   -8.729;  717.658
459.769;   48.652;   -9.789;  627.099
460.358;   53.568;  -10.259;  797.262
460.948;   53.373;   -7.299;  689.503
461.538;   55.079;  -10.289;  660.677
462.128;   52.984;  -11.269;  664.934
462.717;   59.878;   -9.368;  710.326
463.307;   62.104;   -7.908;  705.846
463.897;   58.277;   -9.599;  656.942
464.486;   57.925;   -9.769;  837.128
465.076;   62.552;   -8.048;  733.776
465.666;   65.491;   -9.358;  652.900
466.255;   63.083;   -7.919;  785.651
466.845;   62.349;  -11.689;  666.749
467.434;   65.972;   -7.818;  725.873
468.023;   66.862;   -7.678;  658.357
468.613;   64.460;  -10.939;  713.946
469.202;   69.220;  -10.118;  646.507
469.791;   73.012;   -9.108;  737.811
470.381;   74.362;   -6.058;  742.813
470.970;   74.135;  -10.428;  711.099
471.559;   73.741;  -10.268;  733.291
472.148;   77.640;   -8.448;  675.737
472.738;   79.215;   -6.917;  765.466
473.327;   79.523;  -11.978;  637.529
473.916;   79.377;  -11.888;  737.446
474.505;   83.482;   -9.437;  751.703
475.094;   85.956;   -6.747;  806.570
475.683;   85.903;   -9.367;  797.699
476.272;   87.209;  -12.637;  730.632
476.861;   89.339;  -10.027;  706.754
477.449;   95.410;   -8.716;  728.487
478.038;   89.983;   -9.577;  692.513
478.627;   91.604;   -9.718;  714.852
479.216;   98.174;   -8.947;  769.441
479.805;  100.611;   -6.256;  783.375
480.393;   99.870;   -7.937; 1008.945
480.982;   99.702;   -7.717;  874.501
481.571;  107.127;   -9.266;  858.333
482.159;  106.138;   -7.636;  705.386
482.748;  105.968;   -9.667;  821.385
483.336;  111.289;  -10.376;  858.209
483.925;  111.823;   -7.147;  774.373
484.513;  117.942;   -7.996;  758.962
485.102;  114.556;  -10.027;  810.965
485.690;  124.889;  -10.446; 1011.050
486.278;  125.576;   -8.446;  979.329
486.867;  125.808;   -6.356;  809.662
487.455;  127.459;   -9.136;  898.229
488.043;  128.370;  -10.646;  748.361
488.631;  138.376;   -7.456; 1005.079
489.220;  141.303;   -6.636;  908.626
489.808;  141.385;  -11.036;  741.415
490.396;  149.694;  -10.246;  914.645
490.984;  155.478;   -8.556;  830.161
491.572;  164.487;   -5.886;  940.315
492.160;  170.547;   -9.486;  919.081
492.748;  182.125;  -10.976;  884.341
493.336;  204.684;   -8.776; 1019.693
493.924;  230.894;   -5.465;  958.077
494.512;  257.224;   -9.986; 1066.638
495.100;  294.623;  -10.636; 1103.280
495.687;  350.332;  -10.885; 1206.373
496.275;  412.816;   -8.126; 1150.796
496.863;  481.523;  -10.586; 1281.171
497.451;  583.535;  -11.926; 1386.805
498.038;  714.114;  -10.885; 1556.729
498.626;  818.993;   -6.315; 1741.407
499.214;  961.598;   -7.326; 2016.609
499.801; 1159.995;  -11.906; 2220.633
500.389; 1404.817;  -10.466; 2312.494
500.976; 1714.053;   -5.236; 2744.849
501.564; 2150.746;   -8.936; 3148.565
502.151; 2525.271;  -13.176; 3515.999
502.738; 2965.022;  -10.646; 3971.274
503.326; 3344.036;   -9.525; 4403.796
503.913; 3716.056;  -10.856; 5161.749
504.500; 4070.635;  -11.586; 5986.420
505.088; 4473.619;  -10.336; 6381.201
505.675; 5004.754;   -6.355; 6925.547
506.262; 5727.918;   -9.046; 7619.060
506.849; 6416.308;  -10.416; 8733.969
507.436; 6866.007;  -10.305; 9790.121
508.023; 7444.963;   -5.496; 9985.472
508.610; 7713.208;   -7.856;10434.618
509.197; 8363.661;  -10.097;11198.435
509.784; 9751.087;  -10.886;12391.194
510.371;10778.154;   -9.315;13603.713
510.958;11459.985;   -9.936;14426.586
511.545;12245.128;   -9.326;15243.775
512.132;13161.797;  -10.075;15945.876
512.719;13754.457;   -7.796;16340.369
513.305;14658.249;  -10.606;18011.766
513.892;15357.005;  -11.486;19754.971
514.479;16659.541;   -9.126;20967.805
515.066;18146.617;   -6.026;22299.793
515.652;19359.504;   -8.466;22908.660
516.239;20681.861;  -10.886;23798.875
516.825;21776.385;  -11.496;25567.275
517.412;22785.096;   -5.796;28154.959
517.998;23294.432;  -10.506;28344.111
518.585;23345.633;  -10.076;27134.219
519.171;23887.049;   -8.315;27268.576
519.758;25246.936;   -8.596;28964.129
520.344;26988.615;   -8.466;30664.494
520.930;27135.479;  -11.006;32550.605
521.516;28630.871;  -10.495;35422.895
522.103;30894.895;   -5.526;38280.004
522.689;31417.516;   -8.746;37835.117
523.275;30817.064;  -11.376;37288.613
523.861;31877.889;  -11.156;37281.395
524.447;33081.605;   -8.135;37846.949
525.033;32706.586;   -7.896;38321.949
525.619;32739.018;  -12.476;38579.285
526.205;34294.703;   -9.516;40622.875
526.791;36268.621;   -6.926;42258.836
527.377;36193.141;   -8.346;42966.902
527.963;37113.953;   -8.717;42018.949
528.549;34080.078;  -11.016;42476.828
529.135;30652.785;   -8.536;41854.852
529.721;29440.982;   -9.666;41237.711
530.306;31155.061;  -10.066;41259.445
530.892;33775.355;  -11.356;41506.047
531.478;36487.352;   -6.596;43559.613
532.063;39510.391;   -8.836;47695.563
532.649;39694.418;  -10.047;50808.324
533.235;40552.965;   -9.746;51787.500
533.820;41028.047;   -6.566;52145.035
534.406;42094.273;  -10.817;51133.488
534.991;41552.570;   -9.416;49996.805
535.576;39482.785;   -9.036;48882.852
536.162;38663.000;   -6.156;46942.285
536.747;37266.734;  -11.607;45711.746
537.333;37515.898;  -11.787;48510.180
537.918;37888.379;  -12.437;50439.891
538.503;38615.348;   -7.196;50863.711
539.088;40231.965;  -10.556;50906.922
539.673;44004.500;   -8.767;52621.965
540.259;45632.559;  -10.026;52368.094
540.844;43582.797;   -7.416;50879.109
541.429;44866.441;   -9.467;52077.777
542.014;47869.727;   -9.527;52716.695
542.599;47177.996;   -9.946;52363.281
543.184;45030.805;   -7.927;53187.137
543.769;46579.012;   -9.297;54697.605
544.354;45661.512;  -10.127;53913.914
544.938;44304.902;   -9.267;49680.164
545.523;46135.219;   -6.506;47386.277
546.108;48600.922;   -9.787;49151.949
546.693;50719.551;  -11.587;51384.637
547.278;50440.617;  -10.986;51853.254
547.862;47454.391;   -8.206;51173.750
548.447;43027.129;  -10.067;51691.395
549.031;42530.941;   -9.637;52456.703
549.616;47427.070;   -9.926;52714.516
550.201;46541.535;   -6.347;52414.598
550.785;47669.066;   -7.917;52355.059
551.370;46772.352;  -10.867;54589.453
551.954;46600.359;   -9.047;58267.348
552.538;47443.008;   -7.827;59062.176
553.123;45909.578;  -10.287;58115.285
553.707;43758.797;  -12.178;56556.285
554.291;44818.520;   -8.717;56201.668
554.876;46858.328;   -7.457;55335.762
555.460;47367.215;  -10.387;54155.703
556.044;48706.453;   -9.618;53721.484
556.628;47296.441;  -11.567;53731.016
557.212;45992.645;   -8.097;54312.531
557.796;44487.621;  -11.077;53797.773
558.380;44332.832;  -11.108;56145.984
558.964;44493.734;   -9.057;57277.930
559.548;45588.289;   -6.977;56459.641
560.132;44083.586;  -11.457;54434.543
560.716;42886.188;  -11.378;54800.617
561.300;44004.598;   -9.577;57606.945
561.884;44999.523;   -7.127;58972.445
562.467;43617.230;   -7.118;57327.570
563.051;43009.746;  -13.358;54962.434
563.635;43908.176;  -10.178;52594.473
564.219;44012.594;   -7.837;50610.410
564.802;44842.922;  -11.398;49551.180
565.386;45020.563;  -12.788;48370.953
565.969;44518.094;   -9.077;48178.871
566.553;43897.813;   -6.207;49957.305
567.136;44132.344;   -8.568;50369.594
567.720;40338.523;  -11.868;49492.004
568.303;38255.758;   -8.268;50616.352
568.887;38399.988;   -8.698;50727.148
569.470;38621.633;   -6.808;51698.379
570.053;37282.680;  -13.188;52122.078
570.637;35859.969;  -12.037;52536.438
571.220;35638.371;   -8.577;51186.098
571.803;36169.574;   -8.498;51032.762
572.386;38682.758;  -10.498;49609.887
572.969;41094.754;   -9.388;48285.926
573.552;38898.980;   -8.338;47624.285
574.135;37535.223;   -8.518;45498.641
574.718;35108.977;  -13.628;41970.434
575.301;34087.992;  -10.893;41447.137
575.884;33067.012;   -8.158;40923.836
576.467;34283.609;  -10.328;45267.723
577.050;36533.824;  -13.058;48175.543
577.633;38001.813;   -9.458;47729.328
578.216;36866.570;   -8.928;47579.793
578.799;35893.895;   -9.358;47820.996
579.381;34722.008;  -11.388;48115.551
579.964;33137.012;  -11.718;47333.766
580.547;34851.508;   -8.588;46668.969
581.129;35966.801;   -8.859;44466.141
581.712;36529.527;  -10.729;44164.922
582.294;37171.387;  -11.118;46477.855
582.877;37121.656;   -5.218;48244.254
583.459;34541.219;   -8.679;47437.895
584.042;32778.156;  -10.709;46943.219
584.624;33543.480;  -11.669;46792.227
585.206;32885.473;   -8.218;46557.250
585.789;32921.168;  -10.569;45793.773
586.371;35750.547;  -11.859;43836.391
586.953;36236.574;  -10.719;42972.492
587.536;37540.590;   -7.198;42487.211
588.118;37359.977;   -8.720;42086.414
588.700;34054.125;  -10.439;43389.930
589.282;33249.098;   -9.198;43646.039
589.864;33895.805;   -9.199;43438.109
590.446;34698.191;  -11.319;43151.926
591.028;34677.773;  -11.159;42781.867
591.610;33757.250;  -11.779;42839.098
592.192;31321.717;   -7.668;42820.402
592.774;29950.109;  -11.949;40724.277
593.356;28650.904;  -12.129;39874.789
593.937;27574.232;  -10.669;39980.648
594.519;29637.982;   -6.509;42069.633
595.101;31895.641;  -10.849;42976.031
595.683;32023.555;  -11.679;44084.441
596.264;33214.230;   -9.049;43478.797
596.846;32541.135;   -8.849;43803.672
597.427;32284.701;   -9.570;42986.934
598.009;33914.504;  -12.620;42832.219
598.591;34258.645;  -10.039;42580.086
599.172;33299.938;  -10.369;43061.805
599.753;33399.289;   -9.140;41691.469
600.335;34904.293;  -11.430;40692.520
600.916;33273.992;   -9.939;39982.422
601.498;30800.980;   -8.479;40318.617
602.079;29351.582;  -10.920;40670.609
602.660;29405.721;  -11.480;41450.898
603.241;31058.262;  -11.699;41137.738
603.823;29892.994;   -9.579;38868.797
604.404;29626.988;  -10.620;38182.785
604.985;31005.986;  -10.450;38078.047
605.566;30606.051;   -9.129;38056.633
606.147;30761.012;   -7.510;37020.418
606.728;32450.285;  -10.660;37883.359
607.309;31203.092;  -11.740;38748.273
607.890;30611.303;   -9.759;38850.230
608.471;30004.656;   -8.250;37457.918
609.051;29060.662;   -9.240;36066.457
609.632;28067.070;  -12.120;35991.074
610.213;29010.977;   -9.110;37402.641
610.794;29648.613;   -8.030;38383.363
611.374;28981.877;   -8.110;40562.387
611.955;29293.475;  -13.560;38533.727
612.536;30587.980;  -11.400;36951.789
613.116;30719.395;   -8.070;37197.891
613.697;31097.656;  -10.830;38411.125
614.277;29687.363;  -11.641;38673.938
614.858;30554.791;  -13.310;37075.863
615.438;29530.598;   -7.460;35092.906
616.019;26777.564;   -7.601;33666.301
616.599;27595.861;  -12.020;34189.023
617.179;29403.125;  -11.780;36952.047
617.760;30302.328;   -8.570;39582.574
618.340;31481.117;  -11.471;38943.977
618.920;32855.316;  -11.170;37594.156
619.500;32589.629;  -11.071;37866.938
620.080;31755.898;   -7.750;37869.043
620.660;32919.805;  -12.711;36868.617
621.241;34209.023;  -10.211;36352.309
621.821;34316.184;  -10.961;35459.520
622.401;33294.301;   -7.720;35207.414
622.980;32637.195;   -8.981;35980.422
623.560;31228.391;   -9.331;37351.328
624.140;30101.922;   -9.850;34388.582
624.720;24846.154;   -7.451;32368.764
625.300;21327.408;   -9.070;32638.629
625.880;24773.490;  -12.601;34599.035
626.459;28753.848;  -11.751;36831.738
627.039;31900.209;   -9.281;38299.098
627.619;31851.744;   -8.801;38289.574
628.198;30190.320;  -12.071;37220.695
628.778;29386.939;   -9.461;37632.563
629.357;30175.396;   -8.491;38003.012
629.937;30190.543;   -9.721;38402.039
630.516;29488.885;   -9.951;37868.801
631.096;29096.789;  -11.731;35760.410
631.675;32011.043;   -8.572;35225.219
632.254;37129.758;  -11.282;35130.289
632.834;36567.684;  -13.322;35794.570
633.413;34583.770;  -10.301;35788.922
633.992;31645.152;   -8.582;34532.863
634.571;32431.184;   -8.352;33590.113
635.151;35456.434;  -11.912;34943.863
635.730;33882.063;  -10.511;35352.523
636.309;30493.193;   -7.731;35366.605
636.888;28111.525;   -9.952;36165.637
637.467;29022.352;  -11.672;37515.902
638.046;30645.137;   -8.901;39288.695
638.625;33727.121;   -7.912;38279.699
639.204;33454.992;  -10.022;37741.598
639.782;31956.775;  -12.252;38364.551
640.361;28301.139;  -10.041;36740.621
640.940;25424.600;  -11.161;34950.082
641.519;25976.924;   -9.701;34137.398
642.097;28955.793;  -11.271;35654.258
642.676;31943.662;   -8.651;35637.957
643.255;32393.396;   -8.711;36567.074
643.833;31446.023;   -9.581;37809.434
644.412;31592.996;  -13.711;37337.293
644.990;30782.992;  -11.811;37018.531
645.569;30834.041;   -9.411;36518.469
646.147;29566.648;  -10.291;36186.430
646.726;29070.881;  -12.401;36267.688
647.304;30247.137;  -10.411;36647.625
647.882;32263.453;   -9.651;39286.742
648.461;34071.383;   -9.631;39157.703
649.039;32252.113;  -11.881;35412.883
649.617;31713.533;   -9.661;34744.918
650.195;31435.139;   -9.301;35403.098
650.773;29911.494;  -10.511;35053.797
651.352;27425.406;  -11.521;33756.816
651.930;25041.459;  -12.211;31868.773
652.508;23539.051;   -9.171;33121.551
653.086;27489.902;   -9.371;33564.793
653.663;30180.711;  -13.161;34054.668
654.241;29126.350;  -13.031;35693.309
654.819;30884.246;   -9.371;36422.906
655.397;31112.455;  -10.511;38213.484
655.975;30904.857;  -10.371;39507.625
656.553;30575.428;  -10.051;39498.223
657.130;28910.207;  -10.061;40395.480
657.708;28284.988;   -9.561;39242.020
658.286;28365.330;  -11.511;38920.020
658.863;29571.361;  -10.261;40202.898
659.441;32456.826;   -7.531;39677.938
660.018;31893.293;   -9.501;40413.355
660.596;30898.768;  -13.301;39931.414
661.173;33093.133;  -11.211;39604.531
661.750;33182.375;   -9.951;39700.070
662.328;31763.932;   -9.390;39292.809
662.905;30789.896;  -11.330;38235.648
663.482;26477.629;   -9.050;36212.305
664.060;24611.938;   -8.240;35944.945
664.637;27496.934;  -10.050;35170.785
665.214;29354.820;  -11.760;34197.523
665.791;30687.865;  -10.530;34549.520
666.368;29584.223;   -9.690;35118.578
666.945;30509.678;   -9.320;36019.418
667.522;32015.588;  -11.860;36048.438
668.099;31741.689;  -10.770;36243.914
668.676;30674.104;   -6.260;35958.875
669.253;29354.682;   -7.000;37384.730
669.830;30076.363;  -10.190;36779.629
670.407;29733.379;   -9.550;35231.289
670.984;29662.525;   -9.260;35544.270
671.560;30144.123;   -9.280;35466.867
672.137;29256.160;  -11.810;34280.863
672.714;30047.314;  -11.490;34632.863
673.290;30585.979;   -7.740;35135.422
673.867;30806.129;  -10.660;36114.480
674.443;30616.945;  -12.230;36152.859
675.020;29025.848;  -10.450;35327.238
675.596;30117.014;   -9.260;35795.176
676.173;30493.084;  -10.780;35430.355
676.749;30268.145;  -13.690;33549.516
677.326;30310.732;  -11.980;32210.012
677.902;30255.260;   -8.630;32068.871
678.478;29531.275;  -10.730;32583.891
679.054;29044.439;  -10.520;32088.928
679.631;29283.508;  -11.920;30978.848
680.207;30915.418;   -7.490;33160.887
680.783;32689.129;   -9.860;35570.363
681.359;31850.695;  -13.380;36125.184
681.935;31052.523;  -12.480;35240.922
682.511;29902.512;   -7.900;34429.961
683.087;29966.377;   -7.710;34463.680
683.663;29705.021;  -11.480;34648.898
684.239;28506.816;  -14.090;34546.457
684.815;28161.887;   -7.560;35586.375
685.390;28552.756;   -9.910;35821.895
685.966;29119.111;  -11.159;35085.871
686.542;31683.381;  -11.169;34198.230
687.118;33615.520;   -5.959;32847.707
687.693;33722.223;  -10.329;32794.027
688.269;33480.504;  -12.059;33072.367
688.844;31671.416;  -10.909;33141.664
689.420;29379.582;   -8.019;33965.742
689.995;26969.449;   -8.399;34655.523
690.571;25630.977;  -10.949;33576.742
691.146;26240.439;   -9.619;32657.219
691.722;25706.721;   -8.999;32526.979
692.297;25713.629;  -11.589;33014.617
692.872;27733.172;  -11.739;34012.254
693.448;27190.264;  -11.059;34237.434
694.023;26317.680;  -10.139;34142.672
694.598;28269.055;   -9.029;34132.031
695.173;28553.006;  -13.319;34205.250
695.748;27894.596;  -10.169;32882.488
696.323;28046.725;   -8.339;32864.906
696.898;28381.240;   -8.169;33170.004
697.473;28088.979;  -12.309;32432.984
698.048;27482.760;  -10.989;31649.303
698.623;27550.840;   -9.329;30778.141
699.198;29595.852;   -9.849;31140.119
699.773;30361.854;  -12.329;31764.299
700.348;28595.971;  -10.389;31780.816
700.922;28548.801;   -9.269;32046.375
701.497;29223.334;   -9.329;32603.574
702.072;29401.764;  -10.789;34799.871
702.646;28194.439;  -10.839;35793.172
703.221;26297.184;   -9.099;35201.590
703.795;28502.121;  -10.939;34764.527
704.370;28835.135;  -12.859;34307.367
704.944;29175.137;  -11.559;33509.887
705.519;30021.646;   -7.939;31388.584
706.093;31602.764;  -10.499;31340.104
706.668;31907.408;  -11.289;32630.281
707.242;30795.447;  -11.509;32728.779
707.816;29177.189;   -9.639;32947.238
708.390;27607.264;  -11.429;33277.855
708.965;28171.111;  -11.869;33834.336
709.539;28355.340;  -11.689;33709.273
710.113;28956.820;  -10.478;33044.313
710.687;28358.316;  -10.228;31953.992
711.261;26663.912;  -13.698;30505.949
711.835;26569.135;  -13.378;30262.369
712.409;27456.955;   -9.698;31254.447
712.983;29270.941;  -11.898;32754.986
713.557;30099.531;  -15.138;34018.824
714.131;29559.141;  -14.098;34579.625
714.704;28516.029;   -9.958;33890.262
715.278;26331.982;  -10.028;33531.102
715.852;25447.230;  -11.148;33601.660
716.425;26360.465;   -9.068;33515.117
716.999;26997.232;  -10.038;33185.555
717.573;27966.760;   -9.798;33905.996
718.146;29130.152;  -12.378;35199.293
718.720;29067.537;  -11.918;35060.551
719.293;28444.180;   -8.088;34973.230
719.867;31341.221;  -10.888;36394.449
720.440;31015.844;  -11.938;36663.008
721.013;29270.602;  -12.818;35102.426
721.587;27889.123;  -10.298;33985.266
722.160;27059.213;  -10.048;33524.965
722.733;26045.965;  -12.108;32987.043
723.306;26310.406;  -10.818;33066.301
723.880;28636.633;   -8.908;33399.500
724.453;30356.043;   -9.878;33468.297
725.026;29328.787;  -11.188;33816.637
725.599;26861.393;  -11.678;32797.996
726.172;27503.504;   -9.618;33187.434
726.745;28517.195;   -8.258;35136.613
727.318;29660.934;  -12.978;35751.730
727.891;29850.709;  -12.148;35890.430
728.463;29524.381;   -8.968;34822.090
729.036;28748.248;  -10.188;32895.086
729.609;29257.436;  -11.788;31823.225
730.182;26241.430;  -11.788;31445.283
730.754;23658.822;  -10.268;32373.223
731.327;23572.873;   -9.998;33676.820
731.900;23993.752;  -12.228;33417.000
732.472;25547.080;  -13.848;31978.498
733.045;27477.432;   -8.698;30368.777
733.617;27564.668;  -10.607;30574.215
734.190;27016.916;  -11.507;31280.975
734.762;24065.197;  -13.647;31674.412
735.334;22471.732;   -9.767;31247.291
735.907;23127.447;   -9.897;29876.211
736.479;23176.387;  -11.637;29808.488
737.051;22826.014;   -9.567;30233.547
737.623;23773.729;   -8.187;31469.086
738.195;24733.918;  -11.187;31784.225
738.768;26772.418;  -12.337;32120.523
739.340;26724.701;  -12.227;32094.342
739.912;25322.773;  -11.057;31312.680
740.484;23888.262;  -10.207;31946.238
741.056;22939.180;  -10.047;32984.059
741.628;24823.588;  -13.627;33897.715
742.199;27027.141;   -7.177;33213.016
742.771;25314.908;  -10.797;31369.113
743.343;22956.000;  -11.997;31865.473
743.915;22004.492;  -12.867;32388.631
744.487;22243.262;   -7.617;31079.568
745.058;22493.033;   -9.557;30570.107
745.630;22937.621;   -9.877;29970.127
746.201;23585.230;  -14.177;29186.766
746.773;23729.471;   -9.237;28805.723
747.344;23423.730;   -9.847;29591.223
747.916;22088.574;  -11.657;31412.201
748.487;22420.416;  -10.587;32194.898
749.059;23639.553;   -8.707;32533.719
749.630;24409.314;  -10.537;32158.518
750.201;23596.803;  -11.687;30855.395
750.773;21843.717;  -11.647;28622.555
751.344;21868.783;   -7.147;28405.732
751.915;23145.730;   -9.757;28461.551
752.486;22903.795;  -12.427;27842.850
753.057;20573.203;  -12.227;27845.008
753.628;19431.445;  -10.417;27728.107
754.199;20641.982;  -11.767;27381.086
754.770;21633.344;  -11.187;25882.203
755.341;21609.049;  -10.507;25886.184
755.912;21519.537;   -9.387;26050.861
756.483;20911.990;  -10.647;26798.779
757.054;19159.801;  -11.837;27048.238
757.625;17947.305;  -12.716;26294.838
758.195;17786.686;   -9.666;26142.076
758.766;17515.621;   -8.656;26392.234
759.337;18282.283;  -12.856;26334.594
759.907;20067.863;  -13.366;27579.652
760.478;20963.820;   -8.576;28352.770
761.048;20312.029;  -10.526;27325.088
761.619;19509.572;  -11.116;26460.428
762.189;19586.795;  -12.136;26029.826
762.760;20736.904;   -9.456;26430.145
763.330;21801.250;   -7.136;26670.902
763.900;21120.627;  -11.786;26603.021
764.471;18487.066;  -11.546;25542.740
765.041;17294.305;   -8.096;24358.459
765.611;17415.465;   -8.876;23991.297
766.181;17807.635;  -12.196;24470.236
766.751;18695.035;  -11.636;24845.975
767.321;18441.477;  -10.156;24533.633
767.891;16517.695;  -11.766;24916.492
768.461;16049.088;  -14.936;24776.771
769.031;16620.094;  -12.356;24757.988
769.601;18135.234;   -7.526;24181.088
770.171;17864.844;  -10.766;23670.387
770.741;17121.852;  -13.176;22960.045
771.311;17368.586;  -10.616;22917.523
771.880;17660.137;   -9.576;23562.941
772.450;17302.031;  -10.336;24216.500
773.020;17456.014;  -13.516;24140.398
773.589;16926.246;  -13.466;24414.857
774.159;16273.875;   -8.686;23858.717
774.729;15794.148;   -9.476;22942.135
775.298;15223.157;  -13.666;22324.033
775.867;14837.280;  -11.716;21140.313
776.437;14906.738;   -9.906;20838.092
777.006;14705.083;  -12.166;20599.510
777.576;14645.152;  -12.356;20508.809
778.145;14800.877;  -11.646;20732.947
778.714;14617.769;   -8.226;21062.465
779.283;13804.503;   -9.556;20949.664
779.853;13346.974;  -14.116;20508.623
780.422;13825.247;  -11.506;20649.082
780.991;13404.599;   -9.556;21527.520
781.560;12267.960;   -9.095;22632.658
782.129;12142.570;  -12.135;23048.277
782.698;12177.597;  -10.865;23438.555
783.267;11767.119;   -9.335;23267.734
783.836;11768.312;  -11.045;22415.133
784.404;12867.806;  -13.865;20443.152
784.973;13422.795;  -13.095;19699.150
785.542;13302.137;  -11.575;19763.828
786.111;13080.754;   -9.705;20341.408
786.679;12522.883;  -12.105;20207.967
787.248;12306.092;  -12.455;19516.465
787.817;12163.180;  -11.535;18900.363
788.385;11767.293;   -9.765;17879.121
788.954;11187.881;  -14.005;17658.301
789.522;10679.383;  -11.955;17788.879
790.090;11270.959;  -10.135;18118.277
790.659;11648.430;  -10.975;18338.736
791.227;11125.988;  -13.375;18508.615
791.795;11572.448;  -12.375;17898.254
792.364;11948.954;  -10.725;17295.133
792.932;12245.423;   -9.715;16822.051
793.500;12384.930;  -12.675;17040.148
794.068;12569.442;  -13.495;17179.787
794.636;12669.607;  -10.885;16664.246
795.204;12147.056;  -11.045;16524.545
795.772;12263.664;  -13.175;17274.564
796.340;11812.763;  -12.445;17891.002
796.908;11655.868;   -9.735;17648.561
797.476;11488.748;   -9.815;17064.080
798.044;10991.260;  -13.985;16672.777
798.612;10156.958;  -13.115;17023.996
799.180; 9772.740;  -10.185;16561.615
799.747; 9711.577;   -9.055;15962.773
800.315; 9462.479;  -12.385;15296.992
800.883; 9096.063;  -15.035;14801.771
801.450; 9075.231;  -10.365;14534.430
802.018; 9148.054;   -9.855;14173.248
802.585; 9323.427;  -11.905;14029.547
803.153; 9406.125;  -11.585;13836.846
803.720; 9202.584;   -9.095;13567.324
804.287; 8734.772;   -9.135;13360.622
804.855; 8332.199;  -11.604;13681.981
805.422; 8184.565;  -11.794;13536.560
805.989; 8186.628;  -10.734;13355.958
806.556; 8392.366;  -10.444;13747.896
807.124; 8644.582;  -12.764;13987.376
807.691; 8617.558;  -12.964;14038.674
808.258; 8411.644;  -11.134;14120.152
808.825; 8070.064;   -9.854;13860.111
809.392; 8109.625;  -10.504;13268.790
809.959; 7613.910;  -13.054;12680.389
810.526; 7209.840;   -8.294;12427.308
811.093; 7293.424;   -8.394;12030.105
811.659; 7889.668;  -12.304;11653.664
812.226; 8360.001;  -13.944;11637.183
812.793; 8025.348;  -10.484;11611.521
813.360; 7393.366;  -10.144;11885.181
813.926; 7120.516;  -11.684;12770.539
814.493; 6915.268;  -13.644;12677.638
815.060; 6532.846;   -9.724;11974.336
815.626; 6548.897;   -9.854;11594.715
816.193; 6954.516;  -13.254;11579.474
816.759; 6980.702;  -13.204;11666.972
817.325; 7063.381;   -9.434;11325.530
817.892; 7426.006;  -10.134;11105.369
818.458; 7860.824;  -13.474;10843.928
819.024; 7455.624;  -11.854;10714.406
819.591; 7100.098;  -10.244;10469.165
820.157; 6891.630;  -10.704;10235.523
820.723; 6408.403;  -12.324;10847.563
821.289; 6083.674;   -9.444;11040.980
821.855; 5958.926;   -8.374;10357.100
822.421; 5893.117;  -10.234; 9978.918
822.987; 5884.064;  -13.294; 9754.177
823.553; 5614.525;  -10.884;10065.755
824.119; 5463.876;   -8.884;10036.294
824.685; 5540.861;   -6.784;10029.192
825.251; 5618.019;  -12.004;10199.230
825.816; 5559.458;  -11.474; 9820.189
826.382; 5324.224;   -9.174; 9297.248
826.948; 5552.383;   -9.214; 9381.347
827.513; 5942.364;  -10.774; 9450.726
828.079; 5745.567;  -11.924; 9472.444
828.645; 5180.370;  -10.543; 9292.643
829.210; 5126.338;  -10.533; 9065.341
829.776; 5117.598;  -10.753; 9132.620
830.341; 5000.662;  -10.173; 9092.878
830.906; 5188.171;  -10.743; 9078.557
831.472; 5509.253;  -11.113; 8534.535
832.037; 5206.646;  -10.603; 8677.874
832.602; 4657.930;  -13.323; 8628.692
833.167; 4423.463;  -10.823; 8879.031
833.733; 4363.070;  -10.113; 9189.790
834.298; 4481.396;  -13.583; 9052.608
834.863; 4530.664;  -12.703; 8895.087
835.428; 4501.547;  -10.523; 8824.266
835.993; 4376.228;   -6.963; 8845.385
836.558; 4248.352;  -10.763; 8888.563
837.123; 4394.215;   -9.903; 8966.582
837.688; 4613.141;   -9.913; 8617.860
838.253; 4828.881;  -10.283; 8590.699
838.817; 5027.101;  -12.963; 8443.797
839.382; 4928.455;  -14.243; 8799.356
839.947; 4611.811;  -10.733; 8810.595
840.511; 4303.298;   -9.383; 8796.394
841.076; 3927.481;  -12.563; 8347.231
841.641; 3992.992;  -12.953; 8224.330
842.205; 4097.928;   -7.043; 8223.349
842.770; 4229.707;   -8.163; 8622.107
843.334; 4412.298;  -12.503; 8410.386
843.898; 4364.382;  -11.693; 8337.465
844.463; 4386.573;  -10.203; 8506.283
845.027; 4156.065;   -9.533; 8280.962
845.591; 3975.648;  -13.443; 8231.141
846.156; 3936.184;  -13.143; 7969.179
846.720; 3800.653;   -9.433; 7768.278
847.284; 3664.615;  -11.033; 7630.957
847.848; 3538.600;  -10.403; 7472.395
848.412; 3450.155;  -11.553; 7437.394
848.976; 3497.597;   -8.393; 7674.592
849.540; 3438.826;   -8.713; 7836.011
850.104; 3569.033;  -12.463; 7913.669
850.668; 3929.049;  -12.973; 7694.508
851.232; 4010.847;  -10.793; 7756.887
851.796; 3841.261;  -10.662; 7926.545
852.359; 3551.027;  -13.082; 7827.844
852.923; 3379.312;  -12.192; 7641.163
853.487; 3184.777;  -11.912; 7342.501
854.050; 3132.571;  -10.892; 7042.820
854.614; 3272.608;  -13.992; 7151.338
855.177; 3411.713;  -11.732; 7105.077
855.741; 3454.844;   -8.962; 6989.675
856.304; 3347.309;   -9.442; 6596.634
856.868; 3295.633;  -14.192; 6356.272
857.431; 3403.660;  -12.702; 6468.571
857.995; 3537.885;   -9.942; 6373.210
858.558; 3544.893;   -9.112; 6324.448
859.121; 3261.175;  -12.932; 6408.327
859.684; 3138.505;  -13.442; 6347.886
860.247; 3243.911;  -10.632; 6321.264
860.810; 3225.839;  -11.272; 6301.903
861.374; 2964.132;   -9.832; 6607.881
861.937; 2712.315;  -11.762; 6408.200
862.500; 2713.356;   -9.722; 6572.639
863.062; 2908.410;  -10.512; 6387.297
863.625; 3085.250;  -11.232; 6190.836
864.188; 3242.798;  -14.112; 5807.254
864.751; 3301.461;  -11.302; 5682.413
865.314; 3182.926;  -10.112; 5547.492
865.876; 2976.138;  -12.182; 5500.150
866.439; 2970.391;  -10.722; 5415.909
867.002; 2913.318;   -9.252; 5501.567
867.564; 2697.688;   -9.572; 5413.946
868.127; 2467.294;  -13.142; 5160.325
868.689; 2362.824;  -12.902; 5133.183
869.252; 2264.049;   -9.732; 5252.382
869.814; 2174.017;   -9.432; 5297.141
870.377; 2191.294;  -11.552; 5390.919
870.939; 2267.081;   -9.052; 5599.898
871.501; 2327.967;  -10.982; 5248.336
872.063; 2324.008;  -12.292; 4854.235
872.626; 2291.380;  -14.912; 4817.074
873.188; 2333.243;  -13.112; 4987.732
873.750; 2296.082;  -13.442; 4868.651
874.312; 2190.296;   -9.402; 4779.330
874.874; 2096.910;  -11.062; 4866.348
875.436; 2006.700;  -13.931; 4718.887
875.998; 1996.141;   -9.561; 4660.005
876.560; 2021.187;  -11.321; 4462.964
877.122; 1962.741;  -12.221; 4145.042
877.683; 1876.991;  -12.191; 4056.481
878.245; 1817.955;  -12.101; 3950.740
878.807; 1871.968;   -8.971; 4058.958
879.369; 1900.038;  -12.071; 3954.677
879.930; 1787.546;  -14.621; 3941.495
880.492; 1717.721;  -10.311; 4067.014
881.053; 1679.748;  -10.901; 3859.633
881.615; 1586.982;  -14.411; 3776.071
882.176; 1543.352;  -13.761; 3734.750
882.738; 1585.322;   -9.181; 3678.489
883.299; 1615.112;  -11.791; 3405.407
883.860; 1573.518;  -13.121; 3351.106
884.422; 1372.018;  -11.211; 3394.044
884.983; 1040.959;  -10.091; 3166.443
885.544;  772.762;   -8.461; 3189.802
886.105;  663.695;  -12.361; 3160.360
886.666;  651.147;  -14.141; 3093.059
887.227;  665.331;  -11.361; 2941.957
887.788;  670.973;  -11.401; 2974.836
888.349;  672.017;  -13.791; 2721.214
888.910;  705.797;  -13.191; 2696.493
889.471;  739.334;   -9.881; 2560.172
890.032;  739.701;   -9.881; 2558.190
890.593;  733.707;  -10.371; 2567.669
891.153;  720.074;  -13.301; 2460.307
891.714;  682.214;  -11.431; 2372.046
892.275;  653.653;  -11.291; 2309.505
892.835;  619.907;  -11.471; 2382.543
893.396;  576.053;  -11.541; 2295.502
893.956;  527.312;  -11.181; 2162.420
894.517;  496.756;  -11.741; 2125.439
895.077;  494.957;  -11.671; 2086.978
895.638;  495.718;  -11.311; 2126.316
896.198;  469.383;   -9.831; 1838.275
896.758;  429.462;   -8.421; 1892.813
897.319;  402.859;  -12.351; 1792.232
897.879;  388.471;  -13.511; 1762.751
898.439;  363.771;  -12.001; 1661.149
898.999;  341.957;  -10.180; 1781.468
899.559;  334.802;  -12.030; 1703.347
900.119;  329.842;  -15.710; 1537.525
900.679;  326.860;   -8.900; 1638.384
901.239;  313.270;   -8.340; 1527.902
901.799;  303.855;  -13.910; 1456.441
902.359;  298.826;  -13.460; 1357.140
902.919;  292.317;  -11.490; 1331.118
903.479;  279.413;  -12.110; 1317.257
904.038;  259.905;  -11.720; 1262.595
904.598;  245.669;  -13.610; 1152.034
905.158;  241.693;  -11.040; 1240.893
905.717;  235.131;  -10.900; 1233.691
906.277;  225.042;  -15.080; 1217.330
906.836;  215.251;  -13.380; 1222.408
907.396;  206.641;  -10.780; 1193.047
907.955;  198.839;   -8.500; 1182.526
908.515;  191.777;  -12.760; 1099.364
909.074;  184.080;  -11.900; 1092.863
909.633;  176.733;   -8.950; 1069.121
910.192;  171.686;   -8.770; 1196.460
910.752;  167.750;  -12.390; 1029.960
911.311;  165.286;  -13.680; 1009.780
911.870;  162.841;  -12.370;  971.460
912.429;  164.849;  -10.900; 1094.080
912.988;  164.349;  -11.690; 1081.060
913.547;  159.666;  -13.240;  940.380
914.106;  155.179;  -11.990;  999.420
914.665;  152.133;   -9.990;  984.020
915.224;  151.989;  -12.880; 1035.760
915.782;  151.294;  -12.350;  922.560
916.341;  151.603;   -9.110; 1049.840
916.900;  146.953;   -9.270;  925.260
917.458;  146.200;  -13.240;  884.220
918.017;  145.958;  -13.550;  942.600
918.576;  144.321;  -12.320;  904.440
919.134;  142.831;  -11.490;  837.980
919.693;  140.692;  -13.670;  893.060
920.251;  139.789;  -15.470;  876.500
920.809;  138.330;  -11.290;  839.580
921.368;  137.588;  -10.210;  885.360
921.926;  136.768;  -12.140;  842.940
922.484;  135.727;  -13.080;  903.360
923.042;  134.888;  -11.720;  880.340
923.601;  138.088;   -7.480;  998.680
924.159;  136.198;  -11.570;  935.560
924.717;  133.084;  -13.840;  841.080
925.275;  133.456;  -10.640;  903.240
925.833;  132.748;  -11.540;  779.320
926.391;  134.629;  -12.960;  938.380
926.949;  132.619;  -14.130;  857.680
927.506;  132.494;  -11.750;  903.500
928.064;  132.864;  -10.250;  877.580
928.622;  131.933;  -13.030;  880.100
929.180;  132.323;  -13.400;  814.180
929.737;  133.071;  -10.700;  808.540
930.295;  136.878;  -10.070;  928.480
930.853;  138.175;  -11.960;  849.100
931.410;  139.092;  -13.120;  821.120
931.968;  138.835;  -10.770;  940.660
932.525;  138.069;  -10.680;  909.380
933.082;  138.142;  -13.130;  811.440
933.640;  139.195;  -13.210;  925.900
934.197;  137.054;  -11.060;  886.360
934.754;  138.130;   -9.580;  897.780
935.312;  141.703;  -14.000;  863.340
935.869;  145.321;  -10.710; 1012.980
936.426;  145.384;   -9.860;  872.800
936.983;  147.157;   -9.710;  889.020
937.540;  145.813;  -13.990;  838.280
938.097;  144.033;  -14.040;  940.120
938.654;  144.312;  -10.310;  898.860
939.211;  146.950;  -10.560;  952.480
939.768;  151.077;  -13.900;  915.420
940.324;  154.236;  -14.760;  904.200
940.881;  154.993;  -10.370;  878.500
941.438;  154.960;   -8.260; 1021.200
941.995;  151.460;  -12.540;  992.560
942.551;  149.850;  -14.670;  875.620
943.108;  150.251;  -10.450;  937.920
943.664;  151.920;  -10.750;  869.340
944.221;  155.608;  -11.550; 1088.140
944.777;  152.409;  -14.770;  869.680
945.334;  153.333;  -12.820;  884.840
945.890;  155.575;  -10.130;  946.480
946.446;  155.620;  -13.470;  947.020
947.003;  157.317;  -12.120;  964.940
947.559;  159.501;   -9.980; 1063.040
948.115;  158.484;   -9.080; 1026.540
948.671;  157.299;  -10.830;  967.300
949.227;  155.065;  -12.440;  859.560
949.783;  152.037;  -12.910;  858.900
950.339;  153.044;  -10.270;  991.000
950.895;  153.696;  -13.630; 1023.840
951.451;  153.358;  -15.100;  925.280
952.007;  154.207;  -11.330;  998.540
952.563;  154.711;  -10.580;  937.780
953.118;  152.632;  -13.440;  904.940
953.674;  152.636;  -12.710;  935.780
954.230;  152.263;  -10.350;  949.640
954.785;  150.002;   -9.190;  936.640
955.341;  148.428;  -11.200;  998.160
955.897;  145.391;  -16.560;  834.660
956.452;  146.137;  -12.570;  953.840
957.008;  146.111;   -7.970; 1083.640
957.563;  143.122;  -11.940; 1009.540
958.118;  139.686;  -13.450;  877.700
958.674;  140.170;  -12.030;  946.780
959.229;  140.617;   -9.410; 1013.980
959.784;  138.619;  -12.000;  832.400
960.339;  138.867;  -14.780; 1001.280
960.894;  135.005;   -9.860;  963.760
961.449;  129.927;   -9.970;  859.960
962.004;  130.366;  -10.900; 1212.840
962.559;  125.876;  -13.150;  860.140
963.114;  123.194;  -13.740;  742.480
963.669;  122.544;   -9.820;  915.500
964.224;  120.822;  -13.890;  874.340
964.779;  119.926;  -12.600;  828.420
965.334;  121.253;  -10.950; 1017.860
965.888;  119.728;  -11.170;  875.360
966.443;  122.767;  -12.540;  972.380
966.998;  122.075;  -15.780;  819.460
967.552;  120.697;   -9.760;  908.380
968.107;  117.245;   -9.060;  868.300
968.661;  118.862;  -11.950;  922.440
969.216;  119.404;  -12.800;  856.280
969.770;  120.098;  -11.210;  917.200
970.324;  118.982;  -11.610;  923.140
970.879;  115.544;  -11.370;  947.180
971.433;  112.158;  -12.540;  952.720
971.987;  107.342;  -11.320;  895.340
972.541;  103.918;  -10.720;  917.100
973.095;  104.259;   -9.680; 1009.460
973.649;  101.957;  -11.440;  809.480
974.203;  101.580;  -11.210;  829.040
974.757;  101.058;  -10.240;  855.220
975.311;  101.542;  -13.720;  872.600
975.865;  101.045;  -13.770;  881.820
976.419;   99.121;  -11.690;  857.400
976.973;   98.605;   -9.510;  849.620
977.526;  100.974;  -12.620;  949.920
978.080;   99.913;  -12.010;  796.780
978.634;  100.930;  -10.170;  921.320
979.187;   98.341;   -9.020;  905.400
979.741;   96.174;   -9.820; 1018.380
980.294;   91.265;  -14.870;  789.160
980.848;   89.494;  -12.380;  717.220
981.401;   90.534;  -10.350;  816.540
981.955;   93.544;  -13.720;  844.300
982.508;   92.381;  -11.490;  746.340
983.061;   93.243;  -10.000;  915.260
983.615;   88.209;  -11.480;  798.800
984.168;   85.603;  -13.220;  770.080
984.721;   84.959;  -13.960;  880.760
985.274;   84.130;  -10.870;  867.500
985.827;   82.750;   -9.790;  834.220
986.380;   81.175;  -13.120;  721.340
986.933;   80.494;  -12.450;  864.800
987.486;   78.504;  -10.210;  861.920
988.039;   78.150;   -8.430;  863.100
988.591;   74.696;  -10.520;  893.260
989.144;   72.786;  -14.860;  737.260
989.697;   71.822;  -13.080;  758.740
990.250;   72.567;  -10.150;  858.100
990.802;   71.634;  -13.430;  755.860
991.355;   72.716;  -12.750;  974.880
991.907;   70.638;  -12.040;  864.320
992.460;   68.560;  -11.330;  753.760
993.012;   66.432;  -13.610;  749.540
993.565;   66.779;  -13.460;  711.360
994.117;   67.536;   -9.360;  950.780
994.669;   64.254;  -11.300;  701.320
995.221;   62.162;  -13.540;  791.920
995.774;   60.870;  -13.430;  787.580
996.326;   58.983;  -12.520;  740.220
996.878;   58.599;  -10.950;  838.420
997.430;   56.376;  -14.300;  699.860
997.982;   55.890;  -13.760;  750.140
998.534;   55.403;  -11.530;  739.060
999.086;   53.909;  -10.310;  738.220
999.638;   52.533;  -12.530;  661.380
1000.190;   52.200;  -11.840;  699.320
1000.741;   52.079;  -10.260;  742.700
1001.293;   51.533;   -8.860;  686.020
1001.845;   49.555;  -13.700;  676.640
1002.396;   50.284;  -12.100;  743.400
1002.948;   49.543;  -12.760;  737.400
1003.500;   47.861;  -10.380;  723.780
1004.051;   48.942;  -11.900;  907.580
1004.603;   47.279;  -12.250;  791.820
1005.154;   42.997;  -13.210;  608.980
1005.705;   41.732;  -10.950;  723.960
1006.257;   42.093;  -13.880;  707.220
1006.808;   40.611;  -12.840;  685.460
1007.359;   40.462;  -10.570;  763.240
1007.910;   39.371;   -9.620;  646.640
1008.461;   39.554;  -13.630;  732.940
1009.013;   38.770;  -17.200;  588.340
1009.564;   39.005;  -10.200;  793.520
1010.115;   37.250;  -12.570;  597.040
1010.665;   37.281;  -15.150;  602.160
1011.216;   38.226;  -14.480;  667.920
1011.767;   36.636;  -11.340;  697.920
1012.318;   37.062;   -9.780;  736.980
1012.869;   35.971;  -12.380;  679.000
1013.419;   35.633;  -15.560;  603.120
1013.970;   35.036;  -11.010;  666.640
1014.521;   34.330;  -11.610;  620.620
1015.071;   34.411;  -13.450;  670.380
1015.622;   34.693;  -13.870;  635.460
1016.172;   34.005;  -11.610;  596.820
1016.723;   32.907;  -12.120;  614.380
1017.273;   33.345;  -13.620;  604.160
1017.823;   34.701;  -14.140;  650.340
1018.374;   32.813;  -12.800;  611.760
1018.924;   32.515;  -12.340;  716.880
1019.474;   33.543;  -11.410;  718.880
1020.024;   32.481;  -14.770;  657.580
1020.574;   32.696;   -9.780;  726.160
1021.124;   32.685;   -8.560;  673.580
1021.674;   31.195;  -15.190;  559.120
1022.224;   32.749;  -13.530;  708.940
1022.774;   31.304;  -13.280;  668.820
1023.324;   32.308;  -10.690;  753.520
1023.874;   33.247;  -10.240;  875.760
1024.423;   31.416;  -12.540;  613.700
1024.973;   30.682;  -10.010;  610.760
1025.523;   29.314;  -10.550;  620.960
1026.072;   29.761;  -13.560;  606.420
1026.622;   29.610;  -15.120;  675.740
1027.172;   30.147;  -11.260;  715.660
1027.721;   29.284;  -11.410;  601.220
1028.270;   29.018;  -13.530;  663.400
1028.820;   29.851;  -13.680;  638.080
1029.369;   29.299;  -13.520;  612.700
1029.918;   28.653;  -10.980;  649.840
1030.468;   28.017;  -13.530;  564.780
1031.017;   29.633;  -13.170;  634.800
1031.566;   28.089;  -12.200;  608.900
1032.115;   28.741;   -9.960;  694.500
1032.664;   27.522;  -13.210;  596.480
1033.213;   28.451;  -12.500;  735.420
1033.762;   27.633;  -11.910;  635.620
1034.311;   26.872;   -9.640;  677.220
1034.860;   26.854;  -13.310;  691.000
1035.408;   27.696;  -11.830;  722.720
1035.957;   27.623;  -12.000;  719.540
1036.506;   25.037;  -11.690;  530.800
1037.055;   27.941;  -10.990;  844.320
1037.603;   26.714;  -15.120;  664.000
1038.152;   24.626;  -12.450;  534.760
1038.700;   25.167;  -10.560;  585.740
1039.249;   25.124;  -11.080;  681.220
1039.797;   25.924;  -12.540;  633.360
1040.345;   25.791;  -11.920;  705.420
1040.894;   25.485;  -11.410;  625.300
1041.442;   24.116;  -14.320;  632.200
1041.990;   23.820;  -16.240;  559.160
1042.538;   23.391;  -11.680;  536.180
1043.087;   23.517;  -10.760;  570.860
1043.635;   24.889;  -11.850;  670.500
1044.183;   23.711;  -15.480;  586.400
1044.731;   23.700;  -11.770;  576.000
1045.279;   22.821;  -13.090;  674.920
1045.827;   25.099;  -12.440;  892.400
1046.374;   23.001;  -13.840;  515.420
1046.922;   21.534;  -13.220;  590.580
1047.470;   23.536;  -10.230;  691.300
1048.018;   23.084;  -14.590;  647.960
1048.565;   24.154;  -12.050;  708.600
1049.113;   21.708;  -11.650;  557.000
1049.660;   21.734;  -10.510;  629.660
1050.208;   22.446;  -13.310;  675.640
1050.755;   22.195;  -15.900;  606.580
1051.303;   22.147;  -11.430;  686.820
1051.850;   21.009;   -8.480;  635.120
1052.397;   19.877;  -15.010;  473.960
1052.945;   20.532;  -13.960;  617.760
1053.492;   22.105;  -13.150;  741.840
1054.039;   22.322;   -9.630;  720.180
1054.586;   20.735;  -13.680;  557.240
1055.133;   21.686;  -14.570;  693.140
1055.680;   21.030;  -13.820;  646.620
1056.227;   19.501;  -11.730;  542.780
1056.774;   21.104;  -12.480;  794.980
1057.321;   20.141;  -13.930;  523.260
1057.868;   20.121;  -11.690;  651.320
1058.415;   18.978;   -9.520;  651.980
1058.961;   19.548;  -13.160;  678.940
1059.508;   20.064;  -12.920;  643.820
1060.055;   19.558;  -11.920;  581.780
1060.601;   19.845;  -11.500;  624.300
1061.148;   19.059;  -14.330;  616.820
1061.694;   18.619;  -16.870;  592.580
1062.241;   18.679;  -10.330;  596.320
1062.787;   18.618;  -10.620;  663.140
1063.334;   20.550;  -10.110;  808.560
1063.880;   19.210;  -13.400;  668.360
1064.426;   18.639;  -10.680;  706.820
1064.972;   17.674;   -9.920;  601.340
1065.518;   17.387;  -10.980;  566.640
1066.065;   18.820;  -14.890;  624.460
1066.611;   17.308;  -12.870;  598.800
1067.157;   17.840;  -12.950;  641.860
1067.703;   18.251;  -13.540;  668.480
1068.249;   18.233;  -13.540;  605.220
1068.794;   17.793;  -12.600;  626.880
1069.340;   16.288;  -10.620;  578.960
1069.886;   16.937;  -12.830;  590.700
1070.432;   16.407;  -14.870;  541.720
1070.977;   16.644;  -11.980;  601.080
1071.523;   15.722;   -8.200;  573.060
1072.068;   16.429;  -12.330;  582.000
1072.614;   16.558;  -16.370;  527.760
1073.160;   17.406;  -11.100;  687.040
1073.705;   15.914;  -10.480;  572.520
1074.250;   15.249;  -14.520;  559.900
1074.796;   17.256;  -11.460;  655.160
1075.341;   15.342;  -11.950;  664.100
1075.886;   14.930;  -11.460;  594.240
1076.431;   15.230;  -13.770;  649.880
1076.976;   15.491;  -12.680;  639.220
1077.521;   14.932;  -13.170;  583.080
1078.067;   13.966;  -10.860;  579.400
1078.612;   14.585;  -13.920;  661.620
1079.156;   15.036;  -13.880;  601.540
1079.701;   15.152;  -13.120;  693.260
1080.246;   15.026;   -9.940;  696.300
1080.791;   14.844;  -14.740;  625.020
1081.336;   15.278;  -13.750;  659.320
1081.880;   13.987;  -13.400;  649.680
1082.425;   13.285;  -12.220;  573.480
1082.970;   15.327;  -11.610;  717.040
1083.514;   13.838;  -13.580;  597.000
1084.059;   13.535;  -12.810;  586.720
1084.603;   12.997;  -12.320;  565.840
1085.147;   13.921;  -13.190;  645.220
1085.692;   15.136;  -12.480;  716.800
1086.236;   12.396;  -13.020;  503.140
1086.780;   14.239;   -9.190;  751.440
1087.325;   13.847;  -12.480;  654.620
1087.869;   13.530;  -12.450;  610.700
1088.413;   14.261;  -12.240;  705.040
1088.957;   11.990;   -9.020;  543.400
1089.501;   13.739;  -10.320;  766.640
1090.045;   13.371;  -12.720;  726.480
1090.589;   10.857;  -13.690;  569.920
1091.133;   12.325;  -10.020;  673.340
1091.676;   12.599;  -12.330;  591.940
1092.220;   11.896;  -14.970;  600.920
1092.764;   12.833;  -12.430;  706.960
1093.307;   11.923;   -9.800;  673.780
1093.851;    9.878;  -14.970;  556.540
1094.395;   12.310;  -15.310;  683.140
1094.938;   11.226;  -10.370;  632.520
1095.482;   11.594;  -11.050;  559.800
1096.025;   11.567;  -11.840;  710.880
1096.568;   12.565;  -12.840;  779.280
1097.112;    9.568;  -14.700;  508.180
1097.655;   11.562;   -8.720;  603.000
1098.198;    9.936;  -13.610;  600.180
1098.741;   10.295;  -13.350;  612.860
1099.285;   11.696;  -11.230;  657.300
1099.828;    8.625;  -11.840;  439.400
1100.371;    9.767;  -10.840;  608.160
1100.914;   11.210;  -14.190;  682.660
1101.457;   10.460;  -11.240;  679.900
1101.999;    8.909;  -11.270;  584.680
1102.542;    9.390;  -11.480;  641.440
1103.085;    9.749;  -11.750;  658.500
1103.628;   10.321;  -11.400;  762.060
1104.170;    9.122;  -10.490;  588.280
1104.713;    9.431;  -10.600;  646.700
1105.256;    9.395;  -14.360;  557.440
1105.798;    8.235;  -13.210;  499.980
1106.341;   10.128;  -10.270;  728.900
1106.883;    8.808;  -12.200;  521.340
1107.425;    9.243;  -13.110;  668.180
1107.968;    8.572;  -12.840;  612.380
1108.510;    8.886;   -6.480;  684.960
1109.052;    8.035;  -13.940;  612.620
1109.594;    8.066;  -13.690;  554.440
1110.136;    9.180;  -11.880;  643.220
1110.679;    7.562;   -9.500;  633.080
1111.221;    8.437;  -14.160;  604.460
1111.763;    8.374;  -13.980;  559.220
1112.304;    7.127;  -13.880;  547.140
1112.846;    7.853;  -12.210;  666.240
1113.388;   10.498;  -11.390;  942.180
1113.930;    8.579;  -14.540;  694.200
1114.472;    7.151;  -12.640;  606.540
1115.013;    5.820;  -11.620;  551.280
1115.555;    5.861;  -13.640;  587.100
1116.097;    7.387;  -15.380;  579.480
1116.638;    7.607;  -12.640;  684.600
1117.180;    7.167;   -9.850;  667.740
1117.721;    7.022;  -13.690;  568.580
1118.262;    7.232;  -12.680;  677.960
1118.804;    7.562;  -12.530;  637.340
1119.345;    5.599;  -11.690;  578.400
1119.886;    7.693;  -13.380;  704.040
1120.427;    6.447;  -14.070;  589.020
1120.969;    5.625;  -13.500;  597.920
1121.510;    5.147;  -11.480;  563.060
1122.051;    6.123;  -12.830;  723.580
1122.592;    6.000;  -14.290;  655.420
1123.133;    4.410;  -12.400;  547.940
1123.673;    6.381;  -10.130;  706.480
1124.214;    5.730;  -12.930;  612.460
1124.755;    6.771;  -14.380;  639.460
1125.296;    5.633;  -14.000;  627.320
1125.836;    6.101;  -10.070;  691.500
1126.377;    4.963;  -12.640;  599.660
1126.918;    6.163;  -12.960;  614.980
1127.458;    5.091;  -13.350;  622.220
1127.999;    5.537;  -10.750;  656.980
1128.539;    5.390;  -12.350;  694.240
1129.079;    5.137;  -14.860;  632.720
1129.620;    4.126;  -13.840;  558.100
1130.160;    3.392;  -12.330;  539.480
1130.700;    4.514;  -14.530;  640.840
1131.240;    5.350;  -12.530;  643.700
1131.781;    4.222;  -14.450;  619.680
1132.321;    4.530;   -9.790;  599.120
1132.861;    3.035;  -14.860;  564.200
1133.401;    3.433;  -14.290;  593.940
1133.941;    4.413;  -11.750;  626.280
1134.481;    3.356;   -9.920;  597.580
1135.020;    3.572;  -12.290;  609.160
1135.560;    3.953;  -11.650;  674.940
1136.100;    2.993;  -16.270;  501.160
1136.640;    2.464;  -10.890;  510.480
1137.179;    3.069;  -14.180;  537.960
1137.719;    3.312;  -16.250;  605.400
1138.258;    3.685;  -14.230;  587.360
1138.798;    3.271;   -9.090;  663.780
1139.337;    2.229;  -15.130;  482.840
1139.877;    3.621;  -13.680;  642.360
1140.416;    4.920;  -11.320;  878.060
1140.955;    1.843;  -10.860;  535.380
1141.494;    3.174;  -12.920;  669.280
1142.034;    2.785;  -13.930;  583.520
1142.573;    3.238;  -11.440;  646.280
1143.112;    1.909;  -12.000;  553.480
1143.651;    2.681;  -13.670;  536.480
1144.190;    3.611;  -12.730;  691.640
1144.729;    3.290;  -14.560;  607.420
1145.267;    2.048;  -11.830;  584.900
1145.806;    3.006;  -12.230;  637.040
1146.345;    2.366;  -14.130;  635.020
1146.884;    1.516;  -11.590;  622.500
1147.422;    0.711;  -12.550;  533.060
1147.961;    2.814;  -11.180;  708.460
1148.500;    2.569;  -11.510;  669.720
1149.038;    2.439;  -11.640;  632.500
1149.577;    2.602;  -10.130;  698.640
1150.115;   -0.286;  -13.970;  452.280
1150.653;    1.907;  -14.520;  607.340
1151.192;    1.738;  -12.810;  552.920
1151.730;    1.803;   -9.100;  652.560
1152.268;    0.396;  -12.220;  589.520
1152.806;    1.035;  -14.140;  571.180
1153.344;   -0.024;  -12.350;  577.640
1153.882;    1.236;   -8.980;  600.060
1154.421;   -0.032;  -15.190;  470.620
1154.958;    0.938;  -15.210;  595.240
1155.496;    1.637;  -12.850;  645.280
1156.034;    0.784;   -9.940;  721.880
1156.572;    2.220;  -13.570;  667.060
1157.110;    0.802;  -14.590;  473.940
1157.647;    1.380;  -13.030;  676.960
1158.185;    0.075;  -12.140;  564.320
1158.723;   -0.573;  -14.390;  509.200
1159.260;    1.318;  -14.090;  701.700
1159.798;    1.493;  -11.920;  658.160
1160.335;   -0.522;  -11.110;  631.820

