
Integration time [ms]:   3.276
Averaging Nr. [scans]: 1000
Smoothing Nr. [pixels]: 0
Data measured with spectrometer [name]: 7414430SP
Wave   ;Sample   ;Dark     ;Reference
[nm]   ;[counts] ;[counts] ;[counts] 

288.544;  149.558;    7.793;  793.890
289.143;  153.065;    7.462;  681.602
289.742;  154.207;    8.602;  828.814
290.341;  139.936;    1.321;  789.841
290.940;  128.175;   -0.709;  730.702
291.538;  129.164;    0.881;  881.108
292.137;  129.069;    0.122;  792.581
292.736;  134.340;   -1.929;  975.101
293.335;  130.411;   -8.229;  735.086
293.934;  130.620;   -5.279;  781.677
294.532;  129.153;   -1.369; 1031.958
295.131;  115.175;   -7.641;  834.394
295.730;  115.398;   -8.420;  809.588
296.328;  114.972;   -5.611;  783.442
296.927;  115.227;   -5.781;  779.652
297.525;  116.116;   -6.361;  781.236
298.124;  107.282;  -11.382;  654.009
298.722;  110.358;   -7.641;  761.933
299.321;  108.550;   -6.811;  708.597
299.919;  106.178;   -6.991;  751.918
300.518;  103.367;  -10.362;  689.338
301.116;  105.123;   -9.581;  691.381
301.715;  104.301;   -4.891;  730.222
302.313;  103.950;   -8.801;  704.943
302.911;   98.521;   -8.522;  733.830
303.509;  104.867;   -6.171;  925.627
304.108;  102.799;   -7.311;  760.383
304.706;  101.903;   -8.321;  801.664
305.304;   95.659;  -10.222;  796.707
305.902;  100.924;   -6.021;  784.484
306.500;   96.713;   -4.971;  728.200
307.098;   95.597;   -7.061;  746.560
307.696;   94.037;   -8.801;  780.432
308.294;   93.478;   -6.411;  731.359
308.892;   95.998;   -2.901;  759.769
309.490;   92.558;   -5.041;  712.161
310.088;   91.101;   -5.002;  788.444
310.686;   94.617;   -2.041;  821.749
311.284;   90.217;   -2.351;  766.040
311.882;   87.980;   -4.422;  731.225
312.480;   85.069;   -4.192;  697.167
313.078;   86.393;   -1.172;  808.331
313.675;   87.248;   -2.601;  691.600
314.273;   82.393;   -1.312;  797.837
314.871;   81.640;   -3.942;  589.829
315.468;   79.331;   -2.802;  652.090
316.066;   82.239;   -0.701;  694.427
316.664;   75.245;   -4.362;  656.351
317.261;   79.661;   -2.872;  910.128
317.859;   74.885;   -2.022;  768.735
318.456;   75.922;   -0.531;  830.096
319.054;   70.850;   -3.912;  787.828
319.651;   70.438;   -4.752;  759.928
320.249;   68.946;   -2.602;  810.188
320.846;   66.700;   -0.821;  714.286
321.443;   65.369;   -4.642;  832.135
322.041;   61.600;   -5.002;  812.315
322.638;   58.168;   -3.982;  701.456
323.235;   60.989;   -3.411;  665.683
323.833;   57.645;   -7.361;  740.354
324.430;   52.391;   -8.611;  615.900
325.027;   54.120;   -4.061;  876.855
325.624;   53.798;   -4.031;  644.532
326.221;   51.087;   -7.481;  689.717
326.818;   49.552;   -5.281;  818.332
327.415;   53.287;   -7.460;  748.828
328.012;   52.235;   -5.510;  690.585
328.609;   51.633;   -7.880;  731.389
329.206;   48.481;   -8.331;  778.621
329.803;   49.128;   -5.121;  737.841
330.400;   52.457;   -4.510;  704.260
330.997;   54.302;   -6.441;  817.147
331.594;   52.304;   -8.831;  788.185
332.191;   57.518;   -7.621;  728.722
332.787;   60.492;   -4.591;  844.463
333.384;   59.421;   -7.412;  763.093
333.981;   57.516;   -8.293;  815.687
334.578;   60.508;   -7.052;  708.378
335.174;   63.443;   -3.102;  731.469
335.771;   62.998;   -5.943;  836.456
336.367;   58.798;   -7.393;  710.631
336.964;   62.790;   -4.063;  793.266
337.561;   61.140;   -3.813;  731.112
338.157;   56.585;   -4.654;  911.916
338.754;   55.130;   -7.934;  796.589
339.350;   52.853;   -4.414;  722.493
339.946;   54.716;   -4.664;  773.135
340.543;   46.773;   -6.375;  846.136
341.139;   41.216;   -9.815;  720.836
341.735;   39.375;   -4.526;  772.593
342.332;   37.855;   -4.895;  691.472
342.928;   38.067;   -4.295;  795.394
343.524;   32.823;   -5.476;  761.684
344.120;   28.154;   -5.856;  738.562
344.716;   31.527;   -2.155;  723.717
345.313;   29.362;   -6.275;  795.342
345.909;   24.347;   -8.815;  627.336
346.505;   26.101;   -5.305;  740.247
347.101;   26.697;   -2.674;  827.864
347.697;   27.020;   -4.344;  785.398
348.293;   21.837;   -9.975;  627.244
348.889;   22.460;   -5.774;  745.914
349.485;   21.298;   -5.004;  688.205
350.081;   22.555;   -4.704;  772.592
350.676;   17.926;   -6.635;  691.606
351.272;   22.474;   -4.504;  809.530
351.868;   21.816;   -3.914;  780.497
352.464;   19.116;   -9.044;  723.932
353.059;   15.370;   -8.314;  646.017
353.655;   18.412;   -7.024;  777.063
354.251;   19.890;   -5.343;  759.845
354.846;   13.993;   -8.604;  740.646
355.442;   11.517;   -6.945;  753.071
356.038;   14.704;   -7.564;  751.708
356.633;   14.483;   -5.814;  728.594
357.229;   12.588;   -7.364;  724.757
357.824;   10.004;   -8.024;  703.600
358.420;    9.501;   -9.384;  679.726
359.015;   10.358;   -5.104;  695.357
359.610;   10.625;   -6.854;  763.920
360.206;    5.037;  -10.185;  603.240
360.801;    7.608;   -7.054;  646.503
361.396;   10.082;   -5.034;  725.975
361.992;    5.396;   -8.284;  668.220
362.587;    3.184;   -8.625;  670.160
363.182;    4.635;   -7.674;  689.631
363.777;    5.401;   -5.164;  738.242
364.372;    4.473;   -8.604;  737.314
364.967;    1.241;   -9.055;  680.744
365.563;    5.614;   -6.114;  815.567
366.158;    2.914;   -5.814;  685.161
366.753;    4.168;   -7.854;  649.263
367.348;    1.132;   -7.804;  746.056
367.942;    1.487;   -7.954;  697.298
368.537;   -0.266;   -4.984;  754.245
369.132;    1.555;   -8.564;  703.428
369.727;   -3.350;   -8.855;  638.079
370.322;   -1.497;   -6.245;  580.186
370.917;   -2.366;   -6.425;  710.646
371.511;    0.523;   -6.294;  861.834
372.106;   -3.373;   -7.685;  776.964
372.701;   -6.086;   -7.335;  585.988
373.296;   -0.684;   -4.564;  863.135
373.890;   -5.604;  -10.235;  647.840
374.485;   -7.861;   -7.885;  691.199
375.079;   -3.388;   -7.324;  738.685
375.674;   -2.355;   -3.494;  812.970
376.268;   -6.171;   -8.525;  691.759
376.863;  -13.058;  -10.086;  580.327
377.457;   -6.654;   -7.025;  662.490
378.052;   -7.981;   -3.585;  764.884
378.646;   -8.081;   -7.595;  741.167
379.240;   -9.282;   -8.335;  721.176
379.835;   -8.347;   -5.785;  636.978
380.429;  -10.381;   -4.335;  562.557
381.023;  -10.731;   -6.805;  779.205
381.617;  -12.781;   -9.195;  680.106
382.212;   -9.489;   -6.905;  685.303
382.806;   -7.751;   -3.745;  760.690
383.400;  -12.272;   -7.745;  672.281
383.994;  -14.102;   -9.765;  664.870
384.588;   -9.453;   -6.564;  697.701
385.182;   -8.801;   -5.344;  726.624
385.776;   -9.289;   -8.514;  706.875
386.370;  -13.399;   -9.555;  681.968
386.964;  -11.644;   -8.715;  684.155
387.558;   -9.874;   -6.174;  598.360
388.152;  -13.872;   -8.725;  681.959
388.745;  -12.055;   -7.965;  814.707
389.339;  -10.801;   -5.924;  747.642
389.933;   -9.388;   -5.524;  695.370
390.527;  -10.352;   -7.114;  859.029
391.120;  -16.733;  -10.725;  595.318
391.714;  -13.641;   -8.035;  711.633
392.308;  -10.498;   -3.574;  780.253
392.901;  -14.410;   -7.245;  642.460
393.495;  -16.630;   -9.285;  595.414
394.089;  -13.683;   -5.895;  760.452
394.682;  -14.623;   -4.295;  697.188
395.275;  -15.263;   -9.875;  719.927
395.869;  -16.750;   -8.485;  667.314
396.462;  -14.871;   -7.455;  616.609
397.056;  -11.553;   -5.424;  776.621
397.649;  -15.387;   -6.605;  731.575
398.242;  -13.309;   -8.224;  712.645
398.836;  -12.038;   -7.474;  766.408
399.429;  -13.825;   -7.094;  631.041
400.022;  -16.947;   -9.475;  665.902
400.615;  -14.482;   -7.145;  805.609
401.208;  -12.390;   -7.174;  691.451
401.802;  -14.444;   -5.515;  699.329
402.395;  -15.520;   -9.875;  683.502
402.988;  -17.183;   -8.845;  696.627
403.581;  -13.958;   -8.874;  646.878
404.174;  -11.140;   -5.324;  686.568
404.767;  -14.057;   -9.575;  638.583
405.360;  -17.637;  -10.965;  621.445
405.953;  -11.394;   -8.764;  759.034
406.545;  -10.617;   -7.514;  725.342
407.138;  -14.578;  -10.025;  618.350
407.731;  -13.960;  -10.034;  613.303
408.324;  -10.668;   -9.374;  660.554
408.917;  -10.986;   -6.534;  681.864
409.509;  -12.508;   -8.004;  740.396
410.102;  -15.852;   -9.875;  643.948
410.695;   -8.539;   -8.604;  665.758
411.287;   -9.853;   -6.794;  599.821
411.880;  -11.035;   -9.334;  585.421
412.472;  -13.784;  -10.254;  613.092
413.065;  -11.649;   -6.714;  629.408
413.657;   -8.939;   -7.234;  576.678
414.250;   -8.298;  -10.544;  646.681
414.842;  -11.253;   -9.744;  676.353
415.434;   -8.434;   -6.994;  570.463
416.027;   -4.783;   -5.893;  652.196
416.619;   -6.444;   -7.264;  713.400
417.211;   -7.388;  -10.374;  599.352
417.804;   -4.025;   -7.993;  628.499
418.396;   -7.492;   -7.234;  607.643
418.988;   -5.832;   -9.443;  659.238
419.580;   -8.934;  -10.724;  568.276
420.172;   -6.518;  -10.323;  536.196
420.764;   -1.792;   -8.793;  672.482
421.356;   -3.127;  -11.143;  636.898
421.948;   -4.380;   -8.293;  677.661
422.540;    0.670;   -7.893;  680.027
423.132;   -0.506;   -7.082;  600.641
423.724;   -3.562;   -8.653;  561.267
424.316;   -1.729;  -10.213;  621.345
424.908;    1.992;   -9.762;  591.517
425.500;    3.293;   -5.572;  647.978
426.092;    3.688;   -8.422;  648.268
426.683;    1.808;   -9.283;  684.836
427.275;    4.463;   -7.852;  641.471
427.867;    6.581;   -5.272;  668.948
428.458;    7.061;   -7.682;  732.344
429.050;    5.636;  -10.612;  680.749
429.642;    7.768;   -9.882;  743.124
430.233;    8.022;   -6.962;  569.356
430.825;    9.724;   -6.842;  724.809
431.416;    6.650;   -9.672;  698.241
432.008;   10.610;   -6.552;  651.723
432.599;   11.329;   -6.891;  656.073
433.190;    8.631;  -10.912;  637.670
433.782;    7.585;  -11.172;  590.395
434.373;   14.429;   -6.061;  884.765
434.964;   13.626;   -8.251;  602.920
435.556;   10.997;   -9.722;  634.537
436.147;   14.719;   -9.082;  758.490
436.738;   14.483;   -8.041;  701.099
437.329;   19.746;   -7.341;  721.723
437.920;   11.594;   -8.162;  666.688
438.511;   12.119;  -11.802;  564.526
439.103;   19.309;  -10.191;  623.998
439.694;   20.750;   -7.601;  681.583
440.285;   21.317;   -8.541;  764.432
440.876;   19.513;   -9.751;  845.738
441.466;   18.794;   -9.401;  575.162
442.057;   23.445;   -7.760;  665.814
442.648;   23.284;   -9.971;  746.255
443.239;   21.214;  -11.001;  620.477
443.830;   26.746;   -7.990;  704.958
444.421;   27.971;   -7.910;  655.474
445.011;   24.294;   -8.131;  693.619
445.602;   24.164;   -7.111;  743.126
446.193;   26.224;  -10.920;  488.117
446.783;   30.506;   -6.500;  640.397
447.374;   25.757;   -8.671;  692.759
447.964;   25.922;  -10.781;  713.770
448.555;   34.020;   -9.650;  822.742
449.145;   31.354;   -8.660;  662.853
449.736;   32.642;   -8.990;  803.179
450.326;   31.791;   -9.500;  713.626
450.917;   36.874;   -8.680;  675.324
451.507;   35.883;   -7.520;  600.661
452.097;   37.096;   -8.590;  746.267
452.688;   37.657;  -11.340;  742.160
453.278;   37.118;  -10.100;  566.840
453.868;   41.654;   -6.019;  793.550
454.458;   40.185;   -9.440;  651.141
455.048;   39.753;  -10.560;  711.783
455.639;   41.734;  -11.799;  567.096
456.229;   45.357;   -6.899;  710.694
456.819;   47.046;   -7.389;  751.158
457.409;   47.540;  -11.119;  773.993
457.999;   50.019;   -9.289;  737.505
458.589;   49.495;   -6.139;  686.606
459.179;   49.955;   -8.729;  717.658
459.769;   47.933;   -9.789;  627.099
460.358;   52.829;  -10.259;  797.262
460.948;   52.198;   -7.299;  689.503
461.538;   54.045;  -10.289;  660.677
462.128;   52.035;  -11.269;  664.934
462.717;   59.322;   -9.368;  710.326
463.307;   60.937;   -7.908;  705.846
463.897;   58.058;   -9.599;  656.942
464.486;   56.093;   -9.769;  837.128
465.076;   61.071;   -8.048;  733.776
465.666;   64.766;   -9.358;  652.900
466.255;   61.966;   -7.919;  785.651
466.845;   62.006;  -11.689;  666.749
467.434;   64.404;   -7.818;  725.873
468.023;   65.582;   -7.678;  658.357
468.613;   63.473;  -10.939;  713.946
469.202;   67.815;  -10.118;  646.507
469.791;   71.428;   -9.108;  737.811
470.381;   73.249;   -6.058;  742.813
470.970;   73.512;  -10.428;  711.099
471.559;   72.698;  -10.268;  733.291
472.148;   76.626;   -8.448;  675.737
472.738;   78.660;   -6.917;  765.466
473.327;   78.104;  -11.978;  637.529
473.916;   78.112;  -11.888;  737.446
474.505;   81.529;   -9.437;  751.703
475.094;   85.158;   -6.747;  806.570
475.683;   84.346;   -9.367;  797.699
476.272;   85.176;  -12.637;  730.632
476.861;   88.866;  -10.027;  706.754
477.449;   94.337;   -8.716;  728.487
478.038;   88.917;   -9.577;  692.513
478.627;   89.610;   -9.718;  714.852
479.216;   96.577;   -8.947;  769.441
479.805;   99.833;   -6.256;  783.375
480.393;   99.230;   -7.937; 1008.945
480.982;   97.224;   -7.717;  874.501
481.571;  104.320;   -9.266;  858.333
482.159;  104.341;   -7.636;  705.386
482.748;  105.040;   -9.667;  821.385
483.336;  109.163;  -10.376;  858.209
483.925;  110.515;   -7.147;  774.373
484.513;  116.093;   -7.996;  758.962
485.102;  113.789;  -10.027;  810.965
485.690;  121.940;  -10.446; 1011.050
486.278;  123.590;   -8.446;  979.329
486.867;  123.891;   -6.356;  809.662
487.455;  125.736;   -9.136;  898.229
488.043;  127.449;  -10.646;  748.361
488.631;  136.219;   -7.456; 1005.079
489.220;  139.499;   -6.636;  908.626
489.808;  139.491;  -11.036;  741.415
490.396;  147.485;  -10.246;  914.645
490.984;  152.211;   -8.556;  830.161
491.572;  162.935;   -5.886;  940.315
492.160;  168.048;   -9.486;  919.081
492.748;  179.082;  -10.976;  884.341
493.336;  200.879;   -8.776; 1019.693
493.924;  226.640;   -5.465;  958.077
494.512;  251.952;   -9.986; 1066.638
495.100;  287.795;  -10.636; 1103.280
495.687;  341.330;  -10.885; 1206.373
496.275;  403.115;   -8.126; 1150.796
496.863;  470.187;  -10.586; 1281.171
497.451;  567.231;  -11.926; 1386.805
498.038;  694.107;  -10.885; 1556.729
498.626;  796.905;   -6.315; 1741.407
499.214;  933.716;   -7.326; 2016.609
499.801; 1125.449;  -11.906; 2220.633
500.389; 1361.963;  -10.466; 2312.494
500.976; 1663.820;   -5.236; 2744.849
501.564; 2076.456;   -8.936; 3148.565
502.151; 2442.866;  -13.176; 3515.999
502.738; 2883.567;  -10.646; 3971.274
503.326; 3250.200;   -9.525; 4403.796
503.913; 3614.735;  -10.856; 5161.749
504.500; 3958.872;  -11.586; 5986.420
505.088; 4360.215;  -10.336; 6381.201
505.675; 4872.083;   -6.355; 6925.547
506.262; 5577.203;   -9.046; 7619.060
506.849; 6259.625;  -10.416; 8733.969
507.436; 6717.414;  -10.305; 9790.121
508.023; 7278.236;   -5.496; 9985.472
508.610; 7525.795;   -7.856;10434.618
509.197; 8148.142;  -10.097;11198.435
509.784; 9484.042;  -10.886;12391.194
510.371;10451.026;   -9.315;13603.713
510.958;11144.774;   -9.936;14426.586
511.545;11917.059;   -9.326;15243.775
512.132;12840.353;  -10.075;15945.876
512.719;13461.215;   -7.796;16340.369
513.305;14324.602;  -10.606;18011.766
513.892;15057.176;  -11.486;19754.971
514.479;16367.579;   -9.126;20967.805
515.066;17758.594;   -6.026;22299.793
515.652;18931.291;   -8.466;22908.660
516.239;20253.600;  -10.886;23798.875
516.825;21371.582;  -11.496;25567.275
517.412;22464.371;   -5.796;28154.959
517.998;22985.818;  -10.506;28344.111
518.585;22962.561;  -10.076;27134.219
519.171;23525.781;   -8.315;27268.576
519.758;24989.268;   -8.596;28964.129
520.344;26668.180;   -8.466;30664.494
520.930;26685.111;  -11.006;32550.605
521.516;28284.473;  -10.495;35422.895
522.103;30714.246;   -5.526;38280.004
522.689;31327.324;   -8.746;37835.117
523.275;30706.373;  -11.376;37288.613
523.861;31679.244;  -11.156;37281.395
524.447;32953.332;   -8.135;37846.949
525.033;32717.820;   -7.896;38321.949
525.619;33024.059;  -12.476;38579.285
526.205;34778.816;   -9.516;40622.875
526.791;36925.328;   -6.926;42258.836
527.377;37030.609;   -8.346;42966.902
527.963;38694.719;   -8.717;42018.949
528.549;37067.371;  -11.016;42476.828
529.135;35882.273;   -8.536;41854.852
529.721;35457.934;   -9.666;41237.711
530.306;34792.910;  -10.066;41259.445
530.892;34602.684;  -11.356;41506.047
531.478;36018.719;   -6.596;43559.613
532.063;38806.871;   -8.836;47695.563
532.649;39051.723;  -10.047;50808.324
533.235;40137.195;   -9.746;51787.500
533.820;41045.828;   -6.566;52145.035
534.406;42418.949;  -10.817;51133.488
534.991;42309.797;   -9.416;49996.805
535.576;40998.594;   -9.036;48882.852
536.162;41339.617;   -6.156;46942.285
536.747;42320.156;  -11.607;45711.746
537.333;46197.957;  -11.787;48510.180
537.918;48902.168;  -12.437;50439.891
538.503;47340.781;   -7.196;50863.711
539.088;44227.906;  -10.556;50906.922
539.673;44242.727;   -8.767;52621.965
540.259;44151.781;  -10.026;52368.094
540.844;41453.082;   -7.416;50879.109
541.429;42477.148;   -9.467;52077.777
542.014;45448.828;   -9.527;52716.695
542.599;45061.203;   -9.946;52363.281
543.184;42938.680;   -7.927;53187.137
543.769;44289.539;   -9.297;54697.605
544.354;43517.125;  -10.127;53913.914
544.938;42336.734;   -9.267;49680.164
545.523;44171.285;   -6.506;47386.277
546.108;46686.383;   -9.787;49151.949
546.693;48849.379;  -11.587;51384.637
547.278;48587.688;  -10.986;51853.254
547.862;45538.969;   -8.206;51173.750
548.447;41111.918;  -10.067;51691.395
549.031;40829.523;   -9.637;52456.703
549.616;45614.652;   -9.926;52714.516
550.201;44619.918;   -6.347;52414.598
550.785;45735.324;   -7.917;52355.059
551.370;45052.602;  -10.867;54589.453
551.954;45054.832;   -9.047;58267.348
552.538;45776.516;   -7.827;59062.176
553.123;44362.129;  -10.287;58115.285
553.707;42504.133;  -12.178;56556.285
554.291;43596.996;   -8.717;56201.668
554.876;45495.293;   -7.457;55335.762
555.460;45824.230;  -10.387;54155.703
556.044;47043.492;   -9.618;53721.484
556.628;45652.734;  -11.567;53731.016
557.212;44332.613;   -8.097;54312.531
557.796;42925.621;  -11.077;53797.773
558.380;42681.602;  -11.108;56145.984
558.964;42891.891;   -9.057;57277.930
559.548;44047.820;   -6.977;56459.641
560.132;42763.738;  -11.457;54434.543
560.716;41605.914;  -11.378;54800.617
561.300;42684.805;   -9.577;57606.945
561.884;43686.934;   -7.127;58972.445
562.467;42307.590;   -7.118;57327.570
563.051;41560.988;  -13.358;54962.434
563.635;42386.652;  -10.178;52594.473
564.219;42663.668;   -7.837;50610.410
564.802;43439.199;  -11.398;49551.180
565.386;43517.023;  -12.788;48370.953
565.969;43009.570;   -9.077;48178.871
566.553;42581.734;   -6.207;49957.305
567.136;42814.242;   -8.568;50369.594
567.720;39057.855;  -11.868;49492.004
568.303;37186.031;   -8.268;50616.352
568.887;37373.063;   -8.698;50727.148
569.470;37613.246;   -6.808;51698.379
570.053;36239.941;  -13.188;52122.078
570.637;34725.199;  -12.037;52536.438
571.220;34436.535;   -8.577;51186.098
571.803;34888.391;   -8.498;51032.762
572.386;37209.078;  -10.498;49609.887
572.969;39456.926;   -9.388;48285.926
573.552;37512.875;   -8.338;47624.285
574.135;36325.402;   -8.518;45498.641
574.718;33905.316;  -13.628;41970.434
575.301;32709.082;  -10.893;41447.137
575.884;31512.846;   -8.158;40923.836
576.467;32657.564;  -10.328;45267.723
577.050;34619.289;  -13.058;48175.543
577.633;35556.441;   -9.458;47729.328
578.216;33827.730;   -8.928;47579.793
578.799;32624.523;   -9.358;47820.996
579.381;31844.832;  -11.388;48115.551
579.964;31120.490;  -11.718;47333.766
580.547;33241.871;   -8.588;46668.969
581.129;34663.836;   -8.859;44466.141
581.712;35417.426;  -10.729;44164.922
582.294;36015.422;  -11.118;46477.855
582.877;35760.699;   -5.218;48244.254
583.459;33210.738;   -8.679;47437.895
584.042;31452.279;  -10.709;46943.219
584.624;32178.240;  -11.669;46792.227
585.206;31520.193;   -8.218;46557.250
585.789;31471.307;  -10.569;45793.773
586.371;33949.930;  -11.859;43836.391
586.953;34129.164;  -10.719;42972.492
587.536;34755.102;   -7.198;42487.211
588.118;33376.074;   -8.720;42086.414
588.700;28553.863;  -10.439;43389.930
589.282;26294.729;   -9.198;43646.039
589.864;27531.334;   -9.199;43438.109
590.446;30915.453;  -11.319;43151.926
591.028;32981.926;  -11.159;42781.867
591.610;32990.109;  -11.779;42839.098
592.192;30903.365;   -7.668;42820.402
592.774;29608.023;  -11.949;40724.277
593.356;28452.785;  -12.129;39874.789
593.937;27509.322;  -10.669;39980.648
594.519;29639.109;   -6.509;42069.633
595.101;31754.865;  -10.849;42976.031
595.683;31839.871;  -11.679;44084.441
596.264;33004.527;   -9.049;43478.797
596.846;32174.346;   -8.849;43803.672
597.427;31847.377;   -9.570;42986.934
598.009;33448.184;  -12.620;42832.219
598.591;33790.465;  -10.039;42580.086
599.172;32781.590;  -10.369;43061.805
599.753;32868.676;   -9.140;41691.469
600.335;34519.016;  -11.430;40692.520
600.916;33001.793;   -9.939;39982.422
601.498;30480.268;   -8.479;40318.617
602.079;29027.711;  -10.920;40670.609
602.660;29136.611;  -11.480;41450.898
603.241;30663.201;  -11.699;41137.738
603.823;29455.992;   -9.579;38868.797
604.404;29266.230;  -10.620;38182.785
604.985;30623.938;  -10.450;38078.047
605.566;30138.447;   -9.129;38056.633
606.147;30326.799;   -7.510;37020.418
606.728;32066.000;  -10.660;37883.359
607.309;30798.881;  -11.740;38748.273
607.890;30181.264;   -9.759;38850.230
608.471;29691.133;   -8.250;37457.918
609.051;28792.043;   -9.240;36066.457
609.632;27802.535;  -12.120;35991.074
610.213;28683.684;   -9.110;37402.641
610.794;29261.574;   -8.030;38383.363
611.374;28750.441;   -8.110;40562.387
611.955;29123.350;  -13.560;38533.727
612.536;30376.074;  -11.400;36951.789
613.116;30407.826;   -8.070;37197.891
613.697;30666.895;  -10.830;38411.125
614.277;29313.879;  -11.641;38673.938
614.858;30209.207;  -13.310;37075.863
615.438;29214.293;   -7.460;35092.906
616.019;26451.559;   -7.601;33666.301
616.599;27159.688;  -12.020;34189.023
617.179;28947.465;  -11.780;36952.047
617.760;29782.350;   -8.570;39582.574
618.340;30854.041;  -11.471;38943.977
618.920;32225.188;  -11.170;37594.156
619.500;32046.443;  -11.071;37866.938
620.080;31292.971;   -7.750;37869.043
620.660;32470.764;  -12.711;36868.617
621.241;33805.977;  -10.211;36352.309
621.821;33906.617;  -10.961;35459.520
622.401;32899.832;   -7.720;35207.414
622.980;32258.664;   -8.981;35980.422
623.560;30830.258;   -9.331;37351.328
624.140;29689.893;   -9.850;34388.582
624.720;24491.439;   -7.451;32368.764
625.300;21036.941;   -9.070;32638.629
625.880;24444.355;  -12.601;34599.035
626.459;28385.686;  -11.751;36831.738
627.039;31554.705;   -9.281;38299.098
627.619;31541.197;   -8.801;38289.574
628.198;29892.059;  -12.071;37220.695
628.778;29017.596;   -9.461;37632.563
629.357;29750.422;   -8.491;38003.012
629.937;29858.729;   -9.721;38402.039
630.516;29338.074;   -9.951;37868.801
631.096;28951.203;  -11.731;35760.410
631.675;31832.219;   -8.572;35225.219
632.254;36844.500;  -11.282;35130.289
632.834;36250.961;  -13.322;35794.570
633.413;34210.621;  -10.301;35788.922
633.992;31143.285;   -8.582;34532.863
634.571;32040.787;   -8.352;33590.113
635.151;35001.746;  -11.912;34943.863
635.730;33445.715;  -10.511;35352.523
636.309;30066.428;   -7.731;35366.605
636.888;27770.648;   -9.952;36165.637
637.467;28796.963;  -11.672;37515.902
638.046;30527.930;   -8.901;39288.695
638.625;33603.387;   -7.912;38279.699
639.204;33153.844;  -10.022;37741.598
639.782;31551.223;  -12.252;38364.551
640.361;27861.307;  -10.041;36740.621
640.940;24990.945;  -11.161;34950.082
641.519;25646.354;   -9.701;34137.398
642.097;28706.795;  -11.271;35654.258
642.676;31516.035;   -8.651;35637.957
643.255;31918.516;   -8.711;36567.074
643.833;31015.873;   -9.581;37809.434
644.412;31247.592;  -13.711;37337.293
644.990;30536.209;  -11.811;37018.531
645.569;30650.191;   -9.411;36518.469
646.147;29314.318;  -10.291;36186.430
646.726;28756.662;  -12.401;36267.688
647.304;29889.676;  -10.411;36647.625
647.882;31877.885;   -9.651;39286.742
648.461;33601.098;   -9.631;39157.703
649.039;31779.020;  -11.881;35412.883
649.617;31186.408;   -9.661;34744.918
650.195;30953.875;   -9.301;35403.098
650.773;29422.572;  -10.511;35053.797
651.352;27097.174;  -11.521;33756.816
651.930;24888.428;  -12.211;31868.773
652.508;23376.305;   -9.171;33121.551
653.086;27277.262;   -9.371;33564.793
653.663;29910.605;  -13.161;34054.668
654.241;28938.010;  -13.031;35693.309
654.819;30626.463;   -9.371;36422.906
655.397;30724.170;  -10.511;38213.484
655.975;30552.939;  -10.371;39507.625
656.553;30225.490;  -10.051;39498.223
657.130;28562.023;  -10.061;40395.480
657.708;28015.436;   -9.561;39242.020
658.286;28065.508;  -11.511;38920.020
658.863;29279.885;  -10.261;40202.898
659.441;32294.131;   -7.531;39677.938
660.018;31709.648;   -9.501;40413.355
660.596;30680.410;  -13.301;39931.414
661.173;32732.318;  -11.211;39604.531
661.750;32798.234;   -9.951;39700.070
662.328;31596.639;   -9.390;39292.809
662.905;30643.141;  -11.330;38235.648
663.482;26192.824;   -9.050;36212.305
664.060;24399.514;   -8.240;35944.945
664.637;27329.410;  -10.050;35170.785
665.214;29226.855;  -11.760;34197.523
665.791;30581.584;  -10.530;34549.520
666.368;29341.338;   -9.690;35118.578
666.945;30253.869;   -9.320;36019.418
667.522;31753.258;  -11.860;36048.438
668.099;31611.520;  -10.770;36243.914
668.676;30548.141;   -6.260;35958.875
669.253;29130.973;   -7.000;37384.730
669.830;29793.813;  -10.190;36779.629
670.407;29545.979;   -9.550;35231.289
670.984;29599.672;   -9.260;35544.270
671.560;29887.297;   -9.280;35466.867
672.137;28908.926;  -11.810;34280.863
672.714;29791.832;  -11.490;34632.863
673.290;30277.006;   -7.740;35135.422
673.867;30648.133;  -10.660;36114.480
674.443;30433.656;  -12.230;36152.859
675.020;28714.127;  -10.450;35327.238
675.596;29778.963;   -9.260;35795.176
676.173;30165.279;  -10.780;35430.355
676.749;29990.939;  -13.690;33549.516
677.326;30075.340;  -11.980;32210.012
677.902;30066.248;   -8.630;32068.871
678.478;29374.043;  -10.730;32583.891
679.054;28911.521;  -10.520;32088.928
679.631;29080.947;  -11.920;30978.848
680.207;30654.881;   -7.490;33160.887
680.783;32372.979;   -9.860;35570.363
681.359;31517.104;  -13.380;36125.184
681.935;30827.801;  -12.480;35240.922
682.511;29796.867;   -7.900;34429.961
683.087;29946.115;   -7.710;34463.680
683.663;29700.336;  -11.480;34648.898
684.239;28419.824;  -14.090;34546.457
684.815;28020.824;   -7.560;35586.375
685.390;28328.473;   -9.910;35821.895
685.966;28761.922;  -11.159;35085.871
686.542;31295.186;  -11.169;34198.230
687.118;33313.637;   -5.959;32847.707
687.693;33471.133;  -10.329;32794.027
688.269;33220.461;  -12.059;33072.367
688.844;31317.234;  -10.909;33141.664
689.420;28983.270;   -8.019;33965.742
689.995;26623.939;   -8.399;34655.523
690.571;25319.844;  -10.949;33576.742
691.146;25906.795;   -9.619;32657.219
691.722;25432.594;   -8.999;32526.979
692.297;25589.643;  -11.589;33014.617
692.872;27539.359;  -11.739;34012.254
693.448;26957.559;  -11.059;34237.434
694.023;26173.039;  -10.139;34142.672
694.598;28184.773;   -9.029;34132.031
695.173;28405.801;  -13.319;34205.250
695.748;27619.383;  -10.169;32882.488
696.323;27627.494;   -8.339;32864.906
696.898;27924.705;   -8.169;33170.004
697.473;27720.545;  -12.309;32432.984
698.048;27200.709;  -10.989;31649.303
698.623;27340.381;   -9.329;30778.141
699.198;29463.211;   -9.849;31140.119
699.773;30238.273;  -12.329;31764.299
700.348;28437.670;  -10.389;31780.816
700.922;28358.709;   -9.269;32046.375
701.497;29057.598;   -9.329;32603.574
702.072;29207.654;  -10.789;34799.871
702.646;27997.516;  -10.839;35793.172
703.221;26159.063;   -9.099;35201.590
703.795;28281.250;  -10.939;34764.527
704.370;28551.775;  -12.859;34307.367
704.944;28983.596;  -11.559;33509.887
705.519;29934.527;   -7.939;31388.584
706.093;31471.471;  -10.499;31340.104
706.668;31591.580;  -11.289;32630.281
707.242;30532.875;  -11.509;32728.779
707.816;28978.615;   -9.639;32947.238
708.390;27342.549;  -11.429;33277.855
708.965;27967.104;  -11.869;33834.336
709.539;28277.959;  -11.689;33709.273
710.113;28830.670;  -10.478;33044.313
710.687;28108.621;  -10.228;31953.992
711.261;26284.896;  -13.698;30505.949
711.835;26169.895;  -13.378;30262.369
712.409;27138.500;   -9.698;31254.447
712.983;29012.332;  -11.898;32754.986
713.557;29866.369;  -15.138;34018.824
714.131;29496.682;  -14.098;34579.625
714.704;28603.846;   -9.958;33890.262
715.278;26376.643;  -10.028;33531.102
715.852;25489.414;  -11.148;33601.660
716.425;26358.047;   -9.068;33515.117
716.999;26957.865;  -10.038;33185.555
717.573;27986.814;   -9.798;33905.996
718.146;29110.689;  -12.378;35199.293
718.720;28971.879;  -11.918;35060.551
719.293;28375.244;   -8.088;34973.230
719.867;31269.887;  -10.888;36394.449
720.440;30821.699;  -11.938;36663.008
721.013;29028.334;  -12.818;35102.426
721.587;27695.799;  -10.298;33985.266
722.160;26832.953;  -10.048;33524.965
722.733;25827.959;  -12.108;32987.043
723.306;26183.426;  -10.818;33066.301
723.880;28566.303;   -8.908;33399.500
724.453;30231.645;   -9.878;33468.297
725.026;29196.043;  -11.188;33816.637
725.599;26748.965;  -11.678;32797.996
726.172;27430.367;   -9.618;33187.434
726.745;28553.385;   -8.258;35136.613
727.318;29944.627;  -12.978;35751.730
727.891;30272.383;  -12.148;35890.430
728.463;29892.184;   -8.968;34822.090
729.036;28961.230;  -10.188;32895.086
729.609;29304.119;  -11.788;31823.225
730.182;26168.252;  -11.788;31445.283
730.754;23635.648;  -10.268;32373.223
731.327;23641.086;   -9.998;33676.820
731.900;24082.367;  -12.228;33417.000
732.472;25529.816;  -13.848;31978.498
733.045;27352.254;   -8.698;30368.777
733.617;27455.418;  -10.607;30574.215
734.190;27005.100;  -11.507;31280.975
734.762;23990.195;  -13.647;31674.412
735.334;22375.928;   -9.767;31247.291
735.907;23108.895;   -9.897;29876.211
736.479;23070.908;  -11.637;29808.488
737.051;22692.738;   -9.567;30233.547
737.623;23657.898;   -8.187;31469.086
738.195;24628.498;  -11.187;31784.225
738.768;26630.213;  -12.337;32120.523
739.340;26556.883;  -12.227;32094.342
739.912;25189.902;  -11.057;31312.680
740.484;23814.205;  -10.207;31946.238
741.056;22915.240;  -10.047;32984.059
741.628;24832.857;  -13.627;33897.715
742.199;27043.947;   -7.177;33213.016
742.771;25300.168;  -10.797;31369.113
743.343;22904.682;  -11.997;31865.473
743.915;21979.459;  -12.867;32388.631
744.487;22219.375;   -7.617;31079.568
745.058;22443.723;   -9.557;30570.107
745.630;22858.760;   -9.877;29970.127
746.201;23457.906;  -14.177;29186.766
746.773;23668.357;   -9.237;28805.723
747.344;23563.598;   -9.847;29591.223
747.916;22433.203;  -11.657;31412.201
748.487;22807.855;  -10.587;32194.898
749.059;23955.705;   -8.707;32533.719
749.630;24579.799;  -10.537;32158.518
750.201;23701.150;  -11.687;30855.395
750.773;21920.004;  -11.647;28622.555
751.344;21886.365;   -7.147;28405.732
751.915;23141.539;   -9.757;28461.551
752.486;22911.338;  -12.427;27842.850
753.057;20615.924;  -12.227;27845.008
753.628;19459.287;  -10.417;27728.107
754.199;20671.842;  -11.767;27381.086
754.770;21635.318;  -11.187;25882.203
755.341;21569.686;  -10.507;25886.184
755.912;21466.695;   -9.387;26050.861
756.483;20894.221;  -10.647;26798.779
757.054;19155.111;  -11.837;27048.238
757.625;17938.098;  -12.716;26294.838
758.195;17760.180;   -9.666;26142.076
758.766;17521.439;   -8.656;26392.234
759.337;18363.916;  -12.856;26334.594
759.907;20144.486;  -13.366;27579.652
760.478;20989.254;   -8.576;28352.770
761.048;20281.535;  -10.526;27325.088
761.619;19463.885;  -11.116;26460.428
762.189;19576.719;  -12.136;26029.826
762.760;20798.121;   -9.456;26430.145
763.330;21820.426;   -7.136;26670.902
763.900;21135.369;  -11.786;26603.021
764.471;18457.129;  -11.546;25542.740
765.041;17195.859;   -8.096;24358.459
765.611;17306.432;   -8.876;23991.297
766.181;17727.104;  -12.196;24470.236
766.751;18679.684;  -11.636;24845.975
767.321;18403.254;  -10.156;24533.633
767.891;16401.996;  -11.766;24916.492
768.461;15900.878;  -14.936;24776.771
769.031;16440.834;  -12.356;24757.988
769.601;17952.760;   -7.526;24181.088
770.171;17771.846;  -10.766;23670.387
770.741;17131.918;  -13.176;22960.045
771.311;17440.383;  -10.616;22917.523
771.880;17724.236;   -9.576;23562.941
772.450;17383.949;  -10.336;24216.500
773.020;17492.998;  -13.516;24140.398
773.589;16858.541;  -13.466;24414.857
774.159;16179.066;   -8.686;23858.717
774.729;15770.707;   -9.476;22942.135
775.298;15251.559;  -13.666;22324.033
775.867;14852.787;  -11.716;21140.313
776.437;14862.917;   -9.906;20838.092
777.006;14621.164;  -12.166;20599.510
777.576;14581.552;  -12.356;20508.809
778.145;14782.029;  -11.646;20732.947
778.714;14620.287;   -8.226;21062.465
779.283;13819.785;   -9.556;20949.664
779.853;13384.288;  -14.116;20508.623
780.422;13885.470;  -11.506;20649.082
780.991;13466.845;   -9.556;21527.520
781.560;12322.418;   -9.095;22632.658
782.129;12151.148;  -12.135;23048.277
782.698;12167.162;  -10.865;23438.555
783.267;11770.294;   -9.335;23267.734
783.836;11786.475;  -11.045;22415.133
784.404;12865.735;  -13.865;20443.152
784.973;13411.420;  -13.095;19699.150
785.542;13326.108;  -11.575;19763.828
786.111;13170.455;   -9.705;20341.408
786.679;12605.759;  -12.105;20207.967
787.248;12323.074;  -12.455;19516.465
787.817;12149.745;  -11.535;18900.363
788.385;11753.491;   -9.765;17879.121
788.954;11158.332;  -14.005;17658.301
789.522;10632.358;  -11.955;17788.879
790.090;11205.434;  -10.135;18118.277
790.659;11567.744;  -10.975;18338.736
791.227;11058.760;  -13.375;18508.615
791.795;11569.227;  -12.375;17898.254
792.364;11932.204;  -10.725;17295.133
792.932;12165.531;   -9.715;16822.051
793.500;12319.317;  -12.675;17040.148
794.068;12566.797;  -13.495;17179.787
794.636;12680.611;  -10.885;16664.246
795.204;12140.938;  -11.045;16524.545
795.772;12223.566;  -13.175;17274.564
796.340;11754.598;  -12.445;17891.002
796.908;11606.328;   -9.735;17648.561
797.476;11497.700;   -9.815;17064.080
798.044;11036.449;  -13.985;16672.777
798.612;10186.095;  -13.115;17023.996
799.180; 9757.905;  -10.185;16561.615
799.747; 9686.854;   -9.055;15962.773
800.315; 9438.360;  -12.385;15296.992
800.883; 9083.983;  -15.035;14801.771
801.450; 9055.613;  -10.365;14534.430
802.018; 9110.592;   -9.855;14173.248
802.585; 9270.116;  -11.905;14029.547
803.153; 9343.629;  -11.585;13836.846
803.720; 9187.419;   -9.095;13567.324
804.287; 8762.592;   -9.135;13360.622
804.855; 8360.595;  -11.604;13681.981
805.422; 8217.125;  -11.794;13536.560
805.989; 8221.821;  -10.734;13355.958
806.556; 8430.547;  -10.444;13747.896
807.124; 8688.408;  -12.764;13987.376
807.691; 8642.682;  -12.964;14038.674
808.258; 8428.258;  -11.134;14120.152
808.825; 8085.077;   -9.854;13860.111
809.392; 8133.064;  -10.504;13268.790
809.959; 7652.321;  -13.054;12680.389
810.526; 7244.916;   -8.294;12427.308
811.093; 7320.495;   -8.394;12030.105
811.659; 7890.211;  -12.304;11653.664
812.226; 8334.142;  -13.944;11637.183
812.793; 7987.136;  -10.484;11611.521
813.360; 7355.333;  -10.144;11885.181
813.926; 7086.251;  -11.684;12770.539
814.493; 6896.609;  -13.644;12677.638
815.060; 6530.853;   -9.724;11974.336
815.626; 6558.004;   -9.854;11594.715
816.193; 6958.797;  -13.254;11579.474
816.759; 6935.665;  -13.204;11666.972
817.325; 6966.692;   -9.434;11325.530
817.892; 7318.231;  -10.134;11105.369
818.458; 7760.065;  -13.474;10843.928
819.024; 7387.060;  -11.854;10714.406
819.591; 7081.470;  -10.244;10469.165
820.157; 6893.754;  -10.704;10235.523
820.723; 6424.873;  -12.324;10847.563
821.289; 6106.649;   -9.444;11040.980
821.855; 5978.437;   -8.374;10357.100
822.421; 5893.217;  -10.234; 9978.918
822.987; 5876.811;  -13.294; 9754.177
823.553; 5600.592;  -10.884;10065.755
824.119; 5448.171;   -8.884;10036.294
824.685; 5518.778;   -6.784;10029.192
825.251; 5593.445;  -12.004;10199.230
825.816; 5561.104;  -11.474; 9820.189
826.382; 5357.064;   -9.174; 9297.248
826.948; 5591.305;   -9.214; 9381.347
827.513; 5955.246;  -10.774; 9450.726
828.079; 5735.158;  -11.924; 9472.444
828.645; 5171.985;  -10.543; 9292.643
829.210; 5124.023;  -10.533; 9065.341
829.776; 5113.934;  -10.753; 9132.620
830.341; 4990.154;  -10.173; 9092.878
830.906; 5182.077;  -10.743; 9078.557
831.472; 5503.448;  -11.113; 8534.535
832.037; 5196.296;  -10.603; 8677.874
832.602; 4642.522;  -13.323; 8628.692
833.167; 4401.460;  -10.823; 8879.031
833.733; 4345.536;  -10.113; 9189.790
834.298; 4462.262;  -13.583; 9052.608
834.863; 4502.502;  -12.703; 8895.087
835.428; 4477.808;  -10.523; 8824.266
835.993; 4361.128;   -6.963; 8845.385
836.558; 4231.450;  -10.763; 8888.563
837.123; 4389.003;   -9.903; 8966.582
837.688; 4617.958;   -9.913; 8617.860
838.253; 4842.852;  -10.283; 8590.699
838.817; 5055.370;  -12.963; 8443.797
839.382; 4952.712;  -14.243; 8799.356
839.947; 4612.826;  -10.733; 8810.595
840.511; 4283.664;   -9.383; 8796.394
841.076; 3886.502;  -12.563; 8347.231
841.641; 3941.051;  -12.953; 8224.330
842.205; 4047.561;   -7.043; 8223.349
842.770; 4191.938;   -8.163; 8622.107
843.334; 4402.835;  -12.503; 8410.386
843.898; 4373.539;  -11.693; 8337.465
844.463; 4393.887;  -10.203; 8506.283
845.027; 4144.879;   -9.533; 8280.962
845.591; 3955.760;  -13.443; 8231.141
846.156; 3922.854;  -13.143; 7969.179
846.720; 3800.162;   -9.433; 7768.278
847.284; 3664.969;  -11.033; 7630.957
847.848; 3528.958;  -10.403; 7472.395
848.412; 3439.573;  -11.553; 7437.394
848.976; 3488.752;   -8.393; 7674.592
849.540; 3435.042;   -8.713; 7836.011
850.104; 3569.583;  -12.463; 7913.669
850.668; 3919.862;  -12.973; 7694.508
851.232; 4003.517;  -10.793; 7756.887
851.796; 3833.980;  -10.662; 7926.545
852.359; 3542.452;  -13.082; 7827.844
852.923; 3385.206;  -12.192; 7641.163
853.487; 3201.182;  -11.912; 7342.501
854.050; 3148.384;  -10.892; 7042.820
854.614; 3278.193;  -13.992; 7151.338
855.177; 3409.175;  -11.732; 7105.077
855.741; 3447.651;   -8.962; 6989.675
856.304; 3340.229;   -9.442; 6596.634
856.868; 3287.690;  -14.192; 6356.272
857.431; 3388.927;  -12.702; 6468.571
857.995; 3513.456;   -9.942; 6373.210
858.558; 3516.617;   -9.112; 6324.448
859.121; 3234.684;  -12.932; 6408.327
859.684; 3119.591;  -13.442; 6347.886
860.247; 3227.276;  -10.632; 6321.264
860.810; 3211.523;  -11.272; 6301.903
861.374; 2948.035;   -9.832; 6607.881
861.937; 2695.258;  -11.762; 6408.200
862.500; 2695.104;   -9.722; 6572.639
863.062; 2884.016;  -10.512; 6387.297
863.625; 3053.011;  -11.232; 6190.836
864.188; 3217.066;  -14.112; 5807.254
864.751; 3285.322;  -11.302; 5682.413
865.314; 3168.615;  -10.112; 5547.492
865.876; 2957.983;  -12.182; 5500.150
866.439; 2946.803;  -10.722; 5415.909
867.002; 2884.793;   -9.252; 5501.567
867.564; 2669.117;   -9.572; 5413.946
868.127; 2440.482;  -13.142; 5160.325
868.689; 2336.171;  -12.902; 5133.183
869.252; 2236.583;   -9.732; 5252.382
869.814; 2146.480;   -9.432; 5297.141
870.377; 2160.808;  -11.552; 5390.919
870.939; 2232.320;   -9.052; 5599.898
871.501; 2289.727;  -10.982; 5248.336
872.063; 2286.241;  -12.292; 4854.235
872.626; 2249.802;  -14.912; 4817.074
873.188; 2283.778;  -13.112; 4987.732
873.750; 2246.314;  -13.442; 4868.651
874.312; 2146.422;   -9.402; 4779.330
874.874; 2048.858;  -11.062; 4866.348
875.436; 1955.942;  -13.931; 4718.887
875.998; 1943.409;   -9.561; 4660.005
876.560; 1966.270;  -11.321; 4462.964
877.122; 1906.921;  -12.221; 4145.042
877.683; 1819.787;  -12.191; 4056.481
878.245; 1754.135;  -12.101; 3950.740
878.807; 1797.655;   -8.971; 4058.958
879.369; 1818.313;  -12.071; 3954.677
879.930; 1715.479;  -14.621; 3941.495
880.492; 1655.365;  -10.311; 4067.014
881.053; 1613.936;  -10.901; 3859.633
881.615; 1500.103;  -14.411; 3776.071
882.176; 1403.233;  -13.761; 3734.750
882.738; 1358.093;   -9.181; 3678.489
883.299; 1335.039;  -11.791; 3405.407
883.860; 1338.928;  -13.121; 3351.106
884.422; 1340.054;  -11.211; 3394.044
884.983; 1289.538;  -10.091; 3166.443
885.544; 1204.549;   -8.461; 3189.802
886.105; 1122.246;  -12.361; 3160.360
886.666; 1056.741;  -14.141; 3093.059
887.227; 1001.200;  -11.361; 2941.957
887.788;  939.492;  -11.401; 2974.836
888.349;  878.028;  -13.791; 2721.214
888.910;  878.615;  -13.191; 2696.493
889.471;  885.747;   -9.881; 2560.172
890.032;  867.436;   -9.881; 2558.190
890.593;  844.372;  -10.371; 2567.669
891.153;  815.817;  -13.301; 2460.307
891.714;  763.114;  -11.431; 2372.046
892.275;  721.558;  -11.291; 2309.505
892.835;  679.507;  -11.471; 2382.543
893.396;  623.824;  -11.541; 2295.502
893.956;  566.324;  -11.181; 2162.420
894.517;  531.182;  -11.741; 2125.439
895.077;  525.994;  -11.671; 2086.978
895.638;  526.669;  -11.311; 2126.316
896.198;  497.965;   -9.831; 1838.275
896.758;  454.011;   -8.421; 1892.813
897.319;  422.008;  -12.351; 1792.232
897.879;  405.444;  -13.511; 1762.751
898.439;  379.248;  -12.001; 1661.149
898.999;  355.553;  -10.180; 1781.468
899.559;  346.986;  -12.030; 1703.347
900.119;  342.249;  -15.710; 1537.525
900.679;  336.851;   -8.900; 1638.384
901.239;  323.207;   -8.340; 1527.902
901.799;  313.048;  -13.910; 1456.441
902.359;  306.247;  -13.460; 1357.140
902.919;  299.819;  -11.490; 1331.118
903.479;  287.100;  -12.110; 1317.257
904.038;  266.425;  -11.720; 1262.595
904.598;  250.741;  -13.610; 1152.034
905.158;  245.722;  -11.040; 1240.893
905.717;  239.024;  -10.900; 1233.691
906.277;  228.129;  -15.080; 1217.330
906.836;  217.570;  -13.380; 1222.408
907.396;  208.394;  -10.780; 1193.047
907.955;  201.713;   -8.500; 1182.526
908.515;  196.178;  -12.760; 1099.364
909.074;  189.388;  -11.900; 1092.863
909.633;  183.512;   -8.950; 1069.121
910.192;  180.015;   -8.770; 1196.460
910.752;  173.460;  -12.390; 1029.960
911.311;  169.501;  -13.680; 1009.780
911.870;  167.143;  -12.370;  971.460
912.429;  168.857;  -10.900; 1094.080
912.988;  168.511;  -11.690; 1081.060
913.547;  162.371;  -13.240;  940.380
914.106;  157.398;  -11.990;  999.420
914.665;  154.108;   -9.990;  984.020
915.224;  154.011;  -12.880; 1035.760
915.782;  154.050;  -12.350;  922.560
916.341;  153.533;   -9.110; 1049.840
916.900;  149.450;   -9.270;  925.260
917.458;  147.481;  -13.240;  884.220
918.017;  146.991;  -13.550;  942.600
918.576;  146.989;  -12.320;  904.440
919.134;  144.592;  -11.490;  837.980
919.693;  143.609;  -13.670;  893.060
920.251;  140.898;  -15.470;  876.500
920.809;  139.237;  -11.290;  839.580
921.368;  139.448;  -10.210;  885.360
921.926;  138.359;  -12.140;  842.940
922.484;  135.825;  -13.080;  903.360
923.042;  135.917;  -11.720;  880.340
923.601;  139.557;   -7.480;  998.680
924.159;  138.284;  -11.570;  935.560
924.717;  134.727;  -13.840;  841.080
925.275;  135.212;  -10.640;  903.240
925.833;  134.126;  -11.540;  779.320
926.391;  135.309;  -12.960;  938.380
926.949;  132.969;  -14.130;  857.680
927.506;  133.952;  -11.750;  903.500
928.064;  134.664;  -10.250;  877.580
928.622;  133.525;  -13.030;  880.100
929.180;  132.763;  -13.400;  814.180
929.737;  134.319;  -10.700;  808.540
930.295;  138.344;  -10.070;  928.480
930.853;  139.987;  -11.960;  849.100
931.410;  139.613;  -13.120;  821.120
931.968;  139.950;  -10.770;  940.660
932.525;  139.887;  -10.680;  909.380
933.082;  140.649;  -13.130;  811.440
933.640;  141.229;  -13.210;  925.900
934.197;  139.161;  -11.060;  886.360
934.754;  140.368;   -9.580;  897.780
935.312;  143.819;  -14.000;  863.340
935.869;  148.034;  -10.710; 1012.980
936.426;  148.305;   -9.860;  872.800
936.983;  149.592;   -9.710;  889.020
937.540;  148.929;  -13.990;  838.280
938.097;  146.494;  -14.040;  940.120
938.654;  147.136;  -10.310;  898.860
939.211;  150.777;  -10.560;  952.480
939.768;  154.914;  -13.900;  915.420
940.324;  158.117;  -14.760;  904.200
940.881;  157.926;  -10.370;  878.500
941.438;  159.127;   -8.260; 1021.200
941.995;  155.397;  -12.540;  992.560
942.551;  152.813;  -14.670;  875.620
943.108;  153.348;  -10.450;  937.920
943.664;  155.276;  -10.750;  869.340
944.221;  159.708;  -11.550; 1088.140
944.777;  156.910;  -14.770;  869.680
945.334;  158.066;  -12.820;  884.840
945.890;  158.785;  -10.130;  946.480
946.446;  159.814;  -13.470;  947.020
947.003;  161.583;  -12.120;  964.940
947.559;  164.292;   -9.980; 1063.040
948.115;  163.939;   -9.080; 1026.540
948.671;  161.611;  -10.830;  967.300
949.227;  159.291;  -12.440;  859.560
949.783;  156.737;  -12.910;  858.900
950.339;  158.473;  -10.270;  991.000
950.895;  158.760;  -13.630; 1023.840
951.451;  158.238;  -15.100;  925.280
952.007;  158.742;  -11.330;  998.540
952.563;  159.129;  -10.580;  937.780
953.118;  158.295;  -13.440;  904.940
953.674;  157.565;  -12.710;  935.780
954.230;  158.044;  -10.350;  949.640
954.785;  155.319;   -9.190;  936.640
955.341;  153.575;  -11.200;  998.160
955.897;  150.657;  -16.560;  834.660
956.452;  152.553;  -12.570;  953.840
957.008;  151.712;   -7.970; 1083.640
957.563;  150.086;  -11.940; 1009.540
958.118;  144.665;  -13.450;  877.700
958.674;  144.674;  -12.030;  946.780
959.229;  146.541;   -9.410; 1013.980
959.784;  143.967;  -12.000;  832.400
960.339;  143.797;  -14.780; 1001.280
960.894;  140.212;   -9.860;  963.760
961.449;  136.373;   -9.970;  859.960
962.004;  136.950;  -10.900; 1212.840
962.559;  130.058;  -13.150;  860.140
963.114;  128.225;  -13.740;  742.480
963.669;  127.611;   -9.820;  915.500
964.224;  126.809;  -13.890;  874.340
964.779;  125.951;  -12.600;  828.420
965.334;  126.697;  -10.950; 1017.860
965.888;  127.703;  -11.170;  875.360
966.443;  130.585;  -12.540;  972.380
966.998;  128.466;  -15.780;  819.460
967.552;  128.592;   -9.760;  908.380
968.107;  124.837;   -9.060;  868.300
968.661;  125.952;  -11.950;  922.440
969.216;  125.319;  -12.800;  856.280
969.770;  125.633;  -11.210;  917.200
970.324;  124.674;  -11.610;  923.140
970.879;  123.228;  -11.370;  947.180
971.433;  120.969;  -12.540;  952.720
971.987;  115.990;  -11.320;  895.340
972.541;  111.713;  -10.720;  917.100
973.095;  108.933;   -9.680; 1009.460
973.649;  100.530;  -11.440;  809.480
974.203;   91.775;  -11.210;  829.040
974.757;   85.480;  -10.240;  855.220
975.311;   82.090;  -13.720;  872.600
975.865;   81.359;  -13.770;  881.820
976.419;   81.921;  -11.690;  857.400
976.973;   84.286;   -9.510;  849.620
977.526;   88.144;  -12.620;  949.920
978.080;   87.774;  -12.010;  796.780
978.634;   91.062;  -10.170;  921.320
979.187;   90.411;   -9.020;  905.400
979.741;   88.205;   -9.820; 1018.380
980.294;   85.144;  -14.870;  789.160
980.848;   83.126;  -12.380;  717.220
981.401;   86.379;  -10.350;  816.540
981.955;   88.722;  -13.720;  844.300
982.508;   87.252;  -11.490;  746.340
983.061;   87.743;  -10.000;  915.260
983.615;   84.726;  -11.480;  798.800
984.168;   83.000;  -13.220;  770.080
984.721;   81.753;  -13.960;  880.760
985.274;   81.254;  -10.870;  867.500
985.827;   81.508;   -9.790;  834.220
986.380;   79.166;  -13.120;  721.340
986.933;   77.985;  -12.450;  864.800
987.486;   76.926;  -10.210;  861.920
988.039;   75.978;   -8.430;  863.100
988.591;   74.247;  -10.520;  893.260
989.144;   72.082;  -14.860;  737.260
989.697;   70.203;  -13.080;  758.740
990.250;   71.669;  -10.150;  858.100
990.802;   71.276;  -13.430;  755.860
991.355;   71.743;  -12.750;  974.880
991.907;   69.798;  -12.040;  864.320
992.460;   67.852;  -11.330;  753.760
993.012;   67.343;  -13.610;  749.540
993.565;   65.926;  -13.460;  711.360
994.117;   67.468;   -9.360;  950.780
994.669;   63.546;  -11.300;  701.320
995.221;   62.196;  -13.540;  791.920
995.774;   59.802;  -13.430;  787.580
996.326;   59.200;  -12.520;  740.220
996.878;   59.556;  -10.950;  838.420
997.430;   56.342;  -14.300;  699.860
997.982;   54.576;  -13.760;  750.140
998.534;   52.663;  -11.530;  739.060
999.086;   50.849;  -10.310;  738.220
999.638;   49.628;  -12.530;  661.380
1000.190;   49.824;  -11.840;  699.320
1000.741;   50.316;  -10.260;  742.700
1001.293;   50.898;   -8.860;  686.020
1001.845;   49.733;  -13.700;  676.640
1002.396;   48.936;  -12.100;  743.400
1002.948;   48.586;  -12.760;  737.400
1003.500;   47.344;  -10.380;  723.780
1004.051;   48.456;  -11.900;  907.580
1004.603;   46.376;  -12.250;  791.820
1005.154;   42.450;  -13.210;  608.980
1005.705;   42.093;  -10.950;  723.960
1006.257;   41.560;  -13.880;  707.220
1006.808;   40.777;  -12.840;  685.460
1007.359;   40.360;  -10.570;  763.240
1007.910;   39.720;   -9.620;  646.640
1008.461;   39.504;  -13.630;  732.940
1009.013;   38.332;  -17.200;  588.340
1009.564;   39.500;  -10.200;  793.520
1010.115;   37.886;  -12.570;  597.040
1010.665;   36.929;  -15.150;  602.160
1011.216;   37.535;  -14.480;  667.920
1011.767;   36.314;  -11.340;  697.920
1012.318;   36.829;   -9.780;  736.980
1012.869;   36.085;  -12.380;  679.000
1013.419;   34.646;  -15.560;  603.120
1013.970;   35.491;  -11.010;  666.640
1014.521;   34.932;  -11.610;  620.620
1015.071;   35.106;  -13.450;  670.380
1015.622;   34.673;  -13.870;  635.460
1016.172;   34.016;  -11.610;  596.820
1016.723;   33.904;  -12.120;  614.380
1017.273;   32.730;  -13.620;  604.160
1017.823;   33.533;  -14.140;  650.340
1018.374;   32.270;  -12.800;  611.760
1018.924;   33.141;  -12.340;  716.880
1019.474;   32.875;  -11.410;  718.880
1020.024;   32.112;  -14.770;  657.580
1020.574;   32.549;   -9.780;  726.160
1021.124;   32.166;   -8.560;  673.580
1021.674;   31.002;  -15.190;  559.120
1022.224;   32.338;  -13.530;  708.940
1022.774;   32.099;  -13.280;  668.820
1023.324;   32.489;  -10.690;  753.520
1023.874;   33.296;  -10.240;  875.760
1024.423;   30.966;  -12.540;  613.700
1024.973;   30.542;  -10.010;  610.760
1025.523;   30.248;  -10.550;  620.960
1026.072;   29.834;  -13.560;  606.420
1026.622;   29.225;  -15.120;  675.740
1027.172;   30.334;  -11.260;  715.660
1027.721;   28.668;  -11.410;  601.220
1028.270;   30.334;  -13.530;  663.400
1028.820;   29.322;  -13.680;  638.080
1029.369;   28.715;  -13.520;  612.700
1029.918;   28.685;  -10.980;  649.840
1030.468;   28.854;  -13.530;  564.780
1031.017;   29.239;  -13.170;  634.800
1031.566;   27.658;  -12.200;  608.900
1032.115;   28.706;   -9.960;  694.500
1032.664;   27.486;  -13.210;  596.480
1033.213;   27.909;  -12.500;  735.420
1033.762;   27.428;  -11.910;  635.620
1034.311;   27.433;   -9.640;  677.220
1034.860;   27.531;  -13.310;  691.000
1035.408;   26.837;  -11.830;  722.720
1035.957;   27.656;  -12.000;  719.540
1036.506;   25.229;  -11.690;  530.800
1037.055;   27.839;  -10.990;  844.320
1037.603;   26.346;  -15.120;  664.000
1038.152;   24.870;  -12.450;  534.760
1038.700;   25.675;  -10.560;  585.740
1039.249;   25.862;  -11.080;  681.220
1039.797;   25.444;  -12.540;  633.360
1040.345;   25.457;  -11.920;  705.420
1040.894;   25.182;  -11.410;  625.300
1041.442;   24.489;  -14.320;  632.200
1041.990;   24.107;  -16.240;  559.160
1042.538;   23.648;  -11.680;  536.180
1043.087;   23.426;  -10.760;  570.860
1043.635;   25.437;  -11.850;  670.500
1044.183;   23.938;  -15.480;  586.400
1044.731;   23.515;  -11.770;  576.000
1045.279;   23.137;  -13.090;  674.920
1045.827;   25.402;  -12.440;  892.400
1046.374;   22.739;  -13.840;  515.420
1046.922;   22.182;  -13.220;  590.580
1047.470;   23.531;  -10.230;  691.300
1048.018;   22.971;  -14.590;  647.960
1048.565;   23.048;  -12.050;  708.600
1049.113;   22.266;  -11.650;  557.000
1049.660;   22.466;  -10.510;  629.660
1050.208;   22.715;  -13.310;  675.640
1050.755;   21.194;  -15.900;  606.580
1051.303;   22.324;  -11.430;  686.820
1051.850;   21.282;   -8.480;  635.120
1052.397;   19.726;  -15.010;  473.960
1052.945;   20.438;  -13.960;  617.760
1053.492;   21.885;  -13.150;  741.840
1054.039;   22.152;   -9.630;  720.180
1054.586;   21.530;  -13.680;  557.240
1055.133;   20.977;  -14.570;  693.140
1055.680;   21.596;  -13.820;  646.620
1056.227;   19.644;  -11.730;  542.780
1056.774;   21.473;  -12.480;  794.980
1057.321;   19.518;  -13.930;  523.260
1057.868;   19.490;  -11.690;  651.320
1058.415;   19.568;   -9.520;  651.980
1058.961;   20.209;  -13.160;  678.940
1059.508;   19.505;  -12.920;  643.820
1060.055;   19.634;  -11.920;  581.780
1060.601;   19.956;  -11.500;  624.300
1061.148;   19.991;  -14.330;  616.820
1061.694;   18.603;  -16.870;  592.580
1062.241;   18.565;  -10.330;  596.320
1062.787;   18.836;  -10.620;  663.140
1063.334;   20.800;  -10.110;  808.560
1063.880;   18.963;  -13.400;  668.360
1064.426;   18.892;  -10.680;  706.820
1064.972;   18.034;   -9.920;  601.340
1065.518;   17.169;  -10.980;  566.640
1066.065;   17.800;  -14.890;  624.460
1066.611;   17.660;  -12.870;  598.800
1067.157;   18.886;  -12.950;  641.860
1067.703;   17.868;  -13.540;  668.480
1068.249;   17.648;  -13.540;  605.220
1068.794;   17.684;  -12.600;  626.880
1069.340;   17.292;  -10.620;  578.960
1069.886;   17.308;  -12.830;  590.700
1070.432;   15.953;  -14.870;  541.720
1070.977;   16.295;  -11.980;  601.080
1071.523;   16.349;   -8.200;  573.060
1072.068;   16.836;  -12.330;  582.000
1072.614;   15.735;  -16.370;  527.760
1073.160;   16.484;  -11.100;  687.040
1073.705;   15.899;  -10.480;  572.520
1074.250;   15.971;  -14.520;  559.900
1074.796;   16.983;  -11.460;  655.160
1075.341;   16.353;  -11.950;  664.100
1075.886;   15.602;  -11.460;  594.240
1076.431;   15.252;  -13.770;  649.880
1076.976;   15.274;  -12.680;  639.220
1077.521;   14.470;  -13.170;  583.080
1078.067;   14.508;  -10.860;  579.400
1078.612;   15.230;  -13.920;  661.620
1079.156;   14.517;  -13.880;  601.540
1079.701;   15.048;  -13.120;  693.260
1080.246;   15.784;   -9.940;  696.300
1080.791;   15.314;  -14.740;  625.020
1081.336;   15.212;  -13.750;  659.320
1081.880;   14.318;  -13.400;  649.680
1082.425;   14.439;  -12.220;  573.480
1082.970;   15.817;  -11.610;  717.040
1083.514;   13.641;  -13.580;  597.000
1084.059;   12.213;  -12.810;  586.720
1084.603;   13.254;  -12.320;  565.840
1085.147;   14.239;  -13.190;  645.220
1085.692;   14.057;  -12.480;  716.800
1086.236;   12.528;  -13.020;  503.140
1086.780;   14.575;   -9.190;  751.440
1087.325;   13.560;  -12.480;  654.620
1087.869;   13.591;  -12.450;  610.700
1088.413;   13.313;  -12.240;  705.040
1088.957;   11.217;   -9.020;  543.400
1089.501;   14.220;  -10.320;  766.640
1090.045;   12.242;  -12.720;  726.480
1090.589;   11.118;  -13.690;  569.920
1091.133;   12.863;  -10.020;  673.340
1091.676;   13.220;  -12.330;  591.940
1092.220;   12.444;  -14.970;  600.920
1092.764;   12.789;  -12.430;  706.960
1093.307;   12.290;   -9.800;  673.780
1093.851;   11.276;  -14.970;  556.540
1094.395;   12.139;  -15.310;  683.140
1094.938;   11.409;  -10.370;  632.520
1095.482;   11.403;  -11.050;  559.800
1096.025;   12.178;  -11.840;  710.880
1096.568;   11.997;  -12.840;  779.280
1097.112;   10.158;  -14.700;  508.180
1097.655;   11.426;   -8.720;  603.000
1098.198;   10.226;  -13.610;  600.180
1098.741;    9.912;  -13.350;  612.860
1099.285;   11.265;  -11.230;  657.300
1099.828;    9.187;  -11.840;  439.400
1100.371;   10.276;  -10.840;  608.160
1100.914;   10.923;  -14.190;  682.660
1101.457;    9.591;  -11.240;  679.900
1101.999;    8.995;  -11.270;  584.680
1102.542;   10.353;  -11.480;  641.440
1103.085;    9.961;  -11.750;  658.500
1103.628;    9.850;  -11.400;  762.060
1104.170;    9.142;  -10.490;  588.280
1104.713;    9.570;  -10.600;  646.700
1105.256;    8.996;  -14.360;  557.440
1105.798;    8.366;  -13.210;  499.980
1106.341;   10.106;  -10.270;  728.900
1106.883;    9.415;  -12.200;  521.340
1107.425;    8.665;  -13.110;  668.180
1107.968;    8.429;  -12.840;  612.380
1108.510;    9.714;   -6.480;  684.960
1109.052;    7.535;  -13.940;  612.620
1109.594;    7.734;  -13.690;  554.440
1110.136;    8.907;  -11.880;  643.220
1110.679;    7.544;   -9.500;  633.080
1111.221;    8.353;  -14.160;  604.460
1111.763;    7.531;  -13.980;  559.220
1112.304;    7.476;  -13.880;  547.140
1112.846;    8.500;  -12.210;  666.240
1113.388;   10.964;  -11.390;  942.180
1113.930;    8.195;  -14.540;  694.200
1114.472;    6.966;  -12.640;  606.540
1115.013;    6.160;  -11.620;  551.280
1115.555;    6.631;  -13.640;  587.100
1116.097;    6.583;  -15.380;  579.480
1116.638;    7.161;  -12.640;  684.600
1117.180;    7.492;   -9.850;  667.740
1117.721;    6.928;  -13.690;  568.580
1118.262;    7.574;  -12.680;  677.960
1118.804;    7.863;  -12.530;  637.340
1119.345;    6.313;  -11.690;  578.400
1119.886;    7.161;  -13.380;  704.040
1120.427;    5.685;  -14.070;  589.020
1120.969;    5.224;  -13.500;  597.920
1121.510;    5.183;  -11.480;  563.060
1122.051;    6.415;  -12.830;  723.580
1122.592;    5.583;  -14.290;  655.420
1123.133;    3.999;  -12.400;  547.940
1123.673;    6.314;  -10.130;  706.480
1124.214;    6.174;  -12.930;  612.460
1124.755;    6.281;  -14.380;  639.460
1125.296;    5.655;  -14.000;  627.320
1125.836;    6.323;  -10.070;  691.500
1126.377;    5.252;  -12.640;  599.660
1126.918;    6.140;  -12.960;  614.980
1127.458;    4.700;  -13.350;  622.220
1127.999;    4.711;  -10.750;  656.980
1128.539;    6.261;  -12.350;  694.240
1129.079;    4.763;  -14.860;  632.720
1129.620;    3.881;  -13.840;  558.100
1130.160;    3.925;  -12.330;  539.480
1130.700;    4.849;  -14.530;  640.840
1131.240;    5.447;  -12.530;  643.700
1131.781;    4.075;  -14.450;  619.680
1132.321;    4.546;   -9.790;  599.120
1132.861;    3.025;  -14.860;  564.200
1133.401;    3.210;  -14.290;  593.940
1133.941;    4.374;  -11.750;  626.280
1134.481;    3.109;   -9.920;  597.580
1135.020;    3.332;  -12.290;  609.160
1135.560;    4.233;  -11.650;  674.940
1136.100;    3.263;  -16.270;  501.160
1136.640;    2.930;  -10.890;  510.480
1137.179;    3.707;  -14.180;  537.960
1137.719;    3.347;  -16.250;  605.400
1138.258;    3.197;  -14.230;  587.360
1138.798;    3.687;   -9.090;  663.780
1139.337;    2.131;  -15.130;  482.840
1139.877;    2.919;  -13.680;  642.360
1140.416;    4.417;  -11.320;  878.060
1140.955;    2.133;  -10.860;  535.380
1141.494;    2.766;  -12.920;  669.280
1142.034;    2.648;  -13.930;  583.520
1142.573;    3.444;  -11.440;  646.280
1143.112;    2.402;  -12.000;  553.480
1143.651;    2.988;  -13.670;  536.480
1144.190;    2.955;  -12.730;  691.640
1144.729;    2.500;  -14.560;  607.420
1145.267;    2.367;  -11.830;  584.900
1145.806;    3.350;  -12.230;  637.040
1146.345;    1.852;  -14.130;  635.020
1146.884;    2.234;  -11.590;  622.500
1147.422;    1.017;  -12.550;  533.060
1147.961;    3.232;  -11.180;  708.460
1148.500;    3.078;  -11.510;  669.720
1149.038;    2.418;  -11.640;  632.500
1149.577;    2.760;  -10.130;  698.640
1150.115;    0.363;  -13.970;  452.280
1150.653;    2.532;  -14.520;  607.340
1151.192;    1.600;  -12.810;  552.920
1151.730;    1.590;   -9.100;  652.560
1152.268;    0.916;  -12.220;  589.520
1152.806;    1.458;  -14.140;  571.180
1153.344;    0.117;  -12.350;  577.640
1153.882;    0.787;   -8.980;  600.060
1154.421;   -0.247;  -15.190;  470.620
1154.958;    0.224;  -15.210;  595.240
1155.496;    1.448;  -12.850;  645.280
1156.034;    1.847;   -9.940;  721.880
1156.572;    2.676;  -13.570;  667.060
1157.110;   -0.447;  -14.590;  473.940
1157.647;    0.701;  -13.030;  676.960
1158.185;    0.400;  -12.140;  564.320
1158.723;   -0.693;  -14.390;  509.200
1159.260;    0.413;  -14.090;  701.700
1159.798;    0.450;  -11.920;  658.160
1160.335;    0.286;  -11.110;  631.820

