source_2
Integration time [ms]: 3468.598
Averaging Nr. [scans]: 10
Smoothing Nr. [pixels]: 0
Data measured with spectrometer [name]: 7414430SP
Wave   ;Sample   ;Dark     ;Reference
[nm]   ;[counts] ;[counts] ;[counts] 

288.544; 5226.760; 4983.385;    6.613
289.143; 4317.613; 4054.288;   14.216
289.742; 5571.196; 5296.867;   11.816
290.341; 5351.436; 5071.188;   -4.936
290.940; 4890.542; 4633.392;    0.852
291.538; 6130.025; 5870.872;    1.792
292.137; 5457.601; 5171.827;    6.262
292.736; 7003.636; 6773.389;    8.164
293.335; 4995.417; 4733.773;   -6.418
293.934; 5388.029; 5105.711;   -2.904
294.532; 7570.947; 7282.726;   -5.162
295.131; 5987.696; 5726.518;  -10.283
295.730; 5818.398; 5546.961;  -16.141
296.328; 5606.299; 5353.235;  -14.740
296.927; 5557.259; 5314.389;   -8.768
297.525; 5541.387; 5271.474;  -15.255
298.124; 4525.446; 4280.530;  -22.063
298.722; 5407.786; 5165.127;  -14.796
299.321; 5010.061; 4751.758;  -10.466
299.919; 5364.700; 5105.331;  -10.979
300.518; 4902.335; 4674.793;  -12.077
301.116; 4873.642; 4680.521;  -13.509
301.715; 5162.466; 4971.916;  -11.939
302.313; 5073.679; 4778.250;  -15.424
302.911; 5335.172; 5092.749;  -19.833
303.509; 6930.060; 6712.962;   -3.567
304.108; 5487.638; 5252.457;   -9.553
304.706; 5872.197; 5641.515;   -8.582
305.304; 5960.342; 5735.520;  -12.348
305.902; 5662.457; 5445.572;  -14.411
306.500; 5309.437; 5061.710;   -7.194
307.098; 5481.564; 5250.898;   -9.322
307.696; 5827.155; 5572.651;  -19.192
308.294; 5410.019; 5156.146;   -9.736
308.892; 5590.164; 5383.022;  -15.482
309.490; 5205.376; 4946.583;  -14.107
310.088; 5945.047; 5709.054;  -15.862
310.686; 6107.332; 5862.354;  -10.781
311.284; 5759.017; 5498.425;  -14.878
311.882; 5307.492; 5091.407;   -9.948
312.480; 5150.463; 4933.328;  -15.503
313.078; 6148.664; 5942.025;  -17.262
313.675; 5084.537; 4875.110;   -3.694
314.273; 6029.311; 5857.348;  -18.246
314.871; 4209.240; 4039.000;  -15.190
315.468; 4856.472; 4617.749;  -12.633
316.066; 5144.794; 4944.624;   -5.765
316.664; 4854.984; 4640.783;  -14.317
317.261; 7031.601; 6802.427;   -8.677
317.859; 5932.412; 5734.268;  -11.804
318.456; 6438.709; 6212.525;   -3.107
319.054; 6019.314; 5840.912;   -3.062
319.651; 5749.260; 5547.735;   -6.706
320.249; 6287.360; 6109.685;   -5.206
320.846; 5459.417; 5266.352;   -4.679
321.443; 6522.932; 6334.103;   -7.920
322.041; 6395.044; 6195.737;  -14.105
322.638; 5440.463; 5261.052;   -6.263
323.235; 5034.079; 4863.250;   -7.424
323.833; 5749.611; 5567.545;  -14.765
324.430; 4635.491; 4435.237;  -10.550
325.027; 6888.356; 6712.098;   -9.951
325.624; 4825.306; 4616.812;   -3.712
326.221; 5166.526; 4968.497;   -9.368
326.818; 6337.435; 6091.093;   -5.637
327.415; 5592.017; 5355.476;   -6.699
328.012; 5109.054; 4863.679;   -5.713
328.609; 5391.330; 5162.610;   -9.983
329.206; 5881.721; 5645.363;   -7.154
329.803; 5422.047; 5211.901;   -1.682
330.400; 5141.082; 4900.641;   -2.741
330.997; 6058.533; 5817.924;   -4.339
331.594; 5891.484; 5646.983;  -10.278
332.191; 5271.693; 4995.754;   -6.967
332.787; 6239.832; 5969.677;   -0.480
333.384; 5530.221; 5257.662;  -10.333
333.981; 6022.732; 5771.552;  -19.900
334.578; 5048.936; 4783.916;  -19.816
335.174; 5238.029; 4998.339;  -15.844
335.771; 6192.574; 5919.491;  -12.670
336.367; 5191.695; 4916.472;  -21.124
336.964; 5901.294; 5640.552;  -18.226
337.561; 5363.073; 5090.344;  -13.311
338.157; 6943.277; 6657.257;  -19.006
338.754; 5939.100; 5671.309;  -19.418
339.350; 5311.754; 5050.082;  -29.433
339.946; 5661.897; 5393.192;  -16.622
340.543; 6373.545; 6090.361;  -16.744
341.139; 5339.447; 5095.704;  -21.841
341.735; 5885.738; 5610.534;  -25.012
342.332; 5159.485; 4912.607;  -19.156
342.928; 5982.563; 5749.129;  -20.443
343.524; 5825.317; 5588.802;  -14.397
344.120; 5620.253; 5379.784;  -20.654
344.716; 5328.090; 5094.014;   -5.730
345.313; 6085.057; 5839.472;  -10.929
345.909; 4592.813; 4381.842;  -19.843
346.505; 5607.744; 5364.214;  -19.645
347.101; 6272.200; 6056.932;   -9.618
347.697; 5997.594; 5751.302;  -10.305
348.293; 4592.641; 4347.975;  -23.189
348.889; 5639.267; 5446.116;  -18.418
349.485; 5108.251; 4872.965;  -10.476
350.081; 5846.582; 5670.291;  -17.320
350.676; 5210.558; 5000.419;  -21.088
351.272; 6181.897; 5950.016;  -12.821
351.868; 5871.961; 5612.910;  -13.165
352.464; 5436.029; 5204.664;  -12.464
353.059; 4801.375; 4613.287;  -22.547
353.655; 5964.800; 5722.059;   -9.379
354.251; 5754.810; 5519.300;   -8.266
354.846; 5651.911; 5425.623;  -17.705
355.442; 5702.084; 5447.184;   -9.317
356.038; 5671.975; 5455.090;  -11.049
356.633; 5493.660; 5254.163;  -10.006
357.229; 5446.949; 5228.999;  -13.120
357.824; 5336.793; 5095.231;  -15.647
358.420; 5076.578; 4871.454;  -19.204
359.015; 5167.563; 4953.653;  -12.263
359.610; 5845.431; 5623.981;  -16.421
360.206; 4468.687; 4244.451;  -20.074
360.801; 4807.734; 4567.671;  -13.277
361.396; 5481.397; 5273.642;   -5.822
361.992; 5029.993; 4822.082;  -11.247
362.587; 5051.514; 4866.389;  -21.502
363.182; 5212.331; 5012.657;   -7.461
363.777; 5665.216; 5452.306;   -8.719
364.372; 5628.440; 5417.878;  -14.590
364.967; 5199.495; 4998.401;  -15.145
365.563; 6248.889; 6062.795;   -7.192
366.158; 5160.530; 4955.311;   -5.662
366.753; 4865.167; 4656.940;   -8.378
367.348; 5714.957; 5508.222;  -14.990
367.942; 5290.194; 5090.001;   -6.005
368.537; 5783.146; 5566.585;  -11.504
369.132; 5400.668; 5163.560;  -10.576
369.727; 4781.554; 4572.582;  -12.573
370.322; 4432.631; 4212.081;  -11.560
370.917; 5463.458; 5272.619;  -10.388
371.511; 6773.480; 6595.170;   -9.161
372.106; 6090.895; 5869.301;  -10.245
372.701; 4439.983; 4245.487;  -10.158
373.296; 6719.699; 6521.885;   -4.719
373.890; 4982.213; 4797.689;  -11.802
374.485; 5367.448; 5206.901;  -13.500
375.079; 5780.519; 5582.247;   -6.276
375.674; 6365.459; 6178.866;   -0.447
376.268; 5342.468; 5119.886;   -6.916
376.863; 4496.212; 4325.718;  -14.483
377.457; 5154.512; 4959.743;   -6.903
378.052; 6006.862; 5812.932;   -9.844
378.646; 5869.598; 5688.691;  -12.601
379.240; 5705.486; 5483.954;  -14.715
379.835; 4976.256; 4791.252;  -12.331
380.429; 4352.837; 4139.587;   -9.074
381.023; 6193.274; 6023.366;   -1.729
381.617; 5354.487; 5193.600;  -13.714
382.212; 5368.982; 5199.617;   -7.060
382.806; 6031.512; 5856.393;   -2.303
383.400; 5344.253; 5194.861;   -0.815
383.994; 5282.141; 5127.624;   -4.429
384.588; 5566.765; 5394.073;   -6.261
385.182; 5825.339; 5638.881;    0.008
385.776; 5699.326; 5545.624;   -3.247
386.370; 5450.057; 5300.699;   -1.030
386.964; 5483.793; 5324.055;   -1.346
387.558; 4761.299; 4587.712;   -2.020
388.152; 5476.627; 5338.543;   -5.345
388.745; 6644.204; 6478.322;   -2.774
389.339; 5933.957; 5769.749;    3.510
389.933; 5491.965; 5325.146;    5.280
390.527; 7011.141; 6889.151;    2.610
391.120; 4781.503; 4663.248;   -7.914
391.714; 5691.229; 5553.737;   -1.903
392.308; 6353.368; 6199.287;    6.023
392.901; 5225.846; 5082.758;   -4.103
393.495; 4861.469; 4713.759;    3.284
394.089; 6303.511; 6189.122;    8.655
394.682; 5723.675; 5610.813;    2.312
395.275; 5893.630; 5792.710;   -7.402
395.869; 5486.555; 5370.055;   -1.072
396.462; 5007.794; 4932.678;    6.454
397.056; 6350.344; 6202.715;    8.494
397.649; 6017.014; 5922.913;    1.599
398.242; 5878.760; 5768.239;    3.153
398.836; 6290.828; 6167.017;   11.395
399.429; 5102.611; 5014.096;   14.695
400.022; 5481.071; 5395.776;    3.627
400.615; 6737.135; 6618.121;    8.383
401.208; 5621.377; 5498.181;   13.295
401.802; 5798.208; 5681.382;    6.211
402.395; 5670.171; 5596.026;    7.227
402.988; 5756.565; 5664.872;    2.700
403.581; 5212.802; 5136.675;   11.225
404.174; 5563.934; 5480.048;   18.922
404.767; 5162.522; 5071.610;   14.169
405.360; 5133.448; 5064.078;    8.999
405.953; 6257.213; 6154.089;   13.138
406.545; 6007.362; 5915.479;   13.937
407.138; 5056.639; 4989.331;   10.869
407.731; 5052.055; 4971.279;   12.768
408.324; 5390.166; 5308.193;   22.921
408.917; 5636.739; 5555.781;   15.308
409.509; 6139.398; 6066.265;   12.239
410.102; 5364.916; 5291.206;   13.741
410.695; 5448.506; 5394.863;   20.249
411.287; 4914.509; 4872.253;   21.793
411.880; 4781.136; 4750.541;   22.965
412.472; 5051.717; 4994.453;   15.082
413.065; 5257.701; 5211.779;   23.423
413.657; 4753.580; 4700.924;   21.077
414.250; 5317.356; 5250.026;   12.349
414.842; 5584.401; 5521.505;   20.423
415.434; 4727.587; 4676.125;   19.906
416.027; 5312.560; 5250.987;   26.574
416.619; 5900.770; 5860.780;   15.705
417.211; 4903.508; 4856.906;   17.791
417.804; 5135.569; 5078.208;   30.244
418.396; 5050.546; 4972.632;   24.177
418.988; 5431.185; 5394.105;   24.904
419.580; 4680.542; 4639.345;   20.692
420.172; 4439.395; 4422.949;   22.275
420.764; 5504.759; 5436.114;   26.773
421.356; 5281.891; 5234.536;   25.731
421.948; 5561.962; 5520.057;   24.876
422.540; 5537.351; 5486.917;   30.042
423.132; 4932.539; 4874.056;   32.728
423.724; 4560.180; 4547.598;   21.317
424.316; 5121.781; 5074.269;   29.359
424.908; 4870.364; 4818.475;   28.798
425.500; 5311.509; 5270.527;   30.512
426.092; 5294.816; 5262.205;   26.741
426.683; 5728.939; 5674.779;   27.029
427.275; 5260.758; 5220.344;   32.611
427.867; 5420.695; 5381.797;   33.796
428.458; 6011.260; 5979.088;   34.453
429.050; 5609.961; 5560.808;   34.255
429.642; 6091.800; 6064.581;   39.082
430.233; 4519.030; 4497.833;   41.138
430.825; 6006.600; 5978.757;   31.581
431.416; 5725.245; 5693.486;   35.755
432.008; 5265.120; 5234.766;   40.566
432.599; 5277.201; 5254.004;   46.322
433.190; 5183.080; 5165.022;   46.897
433.782; 4570.906; 4558.587;   41.069
434.373; 7188.331; 7136.306;   48.778
434.964; 4829.664; 4799.398;   50.078
435.556; 5122.616; 5104.428;   52.381
436.147; 6163.092; 6134.034;   38.251
436.738; 5685.813; 5644.065;   47.237
437.329; 5797.152; 5767.012;   61.304
437.920; 5317.608; 5283.781;   48.611
438.511; 4486.791; 4484.836;   44.910
439.103; 4959.252; 4948.235;   62.404
439.694; 5460.511; 5438.619;   63.075
440.285; 5983.927; 5937.420;   61.033
440.876; 6917.974; 6875.643;   57.249
441.466; 4542.887; 4531.124;   61.306
442.057; 5276.443; 5215.991;   65.773
442.648; 6019.462; 5976.379;   65.676
443.239; 4946.001; 4920.651;   55.963
443.830; 5633.491; 5610.384;   69.631
444.421; 5168.935; 5137.718;   69.943
445.011; 5490.325; 5510.426;   72.791
445.602; 5912.623; 5907.933;   68.848
446.193; 3730.619; 3709.493;   80.044
446.783; 4926.731; 4895.904;   82.599
447.374; 5428.398; 5405.238;   77.419
447.964; 5689.036; 5641.364;   72.605
448.555; 6501.517; 6454.327;   82.041
449.145; 5186.157; 5148.146;   76.230
449.736; 6370.836; 6313.438;   75.545
450.326; 5583.653; 5572.809;   67.945
450.917; 5248.380; 5214.044;   77.598
451.507; 4628.871; 4629.224;   68.027
452.097; 5891.292; 5859.108;   67.771
452.688; 5745.053; 5714.359;   62.884
453.278; 4183.926; 4175.920;   65.512
453.868; 6280.313; 6226.240;   71.796
454.458; 5034.312; 4998.066;   60.956
455.048; 5523.429; 5505.911;   62.356
455.639; 4295.083; 4270.608;   58.782
456.229; 5481.640; 5442.075;   65.209
456.819; 5774.621; 5737.538;   61.466
457.409; 6033.821; 5988.460;   59.967
457.999; 5653.243; 5608.689;   58.093
458.589; 5148.229; 5144.935;   59.536
459.179; 5510.094; 5490.749;   55.994
459.769; 4739.119; 4700.417;   43.624
460.358; 6133.981; 6079.692;   46.978
460.948; 5246.567; 5199.387;   49.821
461.538; 4936.814; 4915.584;   54.678
462.128; 4989.140; 4979.425;   49.309
462.717; 5313.661; 5271.431;   52.774
463.307; 5305.067; 5279.012;   48.101
463.897; 4874.254; 4840.453;   45.606
464.486; 6492.340; 6435.799;   45.010
465.076; 5517.048; 5508.673;   45.519
465.666; 4763.814; 4710.358;   50.058
466.255; 5974.535; 5932.642;   44.463
466.845; 4888.071; 4845.475;   41.206
467.434; 5438.672; 5385.521;   44.847
468.023; 4754.699; 4736.857;   46.760
468.613; 5330.229; 5274.485;   39.736
469.202; 4687.833; 4667.222;   46.461
469.791; 5397.853; 5351.184;   47.944
470.381; 5406.157; 5350.895;   47.529
470.970; 5154.209; 5136.348;   43.773
471.559; 5418.287; 5390.396;   41.646
472.148; 4826.711; 4762.518;   37.914
472.738; 5564.591; 5495.057;   48.071
473.327; 4487.909; 4456.801;   47.871
473.916; 5339.780; 5287.146;   37.716
474.505; 5428.129; 5393.509;   40.256
475.094; 5909.106; 5865.358;   43.269
475.683; 5719.248; 5701.447;   36.499
476.272; 5183.118; 5158.572;   44.542
476.861; 4953.146; 4900.277;   42.297
477.449; 5088.548; 5016.748;   46.878
478.038; 4796.763; 4744.075;   35.156
478.627; 4973.744; 4943.110;   42.514
479.216; 5386.397; 5325.338;   43.937
479.805; 5441.177; 5371.653;   51.393
480.393; 7368.399; 7300.708;   53.239
480.982; 6300.612; 6238.065;   38.955
481.571; 6054.546; 6005.705;   45.436
482.159; 4683.889; 4618.991;   51.007
482.748; 5701.445; 5641.481;   49.695
483.336; 5933.632; 5872.924;   48.280
483.925; 5074.521; 4993.409;   47.166
484.513; 5034.319; 4970.040;   55.404
485.102; 5462.631; 5368.277;   54.238
485.690; 7089.790; 7009.038;   55.748
486.278; 6804.844; 6745.635;   55.934
486.867; 5278.554; 5215.002;   57.106
487.455; 6011.665; 5939.843;   56.979
488.043; 4684.503; 4629.218;   57.564
488.631; 6805.643; 6732.188;   57.432
489.220; 5967.988; 5888.118;   63.646
489.808; 4467.624; 4399.126;   65.449
490.396; 5891.063; 5816.073;   61.977
490.984; 5008.428; 4951.264;   68.834
491.572; 5916.862; 5823.526;   70.775
492.160; 5576.703; 5484.568;   67.564
492.748; 5157.989; 5103.664;   66.808
493.336; 5990.572; 5918.320;   79.747
493.924; 5143.373; 5054.267;   88.688
494.512; 5867.633; 5817.397;   84.120
495.100; 5752.958; 5691.016;   86.250
495.687; 6101.978; 6014.601;  103.074
496.275; 4956.480; 4878.941;  108.717
496.863; 5145.329; 5065.160;  107.035
497.451; 5097.743; 5034.038;  117.993
498.038; 5387.629; 5313.558;  120.116
498.626; 5161.666; 5086.890;  143.059
499.214; 5559.544; 5471.485;  153.434
499.801; 5417.233; 5322.221;  175.121
500.389; 4438.463; 4364.446;  185.617
500.976; 5636.523; 5544.377;  215.789
501.564; 5418.717; 5330.850;  240.321
502.151; 3929.772; 3852.220;  267.007
502.738; 5115.317; 5027.823;  317.961
503.326; 5225.146; 5129.429;  361.216
503.913; 5453.377; 5378.604;  401.433
504.500; 5598.609; 5530.499;  446.492
505.088; 4775.268; 4710.506;  512.063
505.675; 5223.639; 5123.102;  586.387
506.262; 5204.517; 5085.023;  671.021
506.849; 5302.917; 5209.396;  759.062
507.436; 5993.339; 5891.975;  849.788
508.023; 5265.973; 5196.791;  944.288
508.610; 5876.024; 5784.424; 1020.690
509.197; 5661.026; 5582.570; 1089.052
509.784; 5334.629; 5220.757; 1133.776
510.371; 4465.383; 4366.182; 1165.501
510.958; 5426.262; 5338.453; 1251.735
511.545; 6248.256; 6150.146; 1350.248
512.132; 5327.887; 5223.521; 1525.945
512.719; 4749.577; 4663.104; 1834.933
513.305; 4881.290; 4822.911; 1965.349
513.892; 6182.737; 6074.784; 1963.265
514.479; 5428.688; 5352.118; 2046.446
515.066; 5964.186; 5865.174; 2252.803
515.652; 5403.488; 5316.741; 2567.247
516.239; 5779.115; 5688.453; 2636.919
516.825; 4520.903; 4440.519; 2482.304
517.412; 6671.576; 6569.657; 2427.031
517.998; 5207.202; 5124.672; 2540.463
518.585; 5123.272; 5041.720; 2609.007
519.171; 5459.373; 5357.517; 2842.088
519.758; 4607.269; 4527.980; 3090.703
520.344; 5897.430; 5801.957; 3176.076
520.930; 4748.597; 4660.865; 3295.037
521.516; 5670.682; 5568.661; 3500.959
522.103; 6218.919; 6109.140; 3736.704
522.689; 5146.367; 5046.509; 3971.022
523.275; 6050.665; 5921.020; 4213.778
523.861; 5242.934; 5141.817; 4190.361
524.447; 6034.301; 5895.449; 4070.602
525.033; 6078.343; 5969.365; 4088.892
525.619; 4907.725; 4824.573; 4416.851
526.205; 4603.078; 4522.824; 4836.835
526.791; 5178.735; 5080.638; 4885.903
527.377; 4976.339; 4886.777; 4544.907
527.963; 5459.945; 5357.608; 4321.995
528.549; 5562.515; 5471.029; 4473.979
529.135; 4862.152; 4799.785; 4788.663
529.721; 5383.247; 5289.275; 4888.577
530.306; 7256.515; 7149.079; 4775.779
530.892; 5116.921; 5035.210; 4793.906
531.478; 5025.139; 4910.001; 4956.948
532.063; 4773.563; 4698.426; 5136.936
532.649; 6607.955; 6475.575; 5336.867
533.235; 4813.576; 4710.380; 5748.092
533.820; 6121.195; 6033.095; 6456.875
534.406; 5242.872; 5133.546; 6590.167
534.991; 4856.384; 4744.730; 6179.622
535.576; 5284.192; 5152.528; 6098.691
536.162; 7296.794; 7175.622; 6441.234
536.747; 4582.986; 4500.724; 6816.224
537.333; 4894.110; 4772.972; 6889.752
537.918; 5306.750; 5181.318; 7154.280
538.503; 4988.489; 4867.438; 7150.848
539.088; 5562.706; 5444.059; 7253.308
539.673; 5122.633; 5018.697; 7625.180
540.259; 4929.460; 4832.009; 8226.793
540.844; 4357.243; 4250.265; 8745.092
541.429; 6443.010; 6360.395; 8762.553
542.014; 4533.364; 4420.172; 8871.497
542.599; 5525.889; 5417.014; 8886.008
543.184; 4658.615; 4561.306; 9079.139
543.769; 4978.817; 4844.123; 9076.182
544.354; 5110.884; 4998.507; 8354.081
544.938; 5551.923; 5396.553; 8236.809
545.523; 6473.682; 6326.764; 8222.179
546.108; 5304.884; 5217.730; 8114.082
546.693; 5246.576; 5178.206; 8535.912
547.278; 5307.668; 5181.683; 9238.322
547.862; 5278.371; 5151.523; 9034.405
548.447; 5938.692; 5833.480; 7795.011
549.031; 5112.315; 5019.655; 7485.099
549.616; 5511.790; 5383.887; 7626.308
550.201; 4979.157; 4859.369; 7627.909
550.785; 5746.587; 5618.947; 7859.125
551.370; 4664.028; 4519.063; 7990.654
551.954; 5919.789; 5785.114; 8196.468
552.538; 5793.812; 5663.715; 7959.495
553.123; 4984.871; 4862.699; 7964.826
553.707; 5149.714; 5038.385; 8515.957
554.291; 6165.953; 6054.031; 8724.024
554.876; 5859.759; 5747.388; 8524.211
555.460; 5007.229; 4892.509; 8704.456
556.044; 4971.776; 4828.855; 9141.473
556.628; 5341.314; 5202.608; 9250.197
557.212; 6097.463; 5944.873; 9444.237
557.796; 5222.169; 5082.906; 9379.783
558.380; 5601.181; 5466.216; 9353.658
558.964; 5492.058; 5321.742; 9210.310
559.548; 4616.160; 4477.608; 8475.153
560.132; 5124.470; 4982.252; 7954.084
560.716; 4724.224; 4593.302; 7489.529
561.300; 4663.560; 4507.485; 7211.952
561.884; 5757.093; 5581.377; 7141.313
562.467; 5674.121; 5549.185; 7155.386
563.051; 5342.447; 5185.900; 7323.158
563.635; 5284.344; 5099.010; 7709.114
564.219; 5321.929; 5166.236; 7678.855
564.802; 5714.155; 5563.201; 7376.187
565.386; 5438.326; 5259.096; 7054.372
565.969; 6239.029; 6057.083; 6589.196
566.553; 6831.191; 6654.257; 6279.371
567.136; 6154.674; 5988.439; 5967.930
567.720; 5428.785; 5255.929; 5660.703
568.303; 5639.912; 5455.691; 5648.615
568.887; 5507.018; 5286.245; 5618.443
569.470; 5631.362; 5440.454; 5411.875
570.053; 5904.544; 5667.810; 5149.274
570.637; 5040.531; 4787.553; 5122.798
571.220; 5953.791; 5681.210; 4957.369
571.803; 6873.248; 6635.300; 4933.018
572.386; 5356.194; 5055.450; 4840.973
572.969; 5381.104; 5062.691; 4592.886
573.552; 5503.271; 5157.522; 4348.387
574.135; 5014.474; 4658.188; 4002.290
574.718; 5243.210; 4835.171; 3654.773
575.301; 5247.398; 4821.937; 3502.288
575.884; 5251.585; 4808.703; 3349.803
576.467; 6423.285; 5951.329; 3191.403
577.050; 5999.297; 5439.763; 3062.418
577.633; 7128.049; 6480.844; 3214.200
578.216; 5768.273; 5073.692; 3284.889
578.799; 5845.529; 5071.508; 3189.777
579.381; 7583.501; 6697.000; 3064.502
579.964; 5771.813; 4809.335; 2888.357
580.547; 6377.533; 5371.672; 2905.760
581.129; 7327.223; 6197.255; 2966.849
581.712; 6783.826; 5529.845; 2887.292
582.294; 6677.659; 5301.864; 2771.631
582.877; 8295.651; 6756.813; 2711.602
583.459; 6885.724; 5236.528; 2577.049
584.042; 6999.604; 5150.640; 2454.707
584.624; 6761.593; 4768.103; 2305.893
585.206; 6318.038; 4114.883; 2189.546
585.789; 7394.897; 4948.339; 2112.577
586.371; 8057.237; 5531.035; 2153.065
586.953; 8415.021; 5740.188; 2197.806
587.536; 9073.273; 6109.292; 2105.489
588.118; 8361.392; 5140.732; 1963.911
588.700; 9847.765; 6115.244; 1843.179
589.282; 9772.410; 5567.221; 1813.834
589.864;10085.016; 5353.828; 1777.620
590.446; 9501.183; 4281.861; 1733.780
591.028;11040.556; 5306.373; 1676.008
591.610;10356.773; 4363.441; 1631.649
592.192;11468.001; 5368.327; 1632.362
592.774;10957.672; 4705.171; 1569.507
593.356;11696.198; 4906.636; 1524.539
593.937;12268.699; 4876.733; 1569.720
594.519;13705.406; 5891.684; 1569.049
595.101;13003.076; 4415.508; 1545.452
595.683;14387.905; 4950.863; 1607.568
596.264;15651.987; 5184.795; 1615.506
596.846;16182.601; 5034.453; 1667.622
597.427;16708.656; 4882.123; 1670.469
598.009;17701.859; 4818.189; 1640.312
598.591;18761.885; 5743.932; 1541.022
599.172;18482.420; 5070.064; 1598.665
599.753;18706.689; 4544.065; 1619.068
600.335;20833.926; 6136.621; 1548.612
600.916;20773.842; 5220.222; 1607.510
601.498;22066.217; 5512.527; 1745.181
602.079;23415.926; 5267.174; 1801.011
602.660;24820.600; 5161.532; 1834.640
603.241;24500.008; 4183.903; 1787.351
603.823;25470.721; 4952.837; 1684.266
604.404;24941.166; 4586.540; 1654.241
604.985;25219.184; 4963.834; 1758.741
605.566;26928.732; 5787.352; 1697.679
606.147;28186.889; 5119.091; 1526.728
606.728;29244.170; 4563.777; 1484.086
607.309;31106.740; 4904.498; 1421.070
607.890;31323.072; 4984.097; 1369.867
608.471;31665.654; 4801.079; 1277.826
609.051;32785.348; 5385.582; 1180.416
609.632;33467.129; 4723.337; 1075.816
610.213;35854.426; 5155.071; 1053.313
610.794;36968.035; 4975.971;  979.442
611.374;38500.461; 5465.109;  917.414
611.955;38099.754; 4470.179;  819.987
612.536;40931.887; 5384.845;  752.627
613.116;41894.613; 4959.033;  690.799
613.697;41906.594; 4885.601;  674.974
614.277;41937.805; 4738.818;  663.846
614.858;40709.746; 4877.575;  665.898
615.438;39486.844; 5227.542;  660.712
616.019;40440.625; 6137.323;  632.732
616.599;38737.582; 4113.567;  551.759
617.179;40891.691; 4594.608;  512.871
617.760;44714.027; 6911.514;  473.655
618.340;42891.035; 5155.940;  440.004
618.920;44509.793; 6328.034;  429.731
619.500;44582.066; 5015.039;  441.361
620.080;44160.316; 4725.700;  425.202
620.660;44363.270; 4711.282;  408.164
621.241;45642.434; 5022.023;  387.161
621.821;47489.762; 5282.726;  378.017
622.401;47698.555; 5863.925;  379.188
622.980;45485.715; 4482.932;  350.019
623.560;45966.336; 5026.484;  336.446
624.140;44219.527; 5298.343;  336.473
624.720;42083.043; 5462.688;  334.974
625.300;40919.629; 4728.110;  325.717
625.880;41656.500; 5147.411;  308.519
626.459;44345.613; 5201.913;  307.117
627.039;45746.008; 4350.832;  290.890
627.619;49850.277; 6638.576;  286.635
628.198;49784.711; 5951.995;  282.535
628.778;50528.645; 5586.238;  285.474
629.357;47685.402; 4542.902;  284.103
629.937;47263.363; 4978.398;  292.178
630.516;49469.922; 6239.056;  290.749
631.096;48623.555; 4804.599;  285.489
631.675;49524.168; 6131.162;  287.022
632.254;48298.414; 4798.861;  286.038
632.834;47039.492; 5153.383;  276.451
633.413;47055.789; 6110.794;  279.447
633.992;46152.789; 5855.117;  264.508
634.571;45853.406; 5609.308;  271.010
635.151;47320.746; 4691.204;  277.338
635.730;48585.918; 5087.243;  289.305
636.309;48465.004; 5521.918;  285.306
636.888;47911.406; 5605.305;  254.051
637.467;44412.770; 4264.982;  230.324
638.046;45537.055; 6252.648;  253.349
638.625;45263.055; 6001.558;  246.866
639.204;45158.871; 5370.055;  240.825
639.782;46662.176; 5208.692;  261.970
640.361;46964.938; 6048.680;  277.780
640.940;45936.918; 4878.755;  270.101
641.519;45711.004; 5450.881;  248.622
642.097;46794.188; 5568.007;  239.843
642.676;46913.770; 5261.282;  244.264
643.255;46619.152; 5050.108;  234.985
643.833;48633.637; 5615.533;  244.406
644.412;48786.117; 4987.809;  244.927
644.990;48767.004; 5280.984;  249.948
645.569;48219.684; 5544.160;  249.569
646.147;47899.367; 5836.085;  243.290
646.726;45885.453; 5366.811;  249.511
647.304;45318.734; 4997.137;  228.032
647.882;42918.020; 4258.813;  214.552
648.461;42962.500; 5371.288;  214.973
649.039;43948.086; 5608.514;  223.394
649.617;43707.668; 5628.339;  261.415
650.195;43556.051; 5371.365;  298.736
650.773;42792.035; 4960.740;  309.557
651.352;41318.020; 4143.216;  297.978
651.930;39827.602; 4130.991;  289.399
652.508;41786.684; 5723.267;  285.620
653.086;41082.668; 5507.692;  272.241
653.663;40004.449; 4796.918;  265.062
654.241;39765.633; 4490.293;  286.083
654.819;41117.418; 4615.369;  286.404
655.397;43022.602; 4690.295;  291.825
655.975;44790.086; 5048.920;  299.145
656.553;46253.766; 6218.846;  288.866
657.130;44491.250; 4657.571;  304.087
657.708;43258.934; 5433.847;  302.908
658.286;42750.516; 5296.923;  294.629
658.863;43620.301; 5324.798;  293.350
659.441;43772.285; 5389.874;  318.671
660.018;42233.066; 5097.750;  333.692
660.596;41081.449; 4200.725;  335.013
661.173;41745.035; 4901.000;  371.534
661.750;41314.117; 4702.626;  365.155
662.328;42583.398; 5587.202;  349.976
662.905;40895.281; 4940.777;  332.997
663.482;40393.867; 5083.353;  321.717
664.060;39909.449; 4771.229;  314.438
664.637;40701.434; 5588.704;  306.259
665.214;41482.316; 5335.729;  314.580
665.791;41311.500; 5032.305;  334.501
666.368;40679.684; 4959.781;  329.222
666.945;42565.367; 5684.906;  342.143
667.522;42261.750; 4717.682;  370.964
668.099;42751.531; 5091.607;  396.885
668.676;41750.816; 5118.883;  391.706
669.253;42205.500; 6240.458;  369.627
669.830;41588.383; 6020.684;  360.348
670.407;41185.965; 5106.160;  344.769
670.984;41898.648; 5086.335;  322.890
671.560;41949.730; 5574.311;  316.910
672.137;40510.414; 4961.736;  322.531
672.714;41729.797; 5467.362;  318.552
673.290;42891.383; 5373.288;  324.473
673.867;43173.363; 4833.513;  340.594
674.443;43236.047; 4531.489;  319.515
675.020;43409.730; 5309.114;  286.336
675.596;42354.215; 5018.040;  247.557
676.173;42643.098; 4451.815;  227.778
676.749;42866.781; 3922.141;  224.399
677.326;43677.066; 4368.667;  230.520
677.902;45061.348; 4774.042;  241.841
678.478;46885.730; 4461.667;  239.762
679.054;50436.715; 7564.293;  248.583
679.631;46183.098; 5430.918;  237.503
680.207;46034.680; 6464.444;  245.924
680.783;44087.664; 4093.020;  224.845
681.359;46872.047; 5083.095;  209.666
681.935;48601.730; 5235.421;  191.687
682.511;47688.414; 5215.347;  210.008
683.087;46386.695; 5486.172;  213.329
683.663;45317.879; 4989.798;  216.850
684.239;45226.465; 4471.173;  229.471
684.815;47230.547; 5717.749;  248.792
685.390;47463.629; 6583.324;  231.813
685.966;44685.512; 5212.300;  221.234
686.542;45248.996; 4601.525;  214.255
687.118;48774.281; 5305.601;  212.276
687.693;49483.762; 5532.626;  233.096
688.269;48661.047; 5006.652;  246.917
688.844;49123.031; 5451.178;  236.938
689.420;47710.613; 5201.003;  242.059
689.995;47594.797; 6343.929;  245.480
690.571;47114.980; 6073.555;  244.701
691.146;47317.262; 4956.180;  251.922
691.722;48775.145; 5407.605;  284.743
692.297;49545.430; 4926.881;  320.664
692.872;50967.012; 4713.607;  313.885
693.448;51221.395; 4582.982;  290.106
694.023;53475.578; 5245.058;  304.327
694.598;54500.262; 5270.083;  319.648
695.173;52280.145; 4924.559;  323.169
695.748;49823.629; 4215.834;  376.389
696.323;51270.711; 5105.660;  397.610
696.898;53192.996; 5950.936;  430.231
697.473;52311.180; 4299.711;  454.952
698.048;55496.863; 4971.887;  478.973
698.623;55613.746; 4452.513;  477.094
699.198;55267.930; 5220.988;  496.915
699.773;54738.113; 4741.614;  490.236
700.348;53951.695; 4612.189;  519.957
700.922;55921.879; 5259.115;  575.678
701.497;56784.160; 5148.090;  621.399
702.072;56668.645; 5743.716;  664.420
702.646;55620.129; 5594.742;  690.541
703.221;53746.313; 5313.967;  748.862
703.795;52362.996; 4632.393;  774.282
704.370;50461.879; 3778.718;  799.803
704.944;51407.762; 4895.394;  875.824
705.519;54005.043; 5308.319;  902.945
706.093;55076.328; 4681.495;  889.266
706.668;55441.609; 5455.021;  903.487
707.242;56422.895; 5654.146;  881.708
707.816;56344.777; 4947.872;  892.329
708.390;55539.859; 5124.697;  970.250
708.965;54456.645; 5301.323;  984.671
709.539;54773.027; 4990.148; 1026.092
710.113;55472.711; 5207.074; 1067.913
710.687;55179.293; 5640.149; 1166.434
711.261;54371.676; 4559.725; 1190.854
711.835;56181.461; 4612.951; 1197.275
712.409;57677.145; 4253.726; 1308.096
712.983;57920.828; 4290.602; 1461.617
713.557;58096.410; 4282.777; 1611.838
714.131;58371.094; 5013.153; 1554.359
714.704;57309.578; 4634.329; 1520.780
715.278;59417.059; 5144.154; 1575.101
715.852;59975.145; 5585.030; 1689.822
716.425;60775.527; 6407.255; 1829.143
716.999;57836.309; 4212.281; 2008.664
717.573;58061.594; 5429.156; 2000.485
718.146;59488.176; 6262.982; 1914.506
718.720;60998.359; 5259.257; 1818.026
719.293;63329.742; 5467.333; 1734.147
719.867;62406.324; 4764.059; 1716.968
720.440;63607.707; 6015.034; 1918.589
721.013;62220.094; 4811.760; 1975.410
721.587;60869.773; 4299.285; 2073.331
722.160;61535.258; 5726.411; 2357.852
722.733;59364.844; 5173.437; 2657.073
723.306;57406.824; 5141.112; 2703.894
723.880;56683.008; 5249.688; 2549.415
724.453;57961.090; 5992.313; 2414.336
725.026;56756.574; 4835.539; 2298.557
725.599;57417.859; 5329.164; 2168.778
726.172;57081.641; 5443.940; 2106.099
726.745;57350.023; 5378.465; 2253.320
727.318;58356.008; 5725.491; 2404.740
727.891;59423.293; 5322.967; 2680.161
728.463;59418.273; 5295.292; 2838.882
729.036;57705.156; 4689.868; 2755.103
729.609;56999.641; 4626.493; 2731.824
730.182;58736.426; 5631.519; 2855.645
730.754;58038.406; 3903.344; 2946.866
731.327;59963.191; 5446.720; 2840.187
731.900;58465.473; 4321.945; 2647.608
732.472;59654.656; 5046.071; 2473.929
733.045;62011.840; 4950.497; 2445.750
733.617;61280.625; 4246.672; 2511.771
734.190;62108.906; 5419.898; 2581.592
734.762;62493.191; 5102.974; 2710.813
735.334;62546.375; 5176.299; 3005.733
735.907;62004.059; 5168.075; 3154.954
736.479;63044.941; 5842.250; 3171.675
737.051;62492.223; 5445.776; 3217.496
737.623;64128.707; 5507.851; 3246.217
738.195;63020.789; 4769.227; 2985.238
738.768;61138.672; 4023.802; 2727.559
739.340;62033.555; 4860.628; 2666.880
739.912;61860.641; 5603.554; 2769.601
740.484;59728.324; 5436.879; 2731.422
741.056;58394.906; 4970.305; 2963.043
741.628;59151.590; 4624.780; 3361.364
742.199;60403.371; 5959.956; 3641.185
742.771;59755.156; 4440.481; 3932.005
743.343;60256.039; 4653.057; 4319.926
743.915;60726.121; 5345.033; 4706.647
744.487;62442.207; 5489.258; 4874.968
745.058;63704.789; 5553.984; 4616.589
745.630;62773.172; 5518.659; 4253.410
746.201;61581.254; 4827.835; 4056.131
746.773;61143.938; 5459.160; 3772.952
747.344;60826.820; 5104.136; 3642.473
747.916;60220.605; 5270.111; 3752.294
748.487;60802.387; 5635.887; 4106.215
749.059;59693.973; 4506.013; 4457.835
749.630;60309.453; 4721.138; 4366.457
750.201;61911.438; 5102.164; 4600.078
750.773;61003.422; 4777.889; 4658.499
751.344;60917.406; 5161.865; 4609.319
751.915;60454.988; 5092.241; 4526.440
752.486;60646.570; 4694.116; 4536.061
753.057;61434.754; 5222.992; 4383.282
753.628;61896.039; 4686.817; 4296.503
754.199;63789.820; 4885.593; 4383.224
754.770;64432.703; 5480.368; 4653.545
755.341;62548.887; 5749.894; 4831.666
755.912;59925.070; 4999.419; 4831.387
756.483;60327.953; 5448.545; 4735.808
757.054;58613.836; 4883.271; 4685.029
757.625;57090.719; 4503.046; 4994.250
758.195;58574.004; 4325.572; 5051.471
758.766;59698.188; 5270.748; 5317.792
759.337;58806.871; 4280.773; 5646.512
759.907;58115.754; 4342.999; 5404.133
760.478;58770.836; 4789.124; 5090.954
761.048;59804.719; 5493.399; 4871.175
761.619;60209.203; 5362.475; 4589.396
762.189;59670.086; 5069.951; 4171.317
762.760;57740.871; 5565.626; 3872.538
763.330;56879.453; 5503.752; 3832.259
763.900;56430.535; 5284.328; 4150.180
764.471;55414.520; 4638.003; 4529.801
765.041;56706.902; 5847.179; 4715.922
765.611;56729.688; 5437.304; 4681.442
766.181;57024.770; 5039.780; 4717.063
766.751;57832.551; 5119.005; 4710.285
767.321;56728.438; 4448.131; 4450.305
767.891;56434.918; 5204.557; 4274.126
768.461;55257.504; 5037.032; 4215.047
769.031;55628.086; 5077.508; 4173.068
769.601;57299.168; 5778.733; 4174.689
770.171;55889.652; 4328.109; 4229.310
770.741;55365.434; 4911.034; 4352.031
771.311;55400.918; 5448.910; 4336.652
771.880;53996.703; 4618.485; 4300.873
772.450;54726.285; 4677.311; 4387.194
773.020;54809.969; 4289.887; 4220.415
773.589;54618.551; 4754.562; 4075.835
774.159;54709.734; 4800.438; 4105.756
774.729;54549.316; 4720.813; 4114.978
775.298;55431.402; 4759.439; 3693.298
775.867;54974.484; 4757.714; 3343.119
776.437;55095.270; 5131.040; 3062.040
777.006;53901.250; 4302.866; 2927.161
777.576;54798.633; 5446.941; 3046.482
778.145;54279.719; 5370.917; 3230.203
778.714;52351.801; 5031.542; 3253.324
779.283;52298.184; 5439.118; 3129.745
779.853;52638.668; 5058.943; 2983.566
780.422;53595.250; 5060.219; 2929.887
780.991;54750.234; 5386.495; 2863.908
781.560;55235.918; 5965.070; 2948.029
782.129;53045.902; 5295.696; 3074.149
782.698;53072.184; 5900.921; 2893.970
783.267;51960.766; 4729.297; 2721.391
783.836;51691.949; 5276.172; 2659.712
784.404;50676.832; 4461.098; 2622.233
784.973;49379.219; 3851.023; 2600.754
785.542;49351.801; 5026.349; 2528.475
786.111;51436.383; 5830.775; 2404.396
786.679;50978.566; 5452.550; 2365.717
787.248;48218.250; 4330.676; 2498.438
787.817;48342.531; 4810.651; 2645.659
788.385;50510.016; 5724.877; 2709.280
788.954;48954.398; 4367.553; 2620.500
789.522;49214.281; 5565.378; 2625.422
790.090;47245.965; 4385.804; 2743.843
790.659;49169.051; 4865.079; 2635.163
791.227;49973.133; 4976.205; 2495.484
791.795;50534.316; 5255.430; 2413.705
792.364;49395.898; 4543.306; 2345.326
792.932;50252.184; 5377.682; 2350.447
793.500;48418.965; 4911.007; 2429.768
794.068;47313.148; 4323.183; 2513.589
794.636;47864.133; 4670.558; 2664.310
795.204;47940.816; 4202.534; 2721.431
795.772;48013.098; 4632.659; 2802.052
796.340;47493.883; 4759.435; 2847.173
796.908;45339.066; 4206.960; 2997.194
797.476;45595.047; 4502.336; 3151.615
798.044;45720.230; 4136.012; 3110.735
798.612;47171.316; 4980.737; 2931.656
799.180;46497.898; 5133.313; 2785.777
799.747;44931.980; 5083.138; 2899.098
800.315;43838.066; 4392.014; 2955.519
800.883;43451.148; 4061.490; 2948.940
801.450;45039.430; 5018.665; 2965.361
802.018;45623.816; 5292.940; 3070.582
802.585;44546.598; 5054.666; 3156.103
803.153;44613.883; 4664.492; 3199.524
803.720;45175.266; 4707.517; 3168.845
804.287;45311.746; 4887.243; 3248.366
804.855;47210.430; 5659.468; 3406.187
805.422;46162.016; 4918.644; 3430.907
805.989;45043.797; 4588.070; 3453.528
806.556;44341.180; 4591.795; 3612.649
807.124;45250.664; 5564.021; 3736.570
807.691;43934.945; 4479.996; 3770.491
808.258;45193.031; 5059.472; 3705.012
808.825;45177.016; 5589.797; 3828.733
809.392;45188.297; 5972.673; 3986.754
809.959;44336.180; 5256.549; 4410.075
810.526;44199.164; 6019.674; 4774.996
811.093;43603.047; 5721.400; 4754.217
811.659;42952.031; 5003.125; 4661.238
812.226;43533.914; 4971.901; 4672.559
812.793;44060.496; 5206.876; 4822.979
813.360;43798.379; 4989.102; 5189.800
813.926;43662.762; 5258.478; 5310.622
814.493;42381.047; 4367.403; 5414.542
815.060;41104.328; 4104.079; 5548.963
815.626;40897.512; 4424.154; 5452.284
816.193;42122.098; 5153.030; 5339.305
816.759;41291.777; 4596.655; 5544.426
817.325;39800.961; 4107.481; 5706.547
817.892;40596.945; 5512.756; 5623.468
818.458;40612.430; 5284.882; 5586.689
819.024;41666.711; 5746.008; 5647.910
819.591;41331.594; 5041.883; 5762.031
820.157;41158.277; 4388.759; 6284.452
820.723;42362.961; 5277.134; 6906.973
821.289;44068.246; 7644.560; 7086.894
821.855;40790.230; 5422.386; 7054.915
822.421;39512.211; 4781.211; 7112.035
822.987;39017.195; 4474.437; 7256.156
823.553;39384.578; 4880.512; 7538.077
824.119;39077.461; 5598.288; 7594.298
824.685;38823.145; 5809.763; 7613.619
825.251;38549.629; 5485.439; 7644.140
825.816;39192.512; 6152.064; 7720.261
826.382;38322.793; 5462.590; 8014.282
826.948;38391.477; 5587.666; 8281.503
827.513;37047.063; 4939.641; 8289.624
828.079;35411.246; 4576.167; 8587.045
828.645;36340.727; 5236.742; 8821.865
829.210;36143.910; 4476.118; 9054.486
829.776;36515.496; 5393.894; 9054.607
830.341;35715.277; 5571.819; 9415.628
830.906;35422.859; 5734.745; 9932.449
831.472;34973.145; 4652.970;10150.271
832.037;36503.227; 5600.096; 9420.391
832.602;36012.609; 4780.071; 8664.912
833.167;36264.195; 5128.247; 8491.933
833.733;35645.977; 5597.522; 8872.854
834.298;33708.262; 4517.298; 9370.575
834.863;34140.543; 5262.974; 9610.695
835.428;33397.426; 5239.899; 9655.616
835.993;33162.410; 5386.875; 9437.838
836.558;33885.691; 5484.250; 9441.459
837.123;35221.777; 6723.426; 9600.979
837.688;34077.859; 5300.852; 9798.301
838.253;34203.645; 5286.427; 9902.921
838.817;33475.625; 4945.703;10339.742
839.382;33735.008; 5909.928;10548.363
839.947;32481.893; 5175.404;10252.484
840.511;32983.375; 6070.330;10040.005
841.076;30363.760; 4079.655;10099.926
841.641;31336.943; 5452.181;10347.347
842.205;30158.125; 5323.656;10817.368
842.770;30625.010; 6296.932;11435.289
843.334;29707.393; 5019.107;12072.409
843.898;29582.275; 4823.783;12635.431
844.463;29534.760; 5928.008;12537.252
845.027;27529.543; 4890.584;12759.673
845.591;28188.625; 5662.259;12821.993
846.156;27549.109; 4826.035;12520.914
846.720;28301.191; 5556.960;12390.436
847.284;28427.676; 5252.386;12956.456
847.848;28221.359; 5441.262;13240.177
848.412;26734.242; 5169.087;13216.998
848.976;26807.426; 6061.613;13014.619
849.540;27102.408; 6527.588;12355.740
850.104;26404.691; 5991.064;12208.761
850.668;24376.975; 4184.590;12106.882
851.232;24753.457; 4307.315;11862.103
851.796;25349.742; 5074.941;11700.523
852.359;25808.824; 5627.167;12375.944
852.923;26047.309; 5804.642;13087.966
853.487;25394.092; 5520.167;13297.187
854.050;22720.375; 3571.143;13851.207
854.614;23845.857; 4908.619;14854.229
855.177;24326.740; 5336.494;15802.149
855.741;24188.125; 5383.170;16603.570
856.304;23969.807; 5697.095;16359.891
856.868;22540.791; 4635.771;14365.512
857.431;22681.975; 5137.597;13361.333
857.995;21352.557; 4962.522;14130.554
858.558;21447.740; 5337.897;14883.175
859.121;21801.824; 5622.773;15754.195
859.684;21244.607; 5279.549;15995.017
860.247;20965.391; 5129.674;15149.537
860.810;21190.773; 4926.800;14640.358
861.374;22783.057; 6596.625;15551.079
861.937;20415.141; 4535.751;16519.801
862.500;20300.523; 4851.626;16796.521
863.062;19642.807; 4611.952;16538.742
863.625;20280.490; 5352.228;16716.764
864.188;19868.873; 4892.903;17055.084
864.751;19551.855; 4850.029;17197.705
865.314;19317.840; 5205.104;17151.625
865.876;19685.523; 5766.130;17783.547
866.439;19594.506; 5567.105;19283.467
867.002;20282.488; 6460.231;20256.389
867.564;19513.771; 5861.807;20485.410
868.127;18434.057; 5149.032;20789.730
868.689;18412.439; 5392.908;21981.951
869.252;18749.922; 5834.233;23803.771
869.814;17575.906; 4718.109;24974.094
870.377;17935.588; 5351.635;24690.314
870.939;19559.572; 7392.760;23963.436
871.501;17284.256; 5303.736;25167.156
872.063;15701.839; 3896.411;26995.477
872.626;15893.422; 4223.787;27443.098
873.188;16854.904; 5324.163;26718.418
873.750;16184.788; 5080.338;26558.840
874.312;15780.472; 4895.864;26701.561
874.874;17129.254; 6199.339;27970.582
875.436;16576.238; 5680.564;29173.402
875.998;16440.822; 6024.940;30376.623
876.560;15790.204; 5691.266;32507.344
877.122;14598.288; 4768.292;34833.066
877.683;15227.171; 5575.017;36458.285
878.245;14430.654; 4897.792;37248.207
878.807;14923.438; 5480.068;36758.027
879.369;13688.221; 4507.444;35223.551
879.930;13853.404; 4623.719;33824.969
880.492;15191.287; 5949.395;34436.492
881.053;13731.671; 4672.570;37745.313
881.615;13535.254; 4868.146;41184.633
882.176;13284.737; 5057.021;42871.555
882.738;13560.021; 5618.397;41693.074
883.299;11970.504; 4152.623;40289.895
883.860;11917.587; 4284.748;39231.215
884.422;13008.470; 5557.724;38264.039
884.983;11895.854; 4626.299;37171.859
885.544;12153.037; 5340.225;35842.379
886.105;11639.120; 5211.150;34810.000
886.666;11015.403; 4913.826;34519.020
887.227;10145.687; 4302.852;33905.641
887.788;11144.569; 5344.127;34502.965
888.349;10091.453; 4439.103;34241.785
888.910;11023.437; 5573.479;33722.203
889.471;10554.520; 5316.104;32539.625
890.032;10285.402; 5162.779;31528.346
890.593;10421.886; 5543.855;32655.068
891.153; 9803.169; 5135.131;33882.289
891.714; 8864.253; 4414.606;33318.711
892.275; 8723.536; 4501.832;31848.930
892.835; 9854.819; 5723.458;30339.752
893.396; 9553.202; 5634.183;30074.973
893.956; 8782.985; 5032.409;30338.393
894.517; 8865.969; 5302.334;30864.113
895.077; 8777.452; 5403.359;29766.734
895.638; 9396.936; 6198.235;26379.557
896.198; 7601.719; 4584.511;24056.277
896.758; 8541.302; 5675.736;22961.898
897.319; 7830.185; 5074.512;21772.020
897.879; 7717.068; 5141.837;20877.539
898.439; 6850.052; 4307.613;19509.461
898.999; 7938.735; 5535.039;17297.582
899.559; 7785.818; 5431.164;14712.002
900.119; 6883.401; 4616.940;12790.224
900.679; 8282.984; 6113.965;11586.744
901.239; 7657.268; 5570.341;10776.465
901.799; 7184.451; 5233.517; 9691.687
902.359; 6570.234; 4687.342; 8725.907
902.919; 6450.917; 4621.167; 8305.728
903.479; 6455.701; 4659.443; 8172.649
904.038; 6170.884; 4449.169; 7913.870
904.598; 5532.467; 3875.344; 7262.291
905.158; 6460.250; 4863.920; 6609.012
905.717; 6600.534; 5072.996; 6236.133
906.277; 6651.017; 5162.421; 5829.054
906.836; 6895.101; 5462.646; 5396.674
907.396; 6771.984; 5392.572; 4964.195
907.955; 6798.667; 5429.648; 4528.917
908.515; 6229.450; 4933.723; 4223.837
909.074; 6295.534; 4988.649; 4023.958
909.633; 6252.517; 5010.174; 4065.379
910.192; 7507.200; 6207.950; 4066.300
910.752; 6209.600; 4959.600; 3971.600
911.311; 6088.600; 4865.850; 3839.600
911.870; 5892.800; 4688.450; 3684.500
912.429; 6988.600; 5783.650; 3635.600
912.988; 6826.500; 5661.550; 3689.800
913.547; 5767.900; 4605.900; 3737.700
914.106; 6357.100; 5258.100; 3740.300
914.665; 6329.500; 5208.000; 3604.600
915.224; 6850.100; 5768.550; 3358.700
915.782; 5945.100; 4839.550; 3188.400
916.341; 7032.500; 5962.050; 3091.400
916.900; 6020.800; 4909.900; 3044.800
917.458; 5734.600; 4651.400; 2888.600
918.017; 6269.900; 5178.650; 2818.900
918.576; 5996.600; 4931.300; 2838.600
919.134; 5383.700; 4303.950; 2880.100
919.693; 5952.900; 4873.500; 2996.300
920.251; 5872.500; 4780.050; 3183.100
920.809; 5569.200; 4494.900; 3247.000
921.368; 5875.600; 4778.200; 3156.600
921.926; 5655.100; 4589.350; 2964.900
922.484; 6197.800; 5097.850; 2846.300
923.042; 6012.900; 4926.600; 2890.400
923.601; 7056.700; 5921.450; 2987.700
924.159; 6505.600; 5421.100; 3049.800
924.717; 5668.600; 4566.750; 3087.000
925.275; 6177.500; 5131.200; 3093.400
925.833; 5211.300; 4094.750; 3182.400
926.391; 6514.500; 5383.850; 3397.900
926.949; 5949.000; 4799.250; 3575.400
927.506; 6316.200; 5168.150; 3713.400
928.064; 6019.400; 4871.550; 3871.300
928.622; 6121.000; 4950.850; 4092.800
929.180; 5571.100; 4394.550; 4499.300
929.737; 5486.500; 4262.150; 4813.200
930.295; 6563.800; 5342.700; 5084.100
930.853; 5847.600; 4611.400; 5185.000
931.410; 5585.500; 4362.650; 5313.100
931.968; 6689.000; 5435.750; 5339.600
932.525; 6313.100; 5058.050; 5399.900
933.082; 5550.900; 4274.850; 5457.500
933.640; 6546.900; 5255.400; 5692.900
934.197; 6144.400; 4870.600; 5821.200
934.754; 6186.000; 4870.050; 5617.900
935.312; 5930.500; 4606.400; 5512.400
935.869; 7189.200; 5887.300; 5582.400
936.426; 5958.200; 4637.950; 5650.100
936.983; 6125.700; 4807.450; 5657.400
937.540; 5631.000; 4325.550; 5564.300
938.097; 6571.700; 5211.850; 5574.000
938.654; 6108.300; 4733.500; 5665.900
939.211; 6572.900; 5207.750; 5931.600
939.768; 6324.100; 4927.300; 6153.600
940.324; 6182.900; 4788.500; 6397.600
940.881; 5963.400; 4588.100; 6454.200
941.438; 7143.900; 5707.300; 6206.900
941.995; 6901.500; 5495.300; 6003.900
942.551; 5799.200; 4355.850; 6228.300
943.108; 6315.100; 4900.450; 6603.500
943.664; 5803.800; 4401.000; 7188.100
944.221; 7620.800; 6214.550; 7579.900
944.777; 5717.500; 4352.050; 7658.100
945.334; 5871.000; 4460.300; 7670.400
945.890; 6361.700; 4974.650; 7525.100
946.446; 6422.700; 5010.250; 7261.500
947.003; 6551.500; 5163.700; 6949.200
947.559; 7356.600; 5954.200; 6773.100
948.115; 6996.200; 5645.200; 6668.400
948.671; 6526.600; 5137.900; 6488.400
949.227; 5542.600; 4193.750; 6236.600
949.783; 5478.600; 4117.050; 6008.900
950.339; 6628.700; 5242.800; 5934.100
950.895; 6962.800; 5574.850; 5933.500
951.451; 6131.700; 4741.800; 6074.700
952.007; 6713.200; 5352.750; 6066.400
952.563; 6134.400; 4791.800; 5884.100
953.118; 5942.700; 4613.750; 5733.800
953.674; 6306.800; 4922.500; 5734.300
954.230; 6292.600; 4959.300; 6039.700
954.785; 6278.800; 4916.850; 6383.500
955.341; 6725.600; 5416.850; 6568.200
955.897; 5459.500; 4133.300; 6488.600
956.452; 6447.000; 5157.200; 6239.200
957.008; 7655.600; 6357.800; 5954.600
957.563; 6961.600; 5679.400; 5816.700
958.118; 5828.300; 4559.100; 5828.200
958.674; 6380.200; 5078.700; 5717.400
959.229; 7096.300; 5788.900; 5506.800
959.784; 5552.300; 4272.350; 5292.200
960.339; 7048.500; 5738.950; 5101.900
960.894; 6714.100; 5417.000; 5093.200
961.449; 5794.600; 4517.750; 5227.900
962.004; 8822.400; 7532.950; 5349.300
962.559; 5843.100; 4597.600; 5514.900
963.114; 4868.000; 3622.400; 5717.300
963.669; 6276.100; 5023.250; 5841.400
964.224; 5991.900; 4740.150; 5805.900
964.779; 5624.200; 4358.550; 5723.400
965.334; 7058.200; 5790.050; 5779.500
965.888; 5945.200; 4670.950; 5948.500
966.443; 6789.000; 5528.700; 6344.200
966.998; 5373.700; 4132.900; 6666.300
967.552; 6153.200; 4962.650; 6710.100
968.107; 5827.900; 4647.700; 6593.500
968.661; 6330.800; 5145.450; 6344.100
969.216; 5772.600; 4608.150; 6062.400
969.770; 6301.700; 5152.800; 5785.500
970.324; 6340.500; 5182.700; 5426.800
970.879; 6602.800; 5463.500; 5016.800
971.433; 6650.500; 5521.200; 4904.500
971.987; 6176.800; 5071.450; 4991.000
972.541; 6363.700; 5259.650; 4978.500
973.095; 7096.000; 6011.200; 4832.000
973.649; 5393.500; 4331.800; 4767.900
974.203; 5591.700; 4502.500; 4881.200
974.757; 5774.400; 4730.300; 4969.500
975.311; 5978.400; 4921.050; 4953.000
975.865; 6050.700; 4997.600; 4884.300
976.419; 5851.200; 4821.850; 4739.800
976.973; 5757.000; 4742.950; 4698.100
977.526; 6645.700; 5635.700; 4631.100
978.080; 5312.900; 4325.400; 4621.600
978.634; 6318.200; 5383.250; 4650.200
979.187; 6227.300; 5267.150; 4669.200
979.741; 7201.400; 6253.100; 4658.000
980.294; 5306.100; 4361.800; 4579.100
980.848; 4703.900; 3796.150; 4452.800
981.401; 5612.400; 4698.600; 4271.900
981.955; 5886.400; 4978.100; 4087.800
982.508; 5016.500; 4129.250; 3973.900
983.061; 6489.400; 5614.150; 3928.600
983.615; 5436.400; 4550.500; 3851.200
984.168; 5232.300; 4374.550; 3734.800
984.721; 6138.100; 5297.850; 3628.300
985.274; 6016.300; 5179.000; 3564.300
985.827; 5778.700; 4956.350; 3558.100
986.380; 4803.600; 4019.650; 3559.900
986.933; 6006.200; 5235.600; 3688.700
987.486; 6037.500; 5250.250; 3778.500
988.039; 5980.400; 5211.400; 3559.900
988.591; 6330.200; 5577.650; 3219.300
989.144; 5022.600; 4254.600; 2902.900
989.697; 5266.600; 4526.200; 2722.600
990.250; 6138.300; 5416.950; 2618.000
990.802; 5262.400; 4538.700; 2523.900
991.355; 7204.400; 6484.450; 2436.500
991.907; 6267.150; 5581.450; 2412.200
992.460; 5329.900; 4678.450; 2387.900
993.012; 5342.800; 4678.000; 2365.800
993.565; 5049.600; 4384.000; 2311.100
994.117; 7052.500; 6381.400; 2308.700
994.669; 4991.400; 4400.700; 2249.300
995.221; 5805.600; 5229.250; 2158.100
995.774; 5736.400; 5121.500; 2085.600
996.326; 5351.200; 4758.800; 2068.100
996.878; 6250.500; 5677.700; 1975.300
997.430; 5092.900; 4524.900; 1929.500
997.982; 5536.600; 4971.100; 1861.900
998.534; 5504.300; 4937.900; 1830.200
999.086; 5458.100; 4910.300; 1823.200
999.638; 4785.200; 4255.000; 1815.000
1000.190; 5216.000; 4652.250; 1796.600
1000.741; 5565.000; 5014.250; 1738.800
1001.293; 5071.700; 4532.050; 1666.200
1001.845; 5067.600; 4533.200; 1566.500
1002.396; 5624.700; 5081.800; 1471.900
1002.948; 5567.400; 5048.700; 1398.000
1003.500; 5483.400; 4960.550; 1356.500
1004.051; 7094.200; 6624.850; 1294.200
1004.603; 6146.900; 5643.750; 1190.000
1005.154; 4579.400; 4166.050; 1063.900
1005.705; 5564.500; 5158.700;  968.300
1006.257; 5450.400; 5060.350;  889.800
1006.808; 5311.200; 4926.700;  801.500
1007.359; 6033.600; 5655.450;  716.400
1007.910; 5013.100; 4671.000;  639.100
1008.461; 5795.400; 5443.300;  561.600
1009.013; 4550.500; 4188.250;  500.400
1009.564; 6328.500; 5967.100;  476.100
1010.115; 4642.200; 4299.100;  431.600
1010.665; 4699.600; 4390.700;  409.300
1011.216; 5252.800; 4940.700;  399.700
1011.767; 5491.800; 5164.100;  388.100
1012.318; 5700.500; 5392.150;  381.400
1012.869; 5280.700; 4966.150;  375.400
1013.419; 4688.900; 4378.150;  357.600
1013.970; 5271.800; 4961.350;  358.300
1014.521; 4810.300; 4524.950;  344.100
1015.071; 5327.300; 5015.950;  322.800
1015.622; 4968.200; 4668.650;  320.600
1016.172; 4652.300; 4392.750;  301.700
1016.723; 4824.900; 4524.350;  289.800
1017.273; 4743.000; 4471.700;  287.600
1017.823; 5124.500; 4817.050;  278.700
1018.374; 4806.700; 4549.200;  274.400
1018.924; 5718.200; 5442.750;  283.200
1019.474; 5630.300; 5356.750;  278.500
1020.024; 5187.700; 4888.650;  274.700
1020.574; 5771.600; 5503.500;  272.700
1021.124; 5353.100; 5080.200;  278.400
1021.674; 4389.600; 4124.300;  269.200
1022.224; 5672.000; 5407.900;  267.800
1022.774; 5263.500; 5009.550;  258.100
1023.324; 6063.100; 5784.100;  260.000
1023.874; 7126.600; 6859.800;  260.700
1024.423; 4867.900; 4580.650;  252.700
1024.973; 4730.100; 4470.350;  234.700
1025.523; 4925.700; 4626.050;  226.500
1026.072; 4800.300; 4538.100;  225.500
1026.622; 5391.600; 5114.600;  210.100
1027.172; 5715.000; 5425.100;  213.000
1027.721; 4756.800; 4495.400;  207.700
1028.270; 5336.800; 5086.500;  205.400
1028.820; 5118.400; 4850.200;  201.000
1029.369; 4884.400; 4637.950;  201.000
1029.918; 5144.400; 4862.500;  198.400
1030.468; 4471.200; 4243.350;  199.200
1031.017; 5092.400; 4836.350;  192.600
1031.566; 4853.200; 4617.600;  197.400
1032.115; 5573.600; 5331.750;  188.300
1032.664; 4788.200; 4559.450;  193.700
1033.213; 5892.600; 5668.250;  191.900
1033.762; 5089.700; 4830.250;  184.500
1034.311; 5434.000; 5191.500;  194.300
1034.860; 5536.600; 5284.950;  192.300
1035.408; 5883.900; 5610.700;  182.600
1035.957; 5777.000; 5522.400;  173.900
1036.506; 4185.600; 3960.200;  185.200
1037.055; 6839.800; 6586.050;  182.500
1037.603; 5354.300; 5103.350;  167.600
1038.152; 4205.000; 3968.450;  168.200
1038.700; 4647.700; 4427.150;  169.600
1039.249; 5458.500; 5226.650;  164.300
1039.797; 5089.500; 4872.500;  169.600
1040.345; 5643.400; 5424.800;  167.100
1040.894; 5041.400; 4813.700;  164.400
1041.442; 5105.600; 4877.550;  158.300
1041.990; 4496.200; 4262.300;  160.000
1042.538; 4300.800; 4042.350;  156.800
1043.087; 4507.800; 4310.800;  146.600
1043.635; 5488.200; 5260.000;  162.400
1044.183; 4749.800; 4514.800;  156.300
1044.731; 4611.800; 4406.500;  158.100
1045.279; 5509.000; 5219.050;  154.500
1045.827; 7305.300; 7077.300;  146.200
1046.374; 4103.000; 3856.850;  154.000
1046.922; 4739.400; 4528.700;  149.000
1047.470; 5606.800; 5396.150;  154.900
1048.018; 5316.600; 5076.000;  148.400
1048.565; 5814.000; 5586.050;  146.300
1049.113; 4467.900; 4219.750;  156.100
1049.660; 5060.300; 4830.250;  154.300
1050.208; 5476.000; 5232.150;  149.400
1050.755; 4924.900; 4685.600;  157.500
1051.303; 5601.600; 5350.000;  157.700
1051.850; 5122.900; 4900.250;  152.800
1052.397; 3773.100; 3583.350;  146.300
1052.945; 5023.300; 4763.250;  149.500
1053.492; 6040.500; 5860.450;  149.300
1054.039; 5887.400; 5671.700;  163.100
1054.586; 4496.000; 4260.150;  150.400
1055.133; 5664.200; 5451.250;  153.500
1055.680; 5216.400; 5019.000;  155.600
1056.227; 4345.400; 4119.750;  148.700
1056.774; 6528.000; 6272.800;  151.500
1057.321; 4216.800; 3982.050;  143.700
1057.868; 5262.700; 5038.200;  145.300
1058.415; 5289.400; 5095.550;  153.500
1058.961; 5510.200; 5280.150;  149.900
1059.508; 5208.100; 4988.750;  147.300
1060.055; 4743.000; 4525.850;  151.000
1060.601; 5012.000; 4812.050;  148.700
1061.148; 5098.500; 4856.200;  153.800
1061.694; 4841.500; 4607.750;  150.500
1062.241; 4848.600; 4618.400;  149.100
1062.787; 5446.800; 5206.850;  153.000
1063.334; 6562.900; 6355.650;  153.200
1063.880; 5484.900; 5266.000;  148.400
1064.426; 5781.600; 5564.350;  149.200
1064.972; 4861.100; 4656.350;  156.400
1065.518; 4629.400; 4387.200;  144.700
1066.065; 5144.900; 4927.450;  139.400
1066.611; 4896.900; 4690.100;  139.300
1067.157; 5216.500; 5020.700;  138.400
1067.703; 5476.000; 5278.700;  142.700
1068.249; 4845.800; 4640.100;  136.700
1068.794; 5121.000; 4906.750;  139.400
1069.340; 4693.200; 4496.450;  142.700
1069.886; 4850.500; 4653.350;  135.600
1070.432; 4362.800; 4171.150;  133.400
1070.977; 4940.600; 4721.800;  138.200
1071.523; 4602.600; 4393.350;  132.400
1072.068; 4682.400; 4498.200;  132.700
1072.614; 4241.200; 4055.600;  127.000
1073.160; 5670.000; 5477.150;  131.300
1073.705; 4712.700; 4497.900;  135.700
1074.250; 4567.600; 4390.750;  133.000
1074.796; 5377.900; 5194.350;  138.000
1075.341; 5443.400; 5229.600;  137.300
1075.886; 4797.300; 4626.400;  134.300
1076.431; 5374.600; 5204.900;  138.200
1076.976; 5290.600; 5083.800;  132.200
1077.521; 4764.700; 4562.800;  138.900
1078.067; 4756.900; 4576.800;  128.600
1078.612; 5469.600; 5274.850;  138.900
1079.156; 4965.300; 4743.400;  128.900
1079.701; 5697.500; 5527.550;  129.700
1080.246; 5731.900; 5543.800;  128.600
1080.791; 5195.700; 4994.550;  122.600
1081.336; 5429.200; 5231.150;  122.000
1081.880; 5383.100; 5190.550;  123.900
1082.425; 4669.800; 4490.500;  120.600
1082.970; 5923.800; 5734.950;  124.500
1083.514; 4893.500; 4696.700;  112.000
1084.059; 4807.600; 4624.650;  120.700
1084.603; 4635.600; 4479.200;  116.000
1085.147; 5342.400; 5167.200;  116.300
1085.692; 5933.500; 5753.400;  108.200
1086.236; 4128.800; 3966.450;  114.600
1086.780; 6276.700; 6044.500;  118.900
1087.325; 5406.100; 5225.500;  120.400
1087.869; 5076.700; 4879.850;  110.500
1088.413; 5794.100; 5615.250;  114.000
1088.957; 4408.000; 4238.200;  114.300
1089.501; 6400.600; 6206.000;  114.600
1090.045; 6037.100; 5864.600;  114.200
1090.589; 4643.400; 4492.250;  105.500
1091.133; 5520.600; 5377.300;  111.800
1091.676; 4799.800; 4649.250;  110.900
1092.220; 4959.900; 4787.250;  110.100
1092.764; 5858.400; 5672.550;  108.100
1093.307; 5585.100; 5364.100;  109.900
1093.851; 4589.600; 4422.150;  107.500
1094.395; 5644.900; 5493.850;   96.200
1094.938; 5237.000; 5062.000;   99.300
1095.482; 4610.800; 4436.550;   97.700
1096.025; 5898.600; 5711.450;   84.900
1096.568; 6428.200; 6229.550;   88.500
1097.112; 4132.100; 3972.400;   95.700
1097.655; 4906.700; 4744.650;   97.300
1098.198; 4957.000; 4778.850;   92.600
1098.741; 5127.300; 4922.400;   91.800
1099.285; 5413.600; 5240.200;   88.000
1099.828; 3628.300; 3448.600;   91.700
1100.371; 5040.000; 4888.250;   89.900
1100.914; 5705.500; 5508.500;   91.500
1101.457; 5639.500; 5443.850;   88.100
1101.999; 4785.800; 4632.250;   86.400
1102.542; 5301.000; 5117.750;   90.800
1103.085; 5482.600; 5320.700;   95.400
1103.628; 6366.100; 6206.250;   97.700
1104.170; 4820.100; 4684.400;   84.000
1104.713; 5333.200; 5195.850;   93.900
1105.256; 4581.100; 4419.550;   93.000
1105.798; 4147.100; 3988.600;   85.600
1106.341; 6038.100; 5905.300;   87.100
1106.883; 4338.500; 4161.400;   85.200
1107.425; 5566.200; 5414.900;   85.000
1107.968; 5161.100; 4974.500;   84.300
1108.510; 5668.400; 5540.350;   88.200
1109.052; 5136.100; 4988.450;   86.600
1109.594; 4623.100; 4484.800;   79.400
1110.136; 5399.000; 5221.300;   81.700
1110.679; 5210.200; 5066.900;   75.500
1111.221; 5067.700; 4895.250;   88.500
1111.763; 4640.100; 4453.050;   87.700
1112.304; 4527.900; 4373.350;   89.700
1112.846; 5545.500; 5377.400;   81.900
1113.388; 7942.400; 7765.850;   86.400
1113.930; 5794.800; 5628.400;   84.700
1114.472; 5095.100; 4929.350;   78.900
1115.013; 4583.100; 4415.050;   78.100
1115.555; 4914.700; 4761.800;   84.900
1116.097; 4782.700; 4628.450;   79.200
1116.638; 5738.000; 5576.850;   83.700
1117.180; 5530.400; 5357.600;   85.500
1117.721; 4788.400; 4643.900;   78.800
1118.262; 5677.700; 5513.150;   77.400
1118.804; 5311.800; 5150.350;   81.400
1119.345; 4842.300; 4708.600;   77.800
1119.886; 5855.000; 5730.300;   81.200
1120.427; 4918.500; 4749.450;   77.200
1120.969; 4992.500; 4855.250;   75.200
1121.510; 4718.600; 4565.100;   80.900
1122.051; 6045.600; 5882.950;   77.300
1122.592; 5503.100; 5362.150;   73.300
1123.133; 4559.600; 4406.450;   90.100
1123.673; 5940.500; 5780.650;   75.000
1124.214; 5127.500; 4988.450;   80.600
1124.755; 5368.200; 5239.150;   78.000
1125.296; 5213.700; 5071.700;   77.500
1125.836; 5778.900; 5614.350;   80.400
1126.377; 5053.200; 4888.950;   75.600
1126.918; 5149.700; 4990.000;   78.900
1127.458; 5204.900; 5057.400;   78.000
1127.999; 5510.200; 5356.800;   76.100
1128.539; 5810.500; 5660.000;   81.400
1129.079; 5343.500; 5167.400;   77.400
1129.620; 4663.500; 4531.750;   68.000
1130.160; 4517.700; 4398.900;   77.500
1130.700; 5395.200; 5217.650;   76.300
1131.240; 5411.500; 5245.000;   66.800
1131.781; 5225.700; 5091.350;   70.600
1132.321; 5062.100; 4912.100;   77.200
1132.861; 4703.800; 4544.850;   70.400
1133.401; 5024.800; 4886.600;   68.700
1133.941; 5256.700; 5117.700;   68.500
1134.481; 5063.000; 4933.900;   75.900
1135.020; 5095.000; 4968.550;   66.600
1135.560; 5646.700; 5473.300;   68.100
1136.100; 4219.400; 4069.400;   64.900
1136.640; 4312.800; 4176.500;   72.500
1137.179; 4453.800; 4350.650;   69.700
1137.719; 5109.000; 4954.400;   68.400
1138.258; 4976.200; 4803.500;   67.000
1138.798; 5567.800; 5416.400;   69.600
1139.337; 4042.400; 3922.550;   64.000
1139.877; 5354.400; 5230.350;   64.500
1140.416; 7331.400; 7166.500;   74.900
1140.955; 4455.200; 4333.400;   67.200
1141.494; 5677.300; 5532.550;   69.900
1142.034; 4915.800; 4767.300;   59.100
1142.573; 5403.700; 5287.550;   65.900
1143.112; 4652.400; 4512.350;   70.600
1143.651; 4535.400; 4385.950;   67.100
1144.190; 5859.900; 5703.450;   56.700
1144.729; 5102.700; 4955.750;   61.800
1145.267; 4889.300; 4736.950;   62.500
1145.806; 5369.400; 5220.900;   68.500
1146.345; 5381.400; 5257.750;   58.300
1146.884; 5299.400; 5145.950;   63.100
1147.422; 4461.400; 4340.300;   54.800
1147.961; 5979.200; 5848.100;   67.600
1148.500; 5641.000; 5498.250;   64.700
1149.038; 5398.100; 5233.850;   61.000
1149.577; 5898.200; 5777.000;   65.100
1150.115; 3817.800; 3681.900;   58.100
1150.653; 5153.600; 5012.650;   60.500
1151.192; 4701.000; 4567.250;   56.600
1151.730; 5527.800; 5413.950;   62.300
1152.268; 4944.200; 4812.600;   55.500
1152.806; 4861.800; 4734.050;   58.200
1153.344; 4842.500; 4732.600;   55.000
1153.882; 5024.800; 4902.000;   64.200
1154.421; 3944.700; 3841.450;   60.300
1154.958; 5084.300; 4952.800;   58.100
1155.496; 5439.600; 5328.650;   55.800
1156.034; 6109.600; 5973.800;   61.000
1156.572; 5648.100; 5493.900;   56.200
1157.110; 3968.300; 3856.400;   53.200
1157.647; 5732.100; 5588.750;   57.400
1158.185; 4821.700; 4685.000;   55.500
1158.723; 4313.700; 4210.500;   58.000
1159.260; 5919.800; 5779.700;   53.700
1159.798; 5587.000; 5442.950;   51.700
1160.335; 5337.400; 5227.600;   59.600

