
Integration time [ms]:   3.276
Averaging Nr. [scans]: 1000
Smoothing Nr. [pixels]: 0
Data measured with spectrometer [name]: 7414430SP
Wave   ;Sample   ;Dark     ;Reference
[nm]   ;[counts] ;[counts] ;[counts] 

288.544;  151.926;    7.793;  793.890
289.143;  155.723;    7.462;  681.602
289.742;  155.337;    8.602;  828.814
290.341;  141.659;    1.321;  789.841
290.940;  129.582;   -0.709;  730.702
291.538;  131.913;    0.881;  881.108
292.137;  131.263;    0.122;  792.581
292.736;  136.611;   -1.929;  975.101
293.335;  132.154;   -8.229;  735.086
293.934;  132.398;   -5.279;  781.677
294.532;  131.172;   -1.369; 1031.958
295.131;  117.019;   -7.641;  834.394
295.730;  117.413;   -8.420;  809.588
296.328;  116.182;   -5.611;  783.442
296.927;  117.038;   -5.781;  779.652
297.525;  118.109;   -6.361;  781.236
298.124;  108.468;  -11.382;  654.009
298.722;  111.739;   -7.641;  761.933
299.321;  110.079;   -6.811;  708.597
299.919;  108.004;   -6.991;  751.918
300.518;  105.980;  -10.362;  689.338
301.116;  107.040;   -9.581;  691.381
301.715;  106.826;   -4.891;  730.222
302.313;  105.938;   -8.801;  704.943
302.911;  100.374;   -8.522;  733.830
303.509;  106.091;   -6.171;  925.627
304.108;  103.260;   -7.311;  760.383
304.706;  103.947;   -8.321;  801.664
305.304;   97.139;  -10.222;  796.707
305.902;  102.763;   -6.021;  784.484
306.500;   99.008;   -4.971;  728.200
307.098;   97.138;   -7.061;  746.560
307.696;   95.298;   -8.801;  780.432
308.294;   95.538;   -6.411;  731.359
308.892;   97.593;   -2.901;  759.769
309.490;   94.426;   -5.041;  712.161
310.088;   92.012;   -5.002;  788.444
310.686;   96.155;   -2.041;  821.749
311.284;   92.766;   -2.351;  766.040
311.882;   90.287;   -4.422;  731.225
312.480;   86.684;   -4.192;  697.167
313.078;   87.795;   -1.172;  808.331
313.675;   88.817;   -2.601;  691.600
314.273;   83.937;   -1.312;  797.837
314.871;   83.215;   -3.942;  589.829
315.468;   81.224;   -2.802;  652.090
316.066;   84.097;   -0.701;  694.427
316.664;   77.453;   -4.362;  656.351
317.261;   81.144;   -2.872;  910.128
317.859;   76.740;   -2.022;  768.735
318.456;   76.780;   -0.531;  830.096
319.054;   73.563;   -3.912;  787.828
319.651;   72.315;   -4.752;  759.928
320.249;   71.589;   -2.602;  810.188
320.846;   69.344;   -0.821;  714.286
321.443;   66.295;   -4.642;  832.135
322.041;   63.182;   -5.002;  812.315
322.638;   60.181;   -3.982;  701.456
323.235;   61.964;   -3.411;  665.683
323.833;   59.713;   -7.361;  740.354
324.430;   54.693;   -8.611;  615.900
325.027;   55.863;   -4.061;  876.855
325.624;   55.604;   -4.031;  644.532
326.221;   53.051;   -7.481;  689.717
326.818;   52.314;   -5.281;  818.332
327.415;   55.758;   -7.460;  748.828
328.012;   54.922;   -5.510;  690.585
328.609;   53.747;   -7.880;  731.389
329.206;   51.715;   -8.331;  778.621
329.803;   51.630;   -5.121;  737.841
330.400;   54.564;   -4.510;  704.260
330.997;   56.053;   -6.441;  817.147
331.594;   55.023;   -8.831;  788.185
332.191;   60.036;   -7.621;  728.722
332.787;   61.940;   -4.591;  844.463
333.384;   61.299;   -7.412;  763.093
333.981;   59.595;   -8.293;  815.687
334.578;   62.801;   -7.052;  708.378
335.174;   65.033;   -3.102;  731.469
335.771;   65.054;   -5.943;  836.456
336.367;   61.794;   -7.393;  710.631
336.964;   65.298;   -4.063;  793.266
337.561;   64.020;   -3.813;  731.112
338.157;   59.248;   -4.654;  911.916
338.754;   57.398;   -7.934;  796.589
339.350;   55.163;   -4.414;  722.493
339.946;   57.384;   -4.664;  773.135
340.543;   48.630;   -6.375;  846.136
341.139;   44.004;   -9.815;  720.836
341.735;   41.328;   -4.526;  772.593
342.332;   40.060;   -4.895;  691.472
342.928;   40.400;   -4.295;  795.394
343.524;   35.054;   -5.476;  761.684
344.120;   30.420;   -5.856;  738.562
344.716;   33.811;   -2.155;  723.717
345.313;   32.246;   -6.275;  795.342
345.909;   26.748;   -8.815;  627.336
346.505;   28.251;   -5.305;  740.247
347.101;   29.419;   -2.674;  827.864
347.697;   29.735;   -4.344;  785.398
348.293;   24.278;   -9.975;  627.244
348.889;   24.973;   -5.774;  745.914
349.485;   24.657;   -5.004;  688.205
350.081;   25.269;   -4.704;  772.592
350.676;   19.783;   -6.635;  691.606
351.272;   24.468;   -4.504;  809.530
351.868;   23.623;   -3.914;  780.497
352.464;   21.041;   -9.044;  723.932
353.059;   17.231;   -8.314;  646.017
353.655;   20.078;   -7.024;  777.063
354.251;   21.339;   -5.343;  759.845
354.846;   17.191;   -8.604;  740.646
355.442;   14.815;   -6.945;  753.071
356.038;   15.872;   -7.564;  751.708
356.633;   16.402;   -5.814;  728.594
357.229;   14.021;   -7.364;  724.757
357.824;   12.035;   -8.024;  703.600
358.420;   11.624;   -9.384;  679.726
359.015;   11.910;   -5.104;  695.357
359.610;   13.410;   -6.854;  763.920
360.206;    6.872;  -10.185;  603.240
360.801;   10.183;   -7.054;  646.503
361.396;   12.469;   -5.034;  725.975
361.992;    7.928;   -8.284;  668.220
362.587;    4.965;   -8.625;  670.160
363.182;    7.098;   -7.674;  689.631
363.777;    7.828;   -5.164;  738.242
364.372;    7.683;   -8.604;  737.314
364.967;    3.826;   -9.055;  680.744
365.563;    7.552;   -6.114;  815.567
366.158;    5.192;   -5.814;  685.161
366.753;    5.862;   -7.854;  649.263
367.348;    3.687;   -7.804;  746.056
367.942;    3.354;   -7.954;  697.298
368.537;    3.129;   -4.984;  754.245
369.132;    3.705;   -8.564;  703.428
369.727;   -0.388;   -8.855;  638.079
370.322;    0.571;   -6.245;  580.186
370.917;    0.001;   -6.425;  710.646
371.511;    3.087;   -6.294;  861.834
372.106;   -0.877;   -7.685;  776.964
372.701;   -4.072;   -7.335;  585.988
373.296;    2.755;   -4.564;  863.135
373.890;   -2.717;  -10.235;  647.840
374.485;   -4.889;   -7.885;  691.199
375.079;   -1.077;   -7.324;  738.685
375.674;    0.126;   -3.494;  812.970
376.268;   -4.358;   -8.525;  691.759
376.863;   -9.680;  -10.086;  580.327
377.457;   -2.986;   -7.025;  662.490
378.052;   -4.874;   -3.585;  764.884
378.646;   -6.054;   -7.595;  741.167
379.240;   -6.461;   -8.335;  721.176
379.835;   -5.573;   -5.785;  636.978
380.429;   -7.090;   -4.335;  562.557
381.023;   -7.785;   -6.805;  779.205
381.617;   -9.757;   -9.195;  680.106
382.212;   -6.706;   -6.905;  685.303
382.806;   -5.382;   -3.745;  760.690
383.400;   -9.683;   -7.745;  672.281
383.994;  -10.533;   -9.765;  664.870
384.588;   -6.943;   -6.564;  697.701
385.182;   -5.522;   -5.344;  726.624
385.776;   -6.998;   -8.514;  706.875
386.370;  -10.000;   -9.555;  681.968
386.964;   -9.104;   -8.715;  684.155
387.558;   -7.210;   -6.174;  598.360
388.152;  -10.966;   -8.725;  681.959
388.745;   -9.411;   -7.965;  814.707
389.339;   -7.764;   -5.924;  747.642
389.933;   -5.728;   -5.524;  695.370
390.527;   -6.593;   -7.114;  859.029
391.120;  -13.710;  -10.725;  595.318
391.714;  -10.797;   -8.035;  711.633
392.308;   -7.268;   -3.574;  780.253
392.901;  -11.247;   -7.245;  642.460
393.495;  -12.785;   -9.285;  595.414
394.089;  -11.104;   -5.895;  760.452
394.682;  -11.398;   -4.295;  697.188
395.275;  -11.409;   -9.875;  719.927
395.869;  -13.362;   -8.485;  667.314
396.462;  -11.667;   -7.455;  616.609
397.056;   -7.610;   -5.424;  776.621
397.649;  -12.311;   -6.605;  731.575
398.242;  -10.254;   -8.224;  712.645
398.836;   -8.839;   -7.474;  766.408
399.429;  -10.323;   -7.094;  631.041
400.022;  -13.315;   -9.475;  665.902
400.615;  -11.355;   -7.145;  805.609
401.208;   -9.107;   -7.174;  691.451
401.802;  -11.406;   -5.515;  699.329
402.395;  -12.540;   -9.875;  683.502
402.988;  -14.002;   -8.845;  696.627
403.581;  -10.527;   -8.874;  646.878
404.174;   -8.279;   -5.324;  686.568
404.767;  -11.256;   -9.575;  638.583
405.360;  -12.831;  -10.965;  621.445
405.953;   -7.608;   -8.764;  759.034
406.545;   -8.689;   -7.514;  725.342
407.138;  -11.895;  -10.025;  618.350
407.731;  -10.443;  -10.034;  613.303
408.324;   -6.533;   -9.374;  660.554
408.917;   -7.375;   -6.534;  681.864
409.509;   -8.475;   -8.004;  740.396
410.102;  -11.126;   -9.875;  643.948
410.695;   -5.519;   -8.604;  665.758
411.287;   -5.939;   -6.794;  599.821
411.880;   -7.023;   -9.334;  585.421
412.472;  -10.212;  -10.254;  613.092
413.065;   -7.530;   -6.714;  629.408
413.657;   -5.051;   -7.234;  576.678
414.250;   -4.918;  -10.544;  646.681
414.842;   -7.211;   -9.744;  676.353
415.434;   -4.606;   -6.994;  570.463
416.027;   -0.671;   -5.893;  652.196
416.619;   -2.946;   -7.264;  713.400
417.211;   -3.514;  -10.374;  599.352
417.804;    0.523;   -7.993;  628.499
418.396;   -3.225;   -7.234;  607.643
418.988;   -1.419;   -9.443;  659.238
419.580;   -4.302;  -10.724;  568.276
420.172;   -2.469;  -10.323;  536.196
420.764;    2.720;   -8.793;  672.482
421.356;    0.702;  -11.143;  636.898
421.948;    0.230;   -8.293;  677.661
422.540;    5.267;   -7.893;  680.027
423.132;    4.166;   -7.082;  600.641
423.724;    1.399;   -8.653;  561.267
424.316;    2.796;  -10.213;  621.345
424.908;    6.585;   -9.762;  591.517
425.500;    7.557;   -5.572;  647.978
426.092;    7.320;   -8.422;  648.268
426.683;    6.593;   -9.283;  684.836
427.275;    9.190;   -7.852;  641.471
427.867;   10.963;   -5.272;  668.948
428.458;   11.604;   -7.682;  732.344
429.050;   10.195;  -10.612;  680.749
429.642;   12.145;   -9.882;  743.124
430.233;   13.010;   -6.962;  569.356
430.825;   14.830;   -6.842;  724.809
431.416;   11.795;   -9.672;  698.241
432.008;   15.122;   -6.552;  651.723
432.599;   15.307;   -6.891;  656.073
433.190;   12.994;  -10.912;  637.670
433.782;   12.184;  -11.172;  590.395
434.373;   19.468;   -6.061;  884.765
434.964;   18.637;   -8.251;  602.920
435.556;   16.394;   -9.722;  634.537
436.147;   18.927;   -9.082;  758.490
436.738;   18.744;   -8.041;  701.099
437.329;   24.578;   -7.341;  721.723
437.920;   17.636;   -8.162;  666.688
438.511;   17.307;  -11.802;  564.526
439.103;   24.655;  -10.191;  623.998
439.694;   26.017;   -7.601;  681.583
440.285;   26.498;   -8.541;  764.432
440.876;   23.999;   -9.751;  845.738
441.466;   23.945;   -9.401;  575.162
442.057;   29.767;   -7.760;  665.814
442.648;   28.608;   -9.971;  746.255
443.239;   26.914;  -11.001;  620.477
443.830;   31.396;   -7.990;  704.958
444.421;   34.038;   -7.910;  655.474
445.011;   30.688;   -8.131;  693.619
445.602;   29.725;   -7.111;  743.126
446.193;   31.835;  -10.920;  488.117
446.783;   35.947;   -6.500;  640.397
447.374;   31.803;   -8.671;  692.759
447.964;   32.314;  -10.781;  713.770
448.555;   40.420;   -9.650;  822.742
449.145;   37.556;   -8.660;  662.853
449.736;   38.776;   -8.990;  803.179
450.326;   37.726;   -9.500;  713.626
450.917;   42.771;   -8.680;  675.324
451.507;   42.758;   -7.520;  600.661
452.097;   43.479;   -8.590;  746.267
452.688;   44.223;  -11.340;  742.160
453.278;   43.775;  -10.100;  566.840
453.868;   48.124;   -6.019;  793.550
454.458;   46.597;   -9.440;  651.141
455.048;   46.018;  -10.560;  711.783
455.639;   48.147;  -11.799;  567.096
456.229;   51.514;   -6.899;  710.694
456.819;   54.082;   -7.389;  751.158
457.409;   53.642;  -11.119;  773.993
457.999;   56.483;   -9.289;  737.505
458.589;   56.436;   -6.139;  686.606
459.179;   57.187;   -8.729;  717.658
459.769;   55.270;   -9.789;  627.099
460.358;   60.125;  -10.259;  797.262
460.948;   59.531;   -7.299;  689.503
461.538;   61.607;  -10.289;  660.677
462.128;   59.300;  -11.269;  664.934
462.717;   65.745;   -9.368;  710.326
463.307;   69.366;   -7.908;  705.846
463.897;   65.259;   -9.599;  656.942
464.486;   63.170;   -9.769;  837.128
465.076;   68.603;   -8.048;  733.776
465.666;   72.475;   -9.358;  652.900
466.255;   70.196;   -7.919;  785.651
466.845;   69.141;  -11.689;  666.749
467.434;   72.371;   -7.818;  725.873
468.023;   73.822;   -7.678;  658.357
468.613;   71.037;  -10.939;  713.946
469.202;   75.284;  -10.118;  646.507
469.791;   79.336;   -9.108;  737.811
470.381;   81.587;   -6.058;  742.813
470.970;   82.236;  -10.428;  711.099
471.559;   80.562;  -10.268;  733.291
472.148;   84.358;   -8.448;  675.737
472.738;   87.403;   -6.917;  765.466
473.327;   86.432;  -11.978;  637.529
473.916;   86.219;  -11.888;  737.446
474.505;   90.646;   -9.437;  751.703
475.094;   93.529;   -6.747;  806.570
475.683;   92.885;   -9.367;  797.699
476.272;   94.007;  -12.637;  730.632
476.861;   97.294;  -10.027;  706.754
477.449;  103.604;   -8.716;  728.487
478.038;   98.348;   -9.577;  692.513
478.627;   99.344;   -9.718;  714.852
479.216;  106.393;   -8.947;  769.441
479.805;  109.065;   -6.256;  783.375
480.393;  108.372;   -7.937; 1008.945
480.982;  107.594;   -7.717;  874.501
481.571;  114.208;   -9.266;  858.333
482.159;  115.821;   -7.636;  705.386
482.748;  114.869;   -9.667;  821.385
483.336;  119.516;  -10.376;  858.209
483.925;  120.455;   -7.147;  774.373
484.513;  127.310;   -7.996;  758.962
485.102;  124.955;  -10.027;  810.965
485.690;  133.250;  -10.446; 1011.050
486.278;  135.351;   -8.446;  979.329
486.867;  136.322;   -6.356;  809.662
487.455;  137.563;   -9.136;  898.229
488.043;  139.241;  -10.646;  748.361
488.631;  148.064;   -7.456; 1005.079
489.220;  153.145;   -6.636;  908.626
489.808;  153.364;  -11.036;  741.415
490.396;  161.574;  -10.246;  914.645
490.984;  167.817;   -8.556;  830.161
491.572;  179.390;   -5.886;  940.315
492.160;  186.084;   -9.486;  919.081
492.748;  198.970;  -10.976;  884.341
493.336;  224.946;   -8.776; 1019.693
493.924;  253.271;   -5.465;  958.077
494.512;  285.261;   -9.986; 1066.638
495.100;  327.892;  -10.636; 1103.280
495.687;  385.979;  -10.885; 1206.373
496.275;  452.588;   -8.126; 1150.796
496.863;  525.780;  -10.586; 1281.171
497.451;  633.890;  -11.926; 1386.805
498.038;  782.260;  -10.885; 1556.729
498.626;  897.313;   -6.315; 1741.407
499.214; 1047.276;   -7.326; 2016.609
499.801; 1256.003;  -11.906; 2220.633
500.389; 1525.776;  -10.466; 2312.494
500.976; 1870.867;   -5.236; 2744.849
501.564; 2314.239;   -8.936; 3148.565
502.151; 2702.120;  -13.176; 3515.999
502.738; 3200.428;  -10.646; 3971.274
503.326; 3616.218;   -9.525; 4403.796
503.913; 4021.260;  -10.856; 5161.749
504.500; 4363.325;  -11.586; 5986.420
505.088; 4834.830;  -10.336; 6381.201
505.675; 5382.656;   -6.355; 6925.547
506.262; 6079.741;   -9.046; 7619.060
506.849; 6871.021;  -10.416; 8733.969
507.436; 7378.851;  -10.305; 9790.121
508.023; 7976.096;   -5.496; 9985.472
508.610; 8252.669;   -7.856;10434.618
509.197; 8956.264;  -10.097;11198.435
509.784;10429.115;  -10.886;12391.194
510.371;11469.637;   -9.315;13603.713
510.958;12231.881;   -9.936;14426.586
511.545;13090.219;   -9.326;15243.775
512.132;14049.931;  -10.075;15945.876
512.719;14671.383;   -7.796;16340.369
513.305;15603.008;  -10.606;18011.766
513.892;16418.924;  -11.486;19754.971
514.479;17984.621;   -9.126;20967.805
515.066;19611.516;   -6.026;22299.793
515.652;20771.996;   -8.466;22908.660
516.239;22008.420;  -10.886;23798.875
516.825;23198.359;  -11.496;25567.275
517.412;24311.023;   -5.796;28154.959
517.998;25191.836;  -10.506;28344.111
518.585;25264.789;  -10.076;27134.219
519.171;25471.824;   -8.315;27268.576
519.758;26628.789;   -8.596;28964.129
520.344;28573.041;   -8.466;30664.494
520.930;29093.816;  -11.006;32550.605
521.516;30976.709;  -10.495;35422.895
522.103;33793.844;   -5.526;38280.004
522.689;34693.313;   -8.746;37835.117
523.275;34264.785;  -11.376;37288.613
523.861;34977.703;  -11.156;37281.395
524.447;36045.332;   -8.135;37846.949
525.033;35422.117;   -7.896;38321.949
525.619;35787.230;  -12.476;38579.285
526.205;37754.117;   -9.516;40622.875
526.791;40629.938;   -6.926;42258.836
527.377;40549.836;   -8.346;42966.902
527.963;42672.484;   -8.717;42018.949
528.549;41355.941;  -11.016;42476.828
529.135;39567.402;   -8.536;41854.852
529.721;39086.355;   -9.666;41237.711
530.306;38563.453;  -10.066;41259.445
530.892;38661.047;  -11.356;41506.047
531.478;40034.293;   -6.596;43559.613
532.063;42463.285;   -8.836;47695.563
532.649;42650.855;  -10.047;50808.324
533.235;44014.141;   -9.746;51787.500
533.820;45565.730;   -6.566;52145.035
534.406;46679.359;  -10.817;51133.488
534.991;46248.398;   -9.416;49996.805
535.576;44946.598;   -9.036;48882.852
536.162;45214.723;   -6.156;46942.285
536.747;46362.750;  -11.607;45711.746
537.333;50140.504;  -11.787;48510.180
537.918;53571.945;  -12.437;50439.891
538.503;52112.453;   -7.196;50863.711
539.088;48642.852;  -10.556;50906.922
539.673;48711.906;   -8.767;52621.965
540.259;48409.941;  -10.026;52368.094
540.844;45375.965;   -7.416;50879.109
541.429;45971.121;   -9.467;52077.777
542.014;49669.672;   -9.527;52716.695
542.599;49868.930;   -9.946;52363.281
543.184;46824.434;   -7.927;53187.137
543.769;47737.109;   -9.297;54697.605
544.354;47216.363;  -10.127;53913.914
544.938;46384.332;   -9.267;49680.164
545.523;48649.652;   -6.506;47386.277
546.108;50746.793;   -9.787;49151.949
546.693;53103.258;  -11.587;51384.637
547.278;53018.750;  -10.986;51853.254
547.862;49620.465;   -8.206;51173.750
548.447;44869.113;  -10.067;51691.395
549.031;44315.508;   -9.637;52456.703
549.616;49058.582;   -9.926;52714.516
550.201;48129.680;   -6.347;52414.598
550.785;48851.980;   -7.917;52355.059
551.370;48274.688;  -10.867;54589.453
551.954;48485.480;   -9.047;58267.348
552.538;50119.047;   -7.827;59062.176
553.123;48559.090;  -10.287;58115.285
553.707;46039.359;  -12.178;56556.285
554.291;46419.977;   -8.717;56201.668
554.876;48067.035;   -7.457;55335.762
555.460;48852.637;  -10.387;54155.703
556.044;50912.426;   -9.618;53721.484
556.628;49094.871;  -11.567;53731.016
557.212;47529.766;   -8.097;54312.531
557.796;45514.051;  -11.077;53797.773
558.380;45609.305;  -11.108;56145.984
558.964;46608.371;   -9.057;57277.930
559.548;47704.906;   -6.977;56459.641
560.132;45703.813;  -11.457;54434.543
560.716;44461.734;  -11.378;54800.617
561.300;45228.164;   -9.577;57606.945
561.884;46341.078;   -7.127;58972.445
562.467;45316.285;   -7.118;57327.570
563.051;44628.766;  -13.358;54962.434
563.635;44956.219;  -10.178;52594.473
564.219;45339.484;   -7.837;50610.410
564.802;46184.383;  -11.398;49551.180
565.386;46503.258;  -12.788;48370.953
565.969;46225.031;   -9.077;48178.871
566.553;45222.824;   -6.207;49957.305
567.136;45246.871;   -8.568;50369.594
567.720;41275.945;  -11.868;49492.004
568.303;39506.938;   -8.268;50616.352
568.887;39641.980;   -8.698;50727.148
569.470;39856.746;   -6.808;51698.379
570.053;38751.152;  -13.188;52122.078
570.637;37319.066;  -12.037;52536.438
571.220;36819.938;   -8.577;51186.098
571.803;36871.508;   -8.498;51032.762
572.386;38852.102;  -10.498;49609.887
572.969;41604.016;   -9.388;48285.926
573.552;40223.180;   -8.338;47624.285
574.135;39243.750;   -8.518;45498.641
574.718;36560.969;  -13.628;41970.434
575.301;35157.238;  -10.893;41447.137
575.884;33753.508;   -8.158;40923.836
576.467;34956.027;  -10.328;45267.723
577.050;37419.445;  -13.058;48175.543
577.633;39244.805;   -9.458;47729.328
578.216;38051.680;   -8.928;47579.793
578.799;36923.289;   -9.358;47820.996
579.381;35313.621;  -11.388;48115.551
579.964;33591.840;  -11.718;47333.766
580.547;35118.773;   -8.588;46668.969
581.129;36086.914;   -8.859;44466.141
581.712;36553.313;  -10.729;44164.922
582.294;37372.590;  -11.118;46477.855
582.877;37612.629;   -5.218;48244.254
583.459;35413.727;   -8.679;47437.895
584.042;33626.758;  -10.709;46943.219
584.624;34223.844;  -11.669;46792.227
585.206;33659.102;   -8.218;46557.250
585.789;33759.625;  -10.569;45793.773
586.371;36814.328;  -11.859;43836.391
586.953;37653.031;  -10.719;42972.492
587.536;38520.281;   -7.198;42487.211
588.118;38217.297;   -8.720;42086.414
588.700;34573.941;  -10.439;43389.930
589.282;33632.613;   -9.198;43646.039
589.864;34457.168;   -9.199;43438.109
590.446;35830.039;  -11.319;43151.926
591.028;35729.527;  -11.159;42781.867
591.610;34698.359;  -11.779;42839.098
592.192;31773.621;   -7.668;42820.402
592.774;30127.412;  -11.949;40724.277
593.356;29016.361;  -12.129;39874.789
593.937;28524.320;  -10.669;39980.648
594.519;30595.029;   -6.509;42069.633
595.101;32884.504;  -10.849;42976.031
595.683;33108.273;  -11.679;44084.441
596.264;34185.527;   -9.049;43478.797
596.846;33000.574;   -8.849;43803.672
597.427;32294.324;   -9.570;42986.934
598.009;34128.117;  -12.620;42832.219
598.591;34484.598;  -10.039;42580.086
599.172;33528.566;  -10.369;43061.805
599.753;33583.207;   -9.140;41691.469
600.335;35437.578;  -11.430;40692.520
600.916;34133.918;   -9.939;39982.422
601.498;31460.791;   -8.479;40318.617
602.079;30058.854;  -10.920;40670.609
602.660;30008.982;  -11.480;41450.898
603.241;31210.699;  -11.699;41137.738
603.823;30057.484;   -9.579;38868.797
604.404;29910.023;  -10.620;38182.785
604.985;31245.867;  -10.450;38078.047
605.566;30518.563;   -9.129;38056.633
606.147;30471.043;   -7.510;37020.418
606.728;32715.559;  -10.660;37883.359
607.309;31727.223;  -11.740;38748.273
607.890;30802.154;   -9.759;38850.230
608.471;30492.914;   -8.250;37457.918
609.051;29888.719;   -9.240;36066.457
609.632;28908.250;  -12.120;35991.074
610.213;29745.043;   -9.110;37402.641
610.794;30247.609;   -8.030;38383.363
611.374;29466.154;   -8.110;40562.387
611.955;29880.023;  -13.560;38533.727
612.536;31480.326;  -11.400;36951.789
613.116;31159.836;   -8.070;37197.891
613.697;31464.629;  -10.830;38411.125
614.277;29930.508;  -11.641;38673.938
614.858;30815.250;  -13.310;37075.863
615.438;30223.461;   -7.460;35092.906
616.019;27369.570;   -7.601;33666.301
616.599;28034.182;  -12.020;34189.023
617.179;30044.195;  -11.780;36952.047
617.760;30654.736;   -8.570;39582.574
618.340;31768.221;  -11.471;38943.977
618.920;33414.320;  -11.170;37594.156
619.500;33094.438;  -11.071;37866.938
620.080;32234.445;   -7.750;37869.043
620.660;33177.102;  -12.711;36868.617
621.241;34172.547;  -10.211;36352.309
621.821;34278.805;  -10.961;35459.520
622.401;33828.742;   -7.720;35207.414
622.980;32881.059;   -8.981;35980.422
623.560;31261.086;   -9.331;37351.328
624.140;30497.359;   -9.850;34388.582
624.720;25608.863;   -7.451;32368.764
625.300;21878.477;   -9.070;32638.629
625.880;25197.063;  -12.601;34599.035
626.459;29066.174;  -11.751;36831.738
627.039;32187.738;   -9.281;38299.098
627.619;32234.094;   -8.801;38289.574
628.198;30479.002;  -12.071;37220.695
628.778;29625.756;   -9.461;37632.563
629.357;30386.902;   -8.491;38003.012
629.937;30391.211;   -9.721;38402.039
630.516;29774.264;   -9.951;37868.801
631.096;29594.613;  -11.731;35760.410
631.675;32545.164;   -8.572;35225.219
632.254;37881.105;  -11.282;35130.289
632.834;37187.383;  -13.322;35794.570
633.413;35198.102;  -10.301;35788.922
633.992;32136.877;   -8.582;34532.863
634.571;33313.125;   -8.352;33590.113
635.151;36097.918;  -11.912;34943.863
635.730;34519.371;  -10.511;35352.523
636.309;31057.590;   -7.731;35366.605
636.888;28448.350;   -9.952;36165.637
637.467;29213.605;  -11.672;37515.902
638.046;31290.078;   -8.901;39288.695
638.625;34517.207;   -7.912;38279.699
639.204;34126.293;  -10.022;37741.598
639.782;32081.334;  -12.252;38364.551
640.361;28413.686;  -10.041;36740.621
640.940;25524.916;  -11.161;34950.082
641.519;25866.461;   -9.701;34137.398
642.097;28461.186;  -11.271;35654.258
642.676;31478.723;   -8.651;35637.957
643.255;32542.750;   -8.711;36567.074
643.833;31596.902;   -9.581;37809.434
644.412;31986.861;  -13.711;37337.293
644.990;31403.740;  -11.811;37018.531
645.569;31321.453;   -9.411;36518.469
646.147;30061.717;  -10.291;36186.430
646.726;29120.803;  -12.401;36267.688
647.304;30322.287;  -10.411;36647.625
647.882;32442.473;   -9.651;39286.742
648.461;34148.660;   -9.631;39157.703
649.039;32592.844;  -11.881;35412.883
649.617;31900.068;   -9.661;34744.918
650.195;31597.014;   -9.301;35403.098
650.773;30450.402;  -10.511;35053.797
651.352;27927.926;  -11.521;33756.816
651.930;25614.703;  -12.211;31868.773
652.508;23994.459;   -9.171;33121.551
653.086;27857.693;   -9.371;33564.793
653.663;30859.004;  -13.161;34054.668
654.241;29677.541;  -13.031;35693.309
654.819;31241.467;   -9.371;36422.906
655.397;31127.875;  -10.511;38213.484
655.975;31002.920;  -10.371;39507.625
656.553;31120.176;  -10.051;39498.223
657.130;29394.949;  -10.061;40395.480
657.708;28776.039;   -9.561;39242.020
658.286;28756.396;  -11.511;38920.020
658.863;29887.334;  -10.261;40202.898
659.441;32612.475;   -7.531;39677.938
660.018;31783.709;   -9.501;40413.355
660.596;30755.988;  -13.301;39931.414
661.173;32785.109;  -11.211;39604.531
661.750;33014.938;   -9.951;39700.070
662.328;32066.928;   -9.390;39292.809
662.905;31232.857;  -11.330;38235.648
663.482;26712.463;   -9.050;36212.305
664.060;24637.822;   -8.240;35944.945
664.637;27390.574;  -10.050;35170.785
665.214;29361.176;  -11.760;34197.523
665.791;31114.498;  -10.530;34549.520
666.368;29662.939;   -9.690;35118.578
666.945;30192.129;   -9.320;36019.418
667.522;31857.363;  -11.860;36048.438
668.099;32247.896;  -10.770;36243.914
668.676;31575.813;   -6.260;35958.875
669.253;29802.900;   -7.000;37384.730
669.830;30158.883;  -10.190;36779.629
670.407;29879.400;   -9.550;35231.289
670.984;30077.973;   -9.260;35544.270
671.560;30275.453;   -9.280;35466.867
672.137;28909.111;  -11.810;34280.863
672.714;29717.354;  -11.490;34632.863
673.290;30000.092;   -7.740;35135.422
673.867;30145.648;  -10.660;36114.480
674.443;30555.926;  -12.230;36152.859
675.020;29032.932;  -10.450;35327.238
675.596;29959.188;   -9.260;35795.176
676.173;30333.590;  -10.780;35430.355
676.749;29969.480;  -13.690;33549.516
677.326;30258.359;  -11.980;32210.012
677.902;30462.998;   -8.630;32068.871
678.478;29677.441;  -10.730;32583.891
679.054;29446.393;  -10.520;32088.928
679.631;30204.346;  -11.920;30978.848
680.207;31179.688;   -7.490;33160.887
680.783;32461.146;   -9.860;35570.363
681.359;31633.510;  -13.380;36125.184
681.935;30740.721;  -12.480;35240.922
682.511;29535.701;   -7.900;34429.961
683.087;29447.469;   -7.710;34463.680
683.663;29329.744;  -11.480;34648.898
684.239;28541.570;  -14.090;34546.457
684.815;28202.740;   -7.560;35586.375
685.390;28568.578;   -9.910;35821.895
685.966;28995.117;  -11.159;35085.871
686.542;31711.520;  -11.169;34198.230
687.118;33804.168;   -5.959;32847.707
687.693;33932.508;  -10.329;32794.027
688.269;33163.262;  -12.059;33072.367
688.844;30977.246;  -10.909;33141.664
689.420;28917.232;   -8.019;33965.742
689.995;26649.023;   -8.399;34655.523
690.571;25396.418;  -10.949;33576.742
691.146;26006.020;   -9.619;32657.219
691.722;25334.895;   -8.999;32526.979
692.297;25222.135;  -11.589;33014.617
692.872;27265.518;  -11.739;34012.254
693.448;26692.596;  -11.059;34237.434
694.023;25942.523;  -10.139;34142.672
694.598;28219.289;   -9.029;34132.031
695.173;28491.512;  -13.319;34205.250
695.748;27923.871;  -10.169;32882.488
696.323;27688.896;   -8.339;32864.906
696.898;27613.084;   -8.169;33170.004
697.473;27335.369;  -12.309;32432.984
698.048;27072.545;  -10.989;31649.303
698.623;27467.459;   -9.329;30778.141
699.198;29460.135;   -9.849;31140.119
699.773;30308.900;  -12.329;31764.299
700.348;28741.193;  -10.389;31780.816
700.922;28802.879;   -9.269;32046.375
701.497;29248.799;   -9.329;32603.574
702.072;29335.088;  -10.789;34799.871
702.646;28448.910;  -10.839;35793.172
703.221;26445.986;   -9.099;35201.590
703.795;28488.793;  -10.939;34764.527
704.370;28913.549;  -12.859;34307.367
704.944;29220.654;  -11.559;33509.887
705.519;30365.617;   -7.939;31388.584
706.093;31570.418;  -10.499;31340.104
706.668;31685.258;  -11.289;32630.281
707.242;30316.473;  -11.509;32728.779
707.816;28693.932;   -9.639;32947.238
708.390;27256.170;  -11.429;33277.855
708.965;28239.232;  -11.869;33834.336
709.539;28872.500;  -11.689;33709.273
710.113;29435.244;  -10.478;33044.313
710.687;28693.127;  -10.228;31953.992
711.261;26412.133;  -13.698;30505.949
711.835;26086.451;  -13.378;30262.369
712.409;27058.713;   -9.698;31254.447
712.983;28676.672;  -11.898;32754.986
713.557;29552.756;  -15.138;34018.824
714.131;29329.691;  -14.098;34579.625
714.704;28570.990;   -9.958;33890.262
715.278;26193.740;  -10.028;33531.102
715.852;25522.313;  -11.148;33601.660
716.425;26365.289;   -9.068;33515.117
716.999;26834.299;  -10.038;33185.555
717.573;27892.502;   -9.798;33905.996
718.146;29231.564;  -12.378;35199.293
718.720;28730.906;  -11.918;35060.551
719.293;27936.309;   -8.088;34973.230
719.867;30800.648;  -10.888;36394.449
720.440;30754.834;  -11.938;36663.008
721.013;29292.559;  -12.818;35102.426
721.587;28024.137;  -10.298;33985.266
722.160;26528.420;  -10.048;33524.965
722.733;25578.051;  -12.108;32987.043
723.306;26309.891;  -10.818;33066.301
723.880;28527.375;   -8.908;33399.500
724.453;30156.426;   -9.878;33468.297
725.026;28928.361;  -11.188;33816.637
725.599;26308.012;  -11.678;32797.996
726.172;26794.293;   -9.618;33187.434
726.745;28153.361;   -8.258;35136.613
727.318;29830.602;  -12.978;35751.730
727.891;30469.652;  -12.148;35890.430
728.463;30302.801;   -8.968;34822.090
729.036;29207.316;  -10.188;32895.086
729.609;29327.371;  -11.788;31823.225
730.182;25957.143;  -11.788;31445.283
730.754;23493.715;  -10.268;32373.223
731.327;23562.354;   -9.998;33676.820
731.900;23655.742;  -12.228;33417.000
732.472;25092.369;  -13.848;31978.498
733.045;27224.957;   -8.698;30368.777
733.617;27222.670;  -10.607;30574.215
734.190;26638.418;  -11.507;31280.975
734.762;23728.359;  -13.647;31674.412
735.334;22249.865;   -9.767;31247.291
735.907;22798.842;   -9.897;29876.211
736.479;22492.320;  -11.637;29808.488
737.051;22055.760;   -9.567;30233.547
737.623;23452.557;   -8.187;31469.086
738.195;24651.311;  -11.187;31784.225
738.768;26464.482;  -12.337;32120.523
739.340;26203.705;  -12.227;32094.342
739.912;24795.676;  -11.057;31312.680
740.484;23712.111;  -10.207;31946.238
741.056;22798.844;  -10.047;32984.059
741.628;24576.043;  -13.627;33897.715
742.199;26914.314;   -7.177;33213.016
742.771;25203.709;  -10.797;31369.113
743.343;22735.500;  -11.997;31865.473
743.915;21593.855;  -12.867;32388.631
744.487;21839.764;   -7.617;31079.568
745.058;22096.063;   -9.557;30570.107
745.630;22824.859;   -9.877;29970.127
746.201;23662.162;  -14.177;29186.766
746.773;23776.154;   -9.237;28805.723
747.344;23590.990;   -9.847;29591.223
747.916;22274.107;  -11.657;31412.201
748.487;22235.211;  -10.587;32194.898
749.059;23486.980;   -8.707;32533.719
749.630;24598.162;  -10.537;32158.518
750.201;23797.539;  -11.687;30855.395
750.773;22076.219;  -11.647;28622.555
751.344;22080.754;   -7.147;28405.732
751.915;23074.178;   -9.757;28461.551
752.486;22288.631;  -12.427;27842.850
753.057;19948.506;  -12.227;27845.008
753.628;18841.150;  -10.417;27728.107
754.199;20146.002;  -11.767;27381.086
754.770;21342.842;  -11.187;25882.203
755.341;21271.016;  -10.507;25886.184
755.912;21363.352;   -9.387;26050.861
756.483;20616.994;  -10.647;26798.779
757.054;18745.611;  -11.837;27048.238
757.625;17529.568;  -12.716;26294.838
758.195;17379.701;   -9.666;26142.076
758.766;17071.123;   -8.656;26392.234
759.337;17940.172;  -12.856;26334.594
759.907;19897.094;  -13.366;27579.652
760.478;20740.951;   -8.576;28352.770
761.048;20097.957;  -10.526;27325.088
761.619;19349.598;  -11.116;26460.428
762.189;19270.277;  -12.136;26029.826
762.760;20328.104;   -9.456;26430.145
763.330;21490.844;   -7.136;26670.902
763.900;20802.887;  -11.786;26603.021
764.471;18041.469;  -11.546;25542.740
765.041;16793.316;   -8.096;24358.459
765.611;17031.400;   -8.876;23991.297
766.181;17549.891;  -12.196;24470.236
766.751;18361.535;  -11.636;24845.975
767.321;18239.566;  -10.156;24533.633
767.891;16224.356;  -11.766;24916.492
768.461;15577.645;  -14.936;24776.771
769.031;15980.375;  -12.356;24757.988
769.601;17591.439;   -7.526;24181.088
770.171;17584.178;  -10.766;23670.387
770.741;16771.928;  -13.176;22960.045
771.311;17020.486;  -10.616;22917.523
771.880;17332.045;   -9.576;23562.941
772.450;16793.424;  -10.336;24216.500
773.020;16753.691;  -13.516;24140.398
773.589;16449.029;  -13.466;24414.857
774.159;16006.690;   -8.686;23858.717
774.729;15548.239;   -9.476;22942.135
775.298;15015.291;  -13.666;22324.033
775.867;14653.242;  -11.716;21140.313
776.437;14665.927;   -9.906;20838.092
777.006;14284.496;  -12.166;20599.510
777.576;14260.720;  -12.356;20508.809
778.145;14546.816;  -11.646;20732.947
778.714;14426.135;   -8.226;21062.465
779.283;13584.213;   -9.556;20949.664
779.853;13206.644;  -14.116;20508.623
780.422;13645.294;  -11.506;20649.082
780.991;13207.895;   -9.556;21527.520
781.560;12171.764;   -9.095;22632.658
782.129;11952.272;  -12.135;23048.277
782.698;11926.316;  -10.865;23438.555
783.267;11614.174;   -9.335;23267.734
783.836;11598.627;  -11.045;22415.133
784.404;12547.379;  -13.865;20443.152
784.973;12922.202;  -13.095;19699.150
785.542;12756.799;  -11.575;19763.828
786.111;12648.853;   -9.705;20341.408
786.679;12271.033;  -12.105;20207.967
787.248;12056.631;  -12.455;19516.465
787.817;11818.349;  -11.535;18900.363
788.385;11381.308;   -9.765;17879.121
788.954;10785.747;  -14.005;17658.301
789.522;10352.791;  -11.955;17788.879
790.090;10947.050;  -10.135;18118.277
790.659;11321.376;  -10.975;18338.736
791.227;10708.088;  -13.375;18508.615
791.795;11156.672;  -12.375;17898.254
792.364;11563.507;  -10.725;17295.133
792.932;11823.968;   -9.715;16822.051
793.500;12002.138;  -12.675;17040.148
794.068;12251.641;  -13.495;17179.787
794.636;12388.122;  -10.885;16664.246
795.204;11896.631;  -11.045;16524.545
795.772;11922.130;  -13.175;17274.564
796.340;11451.651;  -12.445;17891.002
796.908;11284.744;   -9.735;17648.561
797.476;11260.188;   -9.815;17064.080
798.044;10824.028;  -13.985;16672.777
798.612; 9986.795;  -13.115;17023.996
799.180; 9655.919;  -10.185;16561.615
799.747; 9568.910;   -9.055;15962.773
800.315; 9267.546;  -12.385;15296.992
800.883; 8893.775;  -15.035;14801.771
801.450; 8822.091;  -10.365;14534.430
802.018; 8849.529;   -9.855;14173.248
802.585; 8909.207;  -11.905;14029.547
803.153; 8970.843;  -11.585;13836.846
803.720; 8935.683;   -9.095;13567.324
804.287; 8648.042;   -9.135;13360.622
804.855; 8220.767;  -11.604;13681.981
805.422; 8052.342;  -11.794;13536.560
805.989; 8025.712;  -10.734;13355.958
806.556; 8188.788;  -10.444;13747.896
807.124; 8478.313;  -12.764;13987.376
807.691; 8413.544;  -12.964;14038.674
808.258; 8204.747;  -11.134;14120.152
808.825; 7884.903;   -9.854;13860.111
809.392; 7930.903;  -10.504;13268.790
809.959; 7478.169;  -13.054;12680.389
810.526; 7105.893;   -8.294;12427.308
811.093; 7181.356;   -8.394;12030.105
811.659; 7758.231;  -12.304;11653.664
812.226; 8158.896;  -13.944;11637.183
812.793; 7788.376;  -10.484;11611.521
813.360; 7135.640;  -10.144;11885.181
813.926; 6757.807;  -11.684;12770.539
814.493; 6517.831;  -13.644;12677.638
815.060; 6181.757;   -9.724;11974.336
815.626; 6251.356;   -9.854;11594.715
816.193; 6676.256;  -13.254;11579.474
816.759; 6718.294;  -13.204;11666.972
817.325; 6831.745;   -9.434;11325.530
817.892; 7180.098;  -10.134;11105.369
818.458; 7579.594;  -13.474;10843.928
819.024; 7244.327;  -11.854;10714.406
819.591; 6886.419;  -10.244;10469.165
820.157; 6621.683;  -10.704;10235.523
820.723; 6116.436;  -12.324;10847.563
821.289; 5817.829;   -9.444;11040.980
821.855; 5733.500;   -8.374;10357.100
822.421; 5738.255;  -10.234; 9978.918
822.987; 5705.107;  -13.294; 9754.177
823.553; 5400.909;  -10.884;10065.755
824.119; 5241.990;   -8.884;10036.294
824.685; 5324.889;   -6.784;10029.192
825.251; 5402.923;  -12.004;10199.230
825.816; 5343.666;  -11.474; 9820.189
826.382; 5142.762;   -9.174; 9297.248
826.948; 5358.885;   -9.214; 9381.347
827.513; 5740.506;  -10.774; 9450.726
828.079; 5541.709;  -11.924; 9472.444
828.645; 5008.215;  -10.543; 9292.643
829.210; 4949.257;  -10.533; 9065.341
829.776; 4927.005;  -10.753; 9132.620
830.341; 4771.688;  -10.173; 9092.878
830.906; 4924.135;  -10.743; 9078.557
831.472; 5263.917;  -11.113; 8534.535
832.037; 5025.786;  -10.603; 8677.874
832.602; 4491.038;  -13.323; 8628.692
833.167; 4195.957;  -10.823; 8879.031
833.733; 4143.554;  -10.113; 9189.790
834.298; 4238.670;  -13.583; 9052.608
834.863; 4233.886;  -12.703; 8895.087
835.428; 4191.721;  -10.523; 8824.266
835.993; 4125.994;   -6.963; 8845.385
836.558; 4029.269;  -10.763; 8888.563
837.123; 4158.065;   -9.903; 8966.582
837.688; 4349.414;   -9.913; 8617.860
838.253; 4522.440;  -10.283; 8590.699
838.817; 4724.151;  -12.963; 8443.797
839.382; 4660.229;  -14.243; 8799.356
839.947; 4362.475;  -10.733; 8810.595
840.511; 4066.830;   -9.383; 8796.394
841.076; 3714.447;  -12.563; 8347.231
841.641; 3753.101;  -12.953; 8224.330
842.205; 3836.584;   -7.043; 8223.349
842.770; 3960.695;   -8.163; 8622.107
843.334; 4208.328;  -12.503; 8410.386
843.898; 4214.294;  -11.693; 8337.465
844.463; 4239.648;  -10.203; 8506.283
845.027; 3988.038;   -9.533; 8280.962
845.591; 3779.639;  -13.443; 8231.141
846.156; 3787.803;  -13.143; 7969.179
846.720; 3665.375;   -9.433; 7768.278
847.284; 3529.615;  -11.033; 7630.957
847.848; 3362.795;  -10.403; 7472.395
848.412; 3267.013;  -11.553; 7437.394
848.976; 3316.402;   -8.393; 7674.592
849.540; 3269.983;   -8.713; 7836.011
850.104; 3355.553;  -12.463; 7913.669
850.668; 3683.962;  -12.973; 7694.508
851.232; 3799.610;  -10.793; 7756.887
851.796; 3626.920;  -10.662; 7926.545
852.359; 3320.705;  -13.082; 7827.844
852.923; 3175.091;  -12.192; 7641.163
853.487; 3012.834;  -11.912; 7342.501
854.050; 2937.813;  -10.892; 7042.820
854.614; 3062.929;  -13.992; 7151.338
855.177; 3174.731;  -11.732; 7105.077
855.741; 3231.516;   -8.962; 6989.675
856.304; 3134.492;   -9.442; 6596.634
856.868; 3063.101;  -14.192; 6356.272
857.431; 3176.482;  -12.702; 6468.571
857.995; 3288.070;   -9.942; 6373.210
858.558; 3296.981;   -9.112; 6324.448
859.121; 3042.607;  -12.932; 6408.327
859.684; 2931.091;  -13.442; 6347.886
860.247; 3054.235;  -10.632; 6321.264
860.810; 3035.351;  -11.272; 6301.903
861.374; 2795.014;   -9.832; 6607.881
861.937; 2551.660;  -11.762; 6408.200
862.500; 2527.506;   -9.722; 6572.639
863.062; 2682.912;  -10.512; 6387.297
863.625; 2857.602;  -11.232; 6190.836
864.188; 3019.538;  -14.112; 5807.254
864.751; 3072.666;  -11.302; 5682.413
865.314; 2962.150;  -10.112; 5547.492
865.876; 2787.231;  -12.182; 5500.150
866.439; 2785.387;  -10.722; 5415.909
867.002; 2739.950;   -9.252; 5501.567
867.564; 2525.437;   -9.572; 5413.946
868.127; 2313.673;  -13.142; 5160.325
868.689; 2233.166;  -12.902; 5133.183
869.252; 2166.967;   -9.732; 5252.382
869.814; 2082.317;   -9.432; 5297.141
870.377; 2095.266;  -11.552; 5390.919
870.939; 2168.340;   -9.052; 5599.898
871.501; 2222.109;  -10.982; 5248.336
872.063; 2225.339;  -12.292; 4854.235
872.626; 2189.943;  -14.912; 4817.074
873.188; 2200.539;  -13.112; 4987.732
873.750; 2156.800;  -13.442; 4868.651
874.312; 2062.510;   -9.402; 4779.330
874.874; 1975.160;  -11.062; 4866.348
875.436; 1897.098;  -13.931; 4718.887
875.998; 1886.103;   -9.561; 4660.005
876.560; 1895.578;  -11.321; 4462.964
877.122; 1839.922;  -12.221; 4145.042
877.683; 1751.220;  -12.191; 4056.481
878.245; 1679.468;  -12.101; 3950.740
878.807; 1710.690;   -8.971; 4058.958
879.369; 1731.989;  -12.071; 3954.677
879.930; 1643.322;  -14.621; 3941.495
880.492; 1587.569;  -10.311; 4067.014
881.053; 1554.274;  -10.901; 3859.633
881.615; 1437.636;  -14.411; 3776.071
882.176; 1352.186;  -13.761; 3734.750
882.738; 1324.522;   -9.181; 3678.489
883.299; 1301.690;  -11.791; 3405.407
883.860; 1304.287;  -13.121; 3351.106
884.422; 1312.754;  -11.211; 3394.044
884.983; 1268.341;  -10.091; 3166.443
885.544; 1171.917;   -8.461; 3189.802
886.105; 1094.933;  -12.361; 3160.360
886.666; 1030.347;  -14.141; 3093.059
887.227;  973.463;  -11.361; 2941.957
887.788;  910.380;  -11.401; 2974.836
888.349;  847.862;  -13.791; 2721.214
888.910;  850.403;  -13.191; 2696.493
889.471;  860.891;   -9.881; 2560.172
890.032;  847.846;   -9.881; 2558.190
890.593;  822.006;  -10.371; 2567.669
891.153;  792.692;  -13.301; 2460.307
891.714;  744.811;  -11.431; 2372.046
892.275;  705.784;  -11.291; 2309.505
892.835;  669.336;  -11.471; 2382.543
893.396;  611.126;  -11.541; 2295.502
893.956;  555.771;  -11.181; 2162.420
894.517;  520.837;  -11.741; 2125.439
895.077;  515.132;  -11.671; 2086.978
895.638;  514.734;  -11.311; 2126.316
896.198;  485.723;   -9.831; 1838.275
896.758;  445.297;   -8.421; 1892.813
897.319;  413.453;  -12.351; 1792.232
897.879;  395.881;  -13.511; 1762.751
898.439;  369.862;  -12.001; 1661.149
898.999;  344.779;  -10.180; 1781.468
899.559;  335.847;  -12.030; 1703.347
900.119;  331.037;  -15.710; 1537.525
900.679;  328.187;   -8.900; 1638.384
901.239;  315.908;   -8.340; 1527.902
901.799;  305.654;  -13.910; 1456.441
902.359;  299.127;  -13.460; 1357.140
902.919;  292.328;  -11.490; 1331.118
903.479;  278.798;  -12.110; 1317.257
904.038;  257.675;  -11.720; 1262.595
904.598;  241.862;  -13.610; 1152.034
905.158;  237.830;  -11.040; 1240.893
905.717;  230.497;  -10.900; 1233.691
906.277;  219.808;  -15.080; 1217.330
906.836;  211.365;  -13.380; 1222.408
907.396;  204.019;  -10.780; 1193.047
907.955;  197.254;   -8.500; 1182.526
908.515;  190.319;  -12.760; 1099.364
909.074;  184.738;  -11.900; 1092.863
909.633;  178.813;   -8.950; 1069.121
910.192;  174.684;   -8.770; 1196.460
910.752;  169.255;  -12.390; 1029.960
911.311;  165.173;  -13.680; 1009.780
911.870;  163.872;  -12.370;  971.460
912.429;  164.225;  -10.900; 1094.080
912.988;  162.504;  -11.690; 1081.060
913.547;  156.904;  -13.240;  940.380
914.106;  152.932;  -11.990;  999.420
914.665;  149.838;   -9.990;  984.020
915.224;  149.002;  -12.880; 1035.760
915.782;  148.810;  -12.350;  922.560
916.341;  148.821;   -9.110; 1049.840
916.900;  144.682;   -9.270;  925.260
917.458;  142.616;  -13.240;  884.220
918.017;  142.194;  -13.550;  942.600
918.576;  141.103;  -12.320;  904.440
919.134;  138.939;  -11.490;  837.980
919.693;  137.076;  -13.670;  893.060
920.251;  135.804;  -15.470;  876.500
920.809;  134.619;  -11.290;  839.580
921.368;  134.919;  -10.210;  885.360
921.926;  132.881;  -12.140;  842.940
922.484;  132.037;  -13.080;  903.360
923.042;  131.850;  -11.720;  880.340
923.601;  133.795;   -7.480;  998.680
924.159;  132.659;  -11.570;  935.560
924.717;  129.447;  -13.840;  841.080
925.275;  129.860;  -10.640;  903.240
925.833;  129.719;  -11.540;  779.320
926.391;  130.860;  -12.960;  938.380
926.949;  128.153;  -14.130;  857.680
927.506;  128.679;  -11.750;  903.500
928.064;  129.255;  -10.250;  877.580
928.622;  127.720;  -13.030;  880.100
929.180;  127.499;  -13.400;  814.180
929.737;  128.573;  -10.700;  808.540
930.295;  132.444;  -10.070;  928.480
930.853;  134.048;  -11.960;  849.100
931.410;  134.054;  -13.120;  821.120
931.968;  133.803;  -10.770;  940.660
932.525;  133.734;  -10.680;  909.380
933.082;  133.449;  -13.130;  811.440
933.640;  133.980;  -13.210;  925.900
934.197;  133.668;  -11.060;  886.360
934.754;  134.421;   -9.580;  897.780
935.312;  135.994;  -14.000;  863.340
935.869;  140.463;  -10.710; 1012.980
936.426;  140.441;   -9.860;  872.800
936.983;  142.000;   -9.710;  889.020
937.540;  140.610;  -13.990;  838.280
938.097;  139.243;  -14.040;  940.120
938.654;  140.048;  -10.310;  898.860
939.211;  143.006;  -10.560;  952.480
939.768;  146.063;  -13.900;  915.420
940.324;  149.054;  -14.760;  904.200
940.881;  150.392;  -10.370;  878.500
941.438;  150.699;   -8.260; 1021.200
941.995;  145.895;  -12.540;  992.560
942.551;  144.701;  -14.670;  875.620
943.108;  145.094;  -10.450;  937.920
943.664;  146.734;  -10.750;  869.340
944.221;  150.188;  -11.550; 1088.140
944.777;  147.637;  -14.770;  869.680
945.334;  149.262;  -12.820;  884.840
945.890;  152.032;  -10.130;  946.480
946.446;  151.563;  -13.470;  947.020
947.003;  153.161;  -12.120;  964.940
947.559;  155.289;   -9.980; 1063.040
948.115;  154.022;   -9.080; 1026.540
948.671;  152.327;  -10.830;  967.300
949.227;  149.391;  -12.440;  859.560
949.783;  146.490;  -12.910;  858.900
950.339;  148.301;  -10.270;  991.000
950.895;  148.307;  -13.630; 1023.840
951.451;  147.747;  -15.100;  925.280
952.007;  150.199;  -11.330;  998.540
952.563;  150.613;  -10.580;  937.780
953.118;  150.139;  -13.440;  904.940
953.674;  148.857;  -12.710;  935.780
954.230;  148.432;  -10.350;  949.640
954.785;  147.152;   -9.190;  936.640
955.341;  144.024;  -11.200;  998.160
955.897;  142.618;  -16.560;  834.660
956.452;  144.490;  -12.570;  953.840
957.008;  142.818;   -7.970; 1083.640
957.563;  140.255;  -11.940; 1009.540
958.118;  135.353;  -13.450;  877.700
958.674;  136.149;  -12.030;  946.780
959.229;  137.546;   -9.410; 1013.980
959.784;  135.238;  -12.000;  832.400
960.339;  134.052;  -14.780; 1001.280
960.894;  130.155;   -9.860;  963.760
961.449;  126.313;   -9.970;  859.960
962.004;  126.847;  -10.900; 1212.840
962.559;  122.019;  -13.150;  860.140
963.114;  119.777;  -13.740;  742.480
963.669;  119.880;   -9.820;  915.500
964.224;  117.459;  -13.890;  874.340
964.779;  116.669;  -12.600;  828.420
965.334;  118.507;  -10.950; 1017.860
965.888;  118.095;  -11.170;  875.360
966.443;  119.918;  -12.540;  972.380
966.998;  118.450;  -15.780;  819.460
967.552;  118.652;   -9.760;  908.380
968.107;  114.287;   -9.060;  868.300
968.661;  115.401;  -11.950;  922.440
969.216;  115.971;  -12.800;  856.280
969.770;  116.526;  -11.210;  917.200
970.324;  115.906;  -11.610;  923.140
970.879;  112.350;  -11.370;  947.180
971.433;  108.946;  -12.540;  952.720
971.987;  103.546;  -11.320;  895.340
972.541;  101.570;  -10.720;  917.100
973.095;  101.006;   -9.680; 1009.460
973.649;   99.588;  -11.440;  809.480
974.203;   99.110;  -11.210;  829.040
974.757;   99.093;  -10.240;  855.220
975.311;   99.803;  -13.720;  872.600
975.865;   97.962;  -13.770;  881.820
976.419;   96.189;  -11.690;  857.400
976.973;   97.085;   -9.510;  849.620
977.526;   99.314;  -12.620;  949.920
978.080;   98.101;  -12.010;  796.780
978.634;   99.564;  -10.170;  921.320
979.187;   96.724;   -9.020;  905.400
979.741;   94.120;   -9.820; 1018.380
980.294;   89.366;  -14.870;  789.160
980.848;   87.752;  -12.380;  717.220
981.401;   89.850;  -10.350;  816.540
981.955;   91.576;  -13.720;  844.300
982.508;   90.172;  -11.490;  746.340
983.061;   90.728;  -10.000;  915.260
983.615;   86.841;  -11.480;  798.800
984.168;   84.263;  -13.220;  770.080
984.721;   83.391;  -13.960;  880.760
985.274;   82.625;  -10.870;  867.500
985.827;   81.807;   -9.790;  834.220
986.380;   79.283;  -13.120;  721.340
986.933;   78.100;  -12.450;  864.800
987.486;   75.784;  -10.210;  861.920
988.039;   76.633;   -8.430;  863.100
988.591;   73.537;  -10.520;  893.260
989.144;   71.647;  -14.860;  737.260
989.697;   70.655;  -13.080;  758.740
990.250;   71.187;  -10.150;  858.100
990.802;   70.650;  -13.430;  755.860
991.355;   70.965;  -12.750;  974.880
991.907;   69.136;  -12.040;  864.320
992.460;   67.307;  -11.330;  753.760
993.012;   65.599;  -13.610;  749.540
993.565;   64.659;  -13.460;  711.360
994.117;   66.335;   -9.360;  950.780
994.669;   62.999;  -11.300;  701.320
995.221;   60.625;  -13.540;  791.920
995.774;   58.392;  -13.430;  787.580
996.326;   57.714;  -12.520;  740.220
996.878;   57.264;  -10.950;  838.420
997.430;   55.773;  -14.300;  699.860
997.982;   53.805;  -13.760;  750.140
998.534;   53.669;  -11.530;  739.060
999.086;   52.960;  -10.310;  738.220
999.638;   51.388;  -12.530;  661.380
1000.190;   50.779;  -11.840;  699.320
1000.741;   50.530;  -10.260;  742.700
1001.293;   50.504;   -8.860;  686.020
1001.845;   49.415;  -13.700;  676.640
1002.396;   48.401;  -12.100;  743.400
1002.948;   48.444;  -12.760;  737.400
1003.500;   47.199;  -10.380;  723.780
1004.051;   47.712;  -11.900;  907.580
1004.603;   45.870;  -12.250;  791.820
1005.154;   42.113;  -13.210;  608.980
1005.705;   41.654;  -10.950;  723.960
1006.257;   40.699;  -13.880;  707.220
1006.808;   40.379;  -12.840;  685.460
1007.359;   39.763;  -10.570;  763.240
1007.910;   38.248;   -9.620;  646.640
1008.461;   38.918;  -13.630;  732.940
1009.013;   37.248;  -17.200;  588.340
1009.564;   38.262;  -10.200;  793.520
1010.115;   36.822;  -12.570;  597.040
1010.665;   36.056;  -15.150;  602.160
1011.216;   36.046;  -14.480;  667.920
1011.767;   36.000;  -11.340;  697.920
1012.318;   36.595;   -9.780;  736.980
1012.869;   35.111;  -12.380;  679.000
1013.419;   34.377;  -15.560;  603.120
1013.970;   34.871;  -11.010;  666.640
1014.521;   34.288;  -11.610;  620.620
1015.071;   34.349;  -13.450;  670.380
1015.622;   33.367;  -13.870;  635.460
1016.172;   33.152;  -11.610;  596.820
1016.723;   32.761;  -12.120;  614.380
1017.273;   32.741;  -13.620;  604.160
1017.823;   32.839;  -14.140;  650.340
1018.374;   31.968;  -12.800;  611.760
1018.924;   32.015;  -12.340;  716.880
1019.474;   32.220;  -11.410;  718.880
1020.024;   30.604;  -14.770;  657.580
1020.574;   31.774;   -9.780;  726.160
1021.124;   32.168;   -8.560;  673.580
1021.674;   30.535;  -15.190;  559.120
1022.224;   32.017;  -13.530;  708.940
1022.774;   31.959;  -13.280;  668.820
1023.324;   31.661;  -10.690;  753.520
1023.874;   32.933;  -10.240;  875.760
1024.423;   30.130;  -12.540;  613.700
1024.973;   29.810;  -10.010;  610.760
1025.523;   29.068;  -10.550;  620.960
1026.072;   29.321;  -13.560;  606.420
1026.622;   28.678;  -15.120;  675.740
1027.172;   29.505;  -11.260;  715.660
1027.721;   29.193;  -11.410;  601.220
1028.270;   28.805;  -13.530;  663.400
1028.820;   28.443;  -13.680;  638.080
1029.369;   28.727;  -13.520;  612.700
1029.918;   28.170;  -10.980;  649.840
1030.468;   28.420;  -13.530;  564.780
1031.017;   28.027;  -13.170;  634.800
1031.566;   26.830;  -12.200;  608.900
1032.115;   27.861;   -9.960;  694.500
1032.664;   26.676;  -13.210;  596.480
1033.213;   26.829;  -12.500;  735.420
1033.762;   26.974;  -11.910;  635.620
1034.311;   26.938;   -9.640;  677.220
1034.860;   27.418;  -13.310;  691.000
1035.408;   26.469;  -11.830;  722.720
1035.957;   27.429;  -12.000;  719.540
1036.506;   25.384;  -11.690;  530.800
1037.055;   27.642;  -10.990;  844.320
1037.603;   25.000;  -15.120;  664.000
1038.152;   24.168;  -12.450;  534.760
1038.700;   24.631;  -10.560;  585.740
1039.249;   24.740;  -11.080;  681.220
1039.797;   25.275;  -12.540;  633.360
1040.345;   25.336;  -11.920;  705.420
1040.894;   24.541;  -11.410;  625.300
1041.442;   23.843;  -14.320;  632.200
1041.990;   23.062;  -16.240;  559.160
1042.538;   23.888;  -11.680;  536.180
1043.087;   22.957;  -10.760;  570.860
1043.635;   24.421;  -11.850;  670.500
1044.183;   23.054;  -15.480;  586.400
1044.731;   22.774;  -11.770;  576.000
1045.279;   22.772;  -13.090;  674.920
1045.827;   24.384;  -12.440;  892.400
1046.374;   21.509;  -13.840;  515.420
1046.922;   21.002;  -13.220;  590.580
1047.470;   23.554;  -10.230;  691.300
1048.018;   22.880;  -14.590;  647.960
1048.565;   23.607;  -12.050;  708.600
1049.113;   21.892;  -11.650;  557.000
1049.660;   21.736;  -10.510;  629.660
1050.208;   21.527;  -13.310;  675.640
1050.755;   20.734;  -15.900;  606.580
1051.303;   21.699;  -11.430;  686.820
1051.850;   20.890;   -8.480;  635.120
1052.397;   19.820;  -15.010;  473.960
1052.945;   20.492;  -13.960;  617.760
1053.492;   21.429;  -13.150;  741.840
1054.039;   21.555;   -9.630;  720.180
1054.586;   20.162;  -13.680;  557.240
1055.133;   20.739;  -14.570;  693.140
1055.680;   20.684;  -13.820;  646.620
1056.227;   19.625;  -11.730;  542.780
1056.774;   20.952;  -12.480;  794.980
1057.321;   18.448;  -13.930;  523.260
1057.868;   19.869;  -11.690;  651.320
1058.415;   19.174;   -9.520;  651.980
1058.961;   20.139;  -13.160;  678.940
1059.508;   18.475;  -12.920;  643.820
1060.055;   19.230;  -11.920;  581.780
1060.601;   19.780;  -11.500;  624.300
1061.148;   19.057;  -14.330;  616.820
1061.694;   17.439;  -16.870;  592.580
1062.241;   18.305;  -10.330;  596.320
1062.787;   19.039;  -10.620;  663.140
1063.334;   20.706;  -10.110;  808.560
1063.880;   18.332;  -13.400;  668.360
1064.426;   18.363;  -10.680;  706.820
1064.972;   17.354;   -9.920;  601.340
1065.518;   16.592;  -10.980;  566.640
1066.065;   18.008;  -14.890;  624.460
1066.611;   16.383;  -12.870;  598.800
1067.157;   17.793;  -12.950;  641.860
1067.703;   17.932;  -13.540;  668.480
1068.249;   17.180;  -13.540;  605.220
1068.794;   16.868;  -12.600;  626.880
1069.340;   15.589;  -10.620;  578.960
1069.886;   16.943;  -12.830;  590.700
1070.432;   15.777;  -14.870;  541.720
1070.977;   15.636;  -11.980;  601.080
1071.523;   15.811;   -8.200;  573.060
1072.068;   15.307;  -12.330;  582.000
1072.614;   15.156;  -16.370;  527.760
1073.160;   16.615;  -11.100;  687.040
1073.705;   14.874;  -10.480;  572.520
1074.250;   15.590;  -14.520;  559.900
1074.796;   16.323;  -11.460;  655.160
1075.341;   16.262;  -11.950;  664.100
1075.886;   15.224;  -11.460;  594.240
1076.431;   14.947;  -13.770;  649.880
1076.976;   14.501;  -12.680;  639.220
1077.521;   14.339;  -13.170;  583.080
1078.067;   13.994;  -10.860;  579.400
1078.612;   14.428;  -13.920;  661.620
1079.156;   14.456;  -13.880;  601.540
1079.701;   15.043;  -13.120;  693.260
1080.246;   14.882;   -9.940;  696.300
1080.791;   15.386;  -14.740;  625.020
1081.336;   14.768;  -13.750;  659.320
1081.880;   14.292;  -13.400;  649.680
1082.425;   12.924;  -12.220;  573.480
1082.970;   14.694;  -11.610;  717.040
1083.514;   13.467;  -13.580;  597.000
1084.059;   12.917;  -12.810;  586.720
1084.603;   13.005;  -12.320;  565.840
1085.147;   13.331;  -13.190;  645.220
1085.692;   14.514;  -12.480;  716.800
1086.236;   12.485;  -13.020;  503.140
1086.780;   14.719;   -9.190;  751.440
1087.325;   13.725;  -12.480;  654.620
1087.869;   12.747;  -12.450;  610.700
1088.413;   13.003;  -12.240;  705.040
1088.957;   11.436;   -9.020;  543.400
1089.501;   13.526;  -10.320;  766.640
1090.045;   12.462;  -12.720;  726.480
1090.589;   10.744;  -13.690;  569.920
1091.133;   11.846;  -10.020;  673.340
1091.676;   12.082;  -12.330;  591.940
1092.220;   11.503;  -14.970;  600.920
1092.764;   12.333;  -12.430;  706.960
1093.307;   12.230;   -9.800;  673.780
1093.851;   10.047;  -14.970;  556.540
1094.395;   11.251;  -15.310;  683.140
1094.938;   10.559;  -10.370;  632.520
1095.482;   10.596;  -11.050;  559.800
1096.025;   11.444;  -11.840;  710.880
1096.568;   12.094;  -12.840;  779.280
1097.112;    9.915;  -14.700;  508.180
1097.655;   10.738;   -8.720;  603.000
1098.198;    9.611;  -13.610;  600.180
1098.741;    9.841;  -13.350;  612.860
1099.285;   10.564;  -11.230;  657.300
1099.828;    8.705;  -11.840;  439.400
1100.371;    9.957;  -10.840;  608.160
1100.914;    9.950;  -14.190;  682.660
1101.457;   10.420;  -11.240;  679.900
1101.999;    9.000;  -11.270;  584.680
1102.542;   10.107;  -11.480;  641.440
1103.085;    9.509;  -11.750;  658.500
1103.628;   10.801;  -11.400;  762.060
1104.170;    9.146;  -10.490;  588.280
1104.713;    9.236;  -10.600;  646.700
1105.256;    8.981;  -14.360;  557.440
1105.798;    8.239;  -13.210;  499.980
1106.341;   10.843;  -10.270;  728.900
1106.883;    8.642;  -12.200;  521.340
1107.425;    8.728;  -13.110;  668.180
1107.968;    7.566;  -12.840;  612.380
1108.510;    9.134;   -6.480;  684.960
1109.052;    7.426;  -13.940;  612.620
1109.594;    7.939;  -13.690;  554.440
1110.136;    8.908;  -11.880;  643.220
1110.679;    8.099;   -9.500;  633.080
1111.221;    8.579;  -14.160;  604.460
1111.763;    7.517;  -13.980;  559.220
1112.304;    7.121;  -13.880;  547.140
1112.846;    8.175;  -12.210;  666.240
1113.388;   10.922;  -11.390;  942.180
1113.930;    7.962;  -14.540;  694.200
1114.472;    7.306;  -12.640;  606.540
1115.013;    5.968;  -11.620;  551.280
1115.555;    6.160;  -13.640;  587.100
1116.097;    5.630;  -15.380;  579.480
1116.638;    7.360;  -12.640;  684.600
1117.180;    7.653;   -9.850;  667.740
1117.721;    6.436;  -13.690;  568.580
1118.262;    6.840;  -12.680;  677.960
1118.804;    7.176;  -12.530;  637.340
1119.345;    5.054;  -11.690;  578.400
1119.886;    7.206;  -13.380;  704.040
1120.427;    5.377;  -14.070;  589.020
1120.969;    5.881;  -13.500;  597.920
1121.510;    4.874;  -11.480;  563.060
1122.051;    5.893;  -12.830;  723.580
1122.592;    5.534;  -14.290;  655.420
1123.133;    4.531;  -12.400;  547.940
1123.673;    6.406;  -10.130;  706.480
1124.214;    6.121;  -12.930;  612.460
1124.755;    5.911;  -14.380;  639.460
1125.296;    5.530;  -14.000;  627.320
1125.836;    6.554;  -10.070;  691.500
1126.377;    5.274;  -12.640;  599.660
1126.918;    5.143;  -12.960;  614.980
1127.458;    4.729;  -13.350;  622.220
1127.999;    5.171;  -10.750;  656.980
1128.539;    4.953;  -12.350;  694.240
1129.079;    4.556;  -14.860;  632.720
1129.620;    4.095;  -13.840;  558.100
1130.160;    4.109;  -12.330;  539.480
1130.700;    4.854;  -14.530;  640.840
1131.240;    5.267;  -12.530;  643.700
1131.781;    4.193;  -14.450;  619.680
1132.321;    4.080;   -9.790;  599.120
1132.861;    3.082;  -14.860;  564.200
1133.401;    2.835;  -14.290;  593.940
1133.941;    3.703;  -11.750;  626.280
1134.481;    3.474;   -9.920;  597.580
1135.020;    3.308;  -12.290;  609.160
1135.560;    4.032;  -11.650;  674.940
1136.100;    3.240;  -16.270;  501.160
1136.640;    2.857;  -10.890;  510.480
1137.179;    3.307;  -14.180;  537.960
1137.719;    3.340;  -16.250;  605.400
1138.258;    3.552;  -14.230;  587.360
1138.798;    3.810;   -9.090;  663.780
1139.337;    1.680;  -15.130;  482.840
1139.877;    2.612;  -13.680;  642.360
1140.416;    5.093;  -11.320;  878.060
1140.955;    2.812;  -10.860;  535.380
1141.494;    3.033;  -12.920;  669.280
1142.034;    2.565;  -13.930;  583.520
1142.573;    3.415;  -11.440;  646.280
1143.112;    1.827;  -12.000;  553.480
1143.651;    2.365;  -13.670;  536.480
1144.190;    3.293;  -12.730;  691.640
1144.729;    2.064;  -14.560;  607.420
1145.267;    2.031;  -11.830;  584.900
1145.806;    3.118;  -12.230;  637.040
1146.345;    0.927;  -14.130;  635.020
1146.884;    1.688;  -11.590;  622.500
1147.422;    0.766;  -12.550;  533.060
1147.961;    3.239;  -11.180;  708.460
1148.500;    2.356;  -11.510;  669.720
1149.038;    2.386;  -11.640;  632.500
1149.577;    2.333;  -10.130;  698.640
1150.115;    0.796;  -13.970;  452.280
1150.653;    1.194;  -14.520;  607.340
1151.192;    1.421;  -12.810;  552.920
1151.730;    1.271;   -9.100;  652.560
1152.268;    1.064;  -12.220;  589.520
1152.806;    0.651;  -14.140;  571.180
1153.344;   -0.086;  -12.350;  577.640
1153.882;    1.503;   -8.980;  600.060
1154.421;    0.060;  -15.190;  470.620
1154.958;   -0.223;  -15.210;  595.240
1155.496;    1.377;  -12.850;  645.280
1156.034;    1.171;   -9.940;  721.880
1156.572;    2.556;  -13.570;  667.060
1157.110;   -0.247;  -14.590;  473.940
1157.647;    1.788;  -13.030;  676.960
1158.185;   -0.270;  -12.140;  564.320
1158.723;    0.048;  -14.390;  509.200
1159.260;    0.411;  -14.090;  701.700
1159.798;    0.341;  -11.920;  658.160
1160.335;    0.093;  -11.110;  631.820

