
Integration time [ms]:   3.882
Averaging Nr. [scans]: 1000
Smoothing Nr. [pixels]: 0
Data measured with spectrometer [name]: 7414430SP
Wave   ;Sample   ;Dark     ;Reference
[nm]   ;[counts] ;[counts] ;[counts] 

288.544;  140.782;    7.153;  793.890
289.143;  143.242;    8.402;  681.602
289.742;  143.662;    7.062;  828.814
290.341;  132.160;    0.191;  789.841
290.940;  123.110;    0.321;  730.702
291.538;  123.086;    3.811;  881.108
292.137;  121.785;   -3.438;  792.581
292.736;  125.129;   -2.809;  975.101
293.335;  121.794;   -5.239;  735.086
293.934;  122.284;   -4.939;  781.677
294.532;  122.678;   -2.199; 1031.958
295.131;  109.633;   -6.831;  834.394
295.730;  108.011;   -6.620;  809.588
296.328;  106.905;   -6.471;  783.442
296.927;  105.569;   -6.571;  779.652
297.525;  106.975;   -7.391;  781.236
298.124;   98.341;   -9.402;  654.009
298.722;  102.375;   -5.781;  761.933
299.321;  101.519;   -6.351;  708.597
299.919;   98.337;   -8.661;  751.918
300.518;   94.464;  -11.922;  689.338
301.116;   96.411;   -6.941;  691.381
301.715;   96.256;   -5.471;  730.222
302.313;   96.004;   -8.361;  704.943
302.911;   92.290;   -9.082;  733.830
303.509;   96.583;   -4.571;  925.627
304.108;   93.250;   -7.111;  760.383
304.706;   93.604;   -7.681;  801.664
305.304;   88.776;   -9.162;  796.707
305.902;   93.496;   -6.761;  784.484
306.500;   88.566;   -6.921;  728.200
307.098;   88.154;   -6.491;  746.560
307.696;   86.035;   -6.941;  780.432
308.294;   85.988;   -6.301;  731.359
308.892;   88.177;   -4.771;  759.769
309.490;   83.905;   -5.141;  712.161
310.088;   82.720;   -2.912;  788.444
310.686;   87.012;   -0.421;  821.749
311.284;   83.121;   -3.461;  766.040
311.882;   80.695;   -6.282;  731.225
312.480;   77.195;   -3.632;  697.167
313.078;   78.685;   -2.112;  808.331
313.675;   80.688;   -1.931;  691.600
314.273;   76.383;   -1.442;  797.837
314.871;   74.405;   -3.002;  589.829
315.468;   72.630;   -2.252;  652.090
316.066;   75.688;   -1.091;  694.427
316.664;   68.952;   -4.512;  656.351
317.261;   72.948;   -0.062;  910.128
317.859;   68.269;   -0.952;  768.735
318.456;   69.668;    0.719;  830.096
319.054;   66.137;   -4.002;  787.828
319.651;   64.029;   -4.972;  759.928
320.249;   63.823;   -1.162;  810.188
320.846;   61.199;   -2.651;  714.286
321.443;   59.619;   -3.832;  832.135
322.041;   56.280;   -4.312;  812.315
322.638;   54.084;   -3.872;  701.456
323.235;   56.344;   -4.361;  665.683
323.833;   54.441;   -4.821;  740.354
324.430;   49.147;   -6.971;  615.900
325.027;   49.929;   -4.361;  876.855
325.624;   50.499;   -5.581;  644.532
326.221;   48.079;   -6.601;  689.717
326.818;   47.276;   -7.301;  818.332
327.415;   49.752;   -6.180;  748.828
328.012;   49.440;   -5.920;  690.585
328.609;   47.537;   -8.390;  731.389
329.206;   46.096;   -6.121;  778.621
329.803;   45.955;   -5.241;  737.841
330.400;   47.446;   -7.420;  704.260
330.997;   49.269;   -5.931;  817.147
331.594;   46.218;   -5.641;  788.185
332.191;   51.819;   -6.451;  728.722
332.787;   55.445;   -4.651;  844.463
333.384;   53.192;   -5.472;  763.093
333.981;   50.628;   -6.303;  815.687
334.578;   54.300;   -5.892;  708.378
335.174;   55.629;   -4.102;  731.469
335.771;   54.539;   -8.053;  836.456
336.367;   52.022;   -7.363;  710.631
336.964;   56.130;   -6.243;  793.266
337.561;   55.207;   -5.653;  731.112
338.157;   50.331;   -7.074;  911.916
338.754;   48.413;   -5.474;  796.589
339.350;   45.834;   -5.624;  722.493
339.946;   48.625;   -5.054;  773.135
340.543;   42.354;   -6.695;  846.136
341.139;   36.326;   -6.215;  720.836
341.735;   33.430;   -5.746;  772.593
342.332;   33.366;   -7.335;  691.472
342.928;   34.078;   -4.835;  795.394
343.524;   27.377;   -4.586;  761.684
344.120;   24.133;   -3.946;  738.562
344.716;   26.399;   -4.835;  723.717
345.313;   25.921;   -5.325;  795.342
345.909;   20.570;   -6.535;  627.336
346.505;   22.321;   -4.725;  740.247
347.101;   22.914;   -4.164;  827.864
347.697;   24.635;   -5.274;  785.398
348.293;   17.660;   -7.145;  627.244
348.889;   18.347;   -4.364;  745.914
349.485;   18.927;   -6.404;  688.205
350.081;   19.779;   -7.534;  772.592
350.676;   14.975;   -6.995;  691.606
351.272;   19.322;   -3.544;  809.530
351.868;   19.151;   -5.324;  780.497
352.464;   17.466;   -7.204;  723.932
353.059;   12.789;   -6.894;  646.017
353.655;   15.785;   -3.754;  777.063
354.251;   16.668;   -6.143;  759.845
354.846;   13.102;   -9.464;  740.646
355.442;    9.952;   -7.555;  753.071
356.038;   11.010;   -5.474;  751.708
356.633;   12.309;   -5.914;  728.594
357.229;   10.282;   -8.944;  724.757
357.824;    7.768;   -6.794;  703.600
358.420;    7.646;   -5.754;  679.726
359.015;    7.805;   -5.664;  695.357
359.610;    9.087;   -8.004;  763.920
360.206;    2.724;   -8.815;  603.240
360.801;    4.869;   -8.834;  646.503
361.396;    8.467;   -6.274;  725.975
361.992;    4.069;   -8.574;  668.220
362.587;    0.157;   -9.265;  670.160
363.182;    3.370;   -5.484;  689.631
363.777;    3.727;   -5.164;  738.242
364.372;    4.886;   -6.954;  737.314
364.967;   -0.269;   -7.065;  680.744
365.563;    4.302;   -5.684;  815.567
366.158;    1.743;   -6.484;  685.161
366.753;    1.841;   -8.004;  649.263
367.348;    0.029;  -10.114;  746.056
367.942;    0.040;   -7.764;  697.298
368.537;   -0.688;   -4.554;  754.245
369.132;   -0.458;   -7.664;  703.428
369.727;   -4.413;   -8.905;  638.079
370.322;   -3.569;   -4.945;  580.186
370.917;   -3.514;   -7.095;  710.646
371.511;    0.027;   -6.574;  861.834
372.106;   -3.730;   -6.515;  776.964
372.701;   -7.299;   -8.225;  585.988
373.296;   -1.454;   -4.494;  863.135
373.890;   -5.294;   -7.965;  647.840
374.485;   -8.278;   -9.745;  691.199
375.079;   -4.916;   -5.554;  738.685
375.674;   -2.399;   -4.724;  812.970
376.268;   -7.095;   -8.365;  691.759
376.863;  -12.831;   -8.126;  580.327
377.457;   -6.482;   -6.045;  662.490
378.052;   -8.228;   -6.835;  764.884
378.646;   -8.974;   -9.375;  741.167
379.240;   -9.581;   -6.185;  721.176
379.835;   -8.633;   -6.135;  636.978
380.429;  -10.438;   -8.365;  562.557
381.023;   -9.944;   -7.935;  779.205
381.617;  -12.816;   -8.325;  680.106
382.212;   -9.606;   -7.405;  685.303
382.806;   -8.205;   -4.155;  760.690
383.400;  -12.111;   -8.945;  672.281
383.994;  -13.746;   -8.365;  664.870
384.588;   -9.657;   -7.824;  697.701
385.182;   -8.072;   -7.984;  726.624
385.776;   -9.969;  -10.404;  706.875
386.370;  -12.963;   -7.335;  681.968
386.964;  -11.652;   -7.485;  684.155
387.558;  -10.104;   -8.174;  598.360
388.152;  -12.946;  -10.415;  681.959
388.745;  -11.124;   -9.595;  814.707
389.339;  -10.032;   -6.454;  747.642
389.933;   -9.211;   -5.804;  695.370
390.527;   -9.409;   -6.854;  859.029
391.120;  -16.007;   -7.665;  595.318
391.714;  -12.806;   -7.245;  711.633
392.308;   -9.253;   -4.514;  780.253
392.901;  -13.580;   -7.935;  642.460
393.495;  -16.368;   -8.585;  595.414
394.089;  -13.022;   -5.245;  760.452
394.682;  -13.864;   -6.305;  697.188
395.275;  -13.191;   -9.335;  719.927
395.869;  -16.000;   -7.375;  667.314
396.462;  -14.404;   -7.055;  616.609
397.056;   -9.356;   -5.434;  776.621
397.649;  -13.311;   -9.525;  731.575
398.242;  -11.801;   -7.574;  712.645
398.836;  -10.440;   -5.134;  766.408
399.429;  -11.698;   -6.544;  631.041
400.022;  -15.169;   -9.215;  665.902
400.615;  -12.950;   -8.105;  805.609
401.208;  -11.584;   -7.614;  691.451
401.802;  -13.569;   -8.085;  699.329
402.395;  -14.542;   -9.575;  683.502
402.988;  -15.507;   -9.285;  696.627
403.581;  -12.069;   -7.514;  646.878
404.174;  -10.920;   -6.404;  686.568
404.767;  -11.894;   -8.775;  638.583
405.360;  -15.163;   -7.415;  621.445
405.953;   -9.200;   -5.624;  759.034
406.545;   -8.928;   -6.474;  725.342
407.138;  -12.882;   -8.445;  618.350
407.731;  -12.685;  -10.044;  613.303
408.324;   -8.620;   -8.484;  660.554
408.917;   -9.548;   -7.624;  681.864
409.509;  -10.132;   -8.304;  740.396
410.102;  -12.916;   -8.495;  643.948
410.695;   -7.654;   -7.824;  665.758
411.287;   -7.925;   -7.754;  599.821
411.880;   -8.934;   -9.294;  585.421
412.472;  -12.334;   -8.814;  613.092
413.065;   -9.159;   -6.674;  629.408
413.657;   -7.010;   -9.664;  576.678
414.250;   -6.540;  -10.264;  646.681
414.842;   -9.352;   -8.664;  676.353
415.434;   -6.806;   -8.584;  570.463
416.027;   -2.331;   -9.423;  652.196
416.619;   -3.624;  -10.764;  713.400
417.211;   -4.401;   -7.404;  599.352
417.804;   -2.112;   -7.383;  628.499
418.396;   -4.915;   -8.334;  607.643
418.988;   -2.571;   -9.633;  659.238
419.580;   -6.284;  -10.554;  568.276
420.172;   -4.469;   -8.683;  536.196
420.764;   -0.155;   -9.713;  672.482
421.356;   -0.860;  -11.303;  636.898
421.948;   -1.870;   -8.453;  677.661
422.540;    2.221;   -5.793;  680.027
423.132;    2.004;   -7.162;  600.641
423.724;   -1.089;   -7.933;  561.267
424.316;    1.075;   -9.083;  621.345
424.908;    4.293;   -8.392;  591.517
425.500;    5.349;   -8.062;  647.978
426.092;    5.964;   -9.692;  648.268
426.683;    4.349;   -8.223;  684.836
427.275;    7.277;   -8.602;  641.471
427.867;    9.070;   -8.382;  668.948
428.458;    9.884;  -10.472;  732.344
429.050;    8.382;   -9.112;  680.749
429.642;   10.351;   -7.752;  743.124
430.233;   10.413;   -8.832;  569.356
430.825;   12.574;   -8.292;  724.809
431.416;    9.299;   -7.522;  698.241
432.008;   13.207;   -9.262;  651.723
432.599;   13.147;   -6.441;  656.073
433.190;   11.415;   -9.222;  637.670
433.782;    9.610;  -11.832;  590.395
434.373;   18.297;   -7.121;  884.765
434.964;   15.843;   -9.141;  602.920
435.556;   14.414;   -9.332;  634.537
436.147;   17.020;   -8.892;  758.490
436.738;   16.297;   -8.151;  701.099
437.329;   21.753;   -8.281;  721.723
437.920;   15.346;   -9.062;  666.688
438.511;   14.664;  -11.182;  564.526
439.103;   21.563;   -7.461;  623.998
439.694;   23.459;   -8.541;  681.583
440.285;   24.703;   -7.351;  764.432
440.876;   22.930;   -8.201;  845.738
441.466;   21.768;  -10.381;  575.162
442.057;   26.275;   -7.620;  665.814
442.648;   26.095;   -8.461;  746.255
443.239;   23.306;   -8.991;  620.477
443.830;   28.763;   -7.910;  704.958
444.421;   31.214;   -7.340;  655.474
445.011;   28.542;   -8.981;  693.619
445.602;   26.764;   -9.341;  743.126
446.193;   28.729;  -11.390;  488.117
446.783;   33.377;  -11.240;  640.397
447.374;   29.716;   -8.471;  692.759
447.964;   29.978;   -8.471;  713.770
448.555;   38.166;   -6.590;  822.742
449.145;   34.054;   -8.200;  662.853
449.736;   36.019;  -11.040;  803.179
450.326;   35.200;   -9.640;  713.626
450.917;   40.404;   -9.480;  675.324
451.507;   39.419;   -8.020;  600.661
452.097;   40.349;  -10.210;  746.267
452.688;   41.832;   -7.810;  742.160
453.278;   40.953;   -9.360;  566.840
453.868;   45.728;   -8.669;  793.550
454.458;   42.918;  -10.950;  651.141
455.048;   43.734;  -10.200;  711.783
455.639;   44.912;   -9.369;  567.096
456.229;   48.692;   -7.739;  710.694
456.819;   51.304;   -8.939;  751.158
457.409;   50.797;   -7.169;  773.993
457.999;   53.374;   -7.779;  737.505
458.589;   52.902;   -7.039;  686.606
459.179;   53.654;   -9.019;  717.658
459.769;   51.285;   -8.909;  627.099
460.358;   56.606;   -8.659;  797.262
460.948;   56.192;   -8.209;  689.503
461.538;   59.028;   -9.879;  660.677
462.128;   57.384;   -9.379;  664.934
462.717;   62.322;   -9.158;  710.326
463.307;   65.649;   -8.638;  705.846
463.897;   61.592;   -8.869;  656.942
464.486;   60.190;   -7.409;  837.128
465.076;   65.076;   -9.618;  733.776
465.666;   68.763;   -7.578;  652.900
466.255;   66.893;   -9.369;  785.651
466.845;   65.620;  -10.049;  666.749
467.434;   68.696;   -8.168;  725.873
468.023;   69.704;   -9.188;  658.357
468.613;   67.713;   -9.849;  713.946
469.202;   71.773;  -12.958;  646.507
469.791;   75.908;   -9.488;  737.811
470.381;   78.052;   -6.468;  742.813
470.970;   78.452;  -10.248;  711.099
471.559;   78.137;  -11.428;  733.291
472.148;   81.467;   -9.738;  675.737
472.738;   83.046;   -7.877;  765.466
473.327;   82.942;  -11.868;  637.529
473.916;   82.689;   -8.578;  737.446
474.505;   87.111;  -11.137;  751.703
475.094;   89.395;   -9.407;  806.570
475.683;   89.151;   -9.977;  797.699
476.272;   90.052;  -10.807;  730.632
476.861;   92.413;  -11.017;  706.754
477.449;   99.342;  -10.316;  728.487
478.038;   94.121;  -10.187;  692.513
478.627;   94.764;  -12.458;  714.852
479.216;  101.144;  -10.127;  769.441
479.805;  104.973;   -6.256;  783.375
480.393;  105.007;   -8.737; 1008.945
480.982;  103.363;   -9.087;  874.501
481.571;  109.472;   -7.806;  858.333
482.159;  110.056;  -10.596;  705.386
482.748;  110.451;  -11.507;  821.385
483.336;  113.809;   -8.366;  858.209
483.925;  114.964;   -7.497;  774.373
484.513;  120.879;   -8.326;  758.962
485.102;  118.462;  -10.277;  810.965
485.690;  127.566;   -8.256; 1011.050
486.278;  128.778;   -7.146;  979.329
486.867;  128.520;   -7.986;  809.662
487.455;  132.044;   -9.926;  898.229
488.043;  132.557;  -10.026;  748.361
488.631;  141.401;   -7.226; 1005.079
489.220;  145.010;   -8.696;  908.626
489.808;  144.861;  -12.276;  741.415
490.396;  152.705;   -9.386;  914.645
490.984;  157.658;   -8.506;  830.161
491.572;  167.264;   -8.226;  940.315
492.160;  173.896;   -9.836;  919.081
492.748;  184.786;  -10.316;  884.341
493.336;  203.888;   -7.146; 1019.693
493.924;  226.338;   -7.965;  958.077
494.512;  252.189;  -10.316; 1066.638
495.100;  288.325;  -10.186; 1103.280
495.687;  340.007;   -7.805; 1206.373
496.275;  400.760;   -9.686; 1150.796
496.863;  477.799;  -11.566; 1281.171
497.451;  571.516;  -11.406; 1386.805
498.038;  705.637;   -8.235; 1556.729
498.626;  821.954;   -7.485; 1741.407
499.214;  979.738;   -8.646; 2016.609
499.801; 1216.884;   -9.936; 2220.633
500.389; 1407.420;   -8.056; 2312.494
500.976; 1582.091;   -6.166; 2744.849
501.564; 1783.876;   -9.126; 3148.565
502.151; 2079.668;  -12.456; 3515.999
502.738; 2497.922;  -10.056; 3971.274
503.326; 2928.681;  -10.605; 4403.796
503.913; 3281.838;  -10.576; 5161.749
504.500; 3780.675;   -9.056; 5986.420
505.088; 4285.016;  -10.136; 6381.201
505.675; 5048.486;   -9.075; 6925.547
506.262; 5606.532;  -11.346; 7619.060
506.849; 6336.312;   -9.376; 8733.969
507.436; 6915.205;   -7.365; 9790.121
508.023; 7278.544;   -8.686; 9985.472
508.610; 7697.668;   -8.846;10434.618
509.197; 8739.542;   -9.077;11198.435
509.784;10064.972;  -10.246;12391.194
510.371;10450.493;   -9.825;13603.713
510.958;11081.101;  -10.896;14426.586
511.545;11954.166;   -9.006;15243.775
512.132;12898.083;   -8.765;15945.876
512.719;13947.588;   -8.286;16340.369
513.305;16000.170;   -9.256;18011.766
513.892;18321.473;  -11.106;19754.971
514.479;19900.543;   -8.576;20967.805
515.066;21090.248;   -9.046;22299.793
515.652;21657.291;  -10.676;22908.660
516.239;23277.854;  -10.166;23798.875
516.825;23866.953;  -11.266;25567.275
517.412;23357.863;   -7.446;28154.959
517.998;23919.320;  -10.916;28344.111
518.585;23248.506;   -9.166;27134.219
519.171;22995.160;  -10.135;27268.576
519.758;24682.807;   -8.806;28964.129
520.344;27817.842;   -6.716;30664.494
520.930;29662.426;  -10.166;32550.605
521.516;30060.779;   -9.615;35422.895
522.103;31514.201;   -8.656;38280.004
522.689;34082.801;   -9.646;37835.117
523.275;34961.684;  -10.786;37288.613
523.861;35928.914;   -9.266;37281.395
524.447;35888.594;   -8.285;37846.949
525.033;35897.645;   -9.426;38321.949
525.619;35178.867;   -9.836;38579.285
526.205;35924.168;   -8.136;40622.875
526.791;36998.355;   -9.986;42258.836
527.377;38724.508;   -8.236;42966.902
527.963;37634.082;  -12.117;42018.949
528.549;36254.270;   -8.376;42476.828
529.135;37304.461;   -8.696;41854.852
529.721;38896.699;   -9.686;41237.711
530.306;41103.809;   -8.616;41259.445
530.892;44311.906;   -9.396;41506.047
531.478;44769.426;   -9.926;43559.613
532.063;46456.375;  -10.236;47695.563
532.649;48807.676;   -8.257;50808.324
533.235;50516.801;  -11.476;51787.500
533.820;49466.730;   -8.156;52145.035
534.406;47440.680;  -12.257;51133.488
534.991;45323.332;   -8.686;49996.805
535.576;43119.066;   -9.426;48882.852
536.162;43217.797;   -8.436;46942.285
536.747;41974.699;  -10.957;45711.746
537.333;41018.172;  -13.147;48510.180
537.918;44155.930;   -9.027;50439.891
538.503;45651.020;   -8.256;50863.711
539.088;49495.754;  -10.576;50906.922
539.673;51609.512;  -10.907;52621.965
540.259;51579.422;   -9.126;52368.094
540.844;48521.426;   -9.026;50879.109
541.429;49621.852;   -9.597;52077.777
542.014;53592.141;  -11.447;52716.695
542.599;54791.430;   -9.236;52363.281
543.184;52691.406;  -12.267;53187.137
543.769;54073.883;  -10.367;54697.605
544.354;54604.004;  -10.887;53913.914
544.938;48502.770;  -11.687;49680.164
545.523;43441.742;   -8.286;47386.277
546.108;44584.223;   -9.317;49151.949
546.693;46762.188;  -10.187;51384.637
547.278;46005.141;   -9.926;51853.254
547.862;45209.691;   -9.196;51173.750
548.447;44086.039;   -9.657;51691.395
549.031;43916.941;   -9.127;52456.703
549.616;47890.148;  -10.836;52714.516
550.201;51516.512;   -8.507;52414.598
550.785;52124.477;  -10.537;52355.059
551.370;51832.844;  -11.727;54589.453
551.954;52385.402;   -9.457;58267.348
552.538;51928.691;   -8.147;59062.176
553.123;49933.227;   -9.397;58115.285
553.707;47543.816;   -9.558;56556.285
554.291;48813.406;   -9.417;56201.668
554.876;49011.281;   -7.627;55335.762
555.460;46889.137;  -10.457;54155.703
556.044;44446.082;  -10.078;53721.484
556.628;44845.398;   -9.407;53731.016
557.212;45068.867;   -7.957;54312.531
557.796;44989.590;  -11.327;53797.773
558.380;49426.508;  -10.868;56145.984
558.964;50744.473;   -9.637;57277.930
559.548;48961.922;   -8.807;56459.641
560.132;49758.586;  -10.187;54434.543
560.716;49094.555;   -9.868;54800.617
561.300;49750.191;  -10.217;57606.945
561.884;50134.527;   -4.947;58972.445
562.467;49463.703;   -9.588;57327.570
563.051;48069.094;  -11.138;54962.434
563.635;45952.785;   -9.358;52594.473
564.219;45413.891;   -9.797;50610.410
564.802;45833.539;   -9.918;49551.180
565.386;43419.816;  -10.838;48370.953
565.969;42450.148;   -8.037;48178.871
566.553;42116.547;   -5.667;49957.305
567.136;40705.477;   -8.258;50369.594
567.720;40200.836;  -11.278;49492.004
568.303;42940.129;   -9.028;50616.352
568.887;42779.141;   -7.508;50727.148
569.470;41426.656;  -11.068;51698.379
570.053;41633.328;  -10.028;52122.078
570.637;40151.938;  -11.077;52536.438
571.220;39722.691;   -8.747;51186.098
571.803;41293.094;   -8.868;51032.762
572.386;43415.594;  -10.608;49609.887
572.969;43167.648;  -10.548;48285.926
573.552;40798.273;   -7.898;47624.285
574.135;41657.672;   -9.918;45498.641
574.718;37712.895;  -10.328;41970.434
575.301;34740.184;   -9.548;41447.137
575.884;31767.475;   -8.768;40923.836
576.467;35118.082;   -9.858;45267.723
577.050;35404.438;  -11.018;48175.543
577.633;36207.840;  -10.048;47729.328
578.216;35411.914;  -10.268;47579.793
578.799;32753.705;  -11.808;47820.996
579.381;32829.098;   -7.338;48115.551
579.964;35853.051;   -9.728;47333.766
580.547;37215.637;   -8.928;46668.969
581.129;38521.488;   -9.149;44466.141
581.712;38864.539;  -11.359;44164.922
582.294;36499.160;  -10.738;46477.855
582.877;34873.891;   -8.788;48244.254
583.459;35046.414;   -9.859;47437.895
584.042;37474.746;   -9.649;46943.219
584.624;37272.234;  -10.529;46792.227
585.206;35585.559;  -10.298;46557.250
585.789;35107.949;  -11.029;45793.773
586.371;33094.895;   -9.359;43836.391
586.953;32492.715;   -8.799;42972.492
587.536;32348.611;   -8.928;42487.211
588.118;32320.852;   -9.180;42086.414
588.700;31757.189;  -10.519;43389.930
589.282;30733.252;   -8.098;43646.039
589.864;30816.025;   -8.139;43438.109
590.446;32314.998;  -10.509;43151.926
591.028;32657.781;  -11.119;42781.867
591.610;34358.523;  -10.019;42839.098
592.192;34424.266;   -8.838;42820.402
592.774;31112.406;  -11.549;40724.277
593.356;28008.680;  -11.609;39874.789
593.937;27220.238;  -10.019;39980.648
594.519;29581.980;   -7.839;42069.633
595.101;32289.082;  -10.779;42976.031
595.683;33728.996;  -10.049;44084.441
596.264;33655.340;   -9.969;43478.797
596.846;33216.988;   -9.699;43803.672
597.427;32124.977;  -10.970;42986.934
598.009;31541.730;  -13.090;42832.219
598.591;30921.379;   -9.509;42580.086
599.172;31245.170;   -9.019;43061.805
599.753;32028.725;  -13.310;41691.469
600.335;32890.445;  -11.010;40692.520
600.916;32117.313;  -10.309;39982.422
601.498;31068.639;   -8.209;40318.617
602.079;30715.801;  -11.440;40670.609
602.660;32301.160;   -8.690;41450.898
603.241;33760.762;  -12.759;41137.738
603.823;32483.523;  -10.409;38868.797
604.404;31812.555;  -11.790;38182.785
604.985;33568.996;  -10.280;38078.047
605.566;34946.055;   -8.059;38056.633
606.147;32243.172;   -8.960;37020.418
606.728;29822.613;  -10.710;37883.359
607.309;29109.986;  -12.760;38748.273
607.890;27748.078;   -9.959;38850.230
608.471;28075.859;   -9.780;37457.918
609.051;29669.576;   -8.940;36066.457
609.632;30371.053;  -12.070;35991.074
610.213;30461.652;   -9.610;37402.641
610.794;30852.205;   -8.750;38383.363
611.374;31429.441;  -11.100;40562.387
611.955;31854.166;  -12.200;38533.727
612.536;31971.982;  -10.410;36951.789
613.116;31045.496;  -10.010;37197.891
613.697;29307.607;  -10.480;38411.125
614.277;29190.801;  -12.751;38673.938
614.858;28223.246;  -11.600;37075.863
615.438;28066.330;   -8.190;35092.906
616.019;26758.203;   -8.941;33666.301
616.599;28508.506;  -13.540;34189.023
617.179;31334.012;  -10.890;36952.047
617.760;30686.531;   -7.610;39582.574
618.340;28749.803;  -14.441;38943.977
618.920;28401.113;   -9.180;37594.156
619.500;30650.625;  -11.881;37866.938
620.080;32398.172;   -9.870;37869.043
620.660;31140.436;  -13.211;36868.617
621.241;29945.299;  -11.921;36352.309
621.821;29636.719;  -10.271;35459.520
622.401;30781.221;   -8.200;35207.414
622.980;32256.227;  -11.141;35980.422
623.560;31404.938;  -14.321;37351.328
624.140;29808.922;   -9.360;34388.582
624.720;25887.617;   -7.481;32368.764
625.300;23409.453;  -12.730;32638.629
625.880;27197.904;  -11.441;34599.035
626.459;30522.635;  -10.971;36831.738
627.039;34287.875;   -9.011;38299.098
627.619;34978.133;   -8.521;38289.574
628.198;32969.039;   -9.861;37220.695
628.778;31807.656;   -8.841;37632.563
629.357;32120.551;   -9.891;38003.012
629.937;32552.992;  -11.871;38402.039
630.516;32128.955;  -10.641;37868.801
631.096;34103.855;  -11.391;35760.410
631.675;35731.102;   -6.622;35225.219
632.254;32651.109;  -13.002;35130.289
632.834;31185.363;  -11.622;35794.570
633.413;32129.225;   -8.321;35788.922
633.992;30334.252;   -7.732;34532.863
634.571;30131.240;  -10.992;33590.113
635.151;29448.229;  -10.422;34943.863
635.730;30754.719;  -11.511;35352.523
636.309;31202.402;   -7.901;35366.605
636.888;30287.184;  -11.452;36165.637
637.467;29266.584;  -10.672;37515.902
638.046;29622.920;   -9.301;39288.695
638.625;31079.211;  -11.452;38279.699
639.204;31883.109;  -12.262;37741.598
639.782;32275.064;  -11.892;38364.551
640.361;31046.580;  -11.411;36740.621
640.940;25847.602;  -11.501;34950.082
641.519;27765.580;  -10.921;34137.398
642.097;31448.697;  -10.101;35654.258
642.676;30286.568;  -10.821;35637.957
643.255;31400.092;   -8.631;36567.074
643.833;33900.207;  -11.411;37809.434
644.412;36535.906;  -12.021;37337.293
644.990;36815.863;  -12.271;37018.531
645.569;35601.898;   -9.741;36518.469
646.147;33236.992;   -9.051;36186.430
646.726;33207.207;  -13.861;36267.688
647.304;33474.121;   -9.461;36647.625
647.882;33117.180;  -13.171;39286.742
648.461;33619.785;  -11.911;39157.703
649.039;32464.988;   -9.541;35412.883
649.617;31565.637;   -8.901;34744.918
650.195;29572.004;   -8.591;35403.098
650.773;28982.402;  -13.031;35053.797
651.352;27981.230;  -12.211;33756.816
651.930;25761.693;  -11.361;31868.773
652.508;22849.473;   -8.601;33121.551
653.086;25511.092;   -9.991;33564.793
653.663;29880.859;  -11.931;34054.668
654.241;32125.617;  -10.821;35693.309
654.819;33546.105;   -9.341;36422.906
655.397;31308.959;  -10.851;38213.484
655.975;30013.037;  -11.461;39507.625
656.553;30111.908;   -8.841;39498.223
657.130;29598.217;  -10.371;40395.480
657.708;30307.861;  -11.071;39242.020
658.286;29924.930;  -11.141;38920.020
658.863;30738.041;  -10.861;40202.898
659.441;34894.047;  -11.181;39677.938
660.018;35211.063;  -10.851;40413.355
660.596;34797.434;  -12.571;39931.414
661.173;35264.566;  -12.141;39604.531
661.750;35269.234;  -11.571;39700.070
662.328;32646.123;  -10.780;39292.809
662.905;29884.906;  -10.750;38235.648
663.482;26568.875;  -11.320;36212.305
664.060;25842.365;  -10.160;35944.945
664.637;30626.049;  -13.120;35170.785
665.214;32719.434;  -11.500;34197.523
665.791;30968.832;  -12.430;34549.520
666.368;28640.098;   -9.840;35118.578
666.945;27701.684;  -11.290;36019.418
667.522;28245.959;  -13.540;36048.438
668.099;28835.904;  -10.250;36243.914
668.676;28153.119;  -11.270;35958.875
669.253;27166.385;   -8.210;37384.730
669.830;26423.527;   -9.710;36779.629
670.407;25855.469;   -9.700;35231.289
670.984;26541.811;   -9.190;35544.270
671.560;25835.961;   -9.560;35466.867
672.137;25372.082;  -11.820;34280.863
672.714;27890.299;  -12.460;34632.863
673.290;32218.441;  -10.940;35135.422
673.867;33095.387;  -10.510;36114.480
674.443;29733.492;  -12.110;36152.859
675.020;31043.102;  -11.760;35327.238
675.596;32119.322;   -9.380;35795.176
676.173;30694.680;  -11.120;35430.355
676.749;29464.121;  -13.390;33549.516
677.326;28677.191;  -12.600;32210.012
677.902;27686.680;  -10.830;32068.871
678.478;27598.898;  -12.400;32583.891
679.054;29504.510;   -8.610;32088.928
679.631;29637.145;  -11.640;30978.848
680.207;29493.158;   -8.140;33160.887
680.783;30531.146;  -12.300;35570.363
681.359;29579.059;  -10.910;36125.184
681.935;29670.994;  -11.040;35240.922
682.511;30431.732;  -11.130;34429.961
683.087;30718.777;  -11.080;34463.680
683.663;32823.504;  -10.530;34648.898
684.239;32423.824;  -12.120;34546.457
684.815;29931.498;   -8.870;35586.375
685.390;29071.373;   -8.940;35821.895
685.966;29148.057;  -12.109;35085.871
686.542;28224.750;  -13.539;34198.230
687.118;28050.104;  -10.379;32847.707
687.693;28308.287;  -10.189;32794.027
688.269;27099.002;  -12.939;33072.367
688.844;25965.092;   -8.679;33141.664
689.420;26850.229;  -10.919;33965.742
689.995;27212.422;   -7.489;34655.523
690.571;26662.703;  -12.199;33576.742
691.146;26612.551;   -8.979;32657.219
691.722;27998.098;   -9.119;32526.979
692.297;26597.283;  -10.519;33014.617
692.872;26161.504;  -10.629;34012.254
693.448;26748.502;  -12.119;34237.434
694.023;27574.400;   -8.219;34142.672
694.598;25840.934;  -13.209;34132.031
695.173;24863.824;  -11.879;34205.250
695.748;25707.475;  -12.039;32882.488
696.323;25438.186;  -11.779;32864.906
696.898;26164.418;  -10.219;33170.004
697.473;27169.652;  -13.639;32432.984
698.048;27551.617;  -11.239;31649.303
698.623;29641.771;  -10.859;30778.141
699.198;31620.932;  -13.379;31140.119
699.773;32218.566;  -13.409;31764.299
700.348;32554.314;  -12.329;31780.816
700.922;32958.691;   -8.749;32046.375
701.497;33070.902;  -12.449;32603.574
702.072;32043.865;   -8.879;34799.871
702.646;30088.166;  -10.719;35793.172
703.221;28663.816;   -8.469;35201.590
703.795;28489.730;  -11.389;34764.527
704.370;28438.627;  -12.499;34307.367
704.944;28257.449;  -11.449;33509.887
705.519;27581.043;  -10.659;31388.584
706.093;26926.836;  -12.909;31340.104
706.668;27155.123;  -13.509;32630.281
707.242;26436.818;  -10.049;32728.779
707.816;24474.373;  -10.629;32947.238
708.390;23879.383;  -11.829;33277.855
708.965;24130.021;  -11.159;33834.336
709.539;25016.504;  -11.069;33709.273
710.113;24558.172;  -10.908;33044.313
710.687;23172.428;   -9.488;31953.992
711.261;23222.604;  -13.068;30505.949
711.835;25833.783;  -12.748;30262.369
712.409;26951.975;  -10.678;31254.447
712.983;26127.412;  -11.658;32754.986
713.557;26663.861;  -13.718;34018.824
714.131;27292.463;  -13.388;34579.625
714.704;27455.373;   -9.818;33890.262
715.278;28114.850;  -11.818;33531.102
715.852;29242.240;  -11.328;33601.660
716.425;29633.934;   -9.118;33515.117
716.999;29842.955;  -10.188;33185.555
717.573;30137.355;   -9.808;33905.996
718.146;32694.715;  -11.478;35199.293
718.720;32775.566;  -10.998;35060.551
719.293;30866.223;   -9.508;34973.230
719.867;30085.795;  -12.138;36394.449
720.440;28776.621;  -11.288;36663.008
721.013;31123.436;  -11.428;35102.426
721.587;32281.414;  -11.698;33985.266
722.160;33158.957;  -11.608;33524.965
722.733;32232.994;  -11.428;32987.043
723.306;31229.920;  -12.518;33066.301
723.880;31223.984;   -7.408;33399.500
724.453;30206.070;  -11.048;33468.297
725.026;28916.734;  -11.678;33816.637
725.599;27555.219;  -10.978;32797.996
726.172;26654.223;   -8.838;33187.434
726.745;27559.418;  -11.438;35136.613
727.318;28207.289;   -9.828;35751.730
727.891;26606.303;  -10.868;35890.430
728.463;24687.379;  -11.348;34822.090
729.036;23328.008;  -11.608;32895.086
729.609;23553.621;  -14.738;31823.225
730.182;24697.504;   -8.448;31445.283
730.754;25833.650;  -11.228;32373.223
731.327;25891.355;  -12.018;33676.820
731.900;27576.609;  -13.748;33417.000
732.472;27781.447;  -10.928;31978.498
733.045;26486.195;   -9.478;30368.777
733.617;25090.039;  -12.967;30574.215
734.190;24210.852;  -11.707;31280.975
734.762;22975.539;  -11.067;31674.412
735.334;22302.426;  -10.587;31247.291
735.907;21470.461;  -11.947;29876.211
736.479;21967.383;  -11.667;29808.488
737.051;24374.027;  -10.187;30233.547
737.623;26543.494;   -6.887;31469.086
738.195;29223.596;  -12.117;31784.225
738.768;31125.861;  -14.077;32120.523
739.340;30663.680;  -12.207;32094.342
739.912;27741.520;   -8.977;31312.680
740.484;25810.709;  -11.017;31946.238
741.056;26372.563;  -13.517;32984.059
741.628;28191.410;  -11.507;33897.715
742.199;28496.768;   -7.597;33213.016
742.771;29141.137;  -12.227;31369.113
743.343;28834.611;  -12.427;31865.473
743.915;27618.648;   -9.827;32388.631
744.487;26769.754;  -10.007;31079.568
745.058;25088.838;  -11.887;30570.107
745.630;24072.705;  -10.787;29970.127
746.201;23175.076;  -10.887;29186.766
746.773;22978.912;   -9.707;28805.723
747.344;23929.459;  -11.137;29591.223
747.916;24278.227;  -11.887;31412.201
748.487;23717.080;   -9.707;32194.898
749.059;23118.707;  -10.027;32533.719
749.630;22985.234;  -11.787;32158.518
750.201;21933.055;  -12.767;30855.395
750.773;21521.697;  -11.497;28622.555
751.344;22243.326;   -9.937;28405.732
751.915;22650.992;  -11.567;28461.551
752.486;22016.277;  -13.267;27842.850
753.057;20059.117;  -10.627;27845.008
753.628;18640.289;  -11.657;27728.107
754.199;20810.627;  -12.097;27381.086
754.770;22537.352;  -11.447;25882.203
755.341;22611.311;  -11.997;25886.184
755.912;20397.371;  -10.207;26050.861
756.483;18587.758;  -10.937;26798.779
757.054;18443.604;  -11.527;27048.238
757.625;18762.369;  -12.886;26294.838
758.195;19225.021;  -11.226;26142.076
758.766;19285.793;  -12.366;26392.234
759.337;18113.193;  -11.946;26334.594
759.907;18172.635;  -13.856;27579.652
760.478;19109.717;   -9.606;28352.770
761.048;18919.121;  -11.606;27325.088
761.619;18855.971;  -11.036;26460.428
762.189;18344.277;  -12.206;26029.826
762.760;19643.209;   -9.666;26430.145
763.330;20561.883;   -9.796;26670.902
763.900;18752.396;  -10.896;26603.021
764.471;17270.289;  -11.726;25542.740
765.041;17761.961;   -9.656;24358.459
765.611;18645.328;  -11.276;23991.297
766.181;18454.846;  -12.116;24470.236
766.751;17899.613;  -12.376;24845.975
767.321;17768.941;  -11.626;24533.633
767.891;18014.848;  -10.426;24916.492
768.461;17137.367;  -13.456;24776.771
769.031;15231.014;  -11.616;24757.988
769.601;14994.459;  -11.356;24181.088
770.171;15145.016;  -11.586;23670.387
770.741;15471.801;  -12.696;22960.045
771.311;15516.630;  -10.226;22917.523
771.880;15251.249;  -11.146;23562.941
772.450;16011.104;  -11.716;24216.500
773.020;16387.096;  -13.226;24140.398
773.589;16079.193;  -12.586;24414.857
774.159;15857.595;  -10.246;23858.717
774.729;15344.316;  -11.586;22942.135
775.298;14439.571;  -15.926;22324.033
775.867;14450.457;  -10.426;21140.313
776.437;14422.593;  -11.416;20838.092
777.006;13068.761;  -12.766;20599.510
777.576;12987.572;  -13.666;20508.809
778.145;13475.932;  -10.066;20732.947
778.714;13235.751;  -10.276;21062.465
779.283;13523.325;  -12.086;20949.664
779.853;14835.042;  -14.016;20508.623
780.422;15326.176;  -12.376;20649.082
780.991;14231.302;   -9.246;21527.520
781.560;13372.599;   -9.775;22632.658
782.129;13218.040;  -12.495;23048.277
782.698;12911.627;  -11.775;23438.555
783.267;13136.109;  -10.065;23267.734
783.836;13724.289;  -12.455;22415.133
784.404;14497.005;  -13.385;20443.152
784.973;15321.211;  -11.045;19699.150
785.542;14807.704;   -9.505;19763.828
786.111;13825.048;   -9.385;20341.408
786.679;13745.211;  -13.475;20207.967
787.248;13778.256;  -11.245;19516.465
787.817;11903.493;  -12.485;18900.363
788.385;10146.104;  -11.165;17879.121
788.954;10801.830;  -11.755;17658.301
789.522;11749.085;   -9.625;17788.879
790.090;11411.944;   -9.665;18118.277
790.659;10893.538;   -9.295;18338.736
791.227;11745.072;  -12.175;18508.615
791.795;13128.233;  -12.145;17898.254
792.364;13041.112;  -11.575;17295.133
792.932;11772.672;  -11.085;16822.051
793.500;10656.462;  -11.345;17040.148
794.068;10448.561;  -12.565;17179.787
794.636;11394.941;  -12.105;16664.246
795.204;11973.620;  -11.995;16524.545
795.772;11449.246;  -12.615;17274.564
796.340;11042.169;  -12.425;17891.002
796.908;10852.780;  -11.455;17648.561
797.476;10371.253;  -12.165;17064.080
798.044;10069.687;  -15.795;16672.777
798.612;10142.143;  -10.985;17023.996
799.180;10774.707;  -12.055;16561.615
799.747;11100.796;  -12.525;15962.773
800.315; 9948.520;  -14.765;15296.992
800.883; 8712.321;  -12.435;14801.771
801.450; 8581.970;  -11.295;14534.430
802.018; 9072.657;  -11.185;14173.248
802.585; 9082.357;  -11.625;14029.547
803.153; 8094.515;  -10.665;13836.846
803.720; 7653.324;  -10.275;13567.324
804.287; 7565.498;  -12.865;13360.622
804.855; 7796.178;  -12.324;13681.981
805.422; 8094.825;  -11.574;13536.560
805.989; 7940.440;  -11.004;13355.958
806.556; 8163.812;  -12.214;13747.896
807.124; 8608.723;  -13.304;13987.376
807.691; 8353.599;  -12.034;14038.674
808.258; 7679.779;  -11.014;14120.152
808.825; 7590.913;  -11.804;13860.111
809.392; 7536.142;  -11.544;13268.790
809.959; 7366.752;  -14.954;12680.389
810.526; 7717.701;  -10.214;12427.308
811.093; 8249.863;  -10.754;12030.105
811.659; 7903.519;  -12.194;11653.664
812.226; 6724.574;   -9.194;11637.183
812.793; 6354.001;   -9.644;11611.521
813.360; 7158.682;  -11.544;11885.181
813.926; 8035.230;  -12.814;12770.539
814.493; 8025.848;  -11.524;12677.638
815.060; 7700.943;  -12.254;11974.336
815.626; 7253.972;  -12.114;11594.715
816.193; 6889.687;  -11.994;11579.474
816.759; 6747.213;  -11.464;11666.972
817.325; 6449.087;  -10.444;11325.530
817.892; 6149.517;  -11.124;11105.369
818.458; 5993.568;  -11.864;10843.928
819.024; 6202.391;  -10.634;10714.406
819.591; 6292.616;  -10.554;10469.165
820.157; 6553.950;  -13.334;10235.523
820.723; 6839.016;  -13.044;10847.563
821.289; 6964.667;   -9.664;11040.980
821.855; 7138.281;  -10.994;10357.100
822.421; 7168.757;  -11.784; 9978.918
822.987; 7134.326;  -12.554; 9754.177
823.553; 7528.641;  -12.554;10065.755
824.119; 7409.696;   -8.544;10036.294
824.685; 6475.312;  -12.144;10029.192
825.251; 5918.405;  -12.754;10199.230
825.816; 5488.596;  -11.354; 9820.189
826.382; 5222.276;  -11.004; 9297.248
826.948; 5265.466;  -11.004; 9381.347
827.513; 5187.619;  -12.474; 9450.726
828.079; 5152.319;  -13.084; 9472.444
828.645; 5292.468;  -10.813; 9292.643
829.210; 5083.498;  -11.593; 9065.341
829.776; 5000.228;  -12.633; 9132.620
830.341; 5025.736;  -10.473; 9092.878
830.906; 4847.305;   -8.763; 9078.557
831.472; 4588.391;  -13.453; 8534.535
832.037; 4029.033;  -12.173; 8677.874
832.602; 3801.331;  -14.093; 8628.692
833.167; 4046.904;  -13.593; 8879.031
833.733; 4565.537;  -10.793; 9189.790
834.298; 4956.872;  -14.783; 9052.608
834.863; 4590.644;  -11.023; 8895.087
835.428; 4328.169;  -11.113; 8824.266
835.993; 4746.057;   -9.983; 8845.385
836.558; 4978.174;  -13.003; 8888.563
837.123; 4790.549;  -10.733; 8966.582
837.688; 4389.703;   -9.683; 8617.860
838.253; 4222.398;  -12.253; 8590.699
838.817; 4238.373;  -11.643; 8443.797
839.382; 4190.581;  -11.953; 8799.356
839.947; 4271.069;  -11.443; 8810.595
840.511; 4617.493;  -10.843; 8796.394
841.076; 4892.317;  -13.533; 8347.231
841.641; 4725.486;  -11.743; 8224.330
842.205; 4184.991;  -10.013; 8223.349
842.770; 3860.531;  -11.023; 8622.107
843.334; 3929.455;  -14.273; 8410.386
843.898; 4299.897;  -11.323; 8337.465
844.463; 4684.692;  -10.263; 8506.283
845.027; 4864.667;  -10.353; 8280.962
845.591; 4810.618;  -12.163; 8231.141
846.156; 4656.081;  -12.263; 7969.179
846.720; 4624.697;  -11.553; 7768.278
847.284; 4437.746;  -12.393; 7630.957
847.848; 3690.514;  -12.623; 7472.395
848.412; 3095.055;  -11.863; 7437.394
848.976; 3030.463;  -10.203; 7674.592
849.540; 3232.461;  -10.603; 7836.011
850.104; 3441.357;  -12.423; 7913.669
850.668; 3467.076;  -14.613; 7694.508
851.232; 3477.482;  -12.873; 7756.887
851.796; 3705.444;  -14.192; 7926.545
852.359; 3911.083;  -13.652; 7827.844
852.923; 3850.462;  -11.402; 7641.163
853.487; 3551.012;  -12.022; 7342.501
854.050; 3361.498;  -15.202; 7042.820
854.614; 3356.859;  -14.592; 7151.338
855.177; 3308.132;  -12.572; 7105.077
855.741; 3305.048;   -9.932; 6989.675
856.304; 3238.968;  -12.192; 6596.634
856.868; 3109.147;  -13.462; 6356.272
857.431; 3106.476;  -11.542; 6468.571
857.995; 3216.294;  -12.062; 6373.210
858.558; 3060.152;  -11.142; 6324.448
859.121; 2911.950;  -11.742; 6408.327
859.684; 2946.822;  -10.332; 6347.886
860.247; 3037.560;  -11.962; 6321.264
860.810; 3084.548;  -12.332; 6301.903
861.374; 2978.835;  -10.292; 6607.881
861.937; 2839.603;  -12.062; 6408.200
862.500; 2870.195;  -11.702; 6572.639
863.062; 2994.042;  -13.852; 6387.297
863.625; 3068.221;  -12.972; 6190.836
864.188; 3042.934;  -10.292; 5807.254
864.751; 2999.917;  -12.382; 5682.413
865.314; 2803.170;  -13.232; 5547.492
865.876; 2475.257;  -12.772; 5500.150
866.439; 2206.271;  -11.952; 5415.909
867.002; 2248.208;   -9.332; 5501.567
867.564; 2568.499;  -11.712; 5413.946
868.127; 2740.442;  -12.012; 5160.325
868.689; 2446.154;  -11.882; 5133.183
869.252; 2104.295;  -11.572; 5252.382
869.814; 1995.210;  -10.692; 5297.141
870.377; 2031.012;  -12.392; 5390.919
870.939; 2088.958;  -10.582; 5599.898
871.501; 2126.703;  -12.782; 5248.336
872.063; 2148.296;  -15.612; 4854.235
872.626; 2199.122;  -13.922; 4817.074
873.188; 2184.687;  -13.832; 4987.732
873.750; 2129.261;  -10.962; 4868.651
874.312; 2177.921;  -11.022; 4779.330
874.874; 2235.825;  -13.152; 4866.348
875.436; 2178.408;  -13.401; 4718.887
875.998; 2075.755;   -8.891; 4660.005
876.560; 1976.181;  -12.591; 4462.964
877.122; 1898.502;  -14.531; 4145.042
877.683; 1847.419;  -10.781; 4056.481
878.245; 1759.063;  -14.281; 3950.740
878.807; 1705.319;  -10.311; 4058.958
879.369; 1660.849;  -13.201; 3954.677
879.930; 1623.449;  -12.061; 3941.495
880.492; 1619.448;   -9.181; 4067.014
881.053; 1640.904;  -12.051; 3859.633
881.615; 1610.232;  -11.501; 3776.071
882.176; 1516.216;  -12.221; 3734.750
882.738; 1409.264;   -8.931; 3678.489
883.299; 1341.645;  -13.571; 3405.407
883.860; 1346.412;  -12.331; 3351.106
884.422; 1289.517;  -10.201; 3394.044
884.983; 1161.858;  -12.521; 3166.443
885.544; 1047.534;  -12.291; 3189.802
886.105;  990.975;  -12.991; 3160.360
886.666;  973.517;  -12.901; 3093.059
887.227;  966.888;  -12.061; 2941.957
887.788;  941.707;  -11.641; 2974.836
888.349;  892.317;  -14.691; 2721.214
888.910;  845.223;   -9.681; 2696.493
889.471;  841.042;   -9.971; 2560.172
890.032;  855.894;  -13.151; 2558.190
890.593;  834.710;  -12.051; 2567.669
891.153;  790.473;  -12.841; 2460.307
891.714;  756.036;  -13.561; 2372.046
892.275;  726.981;  -12.401; 2309.505
892.835;  692.706;  -13.191; 2382.543
893.396;  653.959;  -12.551; 2295.502
893.956;  631.830;  -11.981; 2162.420
894.517;  615.452;  -12.221; 2125.439
895.077;  582.626;  -12.021; 2086.978
895.638;  525.548;  -10.891; 2126.316
896.198;  472.254;  -13.171; 1838.275
896.758;  440.234;  -11.891; 1892.813
897.319;  419.182;  -12.491; 1792.232
897.879;  405.124;  -12.401; 1762.751
898.439;  376.965;  -13.431; 1661.149
898.999;  357.385;  -11.340; 1781.468
899.559;  349.342;  -13.930; 1703.347
900.119;  330.863;  -13.730; 1537.525
900.679;  311.325;   -9.210; 1638.384
901.239;  294.778;  -10.860; 1527.902
901.799;  278.466;  -11.450; 1456.441
902.359;  259.012;  -13.800; 1357.140
902.919;  253.975;  -12.130; 1331.118
903.479;  256.211;  -12.650; 1317.257
904.038;  251.419;  -16.110; 1262.595
904.598;  237.077;  -13.690; 1152.034
905.158;  224.928;  -10.290; 1240.893
905.717;  218.176;  -10.670; 1233.691
906.277;  218.015;  -14.040; 1217.330
906.836;  217.459;  -13.510; 1222.408
907.396;  212.375;  -11.530; 1193.047
907.955;  200.968;  -13.190; 1182.526
908.515;  190.099;  -12.950; 1099.364
909.074;  181.086;  -12.390; 1092.863
909.633;  175.869;  -10.340; 1069.121
910.192;  175.267;  -11.170; 1196.460
910.752;  170.779;  -14.200; 1029.960
911.311;  164.444;  -13.810; 1009.780
911.870;  161.965;  -12.750;  971.460
912.429;  161.263;  -12.380; 1094.080
912.988;  159.355;  -11.930; 1081.060
913.547;  153.219;  -10.990;  940.380
914.106;  150.764;  -11.200;  999.420
914.665;  148.939;  -13.150;  984.020
915.224;  146.478;  -13.310; 1035.760
915.782;  144.680;  -13.340;  922.560
916.341;  144.324;  -10.710; 1049.840
916.900;  141.790;  -12.980;  925.260
917.458;  140.088;  -13.060;  884.220
918.017;  138.276;  -10.900;  942.600
918.576;  137.121;  -11.630;  904.440
919.134;  136.999;  -12.860;  837.980
919.693;  138.200;  -15.160;  893.060
920.251;  136.468;  -13.470;  876.500
920.809;  135.831;  -13.700;  839.580
921.368;  136.691;  -13.420;  885.360
921.926;  137.960;  -14.710;  842.940
922.484;  137.931;  -12.560;  903.360
923.042;  136.272;  -11.930;  880.340
923.601;  136.753;  -10.270;  998.680
924.159;  136.446;  -12.960;  935.560
924.717;  135.160;  -13.040;  841.080
925.275;  137.011;  -12.560;  903.240
925.833;  137.626;  -13.040;  779.320
926.391;  139.659;  -13.360;  938.380
926.949;  137.574;  -13.940;  857.680
927.506;  139.087;   -9.400;  903.500
928.064;  139.280;  -10.940;  877.580
928.622;  139.167;  -13.180;  880.100
929.180;  138.468;  -12.730;  814.180
929.737;  139.564;  -12.840;  808.540
930.295;  142.562;  -11.810;  928.480
930.853;  147.423;  -13.650;  849.100
931.410;  148.747;  -13.580;  821.120
931.968;  149.024;  -12.020;  940.660
932.525;  149.893;  -13.320;  909.380
933.082;  152.024;  -13.800;  811.440
933.640;  156.141;  -11.380;  925.900
934.197;  158.878;  -11.480;  886.360
934.754;  161.438;  -13.220;  897.780
935.312;  161.915;  -14.950;  863.340
935.869;  158.257;  -10.940; 1012.980
936.426;  153.491;  -12.100;  872.800
936.983;  154.006;  -12.930;  889.020
937.540;  155.002;  -14.250;  838.280
938.097;  159.074;  -12.600;  940.120
938.654;  165.121;  -11.260;  898.860
939.211;  169.235;  -13.020;  952.480
939.768;  172.117;  -15.760;  915.420
940.324;  172.523;  -13.920;  904.200
940.881;  167.421;  -11.620;  878.500
941.438;  165.357;   -9.870; 1021.200
941.995;  163.850;  -13.920;  992.560
942.551;  160.651;  -12.830;  875.620
943.108;  162.407;  -11.980;  937.920
943.664;  165.013;  -13.740;  869.340
944.221;  171.092;  -12.670; 1088.140
944.777;  168.356;  -13.250;  869.680
945.334;  168.145;  -13.000;  884.840
945.890;  167.941;  -13.020;  946.480
946.446;  169.813;  -13.880;  947.020
947.003;  171.792;  -12.660;  964.940
947.559;  172.164;   -8.730; 1063.040
948.115;  169.031;  -11.960; 1026.540
948.671;  166.021;  -12.360;  967.300
949.227;  161.699;  -12.700;  859.560
949.783;  157.305;  -13.450;  858.900
950.339;  156.631;  -10.620;  991.000
950.895;  153.425;  -14.770; 1023.840
951.451;  150.755;  -13.650;  925.280
952.007;  150.521;  -11.180;  998.540
952.563;  149.944;  -11.680;  937.780
953.118;  148.772;  -13.280;  904.940
953.674;  151.754;  -12.510;  935.780
954.230;  151.439;  -12.220;  949.640
954.785;  148.226;  -12.190;  936.640
955.341;  142.092;  -12.270;  998.160
955.897;  136.589;  -14.900;  834.660
956.452;  136.423;  -12.520;  953.840
957.008;  137.691;   -9.410; 1083.640
957.563;  135.748;  -11.280; 1009.540
958.118;  133.493;  -13.470;  877.700
958.674;  133.539;  -12.190;  946.780
959.229;  136.023;  -12.760; 1013.980
959.784;  141.007;  -15.710;  832.400
960.339;  147.640;  -12.540; 1001.280
960.894;  147.959;  -11.680;  963.760
961.449;  144.389;  -11.410;  859.960
962.004;  143.642;  -10.430; 1212.840
962.559;  135.898;  -14.040;  860.140
963.114;  134.220;  -14.270;  742.480
963.669;  135.964;  -11.320;  915.500
964.224;  135.268;  -14.620;  874.340
964.779;  132.197;  -14.150;  828.420
965.334;  132.009;  -10.850; 1017.860
965.888;  130.567;  -14.530;  875.360
966.443;  133.119;  -13.520;  972.380
966.998;  129.028;  -13.370;  819.460
967.552;  125.854;   -9.960;  908.380
968.107;  121.794;  -12.360;  868.300
968.661;  122.627;  -12.270;  922.440
969.216;  122.111;  -12.140;  856.280
969.770;  121.923;  -11.860;  917.200
970.324;  122.116;  -12.170;  923.140
970.879;  120.182;  -14.160;  947.180
971.433;  117.879;  -12.940;  952.720
971.987;  113.906;  -10.180;  895.340
972.541;  113.461;  -12.130;  917.100
973.095;  113.210;  -14.980; 1009.460
973.649;  111.560;  -14.480;  809.480
974.203;  113.136;  -13.530;  829.040
974.757;  115.019;  -12.060;  855.220
975.311;  113.155;  -13.240;  872.600
975.865;  110.522;  -12.550;  881.820
976.419;  108.996;  -13.180;  857.400
976.973;  109.221;  -14.100;  849.620
977.526;  109.565;  -13.330;  949.920
978.080;  104.335;  -15.390;  796.780
978.634;  104.766;  -11.670;  921.320
979.187;  101.691;  -10.640;  905.400
979.741;  101.917;  -13.330; 1018.380
980.294;   98.341;  -14.480;  789.160
980.848;   95.627;  -13.420;  717.220
981.401;   94.353;  -12.360;  816.540
981.955;   93.365;  -12.480;  844.300
982.508;   89.109;  -14.000;  746.340
983.061;   89.015;  -10.440;  915.260
983.615;   85.314;  -14.340;  798.800
984.168;   83.112;  -14.950;  770.080
984.721;   82.355;  -13.270;  880.760
985.274;   81.415;  -12.240;  867.500
985.827;   78.574;  -12.720;  834.220
986.380;   75.187;  -14.920;  721.340
986.933;   74.273;  -12.860;  864.800
987.486;   72.903;  -10.440;  861.920
988.039;   73.078;  -11.820;  863.100
988.591;   71.889;  -13.760;  893.260
989.144;   69.394;  -14.080;  737.260
989.697;   69.655;  -13.440;  758.740
990.250;   71.357;  -12.050;  858.100
990.802;   69.669;  -14.550;  755.860
991.355;   69.868;  -10.770;  974.880
991.907;   67.665;  -11.710;  864.320
992.460;   65.463;  -12.650;  753.760
993.012;   63.630;  -13.860;  749.540
993.565;   61.856;  -14.310;  711.360
994.117;   62.872;   -9.920;  950.780
994.669;   58.786;  -13.420;  701.320
995.221;   58.650;  -14.200;  791.920
995.774;   57.599;  -13.400;  787.580
996.326;   56.929;  -11.850;  740.220
996.878;   56.362;  -12.230;  838.420
997.430;   54.763;  -14.260;  699.860
997.982;   53.748;  -11.430;  750.140
998.534;   53.838;  -11.590;  739.060
999.086;   52.700;  -11.960;  738.220
999.638;   52.815;  -13.640;  661.380
1000.190;   51.345;  -13.660;  699.320
1000.741;   51.182;   -9.980;  742.700
1001.293;   50.445;  -11.860;  686.020
1001.845;   49.479;  -14.280;  676.640
1002.396;   49.234;  -12.270;  743.400
1002.948;   48.847;  -13.670;  737.400
1003.500;   48.343;  -12.010;  723.780
1004.051;   49.175;  -11.890;  907.580
1004.603;   47.214;  -11.220;  791.820
1005.154;   44.252;  -13.210;  608.980
1005.705;   43.378;  -11.850;  723.960
1006.257;   43.355;  -13.670;  707.220
1006.808;   42.762;  -12.060;  685.460
1007.359;   41.830;  -10.250;  763.240
1007.910;   40.397;  -13.440;  646.640
1008.461;   41.129;  -13.170;  732.940
1009.013;   38.772;  -14.590;  588.340
1009.564;   40.250;  -12.100;  793.520
1010.115;   37.663;  -14.000;  597.040
1010.665;   37.712;  -15.020;  602.160
1011.216;   38.067;  -12.560;  667.920
1011.767;   37.741;  -11.330;  697.920
1012.318;   37.417;  -11.450;  736.980
1012.869;   37.006;  -11.000;  679.000
1013.419;   36.374;  -11.760;  603.120
1013.970;   36.500;  -11.800;  666.640
1014.521;   35.568;  -14.750;  620.620
1015.071;   36.432;  -14.430;  670.380
1015.622;   35.410;  -14.170;  635.460
1016.172;   34.631;  -11.700;  596.820
1016.723;   34.351;  -13.230;  614.380
1017.273;   35.011;  -16.120;  604.160
1017.823;   34.033;  -13.360;  650.340
1018.374;   33.887;  -13.710;  611.760
1018.924;   34.226;  -11.050;  716.880
1019.474;   34.862;  -14.120;  718.880
1020.024;   33.034;  -12.990;  657.580
1020.574;   34.455;  -12.010;  726.160
1021.124;   34.028;  -12.080;  673.580
1021.674;   32.071;  -15.860;  559.120
1022.224;   33.420;  -11.710;  708.940
1022.774;   31.838;  -13.030;  668.820
1023.324;   33.081;  -11.000;  753.520
1023.874;   34.230;  -13.270;  875.760
1024.423;   31.427;  -14.570;  613.700
1024.973;   30.377;  -12.620;  610.760
1025.523;   30.529;  -12.630;  620.960
1026.072;   30.625;  -14.110;  606.420
1026.622;   30.790;  -15.390;  675.740
1027.172;   31.530;   -9.090;  715.660
1027.721;   30.214;  -12.250;  601.220
1028.270;   30.765;  -15.590;  663.400
1028.820;   29.613;  -13.840;  638.080
1029.369;   29.235;  -13.170;  612.700
1029.918;   30.142;  -14.080;  649.840
1030.468;   29.182;  -13.860;  564.780
1031.017;   29.519;  -12.970;  634.800
1031.566;   27.721;  -12.320;  608.900
1032.115;   29.033;  -13.140;  694.500
1032.664;   27.745;  -14.560;  596.480
1033.213;   28.726;  -11.620;  735.420
1033.762;   27.869;  -13.190;  635.620
1034.311;   27.233;  -13.460;  677.220
1034.860;   29.046;  -15.770;  691.000
1035.408;   28.018;  -13.100;  722.720
1035.957;   28.186;  -12.880;  719.540
1036.506;   25.973;  -13.640;  530.800
1037.055;   29.976;  -12.420;  844.320
1037.603;   26.757;  -13.740;  664.000
1038.152;   25.448;  -13.840;  534.760
1038.700;   26.245;  -10.770;  585.740
1039.249;   27.231;  -13.520;  681.220
1039.797;   26.111;  -13.060;  633.360
1040.345;   25.511;  -11.760;  705.420
1040.894;   25.781;  -10.790;  625.300
1041.442;   25.809;  -15.420;  632.200
1041.990;   24.169;  -14.550;  559.160
1042.538;   23.453;  -15.620;  536.180
1043.087;   23.770;  -14.940;  570.860
1043.635;   25.911;  -12.100;  670.500
1044.183;   24.143;  -13.200;  586.400
1044.731;   23.802;  -11.630;  576.000
1045.279;   23.617;  -14.200;  674.920
1045.827;   26.602;  -12.510;  892.400
1046.374;   23.056;  -14.960;  515.420
1046.922;   21.952;  -11.850;  590.580
1047.470;   23.787;  -13.770;  691.300
1048.018;   24.503;  -15.380;  647.960
1048.565;   24.463;  -14.010;  708.600
1049.113;   21.714;  -14.620;  557.000
1049.660;   22.469;  -14.940;  629.660
1050.208;   23.617;  -14.540;  675.640
1050.755;   22.559;  -13.710;  606.580
1051.303;   23.022;  -11.880;  686.820
1051.850;   22.095;  -12.160;  635.120
1052.397;   21.014;  -15.110;  473.960
1052.945;   20.926;  -14.770;  617.760
1053.492;   22.438;  -12.320;  741.840
1054.039;   22.122;  -13.290;  720.180
1054.586;   21.620;  -15.210;  557.240
1055.133;   22.455;  -12.920;  693.140
1055.680;   22.090;  -12.610;  646.620
1056.227;   20.612;  -12.620;  542.780
1056.774;   23.158;  -13.010;  794.980
1057.321;   20.408;  -16.180;  523.260
1057.868;   20.149;  -11.230;  651.320
1058.415;   20.210;  -10.890;  651.980
1058.961;   20.657;  -12.530;  678.940
1059.508;   20.491;  -14.120;  643.820
1060.055;   19.967;  -13.340;  581.780
1060.601;   20.393;  -12.920;  624.300
1061.148;   19.547;  -14.430;  616.820
1061.694;   18.928;  -14.140;  592.580
1062.241;   19.144;  -12.550;  596.320
1062.787;   19.723;  -13.370;  663.140
1063.334;   21.985;  -12.260;  808.560
1063.880;   20.298;  -10.800;  668.360
1064.426;   19.467;   -9.920;  706.820
1064.972;   18.506;  -12.970;  601.340
1065.518;   18.309;  -14.440;  566.640
1066.065;   18.168;  -12.680;  624.460
1066.611;   17.336;  -13.520;  598.800
1067.157;   18.163;  -11.100;  641.860
1067.703;   18.624;  -14.100;  668.480
1068.249;   18.082;  -13.750;  605.220
1068.794;   17.833;  -11.070;  626.880
1069.340;   16.996;  -13.210;  578.960
1069.886;   18.145;  -14.850;  590.700
1070.432;   16.382;  -14.580;  541.720
1070.977;   16.233;  -12.930;  601.080
1071.523;   16.734;  -11.970;  573.060
1072.068;   17.879;  -13.730;  582.000
1072.614;   16.236;  -14.550;  527.760
1073.160;   17.788;  -13.690;  687.040
1073.705;   15.969;  -14.780;  572.520
1074.250;   16.567;  -15.430;  559.900
1074.796;   17.330;  -11.620;  655.160
1075.341;   17.273;  -11.580;  664.100
1075.886;   16.182;  -13.190;  594.240
1076.431;   17.016;  -13.630;  649.880
1076.976;   15.801;  -11.670;  639.220
1077.521;   15.321;  -11.600;  583.080
1078.067;   14.259;  -13.920;  579.400
1078.612;   15.564;  -12.910;  661.620
1079.156;   15.338;  -15.340;  601.540
1079.701;   15.594;  -12.560;  693.260
1080.246;   16.428;  -12.490;  696.300
1080.791;   16.232;  -14.550;  625.020
1081.336;   15.370;  -15.210;  659.320
1081.880;   15.227;  -11.280;  649.680
1082.425;   13.985;  -12.830;  573.480
1082.970;   16.015;  -11.680;  717.040
1083.514;   14.479;  -15.500;  597.000
1084.059;   13.919;  -11.770;  586.720
1084.603;   12.893;  -13.480;  565.840
1085.147;   14.702;  -13.940;  645.220
1085.692;   14.974;  -13.170;  716.800
1086.236;   12.525;  -15.740;  503.140
1086.780;   14.970;  -10.750;  751.440
1087.325;   14.478;  -14.900;  654.620
1087.869;   13.713;  -15.160;  610.700
1088.413;   14.382;  -11.030;  705.040
1088.957;   12.034;  -15.210;  543.400
1089.501;   15.351;  -12.310;  766.640
1090.045;   13.859;  -12.790;  726.480
1090.589;   11.231;  -14.040;  569.920
1091.133;   12.639;  -12.800;  673.340
1091.676;   13.047;  -13.600;  591.940
1092.220;   12.178;  -12.960;  600.920
1092.764;   13.518;  -10.830;  706.960
1093.307;   11.980;  -12.390;  673.780
1093.851;   12.201;  -15.850;  556.540
1094.395;   12.585;  -12.980;  683.140
1094.938;   12.189;  -13.670;  632.520
1095.482;   11.258;  -12.740;  559.800
1096.025;   12.920;  -13.340;  710.880
1096.568;   13.256;  -10.500;  779.280
1097.112;    8.943;  -13.500;  508.180
1097.655;   11.829;  -13.060;  603.000
1098.198;   10.308;  -13.240;  600.180
1098.741;   10.494;  -15.490;  612.860
1099.285;   11.600;  -13.410;  657.300
1099.828;    8.834;  -15.640;  439.400
1100.371;   11.130;  -13.980;  608.160
1100.914;   11.096;  -13.990;  682.660
1101.457;   11.154;  -15.030;  679.900
1101.999;    9.303;  -12.480;  584.680
1102.542;   11.571;  -12.410;  641.440
1103.085;   10.572;  -14.730;  658.500
1103.628;   11.924;  -12.190;  762.060
1104.170;    9.731;  -12.360;  588.280
1104.713;   10.439;  -13.350;  646.700
1105.256;    9.273;  -14.930;  557.440
1105.798;    7.699;  -15.150;  499.980
1106.341;   10.649;  -13.230;  728.900
1106.883;    9.493;  -14.680;  521.340
1107.425;    9.423;  -14.810;  668.180
1107.968;    9.173;  -12.940;  612.380
1108.510;    9.455;  -10.550;  684.960
1109.052;    8.713;  -15.640;  612.620
1109.594;    8.367;  -14.440;  554.440
1110.136;    9.354;  -11.380;  643.220
1110.679;    7.655;  -13.090;  633.080
1111.221;    9.081;  -14.230;  604.460
1111.763;    8.240;  -14.260;  559.220
1112.304;    7.544;  -14.510;  547.140
1112.846;    8.480;  -14.700;  666.240
1113.388;   11.906;  -12.270;  942.180
1113.930;    8.581;  -13.340;  694.200
1114.472;    7.727;  -12.560;  606.540
1115.013;    6.510;  -14.280;  551.280
1115.555;    7.659;  -14.010;  587.100
1116.097;    6.800;  -14.730;  579.480
1116.638;    7.121;  -12.160;  684.600
1117.180;    7.667;  -14.320;  667.740
1117.721;    7.472;  -15.730;  568.580
1118.262;    8.226;  -13.480;  677.960
1118.804;    7.624;  -11.530;  637.340
1119.345;    6.656;  -13.540;  578.400
1119.886;    9.104;  -14.470;  704.040
1120.427;    6.246;  -13.030;  589.020
1120.969;    5.808;  -13.150;  597.920
1121.510;    5.368;  -13.940;  563.060
1122.051;    7.431;  -12.310;  723.580
1122.592;    5.878;  -13.870;  655.420
1123.133;    4.776;  -12.890;  547.940
1123.673;    6.224;  -13.300;  706.480
1124.214;    6.599;  -14.000;  612.460
1124.755;    6.825;  -13.210;  639.460
1125.296;    6.088;  -13.450;  627.320
1125.836;    6.911;  -12.610;  691.500
1126.377;    5.285;  -15.840;  599.660
1126.918;    6.476;  -11.830;  614.980
1127.458;    5.048;  -11.830;  622.220
1127.999;    6.159;  -11.490;  656.980
1128.539;    6.547;  -12.900;  694.240
1129.079;    5.228;  -14.910;  632.720
1129.620;    4.592;  -12.920;  558.100
1130.160;    4.463;  -14.640;  539.480
1130.700;    5.957;  -13.270;  640.840
1131.240;    6.076;  -14.110;  643.700
1131.781;    4.498;  -13.130;  619.680
1132.321;    4.704;  -15.220;  599.120
1132.861;    4.352;  -15.670;  564.200
1133.401;    3.822;  -13.970;  593.940
1133.941;    5.031;  -13.740;  626.280
1134.481;    3.730;  -13.200;  597.580
1135.020;    4.794;  -14.830;  609.160
1135.560;    4.709;  -14.590;  674.940
1136.100;    3.223;  -13.730;  501.160
1136.640;    2.693;  -15.240;  510.480
1137.179;    3.538;  -14.710;  537.960
1137.719;    3.670;  -14.090;  605.400
1138.258;    3.336;  -12.470;  587.360
1138.798;    4.132;  -12.580;  663.780
1139.337;    2.463;  -16.480;  482.840
1139.877;    3.946;  -13.970;  642.360
1140.416;    6.057;   -9.870;  878.060
1140.955;    2.618;  -14.860;  535.380
1141.494;    4.143;  -14.530;  669.280
1142.034;    2.078;  -13.940;  583.520
1142.573;    3.767;  -11.160;  646.280
1143.112;    2.508;  -15.050;  553.480
1143.651;    2.787;  -15.390;  536.480
1144.190;    4.267;  -12.990;  691.640
1144.729;    2.716;  -12.220;  607.420
1145.267;    3.054;  -14.020;  584.900
1145.806;    4.405;  -12.740;  637.040
1146.345;    2.550;  -14.810;  635.020
1146.884;    2.080;  -12.920;  622.500
1147.422;    1.796;  -13.930;  533.060
1147.961;    4.061;  -11.830;  708.460
1148.500;    2.861;  -12.710;  669.720
1149.038;    3.221;  -14.420;  632.500
1149.577;    2.241;  -13.920;  698.640
1150.115;    1.065;  -17.050;  452.280
1150.653;    2.420;  -14.890;  607.340
1151.192;    2.431;  -15.270;  552.920
1151.730;    2.490;  -13.160;  652.560
1152.268;    2.421;  -15.430;  589.520
1152.806;    1.137;  -15.880;  571.180
1153.344;    0.725;  -13.240;  577.640
1153.882;    1.591;  -13.010;  600.060
1154.421;    0.159;  -16.180;  470.620
1154.958;    0.393;  -13.880;  595.240
1155.496;    2.125;  -13.590;  645.280
1156.034;    1.822;  -11.910;  721.880
1156.572;    2.710;  -12.010;  667.060
1157.110;    0.051;  -16.250;  473.940
1157.647;    1.554;  -15.230;  676.960
1158.185;    0.728;  -13.770;  564.320
1158.723;   -0.416;  -15.300;  509.200
1159.260;    1.041;  -13.130;  701.700
1159.798;    1.629;  -11.300;  658.160
1160.335;    0.279;  -13.210;  631.820

