
Integration time [ms]:   3.276
Averaging Nr. [scans]: 1000
Smoothing Nr. [pixels]: 0
Data measured with spectrometer [name]: 7414430SP
Wave   ;Sample   ;Dark     ;Reference
[nm]   ;[counts] ;[counts] ;[counts] 

288.544;  153.164;    7.793;  793.890
289.143;  156.441;    7.462;  681.602
289.742;  156.936;    8.602;  828.814
290.341;  144.098;    1.321;  789.841
290.940;  134.633;   -0.709;  730.702
291.538;  136.824;    0.881;  881.108
292.137;  135.287;    0.122;  792.581
292.736;  138.698;   -1.929;  975.101
293.335;  134.530;   -8.229;  735.086
293.934;  135.472;   -5.279;  781.677
294.532;  134.379;   -1.369; 1031.958
295.131;  121.161;   -7.641;  834.394
295.730;  121.284;   -8.420;  809.588
296.328;  120.323;   -5.611;  783.442
296.927;  119.425;   -5.781;  779.652
297.525;  118.571;   -6.361;  781.236
298.124;  110.151;  -11.382;  654.009
298.722;  115.361;   -7.641;  761.933
299.321;  113.027;   -6.811;  708.597
299.919;  109.855;   -6.991;  751.918
300.518;  106.082;  -10.362;  689.338
301.116;  108.554;   -9.581;  691.381
301.715;  109.229;   -4.891;  730.222
302.313;  107.853;   -8.801;  704.943
302.911;  103.277;   -8.522;  733.830
303.509;  108.607;   -6.171;  925.627
304.108;  105.443;   -7.311;  760.383
304.706;  104.176;   -8.321;  801.664
305.304;   99.191;  -10.222;  796.707
305.902;  104.929;   -6.021;  784.484
306.500;   99.972;   -4.971;  728.200
307.098;   98.264;   -7.061;  746.560
307.696;   96.898;   -8.801;  780.432
308.294;   97.930;   -6.411;  731.359
308.892;   99.394;   -2.901;  759.769
309.490;   95.089;   -5.041;  712.161
310.088;   93.441;   -5.002;  788.444
310.686;   98.114;   -2.041;  821.749
311.284;   93.886;   -2.351;  766.040
311.882;   90.666;   -4.422;  731.225
312.480;   87.593;   -4.192;  697.167
313.078;   89.952;   -1.172;  808.331
313.675;   91.271;   -2.601;  691.600
314.273;   84.223;   -1.312;  797.837
314.871;   84.352;   -3.942;  589.829
315.468;   83.009;   -2.802;  652.090
316.066;   85.271;   -0.701;  694.427
316.664;   77.493;   -4.362;  656.351
317.261;   81.772;   -2.872;  910.128
317.859;   78.625;   -2.022;  768.735
318.456;   78.157;   -0.531;  830.096
319.054;   73.536;   -3.912;  787.828
319.651;   73.219;   -4.752;  759.928
320.249;   72.379;   -2.602;  810.188
320.846;   70.299;   -0.821;  714.286
321.443;   65.981;   -4.642;  832.135
322.041;   64.070;   -5.002;  812.315
322.638;   62.193;   -3.982;  701.456
323.235;   63.465;   -3.411;  665.683
323.833;   59.691;   -7.361;  740.354
324.430;   54.640;   -8.611;  615.900
325.027;   56.386;   -4.061;  876.855
325.624;   56.179;   -4.031;  644.532
326.221;   52.876;   -7.481;  689.717
326.818;   52.052;   -5.281;  818.332
327.415;   55.800;   -7.460;  748.828
328.012;   54.391;   -5.510;  690.585
328.609;   52.722;   -7.880;  731.389
329.206;   51.095;   -8.331;  778.621
329.803;   51.613;   -5.121;  737.841
330.400;   54.231;   -4.510;  704.260
330.997;   56.631;   -6.441;  817.147
331.594;   54.247;   -8.831;  788.185
332.191;   59.730;   -7.621;  728.722
332.787;   62.562;   -4.591;  844.463
333.384;   61.749;   -7.412;  763.093
333.981;   58.741;   -8.293;  815.687
334.578;   62.970;   -7.052;  708.378
335.174;   65.228;   -3.102;  731.469
335.771;   64.561;   -5.943;  836.456
336.367;   61.608;   -7.393;  710.631
336.964;   65.924;   -4.063;  793.266
337.561;   63.830;   -3.813;  731.112
338.157;   59.812;   -4.654;  911.916
338.754;   58.480;   -7.934;  796.589
339.350;   57.356;   -4.414;  722.493
339.946;   57.890;   -4.664;  773.135
340.543;   50.308;   -6.375;  846.136
341.139;   45.415;   -9.815;  720.836
341.735;   42.307;   -4.526;  772.593
342.332;   41.505;   -4.895;  691.472
342.928;   40.987;   -4.295;  795.394
343.524;   35.313;   -5.476;  761.684
344.120;   30.403;   -5.856;  738.562
344.716;   35.068;   -2.155;  723.717
345.313;   31.877;   -6.275;  795.342
345.909;   26.839;   -8.815;  627.336
346.505;   29.139;   -5.305;  740.247
347.101;   29.601;   -2.674;  827.864
347.697;   28.699;   -4.344;  785.398
348.293;   23.927;   -9.975;  627.244
348.889;   25.735;   -5.774;  745.914
349.485;   23.928;   -5.004;  688.205
350.081;   24.601;   -4.704;  772.592
350.676;   20.028;   -6.635;  691.606
351.272;   24.625;   -4.504;  809.530
351.868;   23.607;   -3.914;  780.497
352.464;   20.683;   -9.044;  723.932
353.059;   17.334;   -8.314;  646.017
353.655;   20.912;   -7.024;  777.063
354.251;   21.305;   -5.343;  759.845
354.846;   15.534;   -8.604;  740.646
355.442;   14.451;   -6.945;  753.071
356.038;   16.365;   -7.564;  751.708
356.633;   16.404;   -5.814;  728.594
357.229;   13.646;   -7.364;  724.757
357.824;   11.915;   -8.024;  703.600
358.420;   11.798;   -9.384;  679.726
359.015;   11.842;   -5.104;  695.357
359.610;   12.387;   -6.854;  763.920
360.206;    7.091;  -10.185;  603.240
360.801;    9.666;   -7.054;  646.503
361.396;   11.405;   -5.034;  725.975
361.992;    6.357;   -8.284;  668.220
362.587;    4.016;   -8.625;  670.160
363.182;    6.884;   -7.674;  689.631
363.777;    7.660;   -5.164;  738.242
364.372;    6.698;   -8.604;  737.314
364.967;    2.776;   -9.055;  680.744
365.563;    8.250;   -6.114;  815.567
366.158;    4.991;   -5.814;  685.161
366.753;    5.230;   -7.854;  649.263
367.348;    3.518;   -7.804;  746.056
367.942;    3.872;   -7.954;  697.298
368.537;    2.235;   -4.984;  754.245
369.132;    1.858;   -8.564;  703.428
369.727;   -1.353;   -8.855;  638.079
370.322;    0.253;   -6.245;  580.186
370.917;   -0.239;   -6.425;  710.646
371.511;    1.984;   -6.294;  861.834
372.106;   -1.480;   -7.685;  776.964
372.701;   -3.879;   -7.335;  585.988
373.296;    0.805;   -4.564;  863.135
373.890;   -5.034;  -10.235;  647.840
374.485;   -5.796;   -7.885;  691.199
375.079;   -1.259;   -7.324;  738.685
375.674;    0.016;   -3.494;  812.970
376.268;   -5.796;   -8.525;  691.759
376.863;  -10.047;  -10.086;  580.327
377.457;   -4.296;   -7.025;  662.490
378.052;   -6.307;   -3.585;  764.884
378.646;   -7.313;   -7.595;  741.167
379.240;   -8.271;   -8.335;  721.176
379.835;   -6.341;   -5.785;  636.978
380.429;   -9.019;   -4.335;  562.557
381.023;   -9.225;   -6.805;  779.205
381.617;  -11.141;   -9.195;  680.106
382.212;   -7.499;   -6.905;  685.303
382.806;   -6.976;   -3.745;  760.690
383.400;  -11.885;   -7.745;  672.281
383.994;  -12.080;   -9.765;  664.870
384.588;   -8.065;   -6.564;  697.701
385.182;   -6.942;   -5.344;  726.624
385.776;   -9.277;   -8.514;  706.875
386.370;  -12.093;   -9.555;  681.968
386.964;  -10.327;   -8.715;  684.155
387.558;   -8.778;   -6.174;  598.360
388.152;  -12.278;   -8.725;  681.959
388.745;  -10.504;   -7.965;  814.707
389.339;   -9.054;   -5.924;  747.642
389.933;   -8.806;   -5.524;  695.370
390.527;   -9.206;   -7.114;  859.029
391.120;  -16.113;  -10.725;  595.318
391.714;  -12.514;   -8.035;  711.633
392.308;  -10.035;   -3.574;  780.253
392.901;  -13.029;   -7.245;  642.460
393.495;  -15.030;   -9.285;  595.414
394.089;  -12.640;   -5.895;  760.452
394.682;  -12.959;   -4.295;  697.188
395.275;  -14.362;   -9.875;  719.927
395.869;  -15.140;   -8.485;  667.314
396.462;  -13.087;   -7.455;  616.609
397.056;   -9.268;   -5.424;  776.621
397.649;  -15.096;   -6.605;  731.575
398.242;  -12.677;   -8.224;  712.645
398.836;  -10.575;   -7.474;  766.408
399.429;  -12.204;   -7.094;  631.041
400.022;  -16.081;   -9.475;  665.902
400.615;  -13.232;   -7.145;  805.609
401.208;  -11.053;   -7.174;  691.451
401.802;  -13.222;   -5.515;  699.329
402.395;  -15.179;   -9.875;  683.502
402.988;  -16.208;   -8.845;  696.627
403.581;  -12.044;   -8.874;  646.878
404.174;  -10.232;   -5.324;  686.568
404.767;  -13.259;   -9.575;  638.583
405.360;  -15.404;  -10.965;  621.445
405.953;  -10.489;   -8.764;  759.034
406.545;   -9.204;   -7.514;  725.342
407.138;  -14.722;  -10.025;  618.350
407.731;  -12.500;  -10.034;  613.303
408.324;   -8.440;   -9.374;  660.554
408.917;   -9.704;   -6.534;  681.864
409.509;  -12.589;   -8.004;  740.396
410.102;  -13.441;   -9.875;  643.948
410.695;   -7.884;   -8.604;  665.758
411.287;   -8.437;   -6.794;  599.821
411.880;  -10.080;   -9.334;  585.421
412.472;  -13.112;  -10.254;  613.092
413.065;   -9.153;   -6.714;  629.408
413.657;   -8.201;   -7.234;  576.678
414.250;   -8.410;  -10.544;  646.681
414.842;  -10.068;   -9.744;  676.353
415.434;   -7.425;   -6.994;  570.463
416.027;   -3.966;   -5.893;  652.196
416.619;   -5.699;   -7.264;  713.400
417.211;   -6.556;  -10.374;  599.352
417.804;   -2.497;   -7.993;  628.499
418.396;   -6.698;   -7.234;  607.643
418.988;   -5.115;   -9.443;  659.238
419.580;   -7.932;  -10.724;  568.276
420.172;   -5.181;  -10.323;  536.196
420.764;   -0.830;   -8.793;  672.482
421.356;   -2.957;  -11.143;  636.898
421.948;   -3.652;   -8.293;  677.661
422.540;    1.844;   -7.893;  680.027
423.132;    1.051;   -7.082;  600.641
423.724;   -2.997;   -8.653;  561.267
424.316;   -0.304;  -10.213;  621.345
424.908;    2.959;   -9.762;  591.517
425.500;    3.717;   -5.572;  647.978
426.092;    3.709;   -8.422;  648.268
426.683;    2.380;   -9.283;  684.836
427.275;    6.732;   -7.852;  641.471
427.867;    7.724;   -5.272;  668.948
428.458;    6.897;   -7.682;  732.344
429.050;    5.412;  -10.612;  680.749
429.642;    8.620;   -9.882;  743.124
430.233;    8.954;   -6.962;  569.356
430.825;    9.502;   -6.842;  724.809
431.416;    7.335;   -9.672;  698.241
432.008;   11.361;   -6.552;  651.723
432.599;   11.370;   -6.891;  656.073
433.190;    8.841;  -10.912;  637.670
433.782;    8.130;  -11.172;  590.395
434.373;   15.815;   -6.061;  884.765
434.964;   13.875;   -8.251;  602.920
435.556;   11.391;   -9.722;  634.537
436.147;   14.136;   -9.082;  758.490
436.738;   15.242;   -8.041;  701.099
437.329;   19.475;   -7.341;  721.723
437.920;   11.871;   -8.162;  666.688
438.511;   12.917;  -11.802;  564.526
439.103;   19.238;  -10.191;  623.998
439.694;   21.335;   -7.601;  681.583
440.285;   21.020;   -8.541;  764.432
440.876;   19.493;   -9.751;  845.738
441.466;   19.841;   -9.401;  575.162
442.057;   24.417;   -7.760;  665.814
442.648;   22.730;   -9.971;  746.255
443.239;   20.457;  -11.001;  620.477
443.830;   26.460;   -7.990;  704.958
444.421;   28.527;   -7.910;  655.474
445.011;   23.893;   -8.131;  693.619
445.602;   24.343;   -7.111;  743.126
446.193;   26.903;  -10.920;  488.117
446.783;   30.460;   -6.500;  640.397
447.374;   25.335;   -8.671;  692.759
447.964;   26.777;  -10.781;  713.770
448.555;   34.534;   -9.650;  822.742
449.145;   31.955;   -8.660;  662.853
449.736;   32.040;   -8.990;  803.179
450.326;   32.039;   -9.500;  713.626
450.917;   37.395;   -8.680;  675.324
451.507;   35.626;   -7.520;  600.661
452.097;   36.533;   -8.590;  746.267
452.688;   37.268;  -11.340;  742.160
453.278;   37.721;  -10.100;  566.840
453.868;   41.517;   -6.019;  793.550
454.458;   38.891;   -9.440;  651.141
455.048;   40.012;  -10.560;  711.783
455.639;   42.165;  -11.799;  567.096
456.229;   45.415;   -6.899;  710.694
456.819;   47.168;   -7.389;  751.158
457.409;   46.617;  -11.119;  773.993
457.999;   49.987;   -9.289;  737.505
458.589;   49.801;   -6.139;  686.606
459.179;   48.818;   -8.729;  717.658
459.769;   47.496;   -9.789;  627.099
460.358;   53.534;  -10.259;  797.262
460.948;   52.920;   -7.299;  689.503
461.538;   53.746;  -10.289;  660.677
462.128;   51.547;  -11.269;  664.934
462.717;   59.245;   -9.368;  710.326
463.307;   61.914;   -7.908;  705.846
463.897;   57.201;   -9.599;  656.942
464.486;   56.372;   -9.769;  837.128
465.076;   61.366;   -8.048;  733.776
465.666;   64.301;   -9.358;  652.900
466.255;   61.234;   -7.919;  785.651
466.845;   61.627;  -11.689;  666.749
467.434;   64.176;   -7.818;  725.873
468.023;   65.072;   -7.678;  658.357
468.613;   62.483;  -10.939;  713.946
469.202;   67.427;  -10.118;  646.507
469.791;   72.282;   -9.108;  737.811
470.381;   73.305;   -6.058;  742.813
470.970;   72.987;  -10.428;  711.099
471.559;   73.015;  -10.268;  733.291
472.148;   76.512;   -8.448;  675.737
472.738;   78.698;   -6.917;  765.466
473.327;   77.911;  -11.978;  637.529
473.916;   77.042;  -11.888;  737.446
474.505;   82.439;   -9.437;  751.703
475.094;   85.106;   -6.747;  806.570
475.683;   84.460;   -9.367;  797.699
476.272;   84.672;  -12.637;  730.632
476.861;   88.468;  -10.027;  706.754
477.449;   94.104;   -8.716;  728.487
478.038;   88.556;   -9.577;  692.513
478.627;   89.925;   -9.718;  714.852
479.216;   98.317;   -8.947;  769.441
479.805;  100.564;   -6.256;  783.375
480.393;   99.469;   -7.937; 1008.945
480.982;   98.519;   -7.717;  874.501
481.571;  105.637;   -9.266;  858.333
482.159;  105.960;   -7.636;  705.386
482.748;  105.678;   -9.667;  821.385
483.336;  109.983;  -10.376;  858.209
483.925;  111.966;   -7.147;  774.373
484.513;  119.264;   -7.996;  758.962
485.102;  114.886;  -10.027;  810.965
485.690;  123.770;  -10.446; 1011.050
486.278;  126.231;   -8.446;  979.329
486.867;  126.756;   -6.356;  809.662
487.455;  129.605;   -9.136;  898.229
488.043;  131.499;  -10.646;  748.361
488.631;  140.434;   -7.456; 1005.079
489.220;  145.356;   -6.636;  908.626
489.808;  145.846;  -11.036;  741.415
490.396;  155.176;  -10.246;  914.645
490.984;  164.910;   -8.556;  830.161
491.572;  178.762;   -5.886;  940.315
492.160;  187.134;   -9.486;  919.081
492.748;  202.832;  -10.976;  884.341
493.336;  232.680;   -8.776; 1019.693
493.924;  274.664;   -5.465;  958.077
494.512;  326.729;   -9.986; 1066.638
495.100;  384.745;  -10.636; 1103.280
495.687;  475.309;  -10.885; 1206.373
496.275;  568.690;   -8.126; 1150.796
496.863;  664.647;  -10.586; 1281.171
497.451;  807.558;  -11.926; 1386.805
498.038;  934.622;  -10.885; 1556.729
498.626; 1105.425;   -6.315; 1741.407
499.214; 1383.108;   -7.326; 2016.609
499.801; 1699.496;  -11.906; 2220.633
500.389; 2067.068;  -10.466; 2312.494
500.976; 2373.884;   -5.236; 2744.849
501.564; 2928.485;   -8.936; 3148.565
502.151; 3697.104;  -13.176; 3515.999
502.738; 4280.191;  -10.646; 3971.274
503.326; 4712.315;   -9.525; 4403.796
503.913; 5101.228;  -10.856; 5161.749
504.500; 5666.993;  -11.586; 5986.420
505.088; 6316.224;  -10.336; 6381.201
505.675; 7231.240;   -6.355; 6925.547
506.262; 7862.806;   -9.046; 7619.060
506.849; 8240.818;  -10.416; 8733.969
507.436; 9012.810;  -10.305; 9790.121
508.023; 9582.127;   -5.496; 9985.472
508.610; 9568.855;   -7.856;10434.618
509.197;10244.784;  -10.097;11198.435
509.784;11741.737;  -10.886;12391.194
510.371;13341.770;   -9.315;13603.713
510.958;14715.771;   -9.936;14426.586
511.545;15266.489;   -9.326;15243.775
512.132;15161.813;  -10.075;15945.876
512.719;15634.703;   -7.796;16340.369
513.305;16835.670;  -10.606;18011.766
513.892;18660.541;  -11.486;19754.971
514.479;20118.869;   -9.126;20967.805
515.066;20821.996;   -6.026;22299.793
515.652;20362.516;   -8.466;22908.660
516.239;20868.834;  -10.886;23798.875
516.825;21993.785;  -11.496;25567.275
517.412;23506.646;   -5.796;28154.959
517.998;24710.332;  -10.506;28344.111
518.585;25546.684;  -10.076;27134.219
519.171;24921.564;   -8.315;27268.576
519.758;26119.186;   -8.596;28964.129
520.344;28121.408;   -8.466;30664.494
520.930;27172.408;  -11.006;32550.605
521.516;26000.973;  -10.495;35422.895
522.103;27807.373;   -5.526;38280.004
522.689;29198.094;   -8.746;37835.117
523.275;29648.541;  -11.376;37288.613
523.861;30852.732;  -11.156;37281.395
524.447;29689.531;   -8.135;37846.949
525.033;27454.549;   -7.896;38321.949
525.619;26609.184;  -12.476;38579.285
526.205;28932.205;   -9.516;40622.875
526.791;31829.738;   -6.926;42258.836
527.377;32758.742;   -8.346;42966.902
527.963;34948.352;   -8.717;42018.949
528.549;36545.297;  -11.016;42476.828
529.135;35027.805;   -8.536;41854.852
529.721;35451.922;   -9.666;41237.711
530.306;34408.484;  -10.066;41259.445
530.892;33596.594;  -11.356;41506.047
531.478;35366.867;   -6.596;43559.613
532.063;37877.125;   -8.836;47695.563
532.649;36714.246;  -10.047;50808.324
533.235;37303.590;   -9.746;51787.500
533.820;38855.250;   -6.566;52145.035
534.406;39970.957;  -10.817;51133.488
534.991;41330.266;   -9.416;49996.805
535.576;39411.086;   -9.036;48882.852
536.162;36890.199;   -6.156;46942.285
536.747;37568.648;  -11.607;45711.746
537.333;39221.227;  -11.787;48510.180
537.918;39971.793;  -12.437;50439.891
538.503;40080.230;   -7.196;50863.711
539.088;40572.965;  -10.556;50906.922
539.673;40335.625;   -8.767;52621.965
540.259;36465.723;  -10.026;52368.094
540.844;34282.844;   -7.416;50879.109
541.429;31541.885;   -9.467;52077.777
542.014;30148.320;   -9.527;52716.695
542.599;35432.242;   -9.946;52363.281
543.184;40747.145;   -7.927;53187.137
543.769;44333.285;   -9.297;54697.605
544.354;45626.637;  -10.127;53913.914
544.938;43250.012;   -9.267;49680.164
545.523;41777.121;   -6.506;47386.277
546.108;44485.824;   -9.787;49151.949
546.693;44319.961;  -11.587;51384.637
547.278;43592.723;  -10.986;51853.254
547.862;44317.340;   -8.206;51173.750
548.447;42689.988;  -10.067;51691.395
549.031;42084.125;   -9.637;52456.703
549.616;42002.750;   -9.926;52714.516
550.201;41523.848;   -6.347;52414.598
550.785;41969.289;   -7.917;52355.059
551.370;42962.328;  -10.867;54589.453
551.954;44942.770;   -9.047;58267.348
552.538;43882.305;   -7.827;59062.176
553.123;42207.602;  -10.287;58115.285
553.707;40826.293;  -12.178;56556.285
554.291;39250.676;   -8.717;56201.668
554.876;41292.570;   -7.457;55335.762
555.460;43706.094;  -10.387;54155.703
556.044;45225.867;   -9.618;53721.484
556.628;45358.996;  -11.567;53731.016
557.212;46060.281;   -8.097;54312.531
557.796;47806.227;  -11.077;53797.773
558.380;46272.512;  -11.108;56145.984
558.964;44458.813;   -9.057;57277.930
559.548;42145.719;   -6.977;56459.641
560.132;39983.859;  -11.457;54434.543
560.716;41116.813;  -11.378;54800.617
561.300;41650.547;   -9.577;57606.945
561.884;40109.805;   -7.127;58972.445
562.467;40547.617;   -7.118;57327.570
563.051;39038.219;  -13.358;54962.434
563.635;36598.715;  -10.178;52594.473
564.219;38466.262;   -7.837;50610.410
564.802;42417.102;  -11.398;49551.180
565.386;43278.219;  -12.788;48370.953
565.969;43596.215;   -9.077;48178.871
566.553;42674.152;   -6.207;49957.305
567.136;41472.820;   -8.568;50369.594
567.720;42364.156;  -11.868;49492.004
568.303;43391.625;   -8.268;50616.352
568.887;42591.781;   -8.698;50727.148
569.470;40628.836;   -6.808;51698.379
570.053;38616.488;  -13.188;52122.078
570.637;35954.129;  -12.037;52536.438
571.220;36191.859;   -8.577;51186.098
571.803;36455.762;   -8.498;51032.762
572.386;38629.406;  -10.498;49609.887
572.969;39929.621;   -9.388;48285.926
573.552;41069.227;   -8.338;47624.285
574.135;41004.879;   -8.518;45498.641
574.718;36943.754;  -13.628;41970.434
575.301;36264.367;  -10.893;41447.137
575.884;35584.980;   -8.158;40923.836
576.467;40705.379;  -10.328;45267.723
577.050;41641.414;  -13.058;48175.543
577.633;40597.762;   -9.458;47729.328
578.216;37393.613;   -8.928;47579.793
578.799;35140.898;   -9.358;47820.996
579.381;35717.680;  -11.388;48115.551
579.964;35522.188;  -11.718;47333.766
580.547;34241.027;   -8.588;46668.969
581.129;34583.781;   -8.859;44466.141
581.712;36389.891;  -10.729;44164.922
582.294;36468.867;  -11.118;46477.855
582.877;36698.836;   -5.218;48244.254
583.459;36777.043;   -8.679;47437.895
584.042;38152.695;  -10.709;46943.219
584.624;36506.258;  -11.669;46792.227
585.206;35625.496;   -8.218;46557.250
585.789;36665.168;  -10.569;45793.773
586.371;37033.461;  -11.859;43836.391
586.953;37814.992;  -10.719;42972.492
587.536;39835.520;   -7.198;42487.211
588.118;39057.227;   -8.720;42086.414
588.700;37962.156;  -10.439;43389.930
589.282;35746.984;   -9.198;43646.039
589.864;33286.863;   -9.199;43438.109
590.446;32810.031;  -11.319;43151.926
591.028;33143.445;  -11.159;42781.867
591.610;33144.082;  -11.779;42839.098
592.192;34127.387;   -7.668;42820.402
592.774;33312.246;  -11.949;40724.277
593.356;31644.602;  -12.129;39874.789
593.937;32067.676;  -10.669;39980.648
594.519;33804.590;   -6.509;42069.633
595.101;33122.414;  -10.849;42976.031
595.683;31918.877;  -11.679;44084.441
596.264;31351.041;   -9.049;43478.797
596.846;30635.736;   -8.849;43803.672
597.427;30956.648;   -9.570;42986.934
598.009;33180.027;  -12.620;42832.219
598.591;33416.527;  -10.039;42580.086
599.172;34822.949;  -10.369;43061.805
599.753;36378.945;   -9.140;41691.469
600.335;35572.832;  -11.430;40692.520
600.916;33048.688;   -9.939;39982.422
601.498;30471.873;   -8.479;40318.617
602.079;29788.656;  -10.920;40670.609
602.660;29890.930;  -11.480;41450.898
603.241;31669.584;  -11.699;41137.738
603.823;32302.469;   -9.579;38868.797
604.404;31941.236;  -10.620;38182.785
604.985;34581.465;  -10.450;38078.047
605.566;35486.531;   -9.129;38056.633
606.147;36400.379;   -7.510;37020.418
606.728;34776.965;  -10.660;37883.359
607.309;32776.395;  -11.740;38748.273
607.890;32713.803;   -9.759;38850.230
608.471;31450.156;   -8.250;37457.918
609.051;30706.938;   -9.240;36066.457
609.632;29658.240;  -12.120;35991.074
610.213;29844.947;   -9.110;37402.641
610.794;31329.197;   -8.030;38383.363
611.374;30348.191;   -8.110;40562.387
611.955;30185.557;  -13.560;38533.727
612.536;30811.719;  -11.400;36951.789
613.116;30089.127;   -8.070;37197.891
613.697;31271.465;  -10.830;38411.125
614.277;31031.143;  -11.641;38673.938
614.858;30623.027;  -13.310;37075.863
615.438;30977.621;   -7.460;35092.906
616.019;28723.617;   -7.601;33666.301
616.599;29362.615;  -12.020;34189.023
617.179;29412.924;  -11.780;36952.047
617.760;28631.346;   -8.570;39582.574
618.340;28953.293;  -11.471;38943.977
618.920;28474.352;  -11.170;37594.156
619.500;29024.012;  -11.071;37866.938
620.080;29934.422;   -7.750;37869.043
620.660;30599.053;  -12.711;36868.617
621.241;31318.174;  -10.211;36352.309
621.821;30489.455;  -10.961;35459.520
622.401;30632.178;   -7.720;35207.414
622.980;32729.373;   -8.981;35980.422
623.560;31175.082;   -9.331;37351.328
624.140;27286.885;   -9.850;34388.582
624.720;23742.031;   -7.451;32368.764
625.300;23156.508;   -9.070;32638.629
625.880;27237.074;  -12.601;34599.035
626.459;30326.383;  -11.751;36831.738
627.039;30176.965;   -9.281;38299.098
627.619;29822.328;   -8.801;38289.574
628.198;29543.041;  -12.071;37220.695
628.778;29538.762;   -9.461;37632.563
629.357;30195.785;   -8.491;38003.012
629.937;29940.721;   -9.721;38402.039
630.516;30555.543;   -9.951;37868.801
631.096;32309.766;  -11.731;35760.410
631.675;35016.754;   -8.572;35225.219
632.254;34353.680;  -11.282;35130.289
632.834;32926.398;  -13.322;35794.570
633.413;33620.426;  -10.301;35788.922
633.992;34135.828;   -8.582;34532.863
634.571;34966.164;   -8.352;33590.113
635.151;33810.730;  -11.912;34943.863
635.730;32213.602;  -10.511;35352.523
636.309;32237.840;   -7.731;35366.605
636.888;32187.635;   -9.952;36165.637
637.467;31760.174;  -11.672;37515.902
638.046;30068.842;   -8.901;39288.695
638.625;29325.012;   -7.912;38279.699
639.204;28467.305;  -10.022;37741.598
639.782;30359.689;  -12.252;38364.551
640.361;31831.285;  -10.041;36740.621
640.940;30509.119;  -11.161;34950.082
641.519;30149.992;   -9.701;34137.398
642.097;31310.164;  -11.271;35654.258
642.676;31041.439;   -8.651;35637.957
643.255;30458.713;   -8.711;36567.074
643.833;31122.826;   -9.581;37809.434
644.412;31435.182;  -13.711;37337.293
644.990;32467.178;  -11.811;37018.531
645.569;34778.324;   -9.411;36518.469
646.147;35344.699;  -10.291;36186.430
646.726;34655.270;  -12.401;36267.688
647.304;33689.949;  -10.411;36647.625
647.882;34161.395;   -9.651;39286.742
648.461;33582.324;   -9.631;39157.703
649.039;30521.740;  -11.881;35412.883
649.617;30182.561;   -9.661;34744.918
650.195;30721.625;   -9.301;35403.098
650.773;30146.938;  -10.511;35053.797
651.352;29672.424;  -11.521;33756.816
651.930;29113.619;  -12.211;31868.773
652.508;28798.916;   -9.171;33121.551
653.086;29864.396;   -9.371;33564.793
653.663;32296.209;  -13.161;34054.668
654.241;30929.598;  -13.031;35693.309
654.819;28420.754;   -9.371;36422.906
655.397;28911.982;  -10.511;38213.484
655.975;29228.123;  -10.371;39507.625
656.553;30382.914;  -10.051;39498.223
657.130;31045.203;  -10.061;40395.480
657.708;27171.020;   -9.561;39242.020
658.286;24192.904;  -11.511;38920.020
658.863;24427.961;  -10.261;40202.898
659.441;27275.686;   -7.531;39677.938
660.018;30276.367;   -9.501;40413.355
660.596;31130.449;  -13.301;39931.414
661.173;33511.719;  -11.211;39604.531
661.750;32511.816;   -9.951;39700.070
662.328;29899.008;   -9.390;39292.809
662.905;28347.691;  -11.330;38235.648
663.482;25576.328;   -9.050;36212.305
664.060;23934.084;   -8.240;35944.945
664.637;27635.113;  -10.050;35170.785
665.214;31385.529;  -11.760;34197.523
665.791;30328.018;  -10.530;34549.520
666.368;31132.918;   -9.690;35118.578
666.945;32155.215;   -9.320;36019.418
667.522;32385.564;  -11.860;36048.438
668.099;31922.381;  -10.770;36243.914
668.676;33240.074;   -6.260;35958.875
669.253;34807.566;   -7.000;37384.730
669.830;34182.551;  -10.190;36779.629
670.407;32256.453;   -9.550;35231.289
670.984;31589.791;   -9.260;35544.270
671.560;30790.877;   -9.280;35466.867
672.137;29210.883;  -11.810;34280.863
672.714;28916.297;  -11.490;34632.863
673.290;29500.936;   -7.740;35135.422
673.867;29482.535;  -10.660;36114.480
674.443;28518.490;  -12.230;36152.859
675.020;27306.289;  -10.450;35327.238
675.596;25837.521;   -9.260;35795.176
676.173;26697.660;  -10.780;35430.355
676.749;27446.369;  -13.690;33549.516
677.326;28013.521;  -11.980;32210.012
677.902;25961.695;   -8.630;32068.871
678.478;25093.057;  -10.730;32583.891
679.054;27160.086;  -10.520;32088.928
679.631;28003.445;  -11.920;30978.848
680.207;28528.471;   -7.490;33160.887
680.783;30110.344;   -9.860;35570.363
681.359;31993.416;  -13.380;36125.184
681.935;32248.963;  -12.480;35240.922
682.511;31918.123;   -7.900;34429.961
683.087;31177.176;   -7.710;34463.680
683.663;31685.564;  -11.480;34648.898
684.239;31949.703;  -14.090;34546.457
684.815;33409.805;   -7.560;35586.375
685.390;33363.551;   -9.910;35821.895
685.966;32619.229;  -11.159;35085.871
686.542;33054.668;  -11.169;34198.230
687.118;31732.215;   -5.959;32847.707
687.693;31511.455;  -10.329;32794.027
688.269;30869.031;  -12.059;33072.367
688.844;31334.303;  -10.909;33141.664
689.420;32155.344;   -8.019;33965.742
689.995;29115.484;   -8.399;34655.523
690.571;28271.869;  -10.949;33576.742
691.146;27557.133;   -9.619;32657.219
691.722;25899.018;   -8.999;32526.979
692.297;25705.195;  -11.589;33014.617
692.872;26320.039;  -11.739;34012.254
693.448;26329.393;  -11.059;34237.434
694.023;28051.238;  -10.139;34142.672
694.598;30277.391;   -9.029;34132.031
695.173;29775.836;  -13.319;34205.250
695.748;27278.971;  -10.169;32882.488
696.323;25436.262;   -8.339;32864.906
696.898;26030.375;   -8.169;33170.004
697.473;28902.197;  -12.309;32432.984
698.048;27682.471;  -10.989;31649.303
698.623;26331.479;   -9.329;30778.141
699.198;27607.891;   -9.849;31140.119
699.773;29182.949;  -12.329;31764.299
700.348;29035.854;  -10.389;31780.816
700.922;27211.537;   -9.269;32046.375
701.497;26204.150;   -9.329;32603.574
702.072;28023.695;  -10.789;34799.871
702.646;28117.344;  -10.839;35793.172
703.221;29029.916;   -9.099;35201.590
703.795;29311.979;  -10.939;34764.527
704.370;27644.754;  -12.859;34307.367
704.944;28842.824;  -11.559;33509.887
705.519;29747.359;   -7.939;31388.584
706.093;31086.143;  -10.499;31340.104
706.668;32217.156;  -11.289;32630.281
707.242;31452.484;  -11.509;32728.779
707.816;30458.807;   -9.639;32947.238
708.390;29977.795;  -11.429;33277.855
708.965;30906.346;  -11.869;33834.336
709.539;31235.705;  -11.689;33709.273
710.113;31175.215;  -10.478;33044.313
710.687;28687.568;  -10.228;31953.992
711.261;27475.053;  -13.698;30505.949
711.835;26892.879;  -13.378;30262.369
712.409;27097.053;   -9.698;31254.447
712.983;26244.152;  -11.898;32754.986
713.557;25063.236;  -15.138;34018.824
714.131;26812.219;  -14.098;34579.625
714.704;26753.141;   -9.958;33890.262
715.278;26323.424;  -10.028;33531.102
715.852;25616.791;  -11.148;33601.660
716.425;24947.861;   -9.068;33515.117
716.999;26042.553;  -10.038;33185.555
717.573;26159.525;   -9.798;33905.996
718.146;27549.229;  -12.378;35199.293
718.720;28362.896;  -11.918;35060.551
719.293;27609.859;   -8.088;34973.230
719.867;26738.695;  -10.888;36394.449
720.440;27704.000;  -11.938;36663.008
721.013;30002.828;  -12.818;35102.426
721.587;31648.779;  -10.298;33985.266
722.160;31061.736;  -10.048;33524.965
722.733;28749.035;  -12.108;32987.043
723.306;26728.314;  -10.818;33066.301
723.880;27402.980;   -8.908;33399.500
724.453;26157.066;   -9.878;33468.297
725.026;25864.770;  -11.188;33816.637
725.599;26330.090;  -11.678;32797.996
726.172;25819.959;   -9.618;33187.434
726.745;26535.111;   -8.258;35136.613
727.318;29408.979;  -12.978;35751.730
727.891;31196.924;  -12.148;35890.430
728.463;32387.695;   -8.968;34822.090
729.036;32286.527;  -10.188;32895.086
729.609;30001.232;  -11.788;31823.225
730.182;28458.934;  -11.788;31445.283
730.754;28021.814;  -10.268;32373.223
731.327;27931.748;   -9.998;33676.820
731.900;27014.436;  -12.228;33417.000
732.472;26064.947;  -13.848;31978.498
733.045;26155.525;   -8.698;30368.777
733.617;25736.945;  -10.607;30574.215
734.190;23670.805;  -11.507;31280.975
734.762;24074.586;  -13.647;31674.412
735.334;25720.115;   -9.767;31247.291
735.907;25450.270;   -9.897;29876.211
736.479;23177.857;  -11.637;29808.488
737.051;23131.451;   -9.567;30233.547
737.623;23868.779;   -8.187;31469.086
738.195;25157.742;  -11.187;31784.225
738.768;25668.332;  -12.337;32120.523
739.340;25336.031;  -12.227;32094.342
739.912;25066.781;  -11.057;31312.680
740.484;25782.730;  -10.207;31946.238
741.056;26963.449;  -10.047;32984.059
741.628;26827.029;  -13.627;33897.715
742.199;27485.010;   -7.177;33213.016
742.771;25721.744;  -10.797;31369.113
743.343;24269.432;  -11.997;31865.473
743.915;24133.055;  -12.867;32388.631
744.487;24562.340;   -7.617;31079.568
745.058;25644.180;   -9.557;30570.107
745.630;25125.479;   -9.877;29970.127
746.201;23575.654;  -14.177;29186.766
746.773;23358.740;   -9.237;28805.723
747.344;23821.869;   -9.847;29591.223
747.916;23398.992;  -11.657;31412.201
748.487;22279.814;  -10.587;32194.898
749.059;22262.191;   -8.707;32533.719
749.630;21549.168;  -10.537;32158.518
750.201;21541.791;  -11.687;30855.395
750.773;22049.660;  -11.647;28622.555
751.344;23622.838;   -7.147;28405.732
751.915;23627.236;   -9.757;28461.551
752.486;23347.439;  -12.427;27842.850
753.057;22038.426;  -12.227;27845.008
753.628;21372.252;  -10.417;27728.107
754.199;21117.365;  -11.767;27381.086
754.770;20510.646;  -11.187;25882.203
755.341;19887.258;  -10.507;25886.184
755.912;20034.752;   -9.387;26050.861
756.483;20409.512;  -10.647;26798.779
757.054;19562.047;  -11.837;27048.238
757.625;17904.830;  -12.716;26294.838
758.195;17698.623;   -9.666;26142.076
758.766;18571.285;   -8.656;26392.234
759.337;18036.480;  -12.856;26334.594
759.907;17090.824;  -13.366;27579.652
760.478;16428.193;   -8.576;28352.770
761.048;16980.018;  -10.526;27325.088
761.619;17617.695;  -11.116;26460.428
762.189;17166.090;  -12.136;26029.826
762.760;16845.340;   -9.456;26430.145
763.330;16865.121;   -7.136;26670.902
763.900;16741.170;  -11.786;26603.021
764.471;16197.000;  -11.546;25542.740
765.041;16037.780;   -8.096;24358.459
765.611;15954.383;   -8.876;23991.297
766.181;16118.334;  -12.196;24470.236
766.751;17081.678;  -11.636;24845.975
767.321;16973.293;  -10.156;24533.633
767.891;16434.814;  -11.766;24916.492
768.461;16134.520;  -14.936;24776.771
769.031;15491.060;  -12.356;24757.988
769.601;15307.887;   -7.526;24181.088
770.171;15487.349;  -10.766;23670.387
770.741;16091.940;  -13.176;22960.045
771.311;15844.470;  -10.616;22917.523
771.880;14601.465;   -9.576;23562.941
772.450;14065.962;  -10.336;24216.500
773.020;14369.100;  -13.516;24140.398
773.589;14586.401;  -13.466;24414.857
774.159;14080.448;   -8.686;23858.717
774.729;13121.341;   -9.476;22942.135
775.298;12925.793;  -13.666;22324.033
775.867;12839.203;  -11.716;21140.313
776.437;12176.425;   -9.906;20838.092
777.006;12093.575;  -12.166;20599.510
777.576;13251.087;  -12.356;20508.809
778.145;12950.049;  -11.646;20732.947
778.714;12346.836;   -8.226;21062.465
779.283;12227.124;   -9.556;20949.664
779.853;11906.944;  -14.116;20508.623
780.422;11638.396;  -11.506;20649.082
780.991;11973.208;   -9.556;21527.520
781.560;12539.152;   -9.095;22632.658
782.129;11688.445;  -12.135;23048.277
782.698;10948.779;  -10.865;23438.555
783.267;10558.940;   -9.335;23267.734
783.836;10707.254;  -11.045;22415.133
784.404;11169.449;  -13.865;20443.152
784.973;11319.668;  -13.095;19699.150
785.542;11083.852;  -11.575;19763.828
786.111;10943.212;   -9.705;20341.408
786.679;10971.855;  -12.105;20207.967
787.248;10974.018;  -12.455;19516.465
787.817;11039.352;  -11.535;18900.363
788.385;10860.928;   -9.765;17879.121
788.954;10698.005;  -14.005;17658.301
789.522;10549.694;  -11.955;17788.879
790.090; 9828.692;  -10.135;18118.277
790.659; 9192.896;  -10.975;18338.736
791.227; 9380.835;  -13.375;18508.615
791.795; 9797.772;  -12.375;17898.254
792.364;10042.777;  -10.725;17295.133
792.932;10432.147;   -9.715;16822.051
793.500;10503.363;  -12.675;17040.148
794.068;11003.803;  -13.495;17179.787
794.636;11164.061;  -10.885;16664.246
795.204;10981.612;  -11.045;16524.545
795.772;11020.784;  -13.175;17274.564
796.340;10655.081;  -12.445;17891.002
796.908;10691.375;   -9.735;17648.561
797.476;11088.021;   -9.815;17064.080
798.044;10958.690;  -13.985;16672.777
798.612;10283.601;  -13.115;17023.996
799.180; 9430.385;  -10.185;16561.615
799.747; 9409.527;   -9.055;15962.773
800.315; 9850.504;  -12.385;15296.992
800.883; 9289.219;  -15.035;14801.771
801.450; 8682.396;  -10.365;14534.430
802.018; 8536.787;   -9.855;14173.248
802.585; 8538.140;  -11.905;14029.547
803.153; 8637.094;  -11.585;13836.846
803.720; 8410.324;   -9.095;13567.324
804.287; 8334.821;   -9.135;13360.622
804.855; 8479.491;  -11.604;13681.981
805.422; 9001.236;  -11.794;13536.560
805.989; 9272.183;  -10.734;13355.958
806.556; 9304.690;  -10.444;13747.896
807.124; 9881.073;  -12.764;13987.376
807.691;10305.390;  -12.964;14038.674
808.258;10256.651;  -11.134;14120.152
808.825;10325.288;   -9.854;13860.111
809.392; 9989.678;  -10.504;13268.790
809.959; 9179.444;  -13.054;12680.389
810.526; 8339.554;   -8.294;12427.308
811.093; 7578.139;   -8.394;12030.105
811.659; 7368.525;  -12.304;11653.664
812.226; 7627.238;  -13.944;11637.183
812.793; 8047.905;  -10.484;11611.521
813.360; 8149.173;  -10.144;11885.181
813.926; 8211.809;  -11.684;12770.539
814.493; 8122.757;  -13.644;12677.638
815.060; 8066.320;   -9.724;11974.336
815.626; 8264.710;   -9.854;11594.715
816.193; 8263.698;  -13.254;11579.474
816.759; 7562.137;  -13.204;11666.972
817.325; 7137.101;   -9.434;11325.530
817.892; 7003.638;  -10.134;11105.369
818.458; 7180.453;  -13.474;10843.928
819.024; 7584.862;  -11.854;10714.406
819.591; 7501.248;  -10.244;10469.165
820.157; 7183.123;  -10.704;10235.523
820.723; 7165.109;  -12.324;10847.563
821.289; 7044.665;   -9.444;11040.980
821.855; 7094.275;   -8.374;10357.100
822.421; 7430.543;  -10.234; 9978.918
822.987; 7404.008;  -13.294; 9754.177
823.553; 7147.674;  -10.884;10065.755
824.119; 6853.830;   -8.884;10036.294
824.685; 6211.342;   -6.784;10029.192
825.251; 5980.751;  -12.004;10199.230
825.816; 5603.890;  -11.474; 9820.189
826.382; 5360.348;   -9.174; 9297.248
826.948; 5706.877;   -9.214; 9381.347
827.513; 6123.412;  -10.774; 9450.726
828.079; 6126.446;  -11.924; 9472.444
828.645; 5884.020;  -10.543; 9292.643
829.210; 5672.202;  -10.533; 9065.341
829.776; 5535.444;  -10.753; 9132.620
830.341; 5690.026;  -10.173; 9092.878
830.906; 5735.898;  -10.743; 9078.557
831.472; 5543.430;  -11.113; 8534.535
832.037; 5226.779;  -10.603; 8677.874
832.602; 5078.130;  -13.323; 8628.692
833.167; 4818.861;  -10.823; 8879.031
833.733; 4645.384;  -10.113; 9189.790
834.298; 4425.455;  -13.583; 9052.608
834.863; 4573.096;  -12.703; 8895.087
835.428; 4741.867;  -10.523; 8824.266
835.993; 4677.722;   -6.963; 8845.385
836.558; 4649.422;  -10.763; 8888.563
837.123; 4818.310;   -9.903; 8966.582
837.688; 5219.631;   -9.913; 8617.860
838.253; 5237.881;  -10.283; 8590.699
838.817; 4898.417;  -12.963; 8443.797
839.382; 4792.654;  -14.243; 8799.356
839.947; 4840.088;  -10.733; 8810.595
840.511; 4796.843;   -9.383; 8796.394
841.076; 4656.995;  -12.563; 8347.231
841.641; 4524.536;  -12.953; 8224.330
842.205; 4402.373;   -7.043; 8223.349
842.770; 4172.524;   -8.163; 8622.107
843.334; 4354.155;  -12.503; 8410.386
843.898; 4569.994;  -11.693; 8337.465
844.463; 4137.956;  -10.203; 8506.283
845.027; 3802.399;   -9.533; 8280.962
845.591; 3802.300;  -13.443; 8231.141
846.156; 3824.255;  -13.143; 7969.179
846.720; 3654.171;   -9.433; 7768.278
847.284; 3627.268;  -11.033; 7630.957
847.848; 3691.376;  -10.403; 7472.395
848.412; 3546.999;  -11.553; 7437.394
848.976; 3398.446;   -8.393; 7674.592
849.540; 3371.616;   -8.713; 7836.011
850.104; 3416.562;  -12.463; 7913.669
850.668; 3515.983;  -12.973; 7694.508
851.232; 3483.493;  -10.793; 7756.887
851.796; 3527.000;  -10.662; 7926.545
852.359; 3636.978;  -13.082; 7827.844
852.923; 3650.218;  -12.192; 7641.163
853.487; 3644.691;  -11.912; 7342.501
854.050; 3464.273;  -10.892; 7042.820
854.614; 3535.158;  -13.992; 7151.338
855.177; 3604.029;  -11.732; 7105.077
855.741; 3451.123;   -8.962; 6989.675
856.304; 3299.233;   -9.442; 6596.634
856.868; 3146.930;  -14.192; 6356.272
857.431; 3126.474;  -12.702; 6468.571
857.995; 3210.838;   -9.942; 6373.210
858.558; 3346.481;   -9.112; 6324.448
859.121; 3265.073;  -12.932; 6408.327
859.684; 3172.536;  -13.442; 6347.886
860.247; 3122.701;  -10.632; 6321.264
860.810; 3053.471;  -11.272; 6301.903
861.374; 2957.137;   -9.832; 6607.881
861.937; 2846.318;  -11.762; 6408.200
862.500; 2830.019;   -9.722; 6572.639
863.062; 2785.214;  -10.512; 6387.297
863.625; 2761.852;  -11.232; 6190.836
864.188; 2815.660;  -14.112; 5807.254
864.751; 2849.969;  -11.302; 5682.413
865.314; 2749.910;  -10.112; 5547.492
865.876; 2629.622;  -12.182; 5500.150
866.439; 2508.197;  -10.722; 5415.909
867.002; 2414.526;   -9.252; 5501.567
867.564; 2488.109;   -9.572; 5413.946
868.127; 2526.517;  -13.142; 5160.325
868.689; 2576.371;  -12.902; 5133.183
869.252; 2677.003;   -9.732; 5252.382
869.814; 2616.536;   -9.432; 5297.141
870.377; 2531.688;  -11.552; 5390.919
870.939; 2516.777;   -9.052; 5599.898
871.501; 2446.043;  -10.982; 5248.336
872.063; 2343.897;  -12.292; 4854.235
872.626; 2280.455;  -14.912; 4817.074
873.188; 2182.622;  -13.112; 4987.732
873.750; 2163.639;  -13.442; 4868.651
874.312; 2172.564;   -9.402; 4779.330
874.874; 2237.595;  -11.062; 4866.348
875.436; 2223.571;  -13.931; 4718.887
875.998; 2160.658;   -9.561; 4660.005
876.560; 2125.830;  -11.321; 4462.964
877.122; 2000.482;  -12.221; 4145.042
877.683; 1753.658;  -12.191; 4056.481
878.245; 1398.320;  -12.101; 3950.740
878.807; 1151.595;   -8.971; 4058.958
879.369; 1067.707;  -12.071; 3954.677
879.930; 1115.109;  -14.621; 3941.495
880.492; 1209.986;  -10.311; 4067.014
881.053; 1293.640;  -10.901; 3859.633
881.615; 1322.019;  -14.411; 3776.071
882.176; 1308.047;  -13.761; 3734.750
882.738; 1296.803;   -9.181; 3678.489
883.299; 1323.881;  -11.791; 3405.407
883.860; 1358.974;  -13.121; 3351.106
884.422; 1320.427;  -11.211; 3394.044
884.983; 1256.520;  -10.091; 3166.443
885.544; 1225.228;   -8.461; 3189.802
886.105; 1169.688;  -12.361; 3160.360
886.666; 1122.487;  -14.141; 3093.059
887.227; 1105.793;  -11.361; 2941.957
887.788; 1048.973;  -11.401; 2974.836
888.349;  955.355;  -13.791; 2721.214
888.910;  918.107;  -13.191; 2696.493
889.471;  891.459;   -9.881; 2560.172
890.032;  900.307;   -9.881; 2558.190
890.593;  880.779;  -10.371; 2567.669
891.153;  795.525;  -13.301; 2460.307
891.714;  704.989;  -11.431; 2372.046
892.275;  669.508;  -11.291; 2309.505
892.835;  670.360;  -11.471; 2382.543
893.396;  655.827;  -11.541; 2295.502
893.956;  626.578;  -11.181; 2162.420
894.517;  588.018;  -11.741; 2125.439
895.077;  536.616;  -11.671; 2086.978
895.638;  501.890;  -11.311; 2126.316
896.198;  493.591;   -9.831; 1838.275
896.758;  480.081;   -8.421; 1892.813
897.319;  459.956;  -12.351; 1792.232
897.879;  440.116;  -13.511; 1762.751
898.439;  405.482;  -12.001; 1661.149
898.999;  383.284;  -10.180; 1781.468
899.559;  376.456;  -12.030; 1703.347
900.119;  366.636;  -15.710; 1537.525
900.679;  353.198;   -8.900; 1638.384
901.239;  332.831;   -8.340; 1527.902
901.799;  304.111;  -13.910; 1456.441
902.359;  284.166;  -13.460; 1357.140
902.919;  278.234;  -11.490; 1331.118
903.479;  277.265;  -12.110; 1317.257
904.038;  269.603;  -11.720; 1262.595
904.598;  259.915;  -13.610; 1152.034
905.158;  249.853;  -11.040; 1240.893
905.717;  233.933;  -10.900; 1233.691
906.277;  225.675;  -15.080; 1217.330
906.836;  226.088;  -13.380; 1222.408
907.396;  223.111;  -10.780; 1193.047
907.955;  213.079;   -8.500; 1182.526
908.515;  209.146;  -12.760; 1099.364
909.074;  208.415;  -11.900; 1092.863
909.633;  208.462;   -8.950; 1069.121
910.192;  204.786;   -8.770; 1196.460
910.752;  192.587;  -12.390; 1029.960
911.311;  183.369;  -13.680; 1009.780
911.870;  173.764;  -12.370;  971.460
912.429;  168.663;  -10.900; 1094.080
912.988;  165.922;  -11.690; 1081.060
913.547;  163.576;  -13.240;  940.380
914.106;  163.383;  -11.990;  999.420
914.665;  161.293;   -9.990;  984.020
915.224;  156.357;  -12.880; 1035.760
915.782;  152.309;  -12.350;  922.560
916.341;  148.373;   -9.110; 1049.840
916.900;  144.524;   -9.270;  925.260
917.458;  143.834;  -13.240;  884.220
918.017;  143.535;  -13.550;  942.600
918.576;  142.638;  -12.320;  904.440
919.134;  140.760;  -11.490;  837.980
919.693;  139.874;  -13.670;  893.060
920.251;  139.781;  -15.470;  876.500
920.809;  140.236;  -11.290;  839.580
921.368;  139.401;  -10.210;  885.360
921.926;  137.227;  -12.140;  842.940
922.484;  135.595;  -13.080;  903.360
923.042;  134.875;  -11.720;  880.340
923.601;  133.909;   -7.480;  998.680
924.159;  133.038;  -11.570;  935.560
924.717;  131.340;  -13.840;  841.080
925.275;  131.789;  -10.640;  903.240
925.833;  129.762;  -11.540;  779.320
926.391;  131.758;  -12.960;  938.380
926.949;  130.985;  -14.130;  857.680
927.506;  132.437;  -11.750;  903.500
928.064;  131.288;  -10.250;  877.580
928.622;  131.826;  -13.030;  880.100
929.180;  133.889;  -13.400;  814.180
929.737;  134.491;  -10.700;  808.540
930.295;  137.808;  -10.070;  928.480
930.853;  136.962;  -11.960;  849.100
931.410;  138.032;  -13.120;  821.120
931.968;  140.613;  -10.770;  940.660
932.525;  140.885;  -10.680;  909.380
933.082;  139.274;  -13.130;  811.440
933.640;  140.957;  -13.210;  925.900
934.197;  141.260;  -11.060;  886.360
934.754;  141.371;   -9.580;  897.780
935.312;  142.206;  -14.000;  863.340
935.869;  143.482;  -10.710; 1012.980
936.426;  142.103;   -9.860;  872.800
936.983;  141.231;   -9.710;  889.020
937.540;  142.380;  -13.990;  838.280
938.097;  146.762;  -14.040;  940.120
938.654;  149.642;  -10.310;  898.860
939.211;  150.498;  -10.560;  952.480
939.768;  150.139;  -13.900;  915.420
940.324;  151.838;  -14.760;  904.200
940.881;  155.333;  -10.370;  878.500
941.438;  159.004;   -8.260; 1021.200
941.995;  157.579;  -12.540;  992.560
942.551;  158.452;  -14.670;  875.620
943.108;  160.007;  -10.450;  937.920
943.664;  160.193;  -10.750;  869.340
944.221;  164.293;  -11.550; 1088.140
944.777;  164.277;  -14.770;  869.680
945.334;  162.970;  -12.820;  884.840
945.890;  157.290;  -10.130;  946.480
946.446;  154.747;  -13.470;  947.020
947.003;  157.129;  -12.120;  964.940
947.559;  157.919;   -9.980; 1063.040
948.115;  152.586;   -9.080; 1026.540
948.671;  150.724;  -10.830;  967.300
949.227;  151.149;  -12.440;  859.560
949.783;  151.262;  -12.910;  858.900
950.339;  155.695;  -10.270;  991.000
950.895;  157.457;  -13.630; 1023.840
951.451;  156.100;  -15.100;  925.280
952.007;  154.297;  -11.330;  998.540
952.563;  149.512;  -10.580;  937.780
953.118;  145.569;  -13.440;  904.940
953.674;  146.285;  -12.710;  935.780
954.230;  149.887;  -10.350;  949.640
954.785;  152.621;   -9.190;  936.640
955.341;  153.513;  -11.200;  998.160
955.897;  148.238;  -16.560;  834.660
956.452;  146.381;  -12.570;  953.840
957.008;  144.080;   -7.970; 1083.640
957.563;  138.901;  -11.940; 1009.540
958.118;  135.877;  -13.450;  877.700
958.674;  134.150;  -12.030;  946.780
959.229;  135.585;   -9.410; 1013.980
959.784;  135.941;  -12.000;  832.400
960.339;  136.397;  -14.780; 1001.280
960.894;  135.589;   -9.860;  963.760
961.449;  130.730;   -9.970;  859.960
962.004;  129.834;  -10.900; 1212.840
962.559;  128.147;  -13.150;  860.140
963.114;  126.882;  -13.740;  742.480
963.669;  124.622;   -9.820;  915.500
964.224;  123.228;  -13.890;  874.340
964.779;  123.251;  -12.600;  828.420
965.334;  124.961;  -10.950; 1017.860
965.888;  121.980;  -11.170;  875.360
966.443;  122.989;  -12.540;  972.380
966.998;  121.088;  -15.780;  819.460
967.552;  120.102;   -9.760;  908.380
968.107;  117.761;   -9.060;  868.300
968.661;  117.644;  -11.950;  922.440
969.216;  115.667;  -12.800;  856.280
969.770;  113.735;  -11.210;  917.200
970.324;  112.410;  -11.610;  923.140
970.879;  113.558;  -11.370;  947.180
971.433;  115.024;  -12.540;  952.720
971.987;  112.776;  -11.320;  895.340
972.541;  110.879;  -10.720;  917.100
973.095;  110.080;   -9.680; 1009.460
973.649;  106.177;  -11.440;  809.480
974.203;  105.833;  -11.210;  829.040
974.757;  105.638;  -10.240;  855.220
975.311;  106.476;  -13.720;  872.600
975.865;  105.916;  -13.770;  881.820
976.419;  103.225;  -11.690;  857.400
976.973;  100.451;   -9.510;  849.620
977.526;   98.303;  -12.620;  949.920
978.080;   97.290;  -12.010;  796.780
978.634;   96.948;  -10.170;  921.320
979.187;   95.965;   -9.020;  905.400
979.741;   97.374;   -9.820; 1018.380
980.294;   95.314;  -14.870;  789.160
980.848;   94.248;  -12.380;  717.220
981.401;   94.463;  -10.350;  816.540
981.955;   92.890;  -13.720;  844.300
982.508;   89.502;  -11.490;  746.340
983.061;   89.911;  -10.000;  915.260
983.615;   87.995;  -11.480;  798.800
984.168;   84.930;  -13.220;  770.080
984.721;   85.329;  -13.960;  880.760
985.274;   83.256;  -10.870;  867.500
985.827;   80.897;   -9.790;  834.220
986.380;   77.572;  -13.120;  721.340
986.933;   77.234;  -12.450;  864.800
987.486;   76.997;  -10.210;  861.920
988.039;   77.077;   -8.430;  863.100
988.591;   76.377;  -10.520;  893.260
989.144;   74.205;  -14.860;  737.260
989.697;   73.975;  -13.080;  758.740
990.250;   72.589;  -10.150;  858.100
990.802;   70.225;  -13.430;  755.860
991.355;   70.538;  -12.750;  974.880
991.907;   68.524;  -12.040;  864.320
992.460;   66.510;  -11.330;  753.760
993.012;   65.469;  -13.610;  749.540
993.565;   62.929;  -13.460;  711.360
994.117;   64.014;   -9.360;  950.780
994.669;   61.128;  -11.300;  701.320
995.221;   60.246;  -13.540;  791.920
995.774;   59.211;  -13.430;  787.580
996.326;   58.726;  -12.520;  740.220
996.878;   58.012;  -10.950;  838.420
997.430;   54.835;  -14.300;  699.860
997.982;   54.127;  -13.760;  750.140
998.534;   54.491;  -11.530;  739.060
999.086;   52.686;  -10.310;  738.220
999.638;   50.872;  -12.530;  661.380
1000.190;   50.507;  -11.840;  699.320
1000.741;   50.659;  -10.260;  742.700
1001.293;   49.946;   -8.860;  686.020
1001.845;   48.512;  -13.700;  676.640
1002.396;   48.374;  -12.100;  743.400
1002.948;   48.378;  -12.760;  737.400
1003.500;   45.769;  -10.380;  723.780
1004.051;   46.037;  -11.900;  907.580
1004.603;   45.443;  -12.250;  791.820
1005.154;   42.553;  -13.210;  608.980
1005.705;   41.527;  -10.950;  723.960
1006.257;   40.594;  -13.880;  707.220
1006.808;   40.651;  -12.840;  685.460
1007.359;   40.569;  -10.570;  763.240
1007.910;   39.619;   -9.620;  646.640
1008.461;   38.604;  -13.630;  732.940
1009.013;   37.672;  -17.200;  588.340
1009.564;   39.124;  -10.200;  793.520
1010.115;   36.799;  -12.570;  597.040
1010.665;   36.407;  -15.150;  602.160
1011.216;   36.167;  -14.480;  667.920
1011.767;   36.699;  -11.340;  697.920
1012.318;   36.402;   -9.780;  736.980
1012.869;   34.827;  -12.380;  679.000
1013.419;   35.260;  -15.560;  603.120
1013.970;   35.805;  -11.010;  666.640
1014.521;   34.085;  -11.610;  620.620
1015.071;   34.154;  -13.450;  670.380
1015.622;   34.729;  -13.870;  635.460
1016.172;   33.707;  -11.610;  596.820
1016.723;   32.803;  -12.120;  614.380
1017.273;   32.796;  -13.620;  604.160
1017.823;   32.998;  -14.140;  650.340
1018.374;   32.351;  -12.800;  611.760
1018.924;   32.528;  -12.340;  716.880
1019.474;   32.802;  -11.410;  718.880
1020.024;   31.343;  -14.770;  657.580
1020.574;   32.797;   -9.780;  726.160
1021.124;   31.855;   -8.560;  673.580
1021.674;   30.705;  -15.190;  559.120
1022.224;   31.417;  -13.530;  708.940
1022.774;   31.935;  -13.280;  668.820
1023.324;   32.213;  -10.690;  753.520
1023.874;   33.044;  -10.240;  875.760
1024.423;   30.825;  -12.540;  613.700
1024.973;   30.000;  -10.010;  610.760
1025.523;   29.141;  -10.550;  620.960
1026.072;   28.635;  -13.560;  606.420
1026.622;   29.422;  -15.120;  675.740
1027.172;   30.420;  -11.260;  715.660
1027.721;   29.038;  -11.410;  601.220
1028.270;   28.736;  -13.530;  663.400
1028.820;   29.253;  -13.680;  638.080
1029.369;   29.183;  -13.520;  612.700
1029.918;   28.203;  -10.980;  649.840
1030.468;   27.014;  -13.530;  564.780
1031.017;   27.958;  -13.170;  634.800
1031.566;   27.394;  -12.200;  608.900
1032.115;   27.754;   -9.960;  694.500
1032.664;   26.073;  -13.210;  596.480
1033.213;   27.373;  -12.500;  735.420
1033.762;   27.796;  -11.910;  635.620
1034.311;   27.796;   -9.640;  677.220
1034.860;   26.700;  -13.310;  691.000
1035.408;   27.382;  -11.830;  722.720
1035.957;   26.713;  -12.000;  719.540
1036.506;   24.768;  -11.690;  530.800
1037.055;   27.195;  -10.990;  844.320
1037.603;   24.965;  -15.120;  664.000
1038.152;   25.040;  -12.450;  534.760
1038.700;   24.698;  -10.560;  585.740
1039.249;   24.623;  -11.080;  681.220
1039.797;   24.645;  -12.540;  633.360
1040.345;   25.390;  -11.920;  705.420
1040.894;   24.381;  -11.410;  625.300
1041.442;   24.161;  -14.320;  632.200
1041.990;   23.295;  -16.240;  559.160
1042.538;   23.199;  -11.680;  536.180
1043.087;   22.939;  -10.760;  570.860
1043.635;   24.587;  -11.850;  670.500
1044.183;   23.366;  -15.480;  586.400
1044.731;   23.091;  -11.770;  576.000
1045.279;   22.595;  -13.090;  674.920
1045.827;   23.904;  -12.440;  892.400
1046.374;   22.285;  -13.840;  515.420
1046.922;   22.047;  -13.220;  590.580
1047.470;   23.358;  -10.230;  691.300
1048.018;   22.603;  -14.590;  647.960
1048.565;   22.862;  -12.050;  708.600
1049.113;   21.573;  -11.650;  557.000
1049.660;   21.190;  -10.510;  629.660
1050.208;   21.816;  -13.310;  675.640
1050.755;   21.147;  -15.900;  606.580
1051.303;   21.818;  -11.430;  686.820
1051.850;   21.835;   -8.480;  635.120
1052.397;   19.076;  -15.010;  473.960
1052.945;   20.224;  -13.960;  617.760
1053.492;   21.780;  -13.150;  741.840
1054.039;   21.617;   -9.630;  720.180
1054.586;   19.638;  -13.680;  557.240
1055.133;   20.790;  -14.570;  693.140
1055.680;   20.808;  -13.820;  646.620
1056.227;   19.245;  -11.730;  542.780
1056.774;   20.824;  -12.480;  794.980
1057.321;   18.918;  -13.930;  523.260
1057.868;   19.840;  -11.690;  651.320
1058.415;   19.150;   -9.520;  651.980
1058.961;   19.098;  -13.160;  678.940
1059.508;   18.718;  -12.920;  643.820
1060.055;   19.784;  -11.920;  581.780
1060.601;   19.027;  -11.500;  624.300
1061.148;   18.061;  -14.330;  616.820
1061.694;   18.147;  -16.870;  592.580
1062.241;   18.254;  -10.330;  596.320
1062.787;   19.064;  -10.620;  663.140
1063.334;   19.072;  -10.110;  808.560
1063.880;   17.819;  -13.400;  668.360
1064.426;   18.419;  -10.680;  706.820
1064.972;   17.458;   -9.920;  601.340
1065.518;   15.927;  -10.980;  566.640
1066.065;   17.925;  -14.890;  624.460
1066.611;   17.614;  -12.870;  598.800
1067.157;   17.836;  -12.950;  641.860
1067.703;   17.579;  -13.540;  668.480
1068.249;   17.241;  -13.540;  605.220
1068.794;   17.020;  -12.600;  626.880
1069.340;   16.002;  -10.620;  578.960
1069.886;   16.311;  -12.830;  590.700
1070.432;   15.234;  -14.870;  541.720
1070.977;   15.632;  -11.980;  601.080
1071.523;   15.752;   -8.200;  573.060
1072.068;   15.688;  -12.330;  582.000
1072.614;   15.635;  -16.370;  527.760
1073.160;   17.065;  -11.100;  687.040
1073.705;   15.181;  -10.480;  572.520
1074.250;   15.041;  -14.520;  559.900
1074.796;   15.689;  -11.460;  655.160
1075.341;   16.085;  -11.950;  664.100
1075.886;   15.123;  -11.460;  594.240
1076.431;   13.805;  -13.770;  649.880
1076.976;   14.710;  -12.680;  639.220
1077.521;   14.634;  -13.170;  583.080
1078.067;   14.318;  -10.860;  579.400
1078.612;   13.628;  -13.920;  661.620
1079.156;   14.379;  -13.880;  601.540
1079.701;   15.362;  -13.120;  693.260
1080.246;   14.711;   -9.940;  696.300
1080.791;   14.024;  -14.740;  625.020
1081.336;   13.795;  -13.750;  659.320
1081.880;   14.474;  -13.400;  649.680
1082.425;   13.438;  -12.220;  573.480
1082.970;   14.450;  -11.610;  717.040
1083.514;   13.111;  -13.580;  597.000
1084.059;   13.256;  -12.810;  586.720
1084.603;   12.949;  -12.320;  565.840
1085.147;   12.631;  -13.190;  645.220
1085.692;   13.755;  -12.480;  716.800
1086.236;   12.030;  -13.020;  503.140
1086.780;   13.890;   -9.190;  751.440
1087.325;   12.584;  -12.480;  654.620
1087.869;   12.886;  -12.450;  610.700
1088.413;   13.928;  -12.240;  705.040
1088.957;   11.545;   -9.020;  543.400
1089.501;   12.307;  -10.320;  766.640
1090.045;   12.089;  -12.720;  726.480
1090.589;   10.870;  -13.690;  569.920
1091.133;   12.337;  -10.020;  673.340
1091.676;   11.048;  -12.330;  591.940
1092.220;   11.131;  -14.970;  600.920
1092.764;   12.733;  -12.430;  706.960
1093.307;   11.281;   -9.800;  673.780
1093.851;    9.929;  -14.970;  556.540
1094.395;   10.870;  -15.310;  683.140
1094.938;   11.489;  -10.370;  632.520
1095.482;   10.325;  -11.050;  559.800
1096.025;   11.024;  -11.840;  710.880
1096.568;   11.469;  -12.840;  779.280
1097.112;    9.844;  -14.700;  508.180
1097.655;   10.853;   -8.720;  603.000
1098.198;    9.067;  -13.610;  600.180
1098.741;   10.075;  -13.350;  612.860
1099.285;   11.221;  -11.230;  657.300
1099.828;    9.058;  -11.840;  439.400
1100.371;    8.612;  -10.840;  608.160
1100.914;    9.389;  -14.190;  682.660
1101.457;   10.169;  -11.240;  679.900
1101.999;    8.943;  -11.270;  584.680
1102.542;    9.389;  -11.480;  641.440
1103.085;    9.696;  -11.750;  658.500
1103.628;   10.863;  -11.400;  762.060
1104.170;    9.295;  -10.490;  588.280
1104.713;    8.814;  -10.600;  646.700
1105.256;    8.279;  -14.360;  557.440
1105.798;    7.908;  -13.210;  499.980
1106.341;    9.781;  -10.270;  728.900
1106.883;    7.824;  -12.200;  521.340
1107.425;    7.846;  -13.110;  668.180
1107.968;    8.494;  -12.840;  612.380
1108.510;    8.606;   -6.480;  684.960
1109.052;    6.673;  -13.940;  612.620
1109.594;    7.465;  -13.690;  554.440
1110.136;    8.440;  -11.880;  643.220
1110.679;    7.373;   -9.500;  633.080
1111.221;    7.688;  -14.160;  604.460
1111.763;    7.061;  -13.980;  559.220
1112.304;    7.445;  -13.880;  547.140
1112.846;    7.814;  -12.210;  666.240
1113.388;    9.501;  -11.390;  942.180
1113.930;    7.031;  -14.540;  694.200
1114.472;    6.610;  -12.640;  606.540
1115.013;    5.467;  -11.620;  551.280
1115.555;    5.698;  -13.640;  587.100
1116.097;    5.086;  -15.380;  579.480
1116.638;    7.482;  -12.640;  684.600
1117.180;    7.306;   -9.850;  667.740
1117.721;    5.975;  -13.690;  568.580
1118.262;    6.519;  -12.680;  677.960
1118.804;    6.625;  -12.530;  637.340
1119.345;    6.036;  -11.690;  578.400
1119.886;    6.611;  -13.380;  704.040
1120.427;    5.392;  -14.070;  589.020
1120.969;    5.397;  -13.500;  597.920
1121.510;    5.341;  -11.480;  563.060
1122.051;    6.084;  -12.830;  723.580
1122.592;    4.676;  -14.290;  655.420
1123.133;    4.653;  -12.400;  547.940
1123.673;    6.277;  -10.130;  706.480
1124.214;    4.976;  -12.930;  612.460
1124.755;    5.718;  -14.380;  639.460
1125.296;    5.490;  -14.000;  627.320
1125.836;    5.490;  -10.070;  691.500
1126.377;    3.636;  -12.640;  599.660
1126.918;    4.654;  -12.960;  614.980
1127.458;    4.727;  -13.350;  622.220
1127.999;    5.244;  -10.750;  656.980
1128.539;    4.333;  -12.350;  694.240
1129.079;    4.132;  -14.860;  632.720
1129.620;    4.203;  -13.840;  558.100
1130.160;    4.463;  -12.330;  539.480
1130.700;    4.245;  -14.530;  640.840
1131.240;    4.281;  -12.530;  643.700
1131.781;    3.728;  -14.450;  619.680
1132.321;    3.611;   -9.790;  599.120
1132.861;    1.943;  -14.860;  564.200
1133.401;    3.232;  -14.290;  593.940
1133.941;    3.882;  -11.750;  626.280
1134.481;    3.161;   -9.920;  597.580
1135.020;    3.156;  -12.290;  609.160
1135.560;    3.145;  -11.650;  674.940
1136.100;    2.968;  -16.270;  501.160
1136.640;    2.943;  -10.890;  510.480
1137.179;    2.627;  -14.180;  537.960
1137.719;    3.006;  -16.250;  605.400
1138.258;    2.936;  -14.230;  587.360
1138.798;    3.640;   -9.090;  663.780
1139.337;    1.621;  -15.130;  482.840
1139.877;    2.720;  -13.680;  642.360
1140.416;    5.055;  -11.320;  878.060
1140.955;    2.289;  -10.860;  535.380
1141.494;    2.667;  -12.920;  669.280
1142.034;    1.898;  -13.930;  583.520
1142.573;    3.435;  -11.440;  646.280
1143.112;    1.464;  -12.000;  553.480
1143.651;    1.549;  -13.670;  536.480
1144.190;    2.038;  -12.730;  691.640
1144.729;    2.252;  -14.560;  607.420
1145.267;    1.884;  -11.830;  584.900
1145.806;    1.701;  -12.230;  637.040
1146.345;    1.270;  -14.130;  635.020
1146.884;    1.340;  -11.590;  622.500
1147.422;    1.513;  -12.550;  533.060
1147.961;    2.283;  -11.180;  708.460
1148.500;    2.599;  -11.510;  669.720
1149.038;    2.914;  -11.640;  632.500
1149.577;    1.674;  -10.130;  698.640
1150.115;   -1.231;  -13.970;  452.280
1150.653;    0.657;  -14.520;  607.340
1151.192;    1.467;  -12.810;  552.920
1151.730;    1.180;   -9.100;  652.560
1152.268;    0.509;  -12.220;  589.520
1152.806;   -0.058;  -14.140;  571.180
1153.344;   -0.003;  -12.350;  577.640
1153.882;    1.525;   -8.980;  600.060
1154.421;   -0.644;  -15.190;  470.620
1154.958;    0.223;  -15.210;  595.240
1155.496;    1.573;  -12.850;  645.280
1156.034;    1.639;   -9.940;  721.880
1156.572;    1.458;  -13.570;  667.060
1157.110;   -0.801;  -14.590;  473.940
1157.647;    0.787;  -13.030;  676.960
1158.185;   -0.128;  -12.140;  564.320
1158.723;   -1.814;  -14.390;  509.200
1159.260;    0.132;  -14.090;  701.700
1159.798;    0.483;  -11.920;  658.160
1160.335;    0.153;  -11.110;  631.820

