
Integration time [ms]:   3.276
Averaging Nr. [scans]: 1000
Smoothing Nr. [pixels]: 0
Data measured with spectrometer [name]: 7414430SP
Wave   ;Sample   ;Dark     ;Reference
[nm]   ;[counts] ;[counts] ;[counts] 

288.544;  153.562;    7.793;  793.890
289.143;  155.580;    7.462;  681.602
289.742;  155.286;    8.602;  828.814
290.341;  143.489;    1.321;  789.841
290.940;  134.870;   -0.709;  730.702
291.538;  135.748;    0.881;  881.108
292.137;  135.457;    0.122;  792.581
292.736;  138.226;   -1.929;  975.101
293.335;  135.020;   -8.229;  735.086
293.934;  133.967;   -5.279;  781.677
294.532;  133.798;   -1.369; 1031.958
295.131;  120.865;   -7.641;  834.394
295.730;  121.757;   -8.420;  809.588
296.328;  120.272;   -5.611;  783.442
296.927;  119.154;   -5.781;  779.652
297.525;  119.425;   -6.361;  781.236
298.124;  110.911;  -11.382;  654.009
298.722;  115.066;   -7.641;  761.933
299.321;  113.557;   -6.811;  708.597
299.919;  111.380;   -6.991;  751.918
300.518;  107.060;  -10.362;  689.338
301.116;  107.695;   -9.581;  691.381
301.715;  108.247;   -4.891;  730.222
302.313;  107.665;   -8.801;  704.943
302.911;  103.047;   -8.522;  733.830
303.509;  107.497;   -6.171;  925.627
304.108;  105.134;   -7.311;  760.383
304.706;  104.893;   -8.321;  801.664
305.304;  100.323;  -10.222;  796.707
305.902;  105.039;   -6.021;  784.484
306.500;  100.822;   -4.971;  728.200
307.098;   98.860;   -7.061;  746.560
307.696;   96.705;   -8.801;  780.432
308.294;   97.886;   -6.411;  731.359
308.892;   99.583;   -2.901;  759.769
309.490;   95.484;   -5.041;  712.161
310.088;   94.016;   -5.002;  788.444
310.686;   97.051;   -2.041;  821.749
311.284;   93.773;   -2.351;  766.040
311.882;   90.816;   -4.422;  731.225
312.480;   88.538;   -4.192;  697.167
313.078;   90.022;   -1.172;  808.331
313.675;   90.485;   -2.601;  691.600
314.273;   85.832;   -1.312;  797.837
314.871;   84.007;   -3.942;  589.829
315.468;   83.029;   -2.802;  652.090
316.066;   85.441;   -0.701;  694.427
316.664;   78.541;   -4.362;  656.351
317.261;   82.305;   -2.872;  910.128
317.859;   77.661;   -2.022;  768.735
318.456;   78.609;   -0.531;  830.096
319.054;   74.537;   -3.912;  787.828
319.651;   73.876;   -4.752;  759.928
320.249;   71.897;   -2.602;  810.188
320.846;   70.196;   -0.821;  714.286
321.443;   67.171;   -4.642;  832.135
322.041;   64.670;   -5.002;  812.315
322.638;   62.827;   -3.982;  701.456
323.235;   63.151;   -3.411;  665.683
323.833;   60.792;   -7.361;  740.354
324.430;   56.202;   -8.611;  615.900
325.027;   56.592;   -4.061;  876.855
325.624;   56.587;   -4.031;  644.532
326.221;   54.149;   -7.481;  689.717
326.818;   53.936;   -5.281;  818.332
327.415;   55.980;   -7.460;  748.828
328.012;   56.024;   -5.510;  690.585
328.609;   54.215;   -7.880;  731.389
329.206;   51.756;   -8.331;  778.621
329.803;   52.319;   -5.121;  737.841
330.400;   55.136;   -4.510;  704.260
330.997;   56.849;   -6.441;  817.147
331.594;   55.439;   -8.831;  788.185
332.191;   60.173;   -7.621;  728.722
332.787;   63.436;   -4.591;  844.463
333.384;   62.236;   -7.412;  763.093
333.981;   61.123;   -8.293;  815.687
334.578;   63.820;   -7.052;  708.378
335.174;   66.753;   -3.102;  731.469
335.771;   65.288;   -5.943;  836.456
336.367;   62.226;   -7.393;  710.631
336.964;   65.917;   -4.063;  793.266
337.561;   64.596;   -3.813;  731.112
338.157;   61.577;   -4.654;  911.916
338.754;   58.497;   -7.934;  796.589
339.350;   57.084;   -4.414;  722.493
339.946;   57.936;   -4.664;  773.135
340.543;   51.012;   -6.375;  846.136
341.139;   46.500;   -9.815;  720.836
341.735;   43.563;   -4.526;  772.593
342.332;   41.806;   -4.895;  691.472
342.928;   42.174;   -4.295;  795.394
343.524;   36.217;   -5.476;  761.684
344.120;   32.176;   -5.856;  738.562
344.716;   36.294;   -2.155;  723.717
345.313;   34.215;   -6.275;  795.342
345.909;   28.048;   -8.815;  627.336
346.505;   29.952;   -5.305;  740.247
347.101;   29.569;   -2.674;  827.864
347.697;   30.382;   -4.344;  785.398
348.293;   25.659;   -9.975;  627.244
348.889;   26.459;   -5.774;  745.914
349.485;   25.478;   -5.004;  688.205
350.081;   26.591;   -4.704;  772.592
350.676;   21.716;   -6.635;  691.606
351.272;   25.426;   -4.504;  809.530
351.868;   25.170;   -3.914;  780.497
352.464;   22.335;   -9.044;  723.932
353.059;   19.172;   -8.314;  646.017
353.655;   22.361;   -7.024;  777.063
354.251;   22.757;   -5.343;  759.845
354.846;   17.554;   -8.604;  740.646
355.442;   15.660;   -6.945;  753.071
356.038;   17.531;   -7.564;  751.708
356.633;   16.973;   -5.814;  728.594
357.229;   14.699;   -7.364;  724.757
357.824;   13.720;   -8.024;  703.600
358.420;   12.672;   -9.384;  679.726
359.015;   13.890;   -5.104;  695.357
359.610;   15.120;   -6.854;  763.920
360.206;    9.360;  -10.185;  603.240
360.801;   11.337;   -7.054;  646.503
361.396;   13.236;   -5.034;  725.975
361.992;    8.815;   -8.284;  668.220
362.587;    6.195;   -8.625;  670.160
363.182;    8.614;   -7.674;  689.631
363.777;    8.473;   -5.164;  738.242
364.372;    9.197;   -8.604;  737.314
364.967;    5.453;   -9.055;  680.744
365.563;    9.167;   -6.114;  815.567
366.158;    6.356;   -5.814;  685.161
366.753;    6.875;   -7.854;  649.263
367.348;    5.405;   -7.804;  746.056
367.942;    5.001;   -7.954;  697.298
368.537;    4.669;   -4.984;  754.245
369.132;    4.487;   -8.564;  703.428
369.727;    1.126;   -8.855;  638.079
370.322;    2.124;   -6.245;  580.186
370.917;    1.514;   -6.425;  710.646
371.511;    4.344;   -6.294;  861.834
372.106;    0.837;   -7.685;  776.964
372.701;   -2.178;   -7.335;  585.988
373.296;    3.270;   -4.564;  863.135
373.890;   -1.763;  -10.235;  647.840
374.485;   -4.087;   -7.885;  691.199
375.079;    0.550;   -7.324;  738.685
375.674;    1.820;   -3.494;  812.970
376.268;   -2.703;   -8.525;  691.759
376.863;   -7.693;  -10.086;  580.327
377.457;   -2.285;   -7.025;  662.490
378.052;   -3.583;   -3.585;  764.884
378.646;   -4.885;   -7.595;  741.167
379.240;   -5.218;   -8.335;  721.176
379.835;   -4.008;   -5.785;  636.978
380.429;   -6.164;   -4.335;  562.557
381.023;   -6.910;   -6.805;  779.205
381.617;   -8.252;   -9.195;  680.106
382.212;   -5.664;   -6.905;  685.303
382.806;   -5.154;   -3.745;  760.690
383.400;   -8.121;   -7.745;  672.281
383.994;   -9.739;   -9.765;  664.870
384.588;   -6.166;   -6.564;  697.701
385.182;   -4.992;   -5.344;  726.624
385.776;   -6.336;   -8.514;  706.875
386.370;   -8.782;   -9.555;  681.968
386.964;   -8.432;   -8.715;  684.155
387.558;   -6.508;   -6.174;  598.360
388.152;   -8.972;   -8.725;  681.959
388.745;   -8.072;   -7.965;  814.707
389.339;   -7.127;   -5.924;  747.642
389.933;   -6.045;   -5.524;  695.370
390.527;   -7.253;   -7.114;  859.029
391.120;  -12.511;  -10.725;  595.318
391.714;  -10.410;   -8.035;  711.633
392.308;   -6.879;   -3.574;  780.253
392.901;  -11.043;   -7.245;  642.460
393.495;  -12.290;   -9.285;  595.414
394.089;   -9.933;   -5.895;  760.452
394.682;  -10.333;   -4.295;  697.188
395.275;  -10.923;   -9.875;  719.927
395.869;  -12.155;   -8.485;  667.314
396.462;  -10.802;   -7.455;  616.609
397.056;   -7.507;   -5.424;  776.621
397.649;  -11.377;   -6.605;  731.575
398.242;   -9.280;   -8.224;  712.645
398.836;   -8.258;   -7.474;  766.408
399.429;   -9.373;   -7.094;  631.041
400.022;  -12.576;   -9.475;  665.902
400.615;   -9.663;   -7.145;  805.609
401.208;   -8.191;   -7.174;  691.451
401.802;  -10.530;   -5.515;  699.329
402.395;  -11.102;   -9.875;  683.502
402.988;  -12.227;   -8.845;  696.627
403.581;   -9.693;   -8.874;  646.878
404.174;   -7.415;   -5.324;  686.568
404.767;  -10.895;   -9.575;  638.583
405.360;  -12.194;  -10.965;  621.445
405.953;   -7.795;   -8.764;  759.034
406.545;   -6.805;   -7.514;  725.342
407.138;  -10.877;  -10.025;  618.350
407.731;   -9.347;  -10.034;  613.303
408.324;   -6.020;   -9.374;  660.554
408.917;   -6.135;   -6.534;  681.864
409.509;   -8.615;   -8.004;  740.396
410.102;  -10.554;   -9.875;  643.948
410.695;   -4.355;   -8.604;  665.758
411.287;   -5.656;   -6.794;  599.821
411.880;   -6.940;   -9.334;  585.421
412.472;   -9.621;  -10.254;  613.092
413.065;   -6.813;   -6.714;  629.408
413.657;   -5.028;   -7.234;  576.678
414.250;   -5.209;  -10.544;  646.681
414.842;   -5.770;   -9.744;  676.353
415.434;   -4.312;   -6.994;  570.463
416.027;   -0.275;   -5.893;  652.196
416.619;   -2.487;   -7.264;  713.400
417.211;   -2.748;  -10.374;  599.352
417.804;    0.721;   -7.993;  628.499
418.396;   -2.991;   -7.234;  607.643
418.988;   -1.698;   -9.443;  659.238
419.580;   -4.573;  -10.724;  568.276
420.172;   -2.528;  -10.323;  536.196
420.764;    1.740;   -8.793;  672.482
421.356;    0.961;  -11.143;  636.898
421.948;    0.076;   -8.293;  677.661
422.540;    4.323;   -7.893;  680.027
423.132;    4.164;   -7.082;  600.641
423.724;    1.409;   -8.653;  561.267
424.316;    3.230;  -10.213;  621.345
424.908;    6.119;   -9.762;  591.517
425.500;    7.536;   -5.572;  647.978
426.092;    7.251;   -8.422;  648.268
426.683;    6.921;   -9.283;  684.836
427.275;    8.975;   -7.852;  641.471
427.867;   11.031;   -5.272;  668.948
428.458;   11.567;   -7.682;  732.344
429.050;    9.536;  -10.612;  680.749
429.642;   11.799;   -9.882;  743.124
430.233;   12.334;   -6.962;  569.356
430.825;   13.488;   -6.842;  724.809
431.416;   11.580;   -9.672;  698.241
432.008;   14.645;   -6.552;  651.723
432.599;   14.772;   -6.891;  656.073
433.190;   12.393;  -10.912;  637.670
433.782;   12.281;  -11.172;  590.395
434.373;   19.142;   -6.061;  884.765
434.964;   17.899;   -8.251;  602.920
435.556;   15.194;   -9.722;  634.537
436.147;   17.609;   -9.082;  758.490
436.738;   18.468;   -8.041;  701.099
437.329;   23.292;   -7.341;  721.723
437.920;   16.194;   -8.162;  666.688
438.511;   16.411;  -11.802;  564.526
439.103;   23.034;  -10.191;  623.998
439.694;   24.525;   -7.601;  681.583
440.285;   25.345;   -8.541;  764.432
440.876;   24.274;   -9.751;  845.738
441.466;   23.099;   -9.401;  575.162
442.057;   28.428;   -7.760;  665.814
442.648;   26.765;   -9.971;  746.255
443.239;   25.739;  -11.001;  620.477
443.830;   29.766;   -7.990;  704.958
444.421;   32.035;   -7.910;  655.474
445.011;   28.772;   -8.131;  693.619
445.602;   28.750;   -7.111;  743.126
446.193;   30.574;  -10.920;  488.117
446.783;   34.512;   -6.500;  640.397
447.374;   31.057;   -8.671;  692.759
447.964;   30.998;  -10.781;  713.770
448.555;   38.560;   -9.650;  822.742
449.145;   35.643;   -8.660;  662.853
449.736;   36.540;   -8.990;  803.179
450.326;   36.321;   -9.500;  713.626
450.917;   41.298;   -8.680;  675.324
451.507;   40.463;   -7.520;  600.661
452.097;   41.047;   -8.590;  746.267
452.688;   41.764;  -11.340;  742.160
453.278;   41.736;  -10.100;  566.840
453.868;   46.183;   -6.019;  793.550
454.458;   44.368;   -9.440;  651.141
455.048;   45.282;  -10.560;  711.783
455.639;   46.927;  -11.799;  567.096
456.229;   49.063;   -6.899;  710.694
456.819;   51.726;   -7.389;  751.158
457.409;   51.768;  -11.119;  773.993
457.999;   54.774;   -9.289;  737.505
458.589;   54.255;   -6.139;  686.606
459.179;   54.523;   -8.729;  717.658
459.769;   52.226;   -9.789;  627.099
460.358;   57.587;  -10.259;  797.262
460.948;   57.657;   -7.299;  689.503
461.538;   58.846;  -10.289;  660.677
462.128;   56.706;  -11.269;  664.934
462.717;   63.601;   -9.368;  710.326
463.307;   66.703;   -7.908;  705.846
463.897;   62.456;   -9.599;  656.942
464.486;   62.109;   -9.769;  837.128
465.076;   65.778;   -8.048;  733.776
465.666;   69.872;   -9.358;  652.900
466.255;   67.719;   -7.919;  785.651
466.845;   66.770;  -11.689;  666.749
467.434;   70.551;   -7.818;  725.873
468.023;   70.790;   -7.678;  658.357
468.613;   68.699;  -10.939;  713.946
469.202;   73.797;  -10.118;  646.507
469.791;   77.099;   -9.108;  737.811
470.381;   78.451;   -6.058;  742.813
470.970;   78.917;  -10.428;  711.099
471.559;   78.045;  -10.268;  733.291
472.148;   82.042;   -8.448;  675.737
472.738;   83.853;   -6.917;  765.466
473.327;   83.784;  -11.978;  637.529
473.916;   83.486;  -11.888;  737.446
474.505;   87.189;   -9.437;  751.703
475.094;   90.606;   -6.747;  806.570
475.683;   90.071;   -9.367;  797.699
476.272;   91.649;  -12.637;  730.632
476.861;   94.653;  -10.027;  706.754
477.449;  100.765;   -8.716;  728.487
478.038;   95.276;   -9.577;  692.513
478.627;   97.243;   -9.718;  714.852
479.216;  104.422;   -8.947;  769.441
479.805;  106.750;   -6.256;  783.375
480.393;  106.530;   -7.937; 1008.945
480.982;  106.129;   -7.717;  874.501
481.571;  112.811;   -9.266;  858.333
482.159;  113.228;   -7.636;  705.386
482.748;  113.530;   -9.667;  821.385
483.336;  117.661;  -10.376;  858.209
483.925;  119.139;   -7.147;  774.373
484.513;  125.081;   -7.996;  758.962
485.102;  123.231;  -10.027;  810.965
485.690;  132.121;  -10.446; 1011.050
486.278;  134.175;   -8.446;  979.329
486.867;  135.799;   -6.356;  809.662
487.455;  138.604;   -9.136;  898.229
488.043;  140.327;  -10.646;  748.361
488.631;  149.140;   -7.456; 1005.079
489.220;  153.987;   -6.636;  908.626
489.808;  155.983;  -11.036;  741.415
490.396;  165.980;  -10.246;  914.645
490.984;  175.686;   -8.556;  830.161
491.572;  190.194;   -5.886;  940.315
492.160;  201.716;   -9.486;  919.081
492.748;  217.901;  -10.976;  884.341
493.336;  251.026;   -8.776; 1019.693
493.924;  297.285;   -5.465;  958.077
494.512;  354.849;   -9.986; 1066.638
495.100;  416.627;  -10.636; 1103.280
495.687;  517.397;  -10.885; 1206.373
496.275;  617.676;   -8.126; 1150.796
496.863;  721.720;  -10.586; 1281.171
497.451;  875.734;  -11.926; 1386.805
498.038; 1010.099;  -10.885; 1556.729
498.626; 1194.438;   -6.315; 1741.407
499.214; 1489.026;   -7.326; 2016.609
499.801; 1835.671;  -11.906; 2220.633
500.389; 2246.608;  -10.466; 2312.494
500.976; 2581.878;   -5.236; 2744.849
501.564; 3191.947;   -8.936; 3148.565
502.151; 3997.741;  -13.176; 3515.999
502.738; 4623.020;  -10.646; 3971.274
503.326; 5063.523;   -9.525; 4403.796
503.913; 5510.389;  -10.856; 5161.749
504.500; 6247.332;  -11.586; 5986.420
505.088; 6974.211;  -10.336; 6381.201
505.675; 7891.059;   -6.355; 6925.547
506.262; 8497.513;   -9.046; 7619.060
506.849; 8914.780;  -10.416; 8733.969
507.436; 9668.771;  -10.305; 9790.121
508.023;10211.969;   -5.496; 9985.472
508.610;10216.384;   -7.856;10434.618
509.197;11028.132;  -10.097;11198.435
509.784;12750.152;  -10.886;12391.194
510.371;14436.772;   -9.315;13603.713
510.958;15779.605;   -9.936;14426.586
511.545;16430.865;   -9.326;15243.775
512.132;16420.619;  -10.075;15945.876
512.719;17059.785;   -7.796;16340.369
513.305;18335.484;  -10.606;18011.766
513.892;20183.799;  -11.486;19754.971
514.479;21698.225;   -9.126;20967.805
515.066;22618.990;   -6.026;22299.793
515.652;22197.316;   -8.466;22908.660
516.239;22657.959;  -10.886;23798.875
516.825;23744.869;  -11.496;25567.275
517.412;25387.986;   -5.796;28154.959
517.998;26775.881;  -10.506;28344.111
518.585;27625.418;  -10.076;27134.219
519.171;26945.719;   -8.315;27268.576
519.758;28220.842;   -8.596;28964.129
520.344;30454.600;   -8.466;30664.494
520.930;29605.744;  -11.006;32550.605
521.516;28515.971;  -10.495;35422.895
522.103;30579.732;   -5.526;38280.004
522.689;32496.998;   -8.746;37835.117
523.275;33306.660;  -11.376;37288.613
523.861;35113.414;  -11.156;37281.395
524.447;34980.156;   -8.135;37846.949
525.033;35221.859;   -7.896;38321.949
525.619;36280.566;  -12.476;38579.285
526.205;36461.387;   -9.516;40622.875
526.791;35716.930;   -6.926;42258.836
527.377;34835.602;   -8.346;42966.902
527.963;36848.547;   -8.717;42018.949
528.549;37910.852;  -11.016;42476.828
529.135;36221.586;   -8.536;41854.852
529.721;36738.297;   -9.666;41237.711
530.306;35505.465;  -10.066;41259.445
530.892;35137.543;  -11.356;41506.047
531.478;36997.324;   -6.596;43559.613
532.063;39625.531;   -8.836;47695.563
532.649;38587.145;  -10.047;50808.324
533.235;39542.555;   -9.746;51787.500
533.820;41138.391;   -6.566;52145.035
534.406;42483.660;  -10.817;51133.488
534.991;44380.453;   -9.416;49996.805
535.576;42071.156;   -9.036;48882.852
536.162;39101.879;   -6.156;46942.285
536.747;39988.352;  -11.607;45711.746
537.333;41918.602;  -11.787;48510.180
537.918;42832.602;  -12.437;50439.891
538.503;43023.820;   -7.196;50863.711
539.088;44183.078;  -10.556;50906.922
539.673;44948.277;   -8.767;52621.965
540.259;41943.816;  -10.026;52368.094
540.844;42069.484;   -7.416;50879.109
541.429;41607.598;   -9.467;52077.777
542.014;40661.422;   -9.527;52716.695
542.599;43880.332;   -9.946;52363.281
543.184;44952.023;   -7.927;53187.137
543.769;45966.754;   -9.297;54697.605
544.354;46160.211;  -10.127;53913.914
544.938;43534.426;   -9.267;49680.164
545.523;42378.137;   -6.506;47386.277
546.108;45808.805;   -9.787;49151.949
546.693;45685.520;  -11.587;51384.637
547.278;44323.973;  -10.986;51853.254
547.862;44997.043;   -8.206;51173.750
548.447;43760.039;  -10.067;51691.395
549.031;43332.063;   -9.637;52456.703
549.616;43253.770;   -9.926;52714.516
550.201;42825.387;   -6.347;52414.598
550.785;43676.824;   -7.917;52355.059
551.370;44539.676;  -10.867;54589.453
551.954;45842.727;   -9.047;58267.348
552.538;44569.219;   -7.827;59062.176
553.123;42948.547;  -10.287;58115.285
553.707;41517.230;  -12.178;56556.285
554.291;40147.301;   -8.717;56201.668
554.876;42904.227;   -7.457;55335.762
555.460;45363.973;  -10.387;54155.703
556.044;46600.953;   -9.618;53721.484
556.628;46504.316;  -11.567;53731.016
557.212;47146.934;   -8.097;54312.531
557.796;49048.301;  -11.077;53797.773
558.380;47761.691;  -11.108;56145.984
558.964;45665.293;   -9.057;57277.930
559.548;43364.754;   -6.977;56459.641
560.132;41075.719;  -11.457;54434.543
560.716;42487.645;  -11.378;54800.617
561.300;43101.684;   -9.577;57606.945
561.884;41530.176;   -7.127;58972.445
562.467;42088.359;   -7.118;57327.570
563.051;40308.672;  -13.358;54962.434
563.635;37697.633;  -10.178;52594.473
564.219;39484.848;   -7.837;50610.410
564.802;43440.016;  -11.398;49551.180
565.386;44234.172;  -12.788;48370.953
565.969;44693.578;   -9.077;48178.871
566.553;44336.629;   -6.207;49957.305
567.136;43257.273;   -8.568;50369.594
567.720;44240.137;  -11.868;49492.004
568.303;45145.602;   -8.268;50616.352
568.887;43741.043;   -8.698;50727.148
569.470;41105.762;   -6.808;51698.379
570.053;38859.809;  -13.188;52122.078
570.637;36551.934;  -12.037;52536.438
571.220;37534.543;   -8.577;51186.098
571.803;37776.516;   -8.498;51032.762
572.386;39905.879;  -10.498;49609.887
572.969;41259.473;   -9.388;48285.926
573.552;42506.977;   -8.338;47624.285
574.135;42469.582;   -8.518;45498.641
574.718;37786.520;  -13.628;41970.434
575.301;36786.281;  -10.893;41447.137
575.884;35786.043;   -8.158;40923.836
576.467;41284.922;  -10.328;45267.723
577.050;42443.578;  -13.058;48175.543
577.633;40998.273;   -9.458;47729.328
578.216;37742.625;   -8.928;47579.793
578.799;35666.484;   -9.358;47820.996
579.381;36575.605;  -11.388;48115.551
579.964;36053.059;  -11.718;47333.766
580.547;34807.672;   -8.588;46668.969
581.129;35697.469;   -8.859;44466.141
581.712;37671.688;  -10.729;44164.922
582.294;37464.738;  -11.118;46477.855
582.877;37800.992;   -5.218;48244.254
583.459;37853.891;   -8.679;47437.895
584.042;39249.871;  -10.709;46943.219
584.624;37895.461;  -11.669;46792.227
585.206;36901.000;   -8.218;46557.250
585.789;37368.219;  -10.569;45793.773
586.371;37686.344;  -11.859;43836.391
586.953;38688.969;  -10.719;42972.492
587.536;40490.293;   -7.198;42487.211
588.118;39387.867;   -8.720;42086.414
588.700;38173.680;  -10.439;43389.930
589.282;36095.313;   -9.198;43646.039
589.864;33761.902;   -9.199;43438.109
590.446;33309.605;  -11.319;43151.926
591.028;33308.117;  -11.159;42781.867
591.610;32958.918;  -11.779;42839.098
592.192;34090.898;   -7.668;42820.402
592.774;33689.914;  -11.949;40724.277
593.356;32390.609;  -12.129;39874.789
593.937;32889.133;  -10.669;39980.648
594.519;34325.734;   -6.509;42069.633
595.101;33570.379;  -10.849;42976.031
595.683;32093.531;  -11.679;44084.441
596.264;31489.586;   -9.049;43478.797
596.846;31053.215;   -8.849;43803.672
597.427;31415.953;   -9.570;42986.934
598.009;33732.086;  -12.620;42832.219
598.591;33765.289;  -10.039;42580.086
599.172;35404.230;  -10.369;43061.805
599.753;37269.266;   -9.140;41691.469
600.335;36587.195;  -11.430;40692.520
600.916;33931.578;   -9.939;39982.422
601.498;31220.078;   -8.479;40318.617
602.079;30261.414;  -10.920;40670.609
602.660;30250.678;  -11.480;41450.898
603.241;32172.975;  -11.699;41137.738
603.823;33006.469;   -9.579;38868.797
604.404;32690.918;  -10.620;38182.785
604.985;35095.707;  -10.450;38078.047
605.566;35820.508;   -9.129;38056.633
606.147;36984.922;   -7.510;37020.418
606.728;35503.418;  -10.660;37883.359
607.309;33251.281;  -11.740;38748.273
607.890;32714.111;   -9.759;38850.230
608.471;31709.596;   -8.250;37457.918
609.051;31287.416;   -9.240;36066.457
609.632;29932.234;  -12.120;35991.074
610.213;30018.361;   -9.110;37402.641
610.794;31650.098;   -8.030;38383.363
611.374;30892.914;   -8.110;40562.387
611.955;30812.400;  -13.560;38533.727
612.536;31511.301;  -11.400;36951.789
613.116;30734.137;   -8.070;37197.891
613.697;31712.668;  -10.830;38411.125
614.277;31468.273;  -11.641;38673.938
614.858;31149.766;  -13.310;37075.863
615.438;31669.607;   -7.460;35092.906
616.019;29331.361;   -7.601;33666.301
616.599;30058.342;  -12.020;34189.023
617.179;30146.283;  -11.780;36952.047
617.760;28980.625;   -8.570;39582.574
618.340;29077.600;  -11.471;38943.977
618.920;28502.498;  -11.170;37594.156
619.500;29309.113;  -11.071;37866.938
620.080;30266.354;   -7.750;37869.043
620.660;30890.039;  -12.711;36868.617
621.241;31501.148;  -10.211;36352.309
621.821;30589.326;  -10.961;35459.520
622.401;30851.508;   -7.720;35207.414
622.980;32959.465;   -8.981;35980.422
623.560;31324.336;   -9.331;37351.328
624.140;27423.465;   -9.850;34388.582
624.720;24018.117;   -7.451;32368.764
625.300;23368.557;   -9.070;32638.629
625.880;27187.559;  -12.601;34599.035
626.459;30380.324;  -11.751;36831.738
627.039;30443.016;   -9.281;38299.098
627.619;30019.932;   -8.801;38289.574
628.198;29454.475;  -12.071;37220.695
628.778;29262.762;   -9.461;37632.563
629.357;29956.736;   -8.491;38003.012
629.937;30134.332;   -9.721;38402.039
630.516;31136.217;   -9.951;37868.801
631.096;32877.574;  -11.731;35760.410
631.675;35484.672;   -8.572;35225.219
632.254;34855.238;  -11.282;35130.289
632.834;33274.492;  -13.322;35794.570
633.413;34002.625;  -10.301;35788.922
633.992;34701.129;   -8.582;34532.863
634.571;35222.527;   -8.352;33590.113
635.151;34018.156;  -11.912;34943.863
635.730;32359.684;  -10.511;35352.523
636.309;32374.002;   -7.731;35366.605
636.888;32230.623;   -9.952;36165.637
637.467;31947.232;  -11.672;37515.902
638.046;30031.828;   -8.901;39288.695
638.625;29167.832;   -7.912;38279.699
639.204;28348.887;  -10.022;37741.598
639.782;30357.549;  -12.252;38364.551
640.361;31461.363;  -10.041;36740.621
640.940;30065.584;  -11.161;34950.082
641.519;30304.168;   -9.701;34137.398
642.097;31536.260;  -11.271;35654.258
642.676;30978.484;   -8.651;35637.957
643.255;30227.768;   -8.711;36567.074
643.833;31101.539;   -9.581;37809.434
644.412;31818.836;  -13.711;37337.293
644.990;32940.770;  -11.811;37018.531
645.569;35029.602;   -9.411;36518.469
646.147;35673.445;  -10.291;36186.430
646.726;34828.910;  -12.401;36267.688
647.304;33809.980;  -10.411;36647.625
647.882;34265.930;   -9.651;39286.742
648.461;33177.215;   -9.631;39157.703
649.039;30173.725;  -11.881;35412.883
649.617;30011.213;   -9.661;34744.918
650.195;30413.004;   -9.301;35403.098
650.773;30086.518;  -10.511;35053.797
651.352;29741.768;  -11.521;33756.816
651.930;29148.266;  -12.211;31868.773
652.508;28854.031;   -9.171;33121.551
653.086;29872.266;   -9.371;33564.793
653.663;32124.016;  -13.161;34054.668
654.241;30603.693;  -13.031;35693.309
654.819;28241.822;   -9.371;36422.906
655.397;28792.830;  -10.511;38213.484
655.975;28931.578;  -10.371;39507.625
656.553;30627.514;  -10.051;39498.223
657.130;31253.895;  -10.061;40395.480
657.708;27284.803;   -9.561;39242.020
658.286;24227.094;  -11.511;38920.020
658.863;24659.654;  -10.261;40202.898
659.441;27700.984;   -7.531;39677.938
660.018;30425.016;   -9.501;40413.355
660.596;31219.385;  -13.301;39931.414
661.173;33474.949;  -11.211;39604.531
661.750;32123.342;   -9.951;39700.070
662.328;29588.402;   -9.390;39292.809
662.905;27937.432;  -11.330;38235.648
663.482;25111.109;   -9.050;36212.305
664.060;23789.414;   -8.240;35944.945
664.637;27639.787;  -10.050;35170.785
665.214;31272.160;  -11.760;34197.523
665.791;30016.451;  -10.530;34549.520
666.368;30721.617;   -9.690;35118.578
666.945;31926.104;   -9.320;36019.418
667.522;32367.262;  -11.860;36048.438
668.099;32149.834;  -10.770;36243.914
668.676;33538.980;   -6.260;35958.875
669.253;34949.723;   -7.000;37384.730
669.830;34297.797;  -10.190;36779.629
670.407;32447.412;   -9.550;35231.289
670.984;31462.230;   -9.260;35544.270
671.560;30312.854;   -9.280;35466.867
672.137;28688.893;  -11.810;34280.863
672.714;28505.584;  -11.490;34632.863
673.290;29348.771;   -7.740;35135.422
673.867;29242.010;  -10.660;36114.480
674.443;28184.943;  -12.230;36152.859
675.020;27107.336;  -10.450;35327.238
675.596;25855.611;   -9.260;35795.176
676.173;26633.609;  -10.780;35430.355
676.749;27311.164;  -13.690;33549.516
677.326;28035.338;  -11.980;32210.012
677.902;25712.313;   -8.630;32068.871
678.478;24601.096;  -10.730;32583.891
679.054;26725.008;  -10.520;32088.928
679.631;27598.553;  -11.920;30978.848
680.207;28260.172;   -7.490;33160.887
680.783;29635.775;   -9.860;35570.363
681.359;31274.379;  -13.380;36125.184
681.935;31776.281;  -12.480;35240.922
682.511;31662.193;   -7.900;34429.961
683.087;31141.025;   -7.710;34463.680
683.663;31691.705;  -11.480;34648.898
684.239;31829.439;  -14.090;34546.457
684.815;32993.305;   -7.560;35586.375
685.390;32607.824;   -9.910;35821.895
685.966;31653.354;  -11.159;35085.871
686.542;32340.512;  -11.169;34198.230
687.118;31201.586;   -5.959;32847.707
687.693;31190.832;  -10.329;32794.027
688.269;30182.424;  -12.059;33072.367
688.844;30926.328;  -10.909;33141.664
689.420;32031.910;   -8.019;33965.742
689.995;28819.271;   -8.399;34655.523
690.571;27410.654;  -10.949;33576.742
691.146;26562.703;   -9.619;32657.219
691.722;25190.082;   -8.999;32526.979
692.297;25352.098;  -11.589;33014.617
692.872;26227.713;  -11.739;34012.254
693.448;26293.725;  -11.059;34237.434
694.023;27869.168;  -10.139;34142.672
694.598;29750.572;   -9.029;34132.031
695.173;29003.982;  -13.319;34205.250
695.748;26603.453;  -10.169;32882.488
696.323;25097.098;   -8.339;32864.906
696.898;25872.809;   -8.169;33170.004
697.473;28648.631;  -12.309;32432.984
698.048;27381.273;  -10.989;31649.303
698.623;25898.771;   -9.329;30778.141
699.198;27111.832;   -9.849;31140.119
699.773;28542.553;  -12.329;31764.299
700.348;28326.074;  -10.389;31780.816
700.922;26729.217;   -9.269;32046.375
701.497;25843.447;   -9.329;32603.574
702.072;27747.008;  -10.789;34799.871
702.646;27977.170;  -10.839;35793.172
703.221;28766.820;   -9.099;35201.590
703.795;28857.449;  -10.939;34764.527
704.370;27149.449;  -12.859;34307.367
704.944;28192.723;  -11.559;33509.887
705.519;29158.777;   -7.939;31388.584
706.093;30515.742;  -10.499;31340.104
706.668;31580.109;  -11.289;32630.281
707.242;30694.729;  -11.509;32728.779
707.816;29711.338;   -9.639;32947.238
708.390;29385.527;  -11.429;33277.855
708.965;30172.262;  -11.869;33834.336
709.539;30485.596;  -11.689;33709.273
710.113;30229.855;  -10.478;33044.313
710.687;27704.504;  -10.228;31953.992
711.261;26679.078;  -13.698;30505.949
711.835;26237.314;  -13.378;30262.369
712.409;26550.227;   -9.698;31254.447
712.983;25685.012;  -11.898;32754.986
713.557;24541.363;  -15.138;34018.824
714.131;26081.035;  -14.098;34579.625
714.704;25922.176;   -9.958;33890.262
715.278;25682.852;  -10.028;33531.102
715.852;24986.871;  -11.148;33601.660
716.425;24339.574;   -9.068;33515.117
716.999;25548.059;  -10.038;33185.555
717.573;25983.303;   -9.798;33905.996
718.146;27654.834;  -12.378;35199.293
718.720;28453.123;  -11.918;35060.551
719.293;27487.285;   -8.088;34973.230
719.867;26362.066;  -10.888;36394.449
720.440;27261.910;  -11.938;36663.008
721.013;29533.080;  -12.818;35102.426
721.587;31313.219;  -10.298;33985.266
722.160;30866.398;  -10.048;33524.965
722.733;28394.426;  -12.108;32987.043
723.306;25967.176;  -10.818;33066.301
723.880;26256.074;   -8.908;33399.500
724.453;25332.162;   -9.878;33468.297
725.026;25628.699;  -11.188;33816.637
725.599;26017.291;  -11.678;32797.996
726.172;25203.203;   -9.618;33187.434
726.745;26111.154;   -8.258;35136.613
727.318;29057.371;  -12.978;35751.730
727.891;30726.850;  -12.148;35890.430
728.463;31499.395;   -8.968;34822.090
729.036;31318.799;  -10.188;32895.086
729.609;29178.686;  -11.788;31823.225
730.182;27951.391;  -11.788;31445.283
730.754;27610.230;  -10.268;32373.223
731.327;27469.055;   -9.998;33676.820
731.900;26720.750;  -12.228;33417.000
732.472;25681.383;  -13.848;31978.498
733.045;25669.680;   -8.698;30368.777
733.617;25244.574;  -10.607;30574.215
734.190;23291.348;  -11.507;31280.975
734.762;23585.617;  -13.647;31674.412
735.334;24801.623;   -9.767;31247.291
735.907;24186.879;   -9.897;29876.211
736.479;22260.066;  -11.637;29808.488
737.051;22751.984;   -9.567;30233.547
737.623;23655.131;   -8.187;31469.086
738.195;24795.287;  -11.187;31784.225
738.768;25229.957;  -12.337;32120.523
739.340;24911.951;  -12.227;32094.342
739.912;24721.248;  -11.057;31312.680
740.484;25496.840;  -10.207;31946.238
741.056;26672.930;  -10.047;32984.059
741.628;26381.469;  -13.627;33897.715
742.199;27060.961;   -7.177;33213.016
742.771;25313.682;  -10.797;31369.113
743.343;23818.883;  -11.997;31865.473
743.915;23478.488;  -12.867;32388.631
744.487;23850.496;   -7.617;31079.568
745.058;24872.506;   -9.557;30570.107
745.630;24206.266;   -9.877;29970.127
746.201;22679.555;  -14.177;29186.766
746.773;22696.107;   -9.237;28805.723
747.344;23394.727;   -9.847;29591.223
747.916;23081.273;  -11.657;31412.201
748.487;21903.422;  -10.587;32194.898
749.059;21679.373;   -8.707;32533.719
749.630;20650.887;  -10.537;32158.518
750.201;20476.393;  -11.687;30855.395
750.773;21014.047;  -11.647;28622.555
751.344;22689.371;   -7.147;28405.732
751.915;22819.033;   -9.757;28461.551
752.486;22493.813;  -12.427;27842.850
753.057;21155.840;  -12.227;27845.008
753.628;20444.162;  -10.417;27728.107
754.199;20173.830;  -11.767;27381.086
754.770;19742.262;  -11.187;25882.203
755.341;19431.205;  -10.507;25886.184
755.912;19733.852;   -9.387;26050.861
756.483;19971.316;  -10.647;26798.779
757.054;18931.775;  -11.837;27048.238
757.625;17264.842;  -12.716;26294.838
758.195;17240.111;   -9.666;26142.076
758.766;18166.967;   -8.656;26392.234
759.337;17609.908;  -12.856;26334.594
759.907;16790.889;  -13.366;27579.652
760.478;16115.797;   -8.576;28352.770
761.048;16474.768;  -10.526;27325.088
761.619;16946.146;  -11.116;26460.428
762.189;16529.207;  -12.136;26029.826
762.760;16296.863;   -9.456;26430.145
763.330;16286.374;   -7.136;26670.902
763.900;15967.702;  -11.786;26603.021
764.471;15488.249;  -11.546;25542.740
765.041;15527.261;   -8.096;24358.459
765.611;15547.018;   -8.876;23991.297
766.181;15625.354;  -12.196;24470.236
766.751;16407.752;  -11.636;24845.975
767.321;16333.168;  -10.156;24533.633
767.891;15848.537;  -11.766;24916.492
768.461;15510.754;  -14.936;24776.771
769.031;14817.978;  -12.356;24757.988
769.601;14585.963;   -7.526;24181.088
770.171;14907.248;  -10.766;23670.387
770.741;15724.846;  -13.176;22960.045
771.311;15444.418;  -10.616;22917.523
771.880;14053.475;   -9.576;23562.941
772.450;13501.550;  -10.336;24216.500
773.020;13814.718;  -13.516;24140.398
773.589;13984.329;  -13.466;24414.857
774.159;13524.096;   -8.686;23858.717
774.729;12631.366;   -9.476;22942.135
775.298;12562.634;  -13.666;22324.033
775.867;12668.505;  -11.716;21140.313
776.437;12059.095;   -9.906;20838.092
777.006;11967.339;  -12.166;20599.510
777.576;13115.645;  -12.356;20508.809
778.145;12730.631;  -11.646;20732.947
778.714;12176.646;   -8.226;21062.465
779.283;11963.139;   -9.556;20949.664
779.853;11607.886;  -14.116;20508.623
780.422;11462.195;  -11.506;20649.082
780.991;11894.758;   -9.556;21527.520
781.560;12381.867;   -9.095;22632.658
782.129;11485.054;  -12.135;23048.277
782.698;10831.163;  -10.865;23438.555
783.267;10461.720;   -9.335;23267.734
783.836;10524.657;  -11.045;22415.133
784.404;10914.168;  -13.865;20443.152
784.973;11119.666;  -13.095;19699.150
785.542;10962.745;  -11.575;19763.828
786.111;10788.596;   -9.705;20341.408
786.679;10713.520;  -12.105;20207.967
787.248;10643.793;  -12.455;19516.465
787.817;10660.159;  -11.535;18900.363
788.385;10514.310;   -9.765;17879.121
788.954;10440.974;  -14.005;17658.301
789.522;10319.837;  -11.955;17788.879
790.090; 9599.512;  -10.135;18118.277
790.659; 9056.445;  -10.975;18338.736
791.227; 9328.840;  -13.375;18508.615
791.795; 9731.886;  -12.375;17898.254
792.364; 9941.699;  -10.725;17295.133
792.932;10262.248;   -9.715;16822.051
793.500;10316.185;  -12.675;17040.148
794.068;10847.101;  -13.495;17179.787
794.636;10998.542;  -10.885;16664.246
795.204;10777.717;  -11.045;16524.545
795.772;10786.863;  -13.175;17274.564
796.340;10401.646;  -12.445;17891.002
796.908;10371.031;   -9.735;17648.561
797.476;10646.064;   -9.815;17064.080
798.044;10588.221;  -13.985;16672.777
798.612; 9997.721;  -13.115;17023.996
799.180; 9125.129;  -10.185;16561.615
799.747; 9121.040;   -9.055;15962.773
800.315; 9526.892;  -12.385;15296.992
800.883; 8937.844;  -15.035;14801.771
801.450; 8361.569;  -10.365;14534.430
802.018; 8278.125;   -9.855;14173.248
802.585; 8343.732;  -11.905;14029.547
803.153; 8495.113;  -11.585;13836.846
803.720; 8256.059;   -9.095;13567.324
804.287; 8150.263;   -9.135;13360.622
804.855; 8273.712;  -11.604;13681.981
805.422; 8840.266;  -11.794;13536.560
805.989; 9122.067;  -10.734;13355.958
806.556; 9122.501;  -10.444;13747.896
807.124; 9640.569;  -12.764;13987.376
807.691;10014.058;  -12.964;14038.674
808.258; 9968.976;  -11.134;14120.152
808.825; 9961.420;   -9.854;13860.111
809.392; 9527.659;  -10.504;13268.790
809.959; 8702.347;  -13.054;12680.389
810.526; 7984.810;   -8.294;12427.308
811.093; 7334.807;   -8.394;12030.105
811.659; 7154.950;  -12.304;11653.664
812.226; 7384.720;  -13.944;11637.183
812.793; 7770.063;  -10.484;11611.521
813.360; 7841.199;  -10.144;11885.181
813.926; 7845.408;  -11.684;12770.539
814.493; 7802.925;  -13.644;12677.638
815.060; 7795.771;   -9.724;11974.336
815.626; 7992.131;   -9.854;11594.715
816.193; 7903.967;  -13.254;11579.474
816.759; 7199.987;  -13.204;11666.972
817.325; 6809.157;   -9.434;11325.530
817.892; 6725.731;  -10.134;11105.369
818.458; 6932.965;  -13.474;10843.928
819.024; 7252.545;  -11.854;10714.406
819.591; 7117.259;  -10.244;10469.165
820.157; 6847.541;  -10.704;10235.523
820.723; 6827.992;  -12.324;10847.563
821.289; 6677.942;   -9.444;11040.980
821.855; 6713.258;   -8.374;10357.100
822.421; 7012.515;  -10.234; 9978.918
822.987; 6999.362;  -13.294; 9754.177
823.553; 6797.836;  -10.884;10065.755
824.119; 6557.856;   -8.884;10036.294
824.685; 5996.702;   -6.784;10029.192
825.251; 5781.981;  -12.004;10199.230
825.816; 5388.656;  -11.474; 9820.189
826.382; 5167.310;   -9.174; 9297.248
826.948; 5489.029;   -9.214; 9381.347
827.513; 5859.111;  -10.774; 9450.726
828.079; 5827.947;  -11.924; 9472.444
828.645; 5591.203;  -10.543; 9292.643
829.210; 5430.069;  -10.533; 9065.341
829.776; 5361.087;  -10.753; 9132.620
830.341; 5515.715;  -10.173; 9092.878
830.906; 5555.598;  -10.743; 9078.557
831.472; 5386.181;  -11.113; 8534.535
832.037; 5081.676;  -10.603; 8677.874
832.602; 4922.975;  -13.323; 8628.692
833.167; 4660.852;  -10.823; 8879.031
833.733; 4491.919;  -10.113; 9189.790
834.298; 4279.782;  -13.583; 9052.608
834.863; 4407.035;  -12.703; 8895.087
835.428; 4505.394;  -10.523; 8824.266
835.993; 4391.287;   -6.963; 8845.385
836.558; 4393.536;  -10.763; 8888.563
837.123; 4623.524;   -9.903; 8966.582
837.688; 5000.048;   -9.913; 8617.860
838.253; 4988.919;  -10.283; 8590.699
838.817; 4690.852;  -12.963; 8443.797
839.382; 4595.496;  -14.243; 8799.356
839.947; 4614.221;  -10.733; 8810.595
840.511; 4534.808;   -9.383; 8796.394
841.076; 4386.086;  -12.563; 8347.231
841.641; 4263.489;  -12.953; 8224.330
842.205; 4169.731;   -7.043; 8223.349
842.770; 3972.792;   -8.163; 8622.107
843.334; 4165.068;  -12.503; 8410.386
843.898; 4359.550;  -11.693; 8337.465
844.463; 3949.621;  -10.203; 8506.283
845.027; 3659.765;   -9.533; 8280.962
845.591; 3662.335;  -13.443; 8231.141
846.156; 3647.560;  -13.143; 7969.179
846.720; 3489.949;   -9.433; 7768.278
847.284; 3484.500;  -11.033; 7630.957
847.848; 3546.727;  -10.403; 7472.395
848.412; 3380.435;  -11.553; 7437.394
848.976; 3229.578;   -8.393; 7674.592
849.540; 3202.305;   -8.713; 7836.011
850.104; 3226.087;  -12.463; 7913.669
850.668; 3311.738;  -12.973; 7694.508
851.232; 3310.356;  -10.793; 7756.887
851.796; 3395.093;  -10.662; 7926.545
852.359; 3503.312;  -13.082; 7827.844
852.923; 3506.923;  -12.192; 7641.163
853.487; 3464.169;  -11.912; 7342.501
854.050; 3286.804;  -10.892; 7042.820
854.614; 3387.429;  -13.992; 7151.338
855.177; 3446.199;  -11.732; 7105.077
855.741; 3279.841;   -8.962; 6989.675
856.304; 3133.982;   -9.442; 6596.634
856.868; 3000.334;  -14.192; 6356.272
857.431; 2981.259;  -12.702; 6468.571
857.995; 3070.948;   -9.942; 6373.210
858.558; 3191.839;   -9.112; 6324.448
859.121; 3077.396;  -12.932; 6408.327
859.684; 2939.894;  -13.442; 6347.886
860.247; 2887.864;  -10.632; 6321.264
860.810; 2851.675;  -11.272; 6301.903
861.374; 2780.516;   -9.832; 6607.881
861.937; 2689.209;  -11.762; 6408.200
862.500; 2677.355;   -9.722; 6572.639
863.062; 2619.482;  -10.512; 6387.297
863.625; 2587.008;  -11.232; 6190.836
864.188; 2623.309;  -14.112; 5807.254
864.751; 2650.235;  -11.302; 5682.413
865.314; 2564.534;  -10.112; 5547.492
865.876; 2469.168;  -12.182; 5500.150
866.439; 2359.089;  -10.722; 5415.909
867.002; 2278.695;   -9.252; 5501.567
867.564; 2355.427;   -9.572; 5413.946
868.127; 2386.692;  -13.142; 5160.325
868.689; 2405.794;  -12.902; 5133.183
869.252; 2469.777;   -9.732; 5252.382
869.814; 2401.426;   -9.432; 5297.141
870.377; 2336.036;  -11.552; 5390.919
870.939; 2339.221;   -9.052; 5599.898
871.501; 2263.276;  -10.982; 5248.336
872.063; 2162.482;  -12.292; 4854.235
872.626; 2105.432;  -14.912; 4817.074
873.188; 2030.514;  -13.112; 4987.732
873.750; 2003.759;  -13.442; 4868.651
874.312; 1963.925;   -9.402; 4779.330
874.874; 1939.510;  -11.062; 4866.348
875.436; 1831.481;  -13.931; 4718.887
875.998; 1717.567;   -9.561; 4660.005
876.560; 1698.229;  -11.321; 4462.964
877.122; 1756.254;  -12.221; 4145.042
877.683; 1853.724;  -12.191; 4056.481
878.245; 1885.152;  -12.101; 3950.740
878.807; 1912.644;   -8.971; 4058.958
879.369; 1854.321;  -12.071; 3954.677
879.930; 1725.299;  -14.621; 3941.495
880.492; 1652.757;  -10.311; 4067.014
881.053; 1640.858;  -10.901; 3859.633
881.615; 1595.104;  -14.411; 3776.071
882.176; 1520.625;  -13.761; 3734.750
882.738; 1472.783;   -9.181; 3678.489
883.299; 1476.792;  -11.791; 3405.407
883.860; 1491.633;  -13.121; 3351.106
884.422; 1424.025;  -11.211; 3394.044
884.983; 1328.609;  -10.091; 3166.443
885.544; 1282.839;   -8.461; 3189.802
886.105; 1219.862;  -12.361; 3160.360
886.666; 1161.514;  -14.141; 3093.059
887.227; 1133.682;  -11.361; 2941.957
887.788; 1069.562;  -11.401; 2974.836
888.349;  971.429;  -13.791; 2721.214
888.910;  932.123;  -13.191; 2696.493
889.471;  903.773;   -9.881; 2560.172
890.032;  909.368;   -9.881; 2558.190
890.593;  884.689;  -10.371; 2567.669
891.153;  793.889;  -13.301; 2460.307
891.714;  699.573;  -11.431; 2372.046
892.275;  665.425;  -11.291; 2309.505
892.835;  667.026;  -11.471; 2382.543
893.396;  648.391;  -11.541; 2295.502
893.956;  616.388;  -11.181; 2162.420
894.517;  577.569;  -11.741; 2125.439
895.077;  528.579;  -11.671; 2086.978
895.638;  493.555;  -11.311; 2126.316
896.198;  482.090;   -9.831; 1838.275
896.758;  468.094;   -8.421; 1892.813
897.319;  449.460;  -12.351; 1792.232
897.879;  428.336;  -13.511; 1762.751
898.439;  392.680;  -12.001; 1661.149
898.999;  370.818;  -10.180; 1781.468
899.559;  364.222;  -12.030; 1703.347
900.119;  355.487;  -15.710; 1537.525
900.679;  343.857;   -8.900; 1638.384
901.239;  324.398;   -8.340; 1527.902
901.799;  296.792;  -13.910; 1456.441
902.359;  276.487;  -13.460; 1357.140
902.919;  270.507;  -11.490; 1331.118
903.479;  269.779;  -12.110; 1317.257
904.038;  262.338;  -11.720; 1262.595
904.598;  253.361;  -13.610; 1152.034
905.158;  242.577;  -11.040; 1240.893
905.717;  227.113;  -10.900; 1233.691
906.277;  220.235;  -15.080; 1217.330
906.836;  218.939;  -13.380; 1222.408
907.396;  215.439;  -10.780; 1193.047
907.955;  207.683;   -8.500; 1182.526
908.515;  201.678;  -12.760; 1099.364
909.074;  202.832;  -11.900; 1092.863
909.633;  200.847;   -8.950; 1069.121
910.192;  197.601;   -8.770; 1196.460
910.752;  187.400;  -12.390; 1029.960
911.311;  176.518;  -13.680; 1009.780
911.870;  167.354;  -12.370;  971.460
912.429;  162.284;  -10.900; 1094.080
912.988;  160.833;  -11.690; 1081.060
913.547;  158.142;  -13.240;  940.380
914.106;  156.777;  -11.990;  999.420
914.665;  154.383;   -9.990;  984.020
915.224;  153.051;  -12.880; 1035.760
915.782;  151.429;  -12.350;  922.560
916.341;  149.485;   -9.110; 1049.840
916.900;  146.931;   -9.270;  925.260
917.458;  144.892;  -13.240;  884.220
918.017;  143.485;  -13.550;  942.600
918.576;  140.820;  -12.320;  904.440
919.134;  139.531;  -11.490;  837.980
919.693;  138.598;  -13.670;  893.060
920.251;  136.768;  -15.470;  876.500
920.809;  136.865;  -11.290;  839.580
921.368;  136.114;  -10.210;  885.360
921.926;  134.648;  -12.140;  842.940
922.484;  132.255;  -13.080;  903.360
923.042;  131.454;  -11.720;  880.340
923.601;  131.416;   -7.480;  998.680
924.159;  130.298;  -11.570;  935.560
924.717;  128.173;  -13.840;  841.080
925.275;  128.034;  -10.640;  903.240
925.833;  126.491;  -11.540;  779.320
926.391;  128.642;  -12.960;  938.380
926.949;  127.933;  -14.130;  857.680
927.506;  127.882;  -11.750;  903.500
928.064;  127.913;  -10.250;  877.580
928.622;  128.749;  -13.030;  880.100
929.180;  130.545;  -13.400;  814.180
929.737;  131.708;  -10.700;  808.540
930.295;  134.187;  -10.070;  928.480
930.853;  133.052;  -11.960;  849.100
931.410;  134.862;  -13.120;  821.120
931.968;  136.506;  -10.770;  940.660
932.525;  136.651;  -10.680;  909.380
933.082;  135.581;  -13.130;  811.440
933.640;  136.685;  -13.210;  925.900
934.197;  136.673;  -11.060;  886.360
934.754;  137.165;   -9.580;  897.780
935.312;  138.925;  -14.000;  863.340
935.869;  140.597;  -10.710; 1012.980
936.426;  138.314;   -9.860;  872.800
936.983;  138.060;   -9.710;  889.020
937.540;  139.357;  -13.990;  838.280
938.097;  144.434;  -14.040;  940.120
938.654;  147.790;  -10.310;  898.860
939.211;  147.912;  -10.560;  952.480
939.768;  146.948;  -13.900;  915.420
940.324;  149.326;  -14.760;  904.200
940.881;  150.773;  -10.370;  878.500
941.438;  154.848;   -8.260; 1021.200
941.995;  153.766;  -12.540;  992.560
942.551;  153.917;  -14.670;  875.620
943.108;  155.204;  -10.450;  937.920
943.664;  154.813;  -10.750;  869.340
944.221;  161.288;  -11.550; 1088.140
944.777;  160.070;  -14.770;  869.680
945.334;  158.976;  -12.820;  884.840
945.890;  153.038;  -10.130;  946.480
946.446;  153.247;  -13.470;  947.020
947.003;  154.239;  -12.120;  964.940
947.559;  153.949;   -9.980; 1063.040
948.115;  149.299;   -9.080; 1026.540
948.671;  147.500;  -10.830;  967.300
949.227;  147.470;  -12.440;  859.560
949.783;  146.255;  -12.910;  858.900
950.339;  151.879;  -10.270;  991.000
950.895;  153.631;  -13.630; 1023.840
951.451;  152.002;  -15.100;  925.280
952.007;  150.113;  -11.330;  998.540
952.563;  145.475;  -10.580;  937.780
953.118;  142.000;  -13.440;  904.940
953.674;  142.613;  -12.710;  935.780
954.230;  144.723;  -10.350;  949.640
954.785;  147.551;   -9.190;  936.640
955.341;  149.457;  -11.200;  998.160
955.897;  144.612;  -16.560;  834.660
956.452;  142.452;  -12.570;  953.840
957.008;  139.887;   -7.970; 1083.640
957.563;  135.412;  -11.940; 1009.540
958.118;  130.991;  -13.450;  877.700
958.674;  130.260;  -12.030;  946.780
959.229;  131.274;   -9.410; 1013.980
959.784;  131.724;  -12.000;  832.400
960.339;  133.353;  -14.780; 1001.280
960.894;  131.194;   -9.860;  963.760
961.449;  127.238;   -9.970;  859.960
962.004;  128.173;  -10.900; 1212.840
962.559;  124.868;  -13.150;  860.140
963.114;  122.400;  -13.740;  742.480
963.669;  121.316;   -9.820;  915.500
964.224;  120.431;  -13.890;  874.340
964.779;  120.471;  -12.600;  828.420
965.334;  121.803;  -10.950; 1017.860
965.888;  119.577;  -11.170;  875.360
966.443;  119.839;  -12.540;  972.380
966.998;  116.744;  -15.780;  819.460
967.552;  115.211;   -9.760;  908.380
968.107;  114.094;   -9.060;  868.300
968.661;  113.994;  -11.950;  922.440
969.216;  111.323;  -12.800;  856.280
969.770;  109.709;  -11.210;  917.200
970.324;  110.034;  -11.610;  923.140
970.879;  110.928;  -11.370;  947.180
971.433;  112.473;  -12.540;  952.720
971.987;  109.750;  -11.320;  895.340
972.541;  107.060;  -10.720;  917.100
973.095;  107.189;   -9.680; 1009.460
973.649;  104.617;  -11.440;  809.480
974.203;  102.233;  -11.210;  829.040
974.757;  102.459;  -10.240;  855.220
975.311;  103.421;  -13.720;  872.600
975.865;  102.824;  -13.770;  881.820
976.419;  100.182;  -11.690;  857.400
976.973;   96.984;   -9.510;  849.620
977.526;   96.666;  -12.620;  949.920
978.080;   94.125;  -12.010;  796.780
978.634;   93.663;  -10.170;  921.320
979.187;   92.694;   -9.020;  905.400
979.741;   94.541;   -9.820; 1018.380
980.294;   91.682;  -14.870;  789.160
980.848;   90.253;  -12.380;  717.220
981.401;   91.145;  -10.350;  816.540
981.955;   90.538;  -13.720;  844.300
982.508;   87.083;  -11.490;  746.340
983.061;   87.604;  -10.000;  915.260
983.615;   84.959;  -11.480;  798.800
984.168;   83.231;  -13.220;  770.080
984.721;   82.245;  -13.960;  880.760
985.274;   80.075;  -10.870;  867.500
985.827;   78.316;   -9.790;  834.220
986.380;   75.606;  -13.120;  721.340
986.933;   74.741;  -12.450;  864.800
987.486;   74.577;  -10.210;  861.920
988.039;   75.288;   -8.430;  863.100
988.591;   74.298;  -10.520;  893.260
989.144;   72.030;  -14.860;  737.260
989.697;   70.877;  -13.080;  758.740
990.250;   70.438;  -10.150;  858.100
990.802;   69.056;  -13.430;  755.860
991.355;   68.719;  -12.750;  974.880
991.907;   66.275;  -12.040;  864.320
992.460;   63.832;  -11.330;  753.760
993.012;   62.908;  -13.610;  749.540
993.565;   60.635;  -13.460;  711.360
994.117;   62.105;   -9.360;  950.780
994.669;   59.265;  -11.300;  701.320
995.221;   58.056;  -13.540;  791.920
995.774;   57.834;  -13.430;  787.580
996.326;   56.145;  -12.520;  740.220
996.878;   55.792;  -10.950;  838.420
997.430;   53.437;  -14.300;  699.860
997.982;   51.846;  -13.760;  750.140
998.534;   51.708;  -11.530;  739.060
999.086;   50.785;  -10.310;  738.220
999.638;   50.298;  -12.530;  661.380
1000.190;   49.105;  -11.840;  699.320
1000.741;   48.016;  -10.260;  742.700
1001.293;   48.376;   -8.860;  686.020
1001.845;   47.552;  -13.700;  676.640
1002.396;   46.925;  -12.100;  743.400
1002.948;   46.607;  -12.760;  737.400
1003.500;   44.677;  -10.380;  723.780
1004.051;   45.542;  -11.900;  907.580
1004.603;   44.301;  -12.250;  791.820
1005.154;   41.070;  -13.210;  608.980
1005.705;   39.899;  -10.950;  723.960
1006.257;   39.688;  -13.880;  707.220
1006.808;   38.708;  -12.840;  685.460
1007.359;   39.168;  -10.570;  763.240
1007.910;   37.864;   -9.620;  646.640
1008.461;   37.565;  -13.630;  732.940
1009.013;   36.143;  -17.200;  588.340
1009.564;   37.322;  -10.200;  793.520
1010.115;   35.170;  -12.570;  597.040
1010.665;   35.835;  -15.150;  602.160
1011.216;   35.159;  -14.480;  667.920
1011.767;   35.059;  -11.340;  697.920
1012.318;   34.660;   -9.780;  736.980
1012.869;   34.028;  -12.380;  679.000
1013.419;   34.053;  -15.560;  603.120
1013.970;   34.238;  -11.010;  666.640
1014.521;   33.048;  -11.610;  620.620
1015.071;   33.906;  -13.450;  670.380
1015.622;   33.046;  -13.870;  635.460
1016.172;   32.586;  -11.610;  596.820
1016.723;   32.577;  -12.120;  614.380
1017.273;   31.394;  -13.620;  604.160
1017.823;   31.620;  -14.140;  650.340
1018.374;   31.210;  -12.800;  611.760
1018.924;   31.371;  -12.340;  716.880
1019.474;   31.522;  -11.410;  718.880
1020.024;   30.463;  -14.770;  657.580
1020.574;   30.760;   -9.780;  726.160
1021.124;   31.018;   -8.560;  673.580
1021.674;   30.311;  -15.190;  559.120
1022.224;   31.142;  -13.530;  708.940
1022.774;   30.293;  -13.280;  668.820
1023.324;   30.814;  -10.690;  753.520
1023.874;   31.544;  -10.240;  875.760
1024.423;   29.046;  -12.540;  613.700
1024.973;   28.916;  -10.010;  610.760
1025.523;   28.393;  -10.550;  620.960
1026.072;   27.951;  -13.560;  606.420
1026.622;   28.731;  -15.120;  675.740
1027.172;   29.306;  -11.260;  715.660
1027.721;   27.673;  -11.410;  601.220
1028.270;   28.017;  -13.530;  663.400
1028.820;   28.054;  -13.680;  638.080
1029.369;   27.471;  -13.520;  612.700
1029.918;   27.393;  -10.980;  649.840
1030.468;   27.486;  -13.530;  564.780
1031.017;   27.372;  -13.170;  634.800
1031.566;   26.387;  -12.200;  608.900
1032.115;   26.666;   -9.960;  694.500
1032.664;   25.416;  -13.210;  596.480
1033.213;   27.093;  -12.500;  735.420
1033.762;   26.475;  -11.910;  635.620
1034.311;   25.931;   -9.640;  677.220
1034.860;   25.676;  -13.310;  691.000
1035.408;   26.564;  -11.830;  722.720
1035.957;   26.375;  -12.000;  719.540
1036.506;   23.814;  -11.690;  530.800
1037.055;   26.679;  -10.990;  844.320
1037.603;   24.882;  -15.120;  664.000
1038.152;   23.498;  -12.450;  534.760
1038.700;   24.314;  -10.560;  585.740
1039.249;   24.024;  -11.080;  681.220
1039.797;   24.577;  -12.540;  633.360
1040.345;   24.577;  -11.920;  705.420
1040.894;   23.235;  -11.410;  625.300
1041.442;   23.801;  -14.320;  632.200
1041.990;   22.609;  -16.240;  559.160
1042.538;   22.621;  -11.680;  536.180
1043.087;   22.222;  -10.760;  570.860
1043.635;   23.511;  -11.850;  670.500
1044.183;   22.621;  -15.480;  586.400
1044.731;   21.211;  -11.770;  576.000
1045.279;   21.955;  -13.090;  674.920
1045.827;   23.990;  -12.440;  892.400
1046.374;   21.092;  -13.840;  515.420
1046.922;   20.262;  -13.220;  590.580
1047.470;   22.498;  -10.230;  691.300
1048.018;   21.879;  -14.590;  647.960
1048.565;   22.825;  -12.050;  708.600
1049.113;   20.658;  -11.650;  557.000
1049.660;   20.172;  -10.510;  629.660
1050.208;   21.077;  -13.310;  675.640
1050.755;   19.756;  -15.900;  606.580
1051.303;   20.825;  -11.430;  686.820
1051.850;   20.432;   -8.480;  635.120
1052.397;   19.212;  -15.010;  473.960
1052.945;   19.898;  -13.960;  617.760
1053.492;   20.411;  -13.150;  741.840
1054.039;   20.833;   -9.630;  720.180
1054.586;   18.565;  -13.680;  557.240
1055.133;   20.020;  -14.570;  693.140
1055.680;   19.715;  -13.820;  646.620
1056.227;   18.339;  -11.730;  542.780
1056.774;   20.222;  -12.480;  794.980
1057.321;   18.829;  -13.930;  523.260
1057.868;   18.626;  -11.690;  651.320
1058.415;   17.484;   -9.520;  651.980
1058.961;   19.044;  -13.160;  678.940
1059.508;   18.245;  -12.920;  643.820
1060.055;   18.172;  -11.920;  581.780
1060.601;   18.300;  -11.500;  624.300
1061.148;   17.865;  -14.330;  616.820
1061.694;   17.932;  -16.870;  592.580
1062.241;   17.347;  -10.330;  596.320
1062.787;   17.605;  -10.620;  663.140
1063.334;   18.286;  -10.110;  808.560
1063.880;   18.146;  -13.400;  668.360
1064.426;   17.105;  -10.680;  706.820
1064.972;   16.860;   -9.920;  601.340
1065.518;   15.218;  -10.980;  566.640
1066.065;   16.736;  -14.890;  624.460
1066.611;   16.240;  -12.870;  598.800
1067.157;   16.250;  -12.950;  641.860
1067.703;   16.685;  -13.540;  668.480
1068.249;   15.895;  -13.540;  605.220
1068.794;   16.215;  -12.600;  626.880
1069.340;   14.929;  -10.620;  578.960
1069.886;   15.036;  -12.830;  590.700
1070.432;   14.619;  -14.870;  541.720
1070.977;   14.640;  -11.980;  601.080
1071.523;   14.914;   -8.200;  573.060
1072.068;   15.033;  -12.330;  582.000
1072.614;   14.909;  -16.370;  527.760
1073.160;   15.333;  -11.100;  687.040
1073.705;   14.009;  -10.480;  572.520
1074.250;   14.156;  -14.520;  559.900
1074.796;   15.851;  -11.460;  655.160
1075.341;   14.993;  -11.950;  664.100
1075.886;   14.000;  -11.460;  594.240
1076.431;   13.981;  -13.770;  649.880
1076.976;   13.941;  -12.680;  639.220
1077.521;   13.075;  -13.170;  583.080
1078.067;   12.942;  -10.860;  579.400
1078.612;   14.051;  -13.920;  661.620
1079.156;   13.605;  -13.880;  601.540
1079.701;   13.356;  -13.120;  693.260
1080.246;   13.534;   -9.940;  696.300
1080.791;   12.992;  -14.740;  625.020
1081.336;   13.645;  -13.750;  659.320
1081.880;   13.322;  -13.400;  649.680
1082.425;   12.501;  -12.220;  573.480
1082.970;   14.274;  -11.610;  717.040
1083.514;   13.025;  -13.580;  597.000
1084.059;   11.845;  -12.810;  586.720
1084.603;   11.352;  -12.320;  565.840
1085.147;   12.426;  -13.190;  645.220
1085.692;   13.231;  -12.480;  716.800
1086.236;   11.630;  -13.020;  503.140
1086.780;   13.299;   -9.190;  751.440
1087.325;   12.443;  -12.480;  654.620
1087.869;   11.933;  -12.450;  610.700
1088.413;   11.851;  -12.240;  705.040
1088.957;   10.207;   -9.020;  543.400
1089.501;   11.992;  -10.320;  766.640
1090.045;   11.766;  -12.720;  726.480
1090.589;    9.755;  -13.690;  569.920
1091.133;   11.497;  -10.020;  673.340
1091.676;   10.955;  -12.330;  591.940
1092.220;   11.060;  -14.970;  600.920
1092.764;   11.522;  -12.430;  706.960
1093.307;   10.840;   -9.800;  673.780
1093.851;    9.833;  -14.970;  556.540
1094.395;   10.526;  -15.310;  683.140
1094.938;    9.978;  -10.370;  632.520
1095.482;    9.444;  -11.050;  559.800
1096.025;   10.607;  -11.840;  710.880
1096.568;   10.819;  -12.840;  779.280
1097.112;    8.768;  -14.700;  508.180
1097.655;   10.161;   -8.720;  603.000
1098.198;    8.607;  -13.610;  600.180
1098.741;    9.298;  -13.350;  612.860
1099.285;    9.641;  -11.230;  657.300
1099.828;    7.900;  -11.840;  439.400
1100.371;    8.801;  -10.840;  608.160
1100.914;    9.355;  -14.190;  682.660
1101.457;    8.726;  -11.240;  679.900
1101.999;    7.714;  -11.270;  584.680
1102.542;    8.959;  -11.480;  641.440
1103.085;    9.138;  -11.750;  658.500
1103.628;    9.516;  -11.400;  762.060
1104.170;    7.778;  -10.490;  588.280
1104.713;    8.348;  -10.600;  646.700
1105.256;    7.824;  -14.360;  557.440
1105.798;    7.560;  -13.210;  499.980
1106.341;    9.229;  -10.270;  728.900
1106.883;    7.033;  -12.200;  521.340
1107.425;    7.662;  -13.110;  668.180
1107.968;    7.668;  -12.840;  612.380
1108.510;    8.166;   -6.480;  684.960
1109.052;    6.803;  -13.940;  612.620
1109.594;    7.165;  -13.690;  554.440
1110.136;    7.083;  -11.880;  643.220
1110.679;    7.163;   -9.500;  633.080
1111.221;    8.031;  -14.160;  604.460
1111.763;    6.464;  -13.980;  559.220
1112.304;    5.644;  -13.880;  547.140
1112.846;    7.037;  -12.210;  666.240
1113.388;    8.971;  -11.390;  942.180
1113.930;    6.408;  -14.540;  694.200
1114.472;    6.269;  -12.640;  606.540
1115.013;    5.285;  -11.620;  551.280
1115.555;    5.533;  -13.640;  587.100
1116.097;    5.172;  -15.380;  579.480
1116.638;    6.669;  -12.640;  684.600
1117.180;    6.547;   -9.850;  667.740
1117.721;    5.181;  -13.690;  568.580
1118.262;    7.202;  -12.680;  677.960
1118.804;    5.862;  -12.530;  637.340
1119.345;    4.691;  -11.690;  578.400
1119.886;    5.782;  -13.380;  704.040
1120.427;    4.806;  -14.070;  589.020
1120.969;    4.332;  -13.500;  597.920
1121.510;    4.282;  -11.480;  563.060
1122.051;    4.942;  -12.830;  723.580
1122.592;    4.639;  -14.290;  655.420
1123.133;    3.741;  -12.400;  547.940
1123.673;    6.240;  -10.130;  706.480
1124.214;    4.712;  -12.930;  612.460
1124.755;    5.447;  -14.380;  639.460
1125.296;    4.774;  -14.000;  627.320
1125.836;    5.025;  -10.070;  691.500
1126.377;    3.765;  -12.640;  599.660
1126.918;    4.455;  -12.960;  614.980
1127.458;    3.968;  -13.350;  622.220
1127.999;    4.322;  -10.750;  656.980
1128.539;    4.211;  -12.350;  694.240
1129.079;    4.503;  -14.860;  632.720
1129.620;    3.462;  -13.840;  558.100
1130.160;    3.556;  -12.330;  539.480
1130.700;    3.868;  -14.530;  640.840
1131.240;    4.933;  -12.530;  643.700
1131.781;    3.397;  -14.450;  619.680
1132.321;    3.659;   -9.790;  599.120
1132.861;    2.672;  -14.860;  564.200
1133.401;    2.687;  -14.290;  593.940
1133.941;    2.945;  -11.750;  626.280
1134.481;    2.452;   -9.920;  597.580
1135.020;    2.424;  -12.290;  609.160
1135.560;    3.865;  -11.650;  674.940
1136.100;    2.096;  -16.270;  501.160
1136.640;    1.987;  -10.890;  510.480
1137.179;    2.155;  -14.180;  537.960
1137.719;    2.844;  -16.250;  605.400
1138.258;    2.117;  -14.230;  587.360
1138.798;    2.536;   -9.090;  663.780
1139.337;    1.384;  -15.130;  482.840
1139.877;    2.538;  -13.680;  642.360
1140.416;    3.917;  -11.320;  878.060
1140.955;    1.084;  -10.860;  535.380
1141.494;    2.513;  -12.920;  669.280
1142.034;    1.836;  -13.930;  583.520
1142.573;    2.876;  -11.440;  646.280
1143.112;    1.224;  -12.000;  553.480
1143.651;    1.178;  -13.670;  536.480
1144.190;    2.604;  -12.730;  691.640
1144.729;    0.956;  -14.560;  607.420
1145.267;    0.921;  -11.830;  584.900
1145.806;    2.093;  -12.230;  637.040
1146.345;    1.637;  -14.130;  635.020
1146.884;    1.266;  -11.590;  622.500
1147.422;    0.739;  -12.550;  533.060
1147.961;    2.931;  -11.180;  708.460
1148.500;    1.748;  -11.510;  669.720
1149.038;    1.235;  -11.640;  632.500
1149.577;    1.369;  -10.130;  698.640
1150.115;   -0.251;  -13.970;  452.280
1150.653;    1.140;  -14.520;  607.340
1151.192;   -0.165;  -12.810;  552.920
1151.730;    0.780;   -9.100;  652.560
1152.268;    0.264;  -12.220;  589.520
1152.806;   -0.371;  -14.140;  571.180
1153.344;   -0.822;  -12.350;  577.640
1153.882;    0.466;   -8.980;  600.060
1154.421;   -0.531;  -15.190;  470.620
1154.958;    0.552;  -15.210;  595.240
1155.496;    0.075;  -12.850;  645.280
1156.034;    0.139;   -9.940;  721.880
1156.572;    0.547;  -13.570;  667.060
1157.110;   -0.850;  -14.590;  473.940
1157.647;   -0.032;  -13.030;  676.960
1158.185;   -0.818;  -12.140;  564.320
1158.723;   -0.962;  -14.390;  509.200
1159.260;    0.073;  -14.090;  701.700
1159.798;    0.317;  -11.920;  658.160
1160.335;   -0.455;  -11.110;  631.820

