
Integration time [ms]:   3.276
Averaging Nr. [scans]: 1000
Smoothing Nr. [pixels]: 0
Data measured with spectrometer [name]: 7414430SP
Wave   ;Sample   ;Dark     ;Reference
[nm]   ;[counts] ;[counts] ;[counts] 

288.544;  157.287;    7.793;  793.890
289.143;  160.149;    7.462;  681.602
289.742;  161.579;    8.602;  828.814
290.341;  149.276;    1.321;  789.841
290.940;  139.157;   -0.709;  730.702
291.538;  139.419;    0.881;  881.108
292.137;  138.605;    0.122;  792.581
292.736;  141.904;   -1.929;  975.101
293.335;  138.277;   -8.229;  735.086
293.934;  138.519;   -5.279;  781.677
294.532;  137.513;   -1.369; 1031.958
295.131;  124.568;   -7.641;  834.394
295.730;  124.691;   -8.420;  809.588
296.328;  123.180;   -5.611;  783.442
296.927;  122.399;   -5.781;  779.652
297.525;  123.640;   -6.361;  781.236
298.124;  113.805;  -11.382;  654.009
298.722;  117.610;   -7.641;  761.933
299.321;  115.351;   -6.811;  708.597
299.919;  113.418;   -6.991;  751.918
300.518;  109.956;  -10.362;  689.338
301.116;  111.533;   -9.581;  691.381
301.715;  111.288;   -4.891;  730.222
302.313;  111.099;   -8.801;  704.943
302.911;  106.468;   -8.522;  733.830
303.509;  111.644;   -6.171;  925.627
304.108;  108.241;   -7.311;  760.383
304.706;  107.282;   -8.321;  801.664
305.304;  102.232;  -10.222;  796.707
305.902;  107.790;   -6.021;  784.484
306.500;  103.011;   -4.971;  728.200
307.098;  101.131;   -7.061;  746.560
307.696;   98.815;   -8.801;  780.432
308.294;  100.122;   -6.411;  731.359
308.892;  101.250;   -2.901;  759.769
309.490;   97.760;   -5.041;  712.161
310.088;   95.086;   -5.002;  788.444
310.686;  100.038;   -2.041;  821.749
311.284;   95.336;   -2.351;  766.040
311.882;   93.327;   -4.422;  731.225
312.480;   90.318;   -4.192;  697.167
313.078;   91.837;   -1.172;  808.331
313.675;   91.331;   -2.601;  691.600
314.273;   87.144;   -1.312;  797.837
314.871;   86.700;   -3.942;  589.829
315.468;   84.314;   -2.802;  652.090
316.066;   87.911;   -0.701;  694.427
316.664;   80.386;   -4.362;  656.351
317.261;   83.663;   -2.872;  910.128
317.859;   79.813;   -2.022;  768.735
318.456;   79.954;   -0.531;  830.096
319.054;   75.793;   -3.912;  787.828
319.651;   74.593;   -4.752;  759.928
320.249;   74.055;   -2.602;  810.188
320.846;   70.863;   -0.821;  714.286
321.443;   68.961;   -4.642;  832.135
322.041;   65.201;   -5.002;  812.315
322.638;   63.393;   -3.982;  701.456
323.235;   63.798;   -3.411;  665.683
323.833;   61.100;   -7.361;  740.354
324.430;   56.532;   -8.611;  615.900
325.027;   56.003;   -4.061;  876.855
325.624;   56.945;   -4.031;  644.532
326.221;   54.193;   -7.481;  689.717
326.818;   53.489;   -5.281;  818.332
327.415;   56.375;   -7.460;  748.828
328.012;   55.561;   -5.510;  690.585
328.609;   53.731;   -7.880;  731.389
329.206;   51.568;   -8.331;  778.621
329.803;   51.164;   -5.121;  737.841
330.400;   54.804;   -4.510;  704.260
330.997;   56.876;   -6.441;  817.147
331.594;   55.251;   -8.831;  788.185
332.191;   59.453;   -7.621;  728.722
332.787;   62.823;   -4.591;  844.463
333.384;   62.933;   -7.412;  763.093
333.981;   62.617;   -8.293;  815.687
334.578;   64.722;   -7.052;  708.378
335.174;   66.351;   -3.102;  731.469
335.771;   67.254;   -5.943;  836.456
336.367;   64.019;   -7.393;  710.631
336.964;   67.129;   -4.063;  793.266
337.561;   66.393;   -3.813;  731.112
338.157;   61.285;   -4.654;  911.916
338.754;   60.372;   -7.934;  796.589
339.350;   57.493;   -4.414;  722.493
339.946;   58.440;   -4.664;  773.135
340.543;   51.846;   -6.375;  846.136
341.139;   45.929;   -9.815;  720.836
341.735;   42.641;   -4.526;  772.593
342.332;   40.969;   -4.895;  691.472
342.928;   42.237;   -4.295;  795.394
343.524;   35.339;   -5.476;  761.684
344.120;   30.905;   -5.856;  738.562
344.716;   35.106;   -2.155;  723.717
345.313;   31.539;   -6.275;  795.342
345.909;   26.459;   -8.815;  627.336
346.505;   28.679;   -5.305;  740.247
347.101;   29.438;   -2.674;  827.864
347.697;   29.262;   -4.344;  785.398
348.293;   24.293;   -9.975;  627.244
348.889;   25.184;   -5.774;  745.914
349.485;   23.488;   -5.004;  688.205
350.081;   24.961;   -4.704;  772.592
350.676;   19.419;   -6.635;  691.606
351.272;   23.899;   -4.504;  809.530
351.868;   22.679;   -3.914;  780.497
352.464;   21.268;   -9.044;  723.932
353.059;   17.318;   -8.314;  646.017
353.655;   21.021;   -7.024;  777.063
354.251;   21.614;   -5.343;  759.845
354.846;   15.655;   -8.604;  740.646
355.442;   13.888;   -6.945;  753.071
356.038;   15.051;   -7.564;  751.708
356.633;   15.489;   -5.814;  728.594
357.229;   13.958;   -7.364;  724.757
357.824;   12.025;   -8.024;  703.600
358.420;   10.757;   -9.384;  679.726
359.015;   11.676;   -5.104;  695.357
359.610;   12.536;   -6.854;  763.920
360.206;    6.638;  -10.185;  603.240
360.801;    9.090;   -7.054;  646.503
361.396;   11.034;   -5.034;  725.975
361.992;    6.378;   -8.284;  668.220
362.587;    3.897;   -8.625;  670.160
363.182;    5.458;   -7.674;  689.631
363.777;    6.743;   -5.164;  738.242
364.372;    6.218;   -8.604;  737.314
364.967;    2.365;   -9.055;  680.744
365.563;    6.503;   -6.114;  815.567
366.158;    3.628;   -5.814;  685.161
366.753;    4.351;   -7.854;  649.263
367.348;    2.405;   -7.804;  746.056
367.942;    1.810;   -7.954;  697.298
368.537;    1.106;   -4.984;  754.245
369.132;    1.776;   -8.564;  703.428
369.727;   -2.476;   -8.855;  638.079
370.322;   -1.434;   -6.245;  580.186
370.917;   -1.183;   -6.425;  710.646
371.511;    1.055;   -6.294;  861.834
372.106;   -2.663;   -7.685;  776.964
372.701;   -5.749;   -7.335;  585.988
373.296;   -0.199;   -4.564;  863.135
373.890;   -4.677;  -10.235;  647.840
374.485;   -6.816;   -7.885;  691.199
375.079;   -2.960;   -7.324;  738.685
375.674;   -1.907;   -3.494;  812.970
376.268;   -5.930;   -8.525;  691.759
376.863;  -11.572;  -10.086;  580.327
377.457;   -5.295;   -7.025;  662.490
378.052;   -7.909;   -3.585;  764.884
378.646;   -8.494;   -7.595;  741.167
379.240;   -9.071;   -8.335;  721.176
379.835;   -8.351;   -5.785;  636.978
380.429;  -10.558;   -4.335;  562.557
381.023;   -9.620;   -6.805;  779.205
381.617;  -12.278;   -9.195;  680.106
382.212;   -8.843;   -6.905;  685.303
382.806;   -8.500;   -3.745;  760.690
383.400;  -12.884;   -7.745;  672.281
383.994;  -12.883;   -9.765;  664.870
384.588;   -9.349;   -6.564;  697.701
385.182;   -8.817;   -5.344;  726.624
385.776;   -9.817;   -8.514;  706.875
386.370;  -12.947;   -9.555;  681.968
386.964;  -11.883;   -8.715;  684.155
387.558;   -9.966;   -6.174;  598.360
388.152;  -13.269;   -8.725;  681.959
388.745;  -11.908;   -7.965;  814.707
389.339;   -9.828;   -5.924;  747.642
389.933;   -9.635;   -5.524;  695.370
390.527;  -10.595;   -7.114;  859.029
391.120;  -16.886;  -10.725;  595.318
391.714;  -13.631;   -8.035;  711.633
392.308;  -11.641;   -3.574;  780.253
392.901;  -14.965;   -7.245;  642.460
393.495;  -15.235;   -9.285;  595.414
394.089;  -13.725;   -5.895;  760.452
394.682;  -14.403;   -4.295;  697.188
395.275;  -15.429;   -9.875;  719.927
395.869;  -16.650;   -8.485;  667.314
396.462;  -15.226;   -7.455;  616.609
397.056;  -11.402;   -5.424;  776.621
397.649;  -15.194;   -6.605;  731.575
398.242;  -13.480;   -8.224;  712.645
398.836;  -12.958;   -7.474;  766.408
399.429;  -13.912;   -7.094;  631.041
400.022;  -16.838;   -9.475;  665.902
400.615;  -14.726;   -7.145;  805.609
401.208;  -12.385;   -7.174;  691.451
401.802;  -15.792;   -5.515;  699.329
402.395;  -15.924;   -9.875;  683.502
402.988;  -17.263;   -8.845;  696.627
403.581;  -14.984;   -8.874;  646.878
404.174;  -12.117;   -5.324;  686.568
404.767;  -15.354;   -9.575;  638.583
405.360;  -17.366;  -10.965;  621.445
405.953;  -11.617;   -8.764;  759.034
406.545;  -11.078;   -7.514;  725.342
407.138;  -15.397;  -10.025;  618.350
407.731;  -13.417;  -10.034;  613.303
408.324;  -10.641;   -9.374;  660.554
408.917;  -10.810;   -6.534;  681.864
409.509;  -12.919;   -8.004;  740.396
410.102;  -15.271;   -9.875;  643.948
410.695;   -9.395;   -8.604;  665.758
411.287;  -11.023;   -6.794;  599.821
411.880;  -10.909;   -9.334;  585.421
412.472;  -14.618;  -10.254;  613.092
413.065;  -12.259;   -6.714;  629.408
413.657;   -9.787;   -7.234;  576.678
414.250;   -9.521;  -10.544;  646.681
414.842;  -11.153;   -9.744;  676.353
415.434;   -9.257;   -6.994;  570.463
416.027;   -5.588;   -5.893;  652.196
416.619;   -7.948;   -7.264;  713.400
417.211;   -8.536;  -10.374;  599.352
417.804;   -4.358;   -7.993;  628.499
418.396;   -8.003;   -7.234;  607.643
418.988;   -6.320;   -9.443;  659.238
419.580;  -10.111;  -10.724;  568.276
420.172;   -7.553;  -10.323;  536.196
420.764;   -2.923;   -8.793;  672.482
421.356;   -4.251;  -11.143;  636.898
421.948;   -5.804;   -8.293;  677.661
422.540;    0.804;   -7.893;  680.027
423.132;   -0.367;   -7.082;  600.641
423.724;   -4.378;   -8.653;  561.267
424.316;   -2.537;  -10.213;  621.345
424.908;    1.624;   -9.762;  591.517
425.500;    2.106;   -5.572;  647.978
426.092;    2.205;   -8.422;  648.268
426.683;    2.431;   -9.283;  684.836
427.275;    4.132;   -7.852;  641.471
427.867;    5.922;   -5.272;  668.948
428.458;    6.300;   -7.682;  732.344
429.050;    4.517;  -10.612;  680.749
429.642;    6.994;   -9.882;  743.124
430.233;    7.279;   -6.962;  569.356
430.825;    8.167;   -6.842;  724.809
431.416;    5.539;   -9.672;  698.241
432.008;    9.488;   -6.552;  651.723
432.599;   10.133;   -6.891;  656.073
433.190;    8.084;  -10.912;  637.670
433.782;    6.970;  -11.172;  590.395
434.373;   14.131;   -6.061;  884.765
434.964;   12.127;   -8.251;  602.920
435.556;   10.633;   -9.722;  634.537
436.147;   13.401;   -9.082;  758.490
436.738;   12.721;   -8.041;  701.099
437.329;   18.480;   -7.341;  721.723
437.920;   11.205;   -8.162;  666.688
438.511;   10.755;  -11.802;  564.526
439.103;   17.417;  -10.191;  623.998
439.694;   19.294;   -7.601;  681.583
440.285;   20.383;   -8.541;  764.432
440.876;   18.474;   -9.751;  845.738
441.466;   17.877;   -9.401;  575.162
442.057;   22.894;   -7.760;  665.814
442.648;   22.094;   -9.971;  746.255
443.239;   20.310;  -11.001;  620.477
443.830;   24.927;   -7.990;  704.958
444.421;   26.733;   -7.910;  655.474
445.011;   23.529;   -8.131;  693.619
445.602;   23.219;   -7.111;  743.126
446.193;   24.771;  -10.920;  488.117
446.783;   29.311;   -6.500;  640.397
447.374;   24.651;   -8.671;  692.759
447.964;   25.410;  -10.781;  713.770
448.555;   33.534;   -9.650;  822.742
449.145;   30.556;   -8.660;  662.853
449.736;   31.409;   -8.990;  803.179
450.326;   30.863;   -9.500;  713.626
450.917;   36.108;   -8.680;  675.324
451.507;   34.820;   -7.520;  600.661
452.097;   35.358;   -8.590;  746.267
452.688;   36.551;  -11.340;  742.160
453.278;   36.273;  -10.100;  566.840
453.868;   40.590;   -6.019;  793.550
454.458;   38.680;   -9.440;  651.141
455.048;   39.568;  -10.560;  711.783
455.639;   40.771;  -11.799;  567.096
456.229;   43.555;   -6.899;  710.694
456.819;   46.170;   -7.389;  751.158
457.409;   45.901;  -11.119;  773.993
457.999;   48.487;   -9.289;  737.505
458.589;   48.502;   -6.139;  686.606
459.179;   48.466;   -8.729;  717.658
459.769;   46.485;   -9.789;  627.099
460.358;   51.511;  -10.259;  797.262
460.948;   51.425;   -7.299;  689.503
461.538;   52.986;  -10.289;  660.677
462.128;   50.825;  -11.269;  664.934
462.717;   57.477;   -9.368;  710.326
463.307;   60.225;   -7.908;  705.846
463.897;   56.222;   -9.599;  656.942
464.486;   54.951;   -9.769;  837.128
465.076;   59.909;   -8.048;  733.776
465.666;   63.285;   -9.358;  652.900
466.255;   60.775;   -7.919;  785.651
466.845;   60.203;  -11.689;  666.749
467.434;   63.150;   -7.818;  725.873
468.023;   63.930;   -7.678;  658.357
468.613;   62.149;  -10.939;  713.946
469.202;   66.584;  -10.118;  646.507
469.791;   71.407;   -9.108;  737.811
470.381;   71.398;   -6.058;  742.813
470.970;   72.104;  -10.428;  711.099
471.559;   71.704;  -10.268;  733.291
472.148;   75.429;   -8.448;  675.737
472.738;   76.978;   -6.917;  765.466
473.327;   76.369;  -11.978;  637.529
473.916;   75.947;  -11.888;  737.446
474.505;   80.496;   -9.437;  751.703
475.094;   83.452;   -6.747;  806.570
475.683;   82.485;   -9.367;  797.699
476.272;   83.786;  -12.637;  730.632
476.861;   87.041;  -10.027;  706.754
477.449;   92.205;   -8.716;  728.487
478.038;   87.897;   -9.577;  692.513
478.627;   88.917;   -9.718;  714.852
479.216;   94.659;   -8.947;  769.441
479.805;   97.931;   -6.256;  783.375
480.393;   97.840;   -7.937; 1008.945
480.982;   97.130;   -7.717;  874.501
481.571;  103.672;   -9.266;  858.333
482.159;  102.221;   -7.636;  705.386
482.748;  103.553;   -9.667;  821.385
483.336;  108.581;  -10.376;  858.209
483.925;  108.950;   -7.147;  774.373
484.513;  115.983;   -7.996;  758.962
485.102;  112.617;  -10.027;  810.965
485.690;  121.314;  -10.446; 1011.050
486.278;  122.571;   -8.446;  979.329
486.867;  123.710;   -6.356;  809.662
487.455;  125.099;   -9.136;  898.229
488.043;  127.586;  -10.646;  748.361
488.631;  136.345;   -7.456; 1005.079
489.220;  139.944;   -6.636;  908.626
489.808;  139.940;  -11.036;  741.415
490.396;  148.165;  -10.246;  914.645
490.984;  154.099;   -8.556;  830.161
491.572;  165.697;   -5.886;  940.315
492.160;  172.518;   -9.486;  919.081
492.748;  183.392;  -10.976;  884.341
493.336;  204.806;   -8.776; 1019.693
493.924;  235.253;   -5.465;  958.077
494.512;  272.005;   -9.986; 1066.638
495.100;  313.734;  -10.636; 1103.280
495.687;  379.177;  -10.885; 1206.373
496.275;  461.803;   -8.126; 1150.796
496.863;  541.552;  -10.586; 1281.171
497.451;  649.910;  -11.926; 1386.805
498.038;  755.790;  -10.885; 1556.729
498.626;  878.584;   -6.315; 1741.407
499.214; 1083.853;   -7.326; 2016.609
499.801; 1319.463;  -11.906; 2220.633
500.389; 1627.793;  -10.466; 2312.494
500.976; 1909.436;   -5.236; 2744.849
501.564; 2376.805;   -8.936; 3148.565
502.151; 3014.392;  -13.176; 3515.999
502.738; 3402.546;  -10.646; 3971.274
503.326; 3786.554;   -9.525; 4403.796
503.913; 4225.642;  -10.856; 5161.749
504.500; 4701.884;  -11.586; 5986.420
505.088; 5255.664;  -10.336; 6381.201
505.675; 6110.087;   -6.355; 6925.547
506.262; 6663.504;   -9.046; 7619.060
506.849; 7043.860;  -10.416; 8733.969
507.436; 7487.857;  -10.305; 9790.121
508.023; 7853.399;   -5.496; 9985.472
508.610; 7952.343;   -7.856;10434.618
509.197; 8909.402;  -10.097;11198.435
509.784;10222.271;  -10.886;12391.194
510.371;11638.217;   -9.315;13603.713
510.958;12701.606;   -9.936;14426.586
511.545;13199.233;   -9.326;15243.775
512.132;13419.688;  -10.075;15945.876
512.719;13936.163;   -7.796;16340.369
513.305;15186.957;  -10.606;18011.766
513.892;16716.133;  -11.486;19754.971
514.479;17964.420;   -9.126;20967.805
515.066;19394.109;   -6.026;22299.793
515.652;19551.396;   -8.466;22908.660
516.239;19993.832;  -10.886;23798.875
516.825;21353.486;  -11.496;25567.275
517.412;22879.262;   -5.796;28154.959
517.998;24133.342;  -10.506;28344.111
518.585;25044.883;  -10.076;27134.219
519.171;24651.051;   -8.315;27268.576
519.758;25265.287;   -8.596;28964.129
520.344;27745.178;   -8.466;30664.494
520.930;26853.264;  -11.006;32550.605
521.516;25354.654;  -10.495;35422.895
522.103;27138.861;   -5.526;38280.004
522.689;29466.127;   -8.746;37835.117
523.275;30585.971;  -11.376;37288.613
523.861;32562.643;  -11.156;37281.395
524.447;32102.637;   -8.135;37846.949
525.033;32401.936;   -7.896;38321.949
525.619;33357.355;  -12.476;38579.285
526.205;33520.840;   -9.516;40622.875
526.791;33038.344;   -6.926;42258.836
527.377;32897.055;   -8.346;42966.902
527.963;34656.582;   -8.717;42018.949
528.549;36096.129;  -11.016;42476.828
529.135;34643.961;   -8.536;41854.852
529.721;34624.539;   -9.666;41237.711
530.306;33715.594;  -10.066;41259.445
530.892;34825.176;  -11.356;41506.047
531.478;36787.934;   -6.596;43559.613
532.063;38771.480;   -8.836;47695.563
532.649;37087.508;  -10.047;50808.324
533.235;37098.184;   -9.746;51787.500
533.820;39400.598;   -6.566;52145.035
534.406;41044.254;  -10.817;51133.488
534.991;43014.609;   -9.416;49996.805
535.576;41669.516;   -9.036;48882.852
536.162;39040.402;   -6.156;46942.285
536.747;39490.156;  -11.607;45711.746
537.333;42298.113;  -11.787;48510.180
537.918;43242.641;  -12.437;50439.891
538.503;42621.109;   -7.196;50863.711
539.088;43225.641;  -10.556;50906.922
539.673;44297.242;   -8.767;52621.965
540.259;41181.035;  -10.026;52368.094
540.844;40456.488;   -7.416;50879.109
541.429;40020.504;   -9.467;52077.777
542.014;39690.684;   -9.527;52716.695
542.599;42874.441;   -9.946;52363.281
543.184;44200.895;   -7.927;53187.137
543.769;44473.824;   -9.297;54697.605
544.354;44760.691;  -10.127;53913.914
544.938;42655.730;   -9.267;49680.164
545.523;40832.840;   -6.506;47386.277
546.108;42672.387;   -9.787;49151.949
546.693;43594.773;  -11.587;51384.637
547.278;43863.293;  -10.986;51853.254
547.862;44199.367;   -8.206;51173.750
548.447;42577.832;  -10.067;51691.395
549.031;42408.508;   -9.637;52456.703
549.616;42797.406;   -9.926;52714.516
550.201;41930.738;   -6.347;52414.598
550.785;43101.531;   -7.917;52355.059
551.370;44080.609;  -10.867;54589.453
551.954;46126.578;   -9.047;58267.348
552.538;45377.328;   -7.827;59062.176
553.123;43400.543;  -10.287;58115.285
553.707;42589.117;  -12.178;56556.285
554.291;40167.215;   -8.717;56201.668
554.876;41480.211;   -7.457;55335.762
555.460;43676.945;  -10.387;54155.703
556.044;45017.906;   -9.618;53721.484
556.628;45601.809;  -11.567;53731.016
557.212;46157.719;   -8.097;54312.531
557.796;47589.473;  -11.077;53797.773
558.380;45709.801;  -11.108;56145.984
558.964;44131.254;   -9.057;57277.930
559.548;41930.465;   -6.977;56459.641
560.132;38739.293;  -11.457;54434.543
560.716;40109.109;  -11.378;54800.617
561.300;42277.699;   -9.577;57606.945
561.884;41088.105;   -7.127;58972.445
562.467;39639.801;   -7.118;57327.570
563.051;38243.207;  -13.358;54962.434
563.635;36373.805;  -10.178;52594.473
564.219;38091.203;   -7.837;50610.410
564.802;41344.488;  -11.398;49551.180
565.386;41718.680;  -12.788;48370.953
565.969;42895.391;   -9.077;48178.871
566.553;41977.746;   -6.207;49957.305
567.136;40432.422;   -8.568;50369.594
567.720;41509.922;  -11.868;49492.004
568.303;42557.770;   -8.268;50616.352
568.887;41630.250;   -8.698;50727.148
569.470;39270.414;   -6.808;51698.379
570.053;37063.363;  -13.188;52122.078
570.637;34947.141;  -12.037;52536.438
571.220;35140.598;   -8.577;51186.098
571.803;35120.484;   -8.498;51032.762
572.386;37052.203;  -10.498;49609.887
572.969;37659.785;   -9.388;48285.926
573.552;37600.375;   -8.338;47624.285
574.135;36243.250;   -8.518;45498.641
574.718;32645.553;  -13.628;41970.434
575.301;33183.625;  -10.893;41447.137
575.884;33721.695;   -8.158;40923.836
576.467;38480.063;  -10.328;45267.723
577.050;39089.793;  -13.058;48175.543
577.633;37980.047;   -9.458;47729.328
578.216;34751.422;   -8.928;47579.793
578.799;32540.609;   -9.358;47820.996
579.381;34004.426;  -11.388;48115.551
579.964;34181.527;  -11.718;47333.766
580.547;33023.211;   -8.588;46668.969
581.129;33780.184;   -8.859;44466.141
581.712;35477.500;  -10.729;44164.922
582.294;35044.215;  -11.118;46477.855
582.877;35905.406;   -5.218;48244.254
583.459;36193.875;   -8.679;47437.895
584.042;37272.012;  -10.709;46943.219
584.624;35210.313;  -11.669;46792.227
585.206;33929.238;   -8.218;46557.250
585.789;34751.980;  -10.569;45793.773
586.371;35187.855;  -11.859;43836.391
586.953;36149.477;  -10.719;42972.492
587.536;37477.086;   -7.198;42487.211
588.118;36350.500;   -8.720;42086.414
588.700;35068.965;  -10.439;43389.930
589.282;32510.771;   -9.198;43646.039
589.864;30373.336;   -9.199;43438.109
590.446;30129.063;  -11.319;43151.926
591.028;29304.297;  -11.159;42781.867
591.610;28534.184;  -11.779;42839.098
592.192;28256.979;   -7.668;42820.402
592.774;26413.898;  -11.949;40724.277
593.356;25200.018;  -12.129;39874.789
593.937;27167.811;  -10.669;39980.648
594.519;31214.566;   -6.509;42069.633
595.101;32072.928;  -10.849;42976.031
595.683;31088.453;  -11.679;44084.441
596.264;30296.646;   -9.049;43478.797
596.846;30021.049;   -8.849;43803.672
597.427;30042.986;   -9.570;42986.934
598.009;31775.771;  -12.620;42832.219
598.591;31732.990;  -10.039;42580.086
599.172;33852.766;  -10.369;43061.805
599.753;36184.723;   -9.140;41691.469
600.335;35570.430;  -11.430;40692.520
600.916;32978.988;   -9.939;39982.422
601.498;29842.688;   -8.479;40318.617
602.079;29248.207;  -10.920;40670.609
602.660;28908.623;  -11.480;41450.898
603.241;29814.980;  -11.699;41137.738
603.823;30126.766;   -9.579;38868.797
604.404;29786.613;  -10.620;38182.785
604.985;32652.771;  -10.450;38078.047
605.566;33495.145;   -9.129;38056.633
606.147;34480.535;   -7.510;37020.418
606.728;33297.020;  -10.660;37883.359
607.309;31447.881;  -11.740;38748.273
607.890;31047.557;   -9.759;38850.230
608.471;29836.516;   -8.250;37457.918
609.051;30100.232;   -9.240;36066.457
609.632;29908.287;  -12.120;35991.074
610.213;29454.727;   -9.110;37402.641
610.794;30689.629;   -8.030;38383.363
611.374;29615.359;   -8.110;40562.387
611.955;29452.814;  -13.560;38533.727
612.536;30527.338;  -11.400;36951.789
613.116;30004.938;   -8.070;37197.891
613.697;30724.471;  -10.830;38411.125
614.277;30423.840;  -11.641;38673.938
614.858;29787.953;  -13.310;37075.863
615.438;29941.314;   -7.460;35092.906
616.019;28091.371;   -7.601;33666.301
616.599;28740.553;  -12.020;34189.023
617.179;28614.184;  -11.780;36952.047
617.760;27545.695;   -8.570;39582.574
618.340;28060.320;  -11.471;38943.977
618.920;28523.619;  -11.170;37594.156
619.500;29512.916;  -11.071;37866.938
620.080;30021.160;   -7.750;37869.043
620.660;30178.195;  -12.711;36868.617
621.241;30902.346;  -10.211;36352.309
621.821;30470.732;  -10.961;35459.520
622.401;30608.123;   -7.720;35207.414
622.980;32547.861;   -8.981;35980.422
623.560;31371.162;   -9.331;37351.328
624.140;27109.141;   -9.850;34388.582
624.720;23317.652;   -7.451;32368.764
625.300;23100.238;   -9.070;32638.629
625.880;27124.969;  -12.601;34599.035
626.459;30203.672;  -11.751;36831.738
627.039;30330.789;   -9.281;38299.098
627.619;29436.537;   -8.801;38289.574
628.198;29417.631;  -12.071;37220.695
628.778;30174.750;   -9.461;37632.563
629.357;30957.645;   -8.491;38003.012
629.937;30748.385;   -9.721;38402.039
630.516;31540.631;   -9.951;37868.801
631.096;32809.340;  -11.731;35760.410
631.675;35131.676;   -8.572;35225.219
632.254;34938.887;  -11.282;35130.289
632.834;33538.086;  -13.322;35794.570
633.413;34275.320;  -10.301;35788.922
633.992;34422.164;   -8.582;34532.863
634.571;35192.832;   -8.352;33590.113
635.151;34476.000;  -11.912;34943.863
635.730;32191.076;  -10.511;35352.523
636.309;31999.631;   -7.731;35366.605
636.888;31527.865;   -9.952;36165.637
637.467;30854.918;  -11.672;37515.902
638.046;29359.115;   -8.901;39288.695
638.625;28669.234;   -7.912;38279.699
639.204;27967.201;  -10.022;37741.598
639.782;29202.471;  -12.252;38364.551
640.361;31240.537;  -10.041;36740.621
640.940;31033.238;  -11.161;34950.082
641.519;30671.178;   -9.701;34137.398
642.097;31888.426;  -11.271;35654.258
642.676;31930.514;   -8.651;35637.957
643.255;30852.246;   -8.711;36567.074
643.833;30485.268;   -9.581;37809.434
644.412;31331.375;  -13.711;37337.293
644.990;32670.068;  -11.811;37018.531
645.569;35375.793;   -9.411;36518.469
646.147;35908.480;  -10.291;36186.430
646.726;33968.109;  -12.401;36267.688
647.304;32454.949;  -10.411;36647.625
647.882;33028.617;   -9.651;39286.742
648.461;32759.793;   -9.631;39157.703
649.039;30503.941;  -11.881;35412.883
649.617;30382.420;   -9.661;34744.918
650.195;30895.998;   -9.301;35403.098
650.773;30268.049;  -10.511;35053.797
651.352;30142.182;  -11.521;33756.816
651.930;28987.705;  -12.211;31868.773
652.508;27939.387;   -9.171;33121.551
653.086;29182.650;   -9.371;33564.793
653.663;31413.852;  -13.161;34054.668
654.241;30373.336;  -13.031;35693.309
654.819;28511.553;   -9.371;36422.906
655.397;29176.842;  -10.511;38213.484
655.975;29344.748;  -10.371;39507.625
656.553;30346.850;  -10.051;39498.223
657.130;31100.957;  -10.061;40395.480
657.708;27971.785;   -9.561;39242.020
658.286;25094.797;  -11.511;38920.020
658.863;25421.297;  -10.261;40202.898
659.441;28298.875;   -7.531;39677.938
660.018;30929.615;   -9.501;40413.355
660.596;31681.418;  -13.301;39931.414
661.173;34319.648;  -11.211;39604.531
661.750;33336.129;   -9.951;39700.070
662.328;30683.150;   -9.390;39292.809
662.905;29273.936;  -11.330;38235.648
663.482;26510.260;   -9.050;36212.305
664.060;24370.666;   -8.240;35944.945
664.637;28426.814;  -10.050;35170.785
665.214;33095.559;  -11.760;34197.523
665.791;31936.719;  -10.530;34549.520
666.368;31489.230;   -9.690;35118.578
666.945;31909.381;   -9.320;36019.418
667.522;32802.953;  -11.860;36048.438
668.099;32083.543;  -10.770;36243.914
668.676;32200.379;   -6.260;35958.875
669.253;34208.172;   -7.000;37384.730
669.830;34550.938;  -10.190;36779.629
670.407;33393.902;   -9.550;35231.289
670.984;32711.967;   -9.260;35544.270
671.560;31036.545;   -9.280;35466.867
672.137;29379.629;  -11.810;34280.863
672.714;29483.557;  -11.490;34632.863
673.290;30391.123;   -7.740;35135.422
673.867;30863.633;  -10.660;36114.480
674.443;30201.506;  -12.230;36152.859
675.020;28698.420;  -10.450;35327.238
675.596;27274.463;   -9.260;35795.176
676.173;28048.807;  -10.780;35430.355
676.749;28693.340;  -13.690;33549.516
677.326;29855.078;  -11.980;32210.012
677.902;27980.316;   -8.630;32068.871
678.478;26048.244;  -10.730;32583.891
679.054;27746.275;  -10.520;32088.928
679.631;29218.400;  -11.920;30978.848
680.207;30426.385;   -7.490;33160.887
680.783;31538.455;   -9.860;35570.363
681.359;32059.912;  -13.380;36125.184
681.935;30933.092;  -12.480;35240.922
682.511;31574.008;   -7.900;34429.961
683.087;32239.629;   -7.710;34463.680
683.663;32990.137;  -11.480;34648.898
684.239;32467.713;  -14.090;34546.457
684.815;33194.996;   -7.560;35586.375
685.390;33220.535;   -9.910;35821.895
685.966;32848.043;  -11.159;35085.871
686.542;33511.727;  -11.169;34198.230
687.118;32102.836;   -5.959;32847.707
687.693;32259.611;  -10.329;32794.027
688.269;31463.307;  -12.059;33072.367
688.844;32209.061;  -10.909;33141.664
689.420;33646.762;   -8.019;33965.742
689.995;30487.965;   -8.399;34655.523
690.571;29400.191;  -10.949;33576.742
691.146;28584.215;   -9.619;32657.219
691.722;26576.703;   -8.999;32526.979
692.297;25784.184;  -11.589;33014.617
692.872;26666.938;  -11.739;34012.254
693.448;26860.102;  -11.059;34237.434
694.023;28560.209;  -10.139;34142.672
694.598;30657.992;   -9.029;34132.031
695.173;30329.371;  -13.319;34205.250
695.748;27763.914;  -10.169;32882.488
696.323;25498.760;   -8.339;32864.906
696.898;25164.906;   -8.169;33170.004
697.473;28365.236;  -12.309;32432.984
698.048;28410.594;  -10.989;31649.303
698.623;27356.447;   -9.329;30778.141
699.198;28842.584;   -9.849;31140.119
699.773;30179.727;  -12.329;31764.299
700.348;30077.096;  -10.389;31780.816
700.922;28294.121;   -9.269;32046.375
701.497;26559.057;   -9.329;32603.574
702.072;28242.516;  -10.789;34799.871
702.646;28159.525;  -10.839;35793.172
703.221;28709.783;   -9.099;35201.590
703.795;29173.123;  -10.939;34764.527
704.370;27745.811;  -12.859;34307.367
704.944;29024.092;  -11.559;33509.887
705.519;30098.703;   -7.939;31388.584
706.093;32032.959;  -10.499;31340.104
706.668;33069.332;  -11.289;32630.281
707.242;32091.648;  -11.509;32728.779
707.816;30639.746;   -9.639;32947.238
708.390;30188.938;  -11.429;33277.855
708.965;31201.238;  -11.869;33834.336
709.539;31348.459;  -11.689;33709.273
710.113;30853.920;  -10.478;33044.313
710.687;28091.484;  -10.228;31953.992
711.261;27274.229;  -13.698;30505.949
711.835;27002.076;  -13.378;30262.369
712.409;26727.832;   -9.698;31254.447
712.983;26417.961;  -11.898;32754.986
713.557;25392.008;  -15.138;34018.824
714.131;26674.756;  -14.098;34579.625
714.704;26673.840;   -9.958;33890.262
715.278;25937.400;  -10.028;33531.102
715.852;24996.246;  -11.148;33601.660
716.425;24454.260;   -9.068;33515.117
716.999;26052.039;  -10.038;33185.555
717.573;26790.078;   -9.798;33905.996
718.146;27913.594;  -12.378;35199.293
718.720;28480.195;  -11.918;35060.551
719.293;27631.309;   -8.088;34973.230
719.867;26665.416;  -10.888;36394.449
720.440;27468.014;  -11.938;36663.008
721.013;29312.869;  -12.818;35102.426
721.587;30812.385;  -10.298;33985.266
722.160;30678.025;  -10.048;33524.965
722.733;28618.490;  -12.108;32987.043
723.306;26266.465;  -10.818;33066.301
723.880;26569.145;   -8.908;33399.500
724.453;25666.791;   -9.878;33468.297
725.026;25568.449;  -11.188;33816.637
725.599;25889.117;  -11.678;32797.996
726.172;25533.117;   -9.618;33187.434
726.745;26491.785;   -8.258;35136.613
727.318;29126.449;  -12.978;35751.730
727.891;31231.172;  -12.148;35890.430
728.463;32507.539;   -8.968;34822.090
729.036;32733.814;  -10.188;32895.086
729.609;30247.607;  -11.788;31823.225
730.182;28339.697;  -11.788;31445.283
730.754;27634.594;  -10.268;32373.223
731.327;27413.244;   -9.998;33676.820
731.900;26590.910;  -12.228;33417.000
732.472;25647.822;  -13.848;31978.498
733.045;25517.898;   -8.698;30368.777
733.617;24962.807;  -10.607;30574.215
734.190;23610.221;  -11.507;31280.975
734.762;23911.057;  -13.647;31674.412
735.334;25117.840;   -9.767;31247.291
735.907;25330.293;   -9.897;29876.211
736.479;23354.334;  -11.637;29808.488
737.051;22803.350;   -9.567;30233.547
737.623;23669.912;   -8.187;31469.086
738.195;25496.912;  -11.187;31784.225
738.768;25938.955;  -12.337;32120.523
739.340;25373.799;  -12.227;32094.342
739.912;24882.426;  -11.057;31312.680
740.484;25700.600;  -10.207;31946.238
741.056;26894.311;  -10.047;32984.059
741.628;26501.574;  -13.627;33897.715
742.199;27101.039;   -7.177;33213.016
742.771;25481.760;  -10.797;31369.113
743.343;23988.451;  -11.997;31865.473
743.915;24145.957;  -12.867;32388.631
744.487;24704.527;   -7.617;31079.568
745.058;25932.330;   -9.557;30570.107
745.630;25679.697;   -9.877;29970.127
746.201;24480.604;  -14.177;29186.766
746.773;24177.363;   -9.237;28805.723
747.344;24348.260;   -9.847;29591.223
747.916;24465.344;  -11.657;31412.201
748.487;24042.381;  -10.587;32194.898
749.059;23874.992;   -8.707;32533.719
749.630;22897.975;  -10.537;32158.518
750.201;23094.568;  -11.687;30855.395
750.773;23226.408;  -11.647;28622.555
751.344;24528.221;   -7.147;28405.732
751.915;24444.516;   -9.757;28461.551
752.486;23970.656;  -12.427;27842.850
753.057;22399.893;  -12.227;27845.008
753.628;21992.883;  -10.417;27728.107
754.199;22097.998;  -11.767;27381.086
754.770;21561.889;  -11.187;25882.203
755.341;21177.898;  -10.507;25886.184
755.912;21546.400;   -9.387;26050.861
756.483;21943.629;  -10.647;26798.779
757.054;21531.063;  -11.837;27048.238
757.625;19765.377;  -12.716;26294.838
758.195;19263.527;   -9.666;26142.076
758.766;20247.773;   -8.656;26392.234
759.337;20017.963;  -12.856;26334.594
759.907;19321.572;  -13.366;27579.652
760.478;18487.221;   -8.576;28352.770
761.048;19096.014;  -10.526;27325.088
761.619;19703.326;  -11.116;26460.428
762.189;19288.709;  -12.136;26029.826
762.760;19313.652;   -9.456;26430.145
763.330;19527.881;   -7.136;26670.902
763.900;19462.008;  -11.786;26603.021
764.471;18726.555;  -11.546;25542.740
765.041;18535.387;   -8.096;24358.459
765.611;18761.389;   -8.876;23991.297
766.181;18784.658;  -12.196;24470.236
766.751;19339.379;  -11.636;24845.975
767.321;19416.898;  -10.156;24533.633
767.891;19154.797;  -11.766;24916.492
768.461;18829.824;  -14.936;24776.771
769.031;18003.320;  -12.356;24757.988
769.601;17741.271;   -7.526;24181.088
770.171;18209.002;  -10.766;23670.387
770.741;18980.633;  -13.176;22960.045
771.311;18609.412;  -10.616;22917.523
771.880;17199.494;   -9.576;23562.941
772.450;16579.174;  -10.336;24216.500
773.020;16762.164;  -13.516;24140.398
773.589;16678.768;  -13.466;24414.857
774.159;16180.668;   -8.686;23858.717
774.729;15554.271;   -9.476;22942.135
775.298;15577.477;  -13.666;22324.033
775.867;15687.409;  -11.716;21140.313
776.437;15158.128;   -9.906;20838.092
777.006;15028.284;  -12.166;20599.510
777.576;16400.137;  -12.356;20508.809
778.145;15677.748;  -11.646;20732.947
778.714;14281.477;   -8.226;21062.465
779.283;13741.184;   -9.556;20949.664
779.853;13495.999;  -14.116;20508.623
780.422;13849.580;  -11.506;20649.082
780.991;14378.245;   -9.556;21527.520
781.560;15016.716;   -9.095;22632.658
782.129;13841.030;  -12.135;23048.277
782.698;12548.001;  -10.865;23438.555
783.267;11932.857;   -9.335;23267.734
783.836;12215.878;  -11.045;22415.133
784.404;12930.003;  -13.865;20443.152
784.973;13208.215;  -13.095;19699.150
785.542;13167.382;  -11.575;19763.828
786.111;12959.233;   -9.705;20341.408
786.679;12745.073;  -12.105;20207.967
787.248;12409.937;  -12.455;19516.465
787.817;12254.614;  -11.535;18900.363
788.385;12081.486;   -9.765;17879.121
788.954;11914.511;  -14.005;17658.301
789.522;11724.498;  -11.955;17788.879
790.090;10845.234;  -10.135;18118.277
790.659;10018.596;  -10.975;18338.736
791.227;10101.540;  -13.375;18508.615
791.795;10452.124;  -12.375;17898.254
792.364;10637.923;  -10.725;17295.133
792.932;10950.714;   -9.715;16822.051
793.500;10708.792;  -12.675;17040.148
794.068;10967.581;  -13.495;17179.787
794.636;11023.542;  -10.885;16664.246
795.204;10654.175;  -11.045;16524.545
795.772;10618.495;  -13.175;17274.564
796.340;10361.550;  -12.445;17891.002
796.908;10512.769;   -9.735;17648.561
797.476;10864.585;   -9.815;17064.080
798.044;10641.903;  -13.985;16672.777
798.612;10236.209;  -13.115;17023.996
799.180; 9404.637;  -10.185;16561.615
799.747; 9041.956;   -9.055;15962.773
800.315; 9270.453;  -12.385;15296.992
800.883; 8660.193;  -15.035;14801.771
801.450; 7928.769;  -10.365;14534.430
802.018; 7646.166;   -9.855;14173.248
802.585; 7593.399;  -11.905;14029.547
803.153; 7784.362;  -11.585;13836.846
803.720; 7599.142;   -9.095;13567.324
804.287; 7498.627;   -9.135;13360.622
804.855; 7669.129;  -11.604;13681.981
805.422; 8065.360;  -11.794;13536.560
805.989; 8340.349;  -10.734;13355.958
806.556; 8264.363;  -10.444;13747.896
807.124; 8489.562;  -12.764;13987.376
807.691; 8884.387;  -12.964;14038.674
808.258; 8915.021;  -11.134;14120.152
808.825; 8906.945;   -9.854;13860.111
809.392; 8543.956;  -10.504;13268.790
809.959; 7860.465;  -13.054;12680.389
810.526; 7185.989;   -8.294;12427.308
811.093; 6564.087;   -8.394;12030.105
811.659; 6351.148;  -12.304;11653.664
812.226; 6501.380;  -13.944;11637.183
812.793; 6891.006;  -10.484;11611.521
813.360; 7020.250;  -10.144;11885.181
813.926; 7004.414;  -11.684;12770.539
814.493; 6933.341;  -13.644;12677.638
815.060; 6846.146;   -9.724;11974.336
815.626; 7023.362;   -9.854;11594.715
816.193; 7067.275;  -13.254;11579.474
816.759; 6466.080;  -13.204;11666.972
817.325; 6054.592;   -9.434;11325.530
817.892; 5953.865;  -10.134;11105.369
818.458; 6128.735;  -13.474;10843.928
819.024; 6586.334;  -11.854;10714.406
819.591; 6700.688;  -10.244;10469.165
820.157; 6496.041;  -10.704;10235.523
820.723; 6461.504;  -12.324;10847.563
821.289; 6345.159;   -9.444;11040.980
821.855; 6377.361;   -8.374;10357.100
822.421; 6680.428;  -10.234; 9978.918
822.987; 6661.427;  -13.294; 9754.177
823.553; 6380.287;  -10.884;10065.755
824.119; 6160.700;   -8.884;10036.294
824.685; 5702.776;   -6.784;10029.192
825.251; 5626.157;  -12.004;10199.230
825.816; 5391.213;  -11.474; 9820.189
826.382; 5186.005;   -9.174; 9297.248
826.948; 5462.982;   -9.214; 9381.347
827.513; 5886.887;  -10.774; 9450.726
828.079; 5995.039;  -11.924; 9472.444
828.645; 5809.030;  -10.543; 9292.643
829.210; 5682.718;  -10.533; 9065.341
829.776; 5596.736;  -10.753; 9132.620
830.341; 5748.043;  -10.173; 9092.878
830.906; 5792.703;  -10.743; 9078.557
831.472; 5580.689;  -11.113; 8534.535
832.037; 5221.575;  -10.603; 8677.874
832.602; 5090.530;  -13.323; 8628.692
833.167; 4874.563;  -10.823; 8879.031
833.733; 4752.611;  -10.113; 9189.790
834.298; 4614.446;  -13.583; 9052.608
834.863; 4796.202;  -12.703; 8895.087
835.428; 5008.039;  -10.523; 8824.266
835.993; 4931.292;   -6.963; 8845.385
836.558; 4898.262;  -10.763; 8888.563
837.123; 5062.426;   -9.903; 8966.582
837.688; 5440.135;   -9.913; 8617.860
838.253; 5483.135;  -10.283; 8590.699
838.817; 5143.144;  -12.963; 8443.797
839.382; 5028.011;  -14.243; 8799.356
839.947; 5169.918;  -10.733; 8810.595
840.511; 5164.112;   -9.383; 8796.394
841.076; 4998.313;  -12.563; 8347.231
841.641; 4833.418;  -12.953; 8224.330
842.205; 4708.522;   -7.043; 8223.349
842.770; 4511.316;   -8.163; 8622.107
843.334; 4659.721;  -12.503; 8410.386
843.898; 4815.851;  -11.693; 8337.465
844.463; 4386.663;  -10.203; 8506.283
845.027; 4074.230;   -9.533; 8280.962
845.591; 4096.053;  -13.443; 8231.141
846.156; 4156.587;  -13.143; 7969.179
846.720; 3989.749;   -9.433; 7768.278
847.284; 3897.954;  -11.033; 7630.957
847.848; 3874.223;  -10.403; 7472.395
848.412; 3699.957;  -11.553; 7437.394
848.976; 3604.964;   -8.393; 7674.592
849.540; 3569.218;   -8.713; 7836.011
850.104; 3534.723;  -12.463; 7913.669
850.668; 3587.935;  -12.973; 7694.508
851.232; 3550.932;  -10.793; 7756.887
851.796; 3580.155;  -10.662; 7926.545
852.359; 3672.823;  -13.082; 7827.844
852.923; 3651.125;  -12.192; 7641.163
853.487; 3636.319;  -11.912; 7342.501
854.050; 3479.710;  -10.892; 7042.820
854.614; 3524.316;  -13.992; 7151.338
855.177; 3583.398;  -11.732; 7105.077
855.741; 3451.387;   -8.962; 6989.675
856.304; 3320.367;   -9.442; 6596.634
856.868; 3203.790;  -14.192; 6356.272
857.431; 3144.655;  -12.702; 6468.571
857.995; 3140.964;   -9.942; 6373.210
858.558; 3225.365;   -9.112; 6324.448
859.121; 3118.712;  -12.932; 6408.327
859.684; 2961.297;  -13.442; 6347.886
860.247; 2913.798;  -10.632; 6321.264
860.810; 2874.713;  -11.272; 6301.903
861.374; 2804.540;   -9.832; 6607.881
861.937; 2718.195;  -11.762; 6408.200
862.500; 2713.837;   -9.722; 6572.639
863.062; 2692.326;  -10.512; 6387.297
863.625; 2674.375;  -11.232; 6190.836
864.188; 2702.563;  -14.112; 5807.254
864.751; 2713.095;  -11.302; 5682.413
865.314; 2608.357;  -10.112; 5547.492
865.876; 2444.975;  -12.182; 5500.150
866.439; 2293.763;  -10.722; 5415.909
867.002; 2196.451;   -9.252; 5501.567
867.564; 2249.419;   -9.572; 5413.946
868.127; 2288.004;  -13.142; 5160.325
868.689; 2365.369;  -12.902; 5133.183
869.252; 2466.726;   -9.732; 5252.382
869.814; 2397.135;   -9.432; 5297.141
870.377; 2299.447;  -11.552; 5390.919
870.939; 2292.241;   -9.052; 5599.898
871.501; 2245.420;  -10.982; 5248.336
872.063; 2141.945;  -12.292; 4854.235
872.626; 2081.002;  -14.912; 4817.074
873.188; 1992.130;  -13.112; 4987.732
873.750; 1962.362;  -13.442; 4868.651
874.312; 1925.309;   -9.402; 4779.330
874.874; 1884.331;  -11.062; 4866.348
875.436; 1784.382;  -13.931; 4718.887
875.998; 1667.220;   -9.561; 4660.005
876.560; 1649.314;  -11.321; 4462.964
877.122; 1711.400;  -12.221; 4145.042
877.683; 1826.972;  -12.191; 4056.481
878.245; 1866.714;  -12.101; 3950.740
878.807; 1882.735;   -8.971; 4058.958
879.369; 1823.142;  -12.071; 3954.677
879.930; 1694.843;  -14.621; 3941.495
880.492; 1613.254;  -10.311; 4067.014
881.053; 1619.458;  -10.901; 3859.633
881.615; 1611.773;  -14.411; 3776.071
882.176; 1544.930;  -13.761; 3734.750
882.738; 1467.375;   -9.181; 3678.489
883.299; 1454.023;  -11.791; 3405.407
883.860; 1471.266;  -13.121; 3351.106
884.422; 1421.369;  -11.211; 3394.044
884.983; 1335.699;  -10.091; 3166.443
885.544; 1288.486;   -8.461; 3189.802
886.105; 1230.315;  -12.361; 3160.360
886.666; 1165.333;  -14.141; 3093.059
887.227; 1132.155;  -11.361; 2941.957
887.788; 1076.673;  -11.401; 2974.836
888.349;  987.523;  -13.791; 2721.214
888.910;  947.090;  -13.191; 2696.493
889.471;  910.131;   -9.881; 2560.172
890.032;  916.456;   -9.881; 2558.190
890.593;  909.000;  -10.371; 2567.669
891.153;  822.810;  -13.301; 2460.307
891.714;  712.011;  -11.431; 2372.046
892.275;  664.895;  -11.291; 2309.505
892.835;  675.862;  -11.471; 2382.543
893.396;  665.745;  -11.541; 2295.502
893.956;  638.500;  -11.181; 2162.420
894.517;  601.034;  -11.741; 2125.439
895.077;  551.339;  -11.671; 2086.978
895.638;  510.498;  -11.311; 2126.316
896.198;  496.864;   -9.831; 1838.275
896.758;  483.589;   -8.421; 1892.813
897.319;  462.096;  -12.351; 1792.232
897.879;  441.547;  -13.511; 1762.751
898.439;  408.623;  -12.001; 1661.149
898.999;  386.757;  -10.180; 1781.468
899.559;  382.163;  -12.030; 1703.347
900.119;  373.447;  -15.710; 1537.525
900.679;  358.285;   -8.900; 1638.384
901.239;  337.583;   -8.340; 1527.902
901.799;  310.041;  -13.910; 1456.441
902.359;  287.750;  -13.460; 1357.140
902.919;  278.832;  -11.490; 1331.118
903.479;  279.809;  -12.110; 1317.257
904.038;  273.659;  -11.720; 1262.595
904.598;  264.919;  -13.610; 1152.034
905.158;  254.486;  -11.040; 1240.893
905.717;  237.395;  -10.900; 1233.691
906.277;  228.727;  -15.080; 1217.330
906.836;  226.983;  -13.380; 1222.408
907.396;  223.321;  -10.780; 1193.047
907.955;  216.145;   -8.500; 1182.526
908.515;  210.530;  -12.760; 1099.364
909.074;  209.883;  -11.900; 1092.863
909.633;  209.195;   -8.950; 1069.121
910.192;  207.087;   -8.770; 1196.460
910.752;  195.374;  -12.390; 1029.960
911.311;  186.048;  -13.680; 1009.780
911.870;  176.092;  -12.370;  971.460
912.429;  171.202;  -10.900; 1094.080
912.988;  168.814;  -11.690; 1081.060
913.547;  165.192;  -13.240;  940.380
914.106;  163.926;  -11.990;  999.420
914.665;  162.139;   -9.990;  984.020
915.224;  161.015;  -12.880; 1035.760
915.782;  157.987;  -12.350;  922.560
916.341;  156.763;   -9.110; 1049.840
916.900;  154.445;   -9.270;  925.260
917.458;  152.749;  -13.240;  884.220
918.017;  151.826;  -13.550;  942.600
918.576;  149.644;  -12.320;  904.440
919.134;  147.569;  -11.490;  837.980
919.693;  145.074;  -13.670;  893.060
920.251;  144.241;  -15.470;  876.500
920.809;  143.577;  -11.290;  839.580
921.368;  144.776;  -10.210;  885.360
921.926;  141.824;  -12.140;  842.940
922.484;  139.163;  -13.080;  903.360
923.042;  138.502;  -11.720;  880.340
923.601;  138.934;   -7.480;  998.680
924.159;  136.803;  -11.570;  935.560
924.717;  134.364;  -13.840;  841.080
925.275;  134.268;  -10.640;  903.240
925.833;  133.608;  -11.540;  779.320
926.391;  134.982;  -12.960;  938.380
926.949;  133.901;  -14.130;  857.680
927.506;  134.451;  -11.750;  903.500
928.064;  133.931;  -10.250;  877.580
928.622;  134.834;  -13.030;  880.100
929.180;  136.534;  -13.400;  814.180
929.737;  139.022;  -10.700;  808.540
930.295;  142.287;  -10.070;  928.480
930.853;  142.099;  -11.960;  849.100
931.410;  142.236;  -13.120;  821.120
931.968;  144.076;  -10.770;  940.660
932.525;  145.175;  -10.680;  909.380
933.082;  144.716;  -13.130;  811.440
933.640;  145.218;  -13.210;  925.900
934.197;  144.469;  -11.060;  886.360
934.754;  144.736;   -9.580;  897.780
935.312;  146.238;  -14.000;  863.340
935.869;  147.914;  -10.710; 1012.980
936.426;  146.716;   -9.860;  872.800
936.983;  146.510;   -9.710;  889.020
937.540;  147.538;  -13.990;  838.280
938.097;  153.009;  -14.040;  940.120
938.654;  156.228;  -10.310;  898.860
939.211;  156.939;  -10.560;  952.480
939.768;  157.817;  -13.900;  915.420
940.324;  160.561;  -14.760;  904.200
940.881;  162.599;  -10.370;  878.500
941.438;  167.829;   -8.260; 1021.200
941.995;  165.467;  -12.540;  992.560
942.551;  165.893;  -14.670;  875.620
943.108;  166.973;  -10.450;  937.920
943.664;  167.630;  -10.750;  869.340
944.221;  171.251;  -11.550; 1088.140
944.777;  172.556;  -14.770;  869.680
945.334;  169.846;  -12.820;  884.840
945.890;  164.414;  -10.130;  946.480
946.446;  162.092;  -13.470;  947.020
947.003;  163.914;  -12.120;  964.940
947.559;  163.378;   -9.980; 1063.040
948.115;  160.409;   -9.080; 1026.540
948.671;  157.824;  -10.830;  967.300
949.227;  156.836;  -12.440;  859.560
949.783;  157.444;  -12.910;  858.900
950.339;  161.371;  -10.270;  991.000
950.895;  163.338;  -13.630; 1023.840
951.451;  162.341;  -15.100;  925.280
952.007;  159.990;  -11.330;  998.540
952.563;  156.053;  -10.580;  937.780
953.118;  153.662;  -13.440;  904.940
953.674;  153.454;  -12.710;  935.780
954.230;  155.350;  -10.350;  949.640
954.785;  160.408;   -9.190;  936.640
955.341;  161.314;  -11.200;  998.160
955.897;  155.821;  -16.560;  834.660
956.452;  154.050;  -12.570;  953.840
957.008;  152.411;   -7.970; 1083.640
957.563;  147.784;  -11.940; 1009.540
958.118;  144.143;  -13.450;  877.700
958.674;  142.592;  -12.030;  946.780
959.229;  143.992;   -9.410; 1013.980
959.784;  144.210;  -12.000;  832.400
960.339;  145.679;  -14.780; 1001.280
960.894;  143.320;   -9.860;  963.760
961.449;  139.202;   -9.970;  859.960
962.004;  139.057;  -10.900; 1212.840
962.559;  136.593;  -13.150;  860.140
963.114;  134.366;  -13.740;  742.480
963.669;  133.921;   -9.820;  915.500
964.224;  134.383;  -13.890;  874.340
964.779;  136.861;  -12.600;  828.420
965.334;  137.021;  -10.950; 1017.860
965.888;  130.910;  -11.170;  875.360
966.443;  121.245;  -12.540;  972.380
966.998;  108.622;  -15.780;  819.460
967.552;  100.408;   -9.760;  908.380
968.107;   94.139;   -9.060;  868.300
968.661;   94.278;  -11.950;  922.440
969.216;   97.043;  -12.800;  856.280
969.770;   99.063;  -11.210;  917.200
970.324;  102.131;  -11.610;  923.140
970.879;  103.899;  -11.370;  947.180
971.433;  106.738;  -12.540;  952.720
971.987;  106.937;  -11.320;  895.340
972.541;  105.855;  -10.720;  917.100
973.095;  105.678;   -9.680; 1009.460
973.649;  103.496;  -11.440;  809.480
974.203;  102.318;  -11.210;  829.040
974.757;  102.203;  -10.240;  855.220
975.311;  102.984;  -13.720;  872.600
975.865;  102.580;  -13.770;  881.820
976.419;   99.784;  -11.690;  857.400
976.973;   98.785;   -9.510;  849.620
977.526;   97.804;  -12.620;  949.920
978.080;   95.035;  -12.010;  796.780
978.634;   95.484;  -10.170;  921.320
979.187;   94.621;   -9.020;  905.400
979.741;   96.750;   -9.820; 1018.380
980.294;   94.620;  -14.870;  789.160
980.848;   93.560;  -12.380;  717.220
981.401;   93.781;  -10.350;  816.540
981.955;   92.236;  -13.720;  844.300
982.508;   88.811;  -11.490;  746.340
983.061;   88.872;  -10.000;  915.260
983.615;   87.815;  -11.480;  798.800
984.168;   85.530;  -13.220;  770.080
984.721;   84.948;  -13.960;  880.760
985.274;   82.794;  -10.870;  867.500
985.827;   81.105;   -9.790;  834.220
986.380;   79.039;  -13.120;  721.340
986.933;   79.025;  -12.450;  864.800
987.486;   78.086;  -10.210;  861.920
988.039;   78.720;   -8.430;  863.100
988.591;   77.439;  -10.520;  893.260
989.144;   75.437;  -14.860;  737.260
989.697;   73.394;  -13.080;  758.740
990.250;   73.829;  -10.150;  858.100
990.802;   71.411;  -13.430;  755.860
991.355;   71.235;  -12.750;  974.880
991.907;   69.772;  -12.040;  864.320
992.460;   68.310;  -11.330;  753.760
993.012;   67.133;  -13.610;  749.540
993.565;   64.505;  -13.460;  711.360
994.117;   65.246;   -9.360;  950.780
994.669;   63.491;  -11.300;  701.320
995.221;   62.985;  -13.540;  791.920
995.774;   61.057;  -13.430;  787.580
996.326;   58.829;  -12.520;  740.220
996.878;   59.274;  -10.950;  838.420
997.430;   56.329;  -14.300;  699.860
997.982;   55.897;  -13.760;  750.140
998.534;   55.145;  -11.530;  739.060
999.086;   54.745;  -10.310;  738.220
999.638;   52.677;  -12.530;  661.380
1000.190;   52.253;  -11.840;  699.320
1000.741;   51.170;  -10.260;  742.700
1001.293;   51.857;   -8.860;  686.020
1001.845;   50.544;  -13.700;  676.640
1002.396;   51.400;  -12.100;  743.400
1002.948;   49.012;  -12.760;  737.400
1003.500;   47.207;  -10.380;  723.780
1004.051;   48.520;  -11.900;  907.580
1004.603;   46.083;  -12.250;  791.820
1005.154;   42.882;  -13.210;  608.980
1005.705;   42.600;  -10.950;  723.960
1006.257;   41.194;  -13.880;  707.220
1006.808;   41.168;  -12.840;  685.460
1007.359;   41.138;  -10.570;  763.240
1007.910;   40.931;   -9.620;  646.640
1008.461;   40.002;  -13.630;  732.940
1009.013;   38.725;  -17.200;  588.340
1009.564;   39.506;  -10.200;  793.520
1010.115;   37.638;  -12.570;  597.040
1010.665;   37.187;  -15.150;  602.160
1011.216;   37.888;  -14.480;  667.920
1011.767;   37.580;  -11.340;  697.920
1012.318;   38.142;   -9.780;  736.980
1012.869;   36.511;  -12.380;  679.000
1013.419;   35.816;  -15.560;  603.120
1013.970;   35.953;  -11.010;  666.640
1014.521;   36.248;  -11.610;  620.620
1015.071;   36.107;  -13.450;  670.380
1015.622;   35.099;  -13.870;  635.460
1016.172;   33.928;  -11.610;  596.820
1016.723;   34.435;  -12.120;  614.380
1017.273;   33.839;  -13.620;  604.160
1017.823;   34.050;  -14.140;  650.340
1018.374;   33.157;  -12.800;  611.760
1018.924;   33.682;  -12.340;  716.880
1019.474;   34.218;  -11.410;  718.880
1020.024;   32.043;  -14.770;  657.580
1020.574;   33.562;   -9.780;  726.160
1021.124;   33.243;   -8.560;  673.580
1021.674;   31.903;  -15.190;  559.120
1022.224;   33.230;  -13.530;  708.940
1022.774;   32.242;  -13.280;  668.820
1023.324;   32.330;  -10.690;  753.520
1023.874;   33.396;  -10.240;  875.760
1024.423;   30.713;  -12.540;  613.700
1024.973;   30.807;  -10.010;  610.760
1025.523;   30.850;  -10.550;  620.960
1026.072;   30.349;  -13.560;  606.420
1026.622;   30.155;  -15.120;  675.740
1027.172;   30.889;  -11.260;  715.660
1027.721;   29.728;  -11.410;  601.220
1028.270;   30.560;  -13.530;  663.400
1028.820;   29.448;  -13.680;  638.080
1029.369;   29.440;  -13.520;  612.700
1029.918;   29.738;  -10.980;  649.840
1030.468;   29.112;  -13.530;  564.780
1031.017;   29.399;  -13.170;  634.800
1031.566;   28.796;  -12.200;  608.900
1032.115;   28.390;   -9.960;  694.500
1032.664;   27.258;  -13.210;  596.480
1033.213;   28.521;  -12.500;  735.420
1033.762;   27.482;  -11.910;  635.620
1034.311;   27.958;   -9.640;  677.220
1034.860;   28.569;  -13.310;  691.000
1035.408;   27.995;  -11.830;  722.720
1035.957;   28.108;  -12.000;  719.540
1036.506;   25.785;  -11.690;  530.800
1037.055;   28.701;  -10.990;  844.320
1037.603;   26.412;  -15.120;  664.000
1038.152;   25.356;  -12.450;  534.760
1038.700;   26.250;  -10.560;  585.740
1039.249;   25.731;  -11.080;  681.220
1039.797;   26.159;  -12.540;  633.360
1040.345;   25.923;  -11.920;  705.420
1040.894;   25.695;  -11.410;  625.300
1041.442;   25.698;  -14.320;  632.200
1041.990;   24.190;  -16.240;  559.160
1042.538;   23.596;  -11.680;  536.180
1043.087;   24.349;  -10.760;  570.860
1043.635;   25.680;  -11.850;  670.500
1044.183;   24.340;  -15.480;  586.400
1044.731;   23.953;  -11.770;  576.000
1045.279;   24.023;  -13.090;  674.920
1045.827;   25.904;  -12.440;  892.400
1046.374;   23.266;  -13.840;  515.420
1046.922;   22.410;  -13.220;  590.580
1047.470;   24.767;  -10.230;  691.300
1048.018;   23.898;  -14.590;  647.960
1048.565;   24.624;  -12.050;  708.600
1049.113;   22.738;  -11.650;  557.000
1049.660;   21.702;  -10.510;  629.660
1050.208;   23.147;  -13.310;  675.640
1050.755;   21.547;  -15.900;  606.580
1051.303;   22.957;  -11.430;  686.820
1051.850;   21.865;   -8.480;  635.120
1052.397;   20.285;  -15.010;  473.960
1052.945;   21.374;  -13.960;  617.760
1053.492;   22.363;  -13.150;  741.840
1054.039;   21.953;   -9.630;  720.180
1054.586;   21.187;  -13.680;  557.240
1055.133;   22.415;  -14.570;  693.140
1055.680;   21.566;  -13.820;  646.620
1056.227;   20.522;  -11.730;  542.780
1056.774;   21.712;  -12.480;  794.980
1057.321;   19.587;  -13.930;  523.260
1057.868;   20.718;  -11.690;  651.320
1058.415;   19.923;   -9.520;  651.980
1058.961;   20.517;  -13.160;  678.940
1059.508;   19.927;  -12.920;  643.820
1060.055;   19.888;  -11.920;  581.780
1060.601;   20.092;  -11.500;  624.300
1061.148;   20.125;  -14.330;  616.820
1061.694;   18.280;  -16.870;  592.580
1062.241;   19.071;  -10.330;  596.320
1062.787;   19.579;  -10.620;  663.140
1063.334;   20.443;  -10.110;  808.560
1063.880;   19.622;  -13.400;  668.360
1064.426;   18.930;  -10.680;  706.820
1064.972;   18.983;   -9.920;  601.340
1065.518;   17.058;  -10.980;  566.640
1066.065;   18.332;  -14.890;  624.460
1066.611;   17.151;  -12.870;  598.800
1067.157;   18.702;  -12.950;  641.860
1067.703;   18.767;  -13.540;  668.480
1068.249;   17.279;  -13.540;  605.220
1068.794;   17.807;  -12.600;  626.880
1069.340;   16.473;  -10.620;  578.960
1069.886;   17.368;  -12.830;  590.700
1070.432;   16.287;  -14.870;  541.720
1070.977;   16.312;  -11.980;  601.080
1071.523;   17.299;   -8.200;  573.060
1072.068;   17.173;  -12.330;  582.000
1072.614;   16.491;  -16.370;  527.760
1073.160;   16.604;  -11.100;  687.040
1073.705;   15.890;  -10.480;  572.520
1074.250;   15.879;  -14.520;  559.900
1074.796;   16.954;  -11.460;  655.160
1075.341;   16.431;  -11.950;  664.100
1075.886;   16.159;  -11.460;  594.240
1076.431;   15.423;  -13.770;  649.880
1076.976;   15.266;  -12.680;  639.220
1077.521;   15.102;  -13.170;  583.080
1078.067;   14.554;  -10.860;  579.400
1078.612;   15.278;  -13.920;  661.620
1079.156;   14.524;  -13.880;  601.540
1079.701;   14.895;  -13.120;  693.260
1080.246;   15.102;   -9.940;  696.300
1080.791;   15.307;  -14.740;  625.020
1081.336;   14.980;  -13.750;  659.320
1081.880;   14.473;  -13.400;  649.680
1082.425;   13.846;  -12.220;  573.480
1082.970;   15.193;  -11.610;  717.040
1083.514;   13.421;  -13.580;  597.000
1084.059;   12.714;  -12.810;  586.720
1084.603;   13.583;  -12.320;  565.840
1085.147;   14.135;  -13.190;  645.220
1085.692;   14.549;  -12.480;  716.800
1086.236;   12.306;  -13.020;  503.140
1086.780;   14.928;   -9.190;  751.440
1087.325;   13.621;  -12.480;  654.620
1087.869;   12.946;  -12.450;  610.700
1088.413;   13.607;  -12.240;  705.040
1088.957;   11.857;   -9.020;  543.400
1089.501;   13.909;  -10.320;  766.640
1090.045;   12.679;  -12.720;  726.480
1090.589;   11.156;  -13.690;  569.920
1091.133;   12.542;  -10.020;  673.340
1091.676;   12.455;  -12.330;  591.940
1092.220;   11.968;  -14.970;  600.920
1092.764;   13.265;  -12.430;  706.960
1093.307;   12.169;   -9.800;  673.780
1093.851;   11.153;  -14.970;  556.540
1094.395;   12.075;  -15.310;  683.140
1094.938;   11.313;  -10.370;  632.520
1095.482;   11.434;  -11.050;  559.800
1096.025;   11.596;  -11.840;  710.880
1096.568;   11.922;  -12.840;  779.280
1097.112;    9.750;  -14.700;  508.180
1097.655;   11.305;   -8.720;  603.000
1098.198;   10.765;  -13.610;  600.180
1098.741;    9.497;  -13.350;  612.860
1099.285;   11.016;  -11.230;  657.300
1099.828;    8.696;  -11.840;  439.400
1100.371;   10.631;  -10.840;  608.160
1100.914;   10.308;  -14.190;  682.660
1101.457;    9.485;  -11.240;  679.900
1101.999;    8.610;  -11.270;  584.680
1102.542;   10.381;  -11.480;  641.440
1103.085;    9.221;  -11.750;  658.500
1103.628;   10.060;  -11.400;  762.060
1104.170;    8.802;  -10.490;  588.280
1104.713;    9.645;  -10.600;  646.700
1105.256;    8.894;  -14.360;  557.440
1105.798;    7.883;  -13.210;  499.980
1106.341;    9.602;  -10.270;  728.900
1106.883;    8.510;  -12.200;  521.340
1107.425;    9.505;  -13.110;  668.180
1107.968;    8.405;  -12.840;  612.380
1108.510;    8.695;   -6.480;  684.960
1109.052;    7.840;  -13.940;  612.620
1109.594;    7.561;  -13.690;  554.440
1110.136;    8.491;  -11.880;  643.220
1110.679;    7.987;   -9.500;  633.080
1111.221;    9.017;  -14.160;  604.460
1111.763;    8.013;  -13.980;  559.220
1112.304;    7.198;  -13.880;  547.140
1112.846;    8.398;  -12.210;  666.240
1113.388;   10.149;  -11.390;  942.180
1113.930;    7.605;  -14.540;  694.200
1114.472;    6.511;  -12.640;  606.540
1115.013;    6.304;  -11.620;  551.280
1115.555;    7.090;  -13.640;  587.100
1116.097;    5.521;  -15.380;  579.480
1116.638;    6.812;  -12.640;  684.600
1117.180;    7.042;   -9.850;  667.740
1117.721;    6.991;  -13.690;  568.580
1118.262;    7.523;  -12.680;  677.960
1118.804;    6.750;  -12.530;  637.340
1119.345;    5.898;  -11.690;  578.400
1119.886;    7.255;  -13.380;  704.040
1120.427;    6.027;  -14.070;  589.020
1120.969;    5.525;  -13.500;  597.920
1121.510;    5.316;  -11.480;  563.060
1122.051;    6.044;  -12.830;  723.580
1122.592;    5.493;  -14.290;  655.420
1123.133;    4.110;  -12.400;  547.940
1123.673;    6.268;  -10.130;  706.480
1124.214;    6.063;  -12.930;  612.460
1124.755;    6.035;  -14.380;  639.460
1125.296;    5.408;  -14.000;  627.320
1125.836;    6.067;  -10.070;  691.500
1126.377;    5.269;  -12.640;  599.660
1126.918;    5.743;  -12.960;  614.980
1127.458;    4.305;  -13.350;  622.220
1127.999;    5.398;  -10.750;  656.980
1128.539;    4.968;  -12.350;  694.240
1129.079;    4.560;  -14.860;  632.720
1129.620;    4.020;  -13.840;  558.100
1130.160;    4.341;  -12.330;  539.480
1130.700;    5.010;  -14.530;  640.840
1131.240;    4.965;  -12.530;  643.700
1131.781;    3.834;  -14.450;  619.680
1132.321;    3.761;   -9.790;  599.120
1132.861;    2.431;  -14.860;  564.200
1133.401;    2.001;  -14.290;  593.940
1133.941;    3.693;  -11.750;  626.280
1134.481;    3.210;   -9.920;  597.580
1135.020;    3.060;  -12.290;  609.160
1135.560;    3.994;  -11.650;  674.940
1136.100;    2.792;  -16.270;  501.160
1136.640;    2.935;  -10.890;  510.480
1137.179;    2.862;  -14.180;  537.960
1137.719;    3.252;  -16.250;  605.400
1138.258;    2.570;  -14.230;  587.360
1138.798;    3.797;   -9.090;  663.780
1139.337;    1.386;  -15.130;  482.840
1139.877;    3.153;  -13.680;  642.360
1140.416;    4.783;  -11.320;  878.060
1140.955;    2.149;  -10.860;  535.380
1141.494;    3.486;  -12.920;  669.280
1142.034;    2.147;  -13.930;  583.520
1142.573;    3.380;  -11.440;  646.280
1143.112;    2.457;  -12.000;  553.480
1143.651;    2.659;  -13.670;  536.480
1144.190;    3.067;  -12.730;  691.640
1144.729;    2.216;  -14.560;  607.420
1145.267;    1.773;  -11.830;  584.900
1145.806;    2.656;  -12.230;  637.040
1146.345;    1.929;  -14.130;  635.020
1146.884;    1.733;  -11.590;  622.500
1147.422;    1.621;  -12.550;  533.060
1147.961;    3.508;  -11.180;  708.460
1148.500;    2.709;  -11.510;  669.720
1149.038;    2.168;  -11.640;  632.500
1149.577;    2.496;  -10.130;  698.640
1150.115;    0.243;  -13.970;  452.280
1150.653;    2.043;  -14.520;  607.340
1151.192;    0.748;  -12.810;  552.920
1151.730;    1.447;   -9.100;  652.560
1152.268;    0.686;  -12.220;  589.520
1152.806;    1.205;  -14.140;  571.180
1153.344;   -0.817;  -12.350;  577.640
1153.882;    1.168;   -8.980;  600.060
1154.421;    0.367;  -15.190;  470.620
1154.958;    0.545;  -15.210;  595.240
1155.496;    1.242;  -12.850;  645.280
1156.034;    1.165;   -9.940;  721.880
1156.572;    2.471;  -13.570;  667.060
1157.110;   -0.364;  -14.590;  473.940
1157.647;    1.407;  -13.030;  676.960
1158.185;   -0.129;  -12.140;  564.320
1158.723;   -0.384;  -14.390;  509.200
1159.260;    0.493;  -14.090;  701.700
1159.798;    0.685;  -11.920;  658.160
1160.335;   -0.014;  -11.110;  631.820

