
Integration time [ms]:   3.276
Averaging Nr. [scans]: 1000
Smoothing Nr. [pixels]: 0
Data measured with spectrometer [name]: 7414430SP
Wave   ;Sample   ;Dark     ;Reference
[nm]   ;[counts] ;[counts] ;[counts] 

288.544;  149.457;    7.793;  793.890
289.143;  154.797;    7.462;  681.602
289.742;  154.658;    8.602;  828.814
290.341;  138.620;    1.321;  789.841
290.940;  128.940;   -0.709;  730.702
291.538;  129.358;    0.881;  881.108
292.137;  130.004;    0.122;  792.581
292.736;  133.731;   -1.929;  975.101
293.335;  130.493;   -8.229;  735.086
293.934;  131.516;   -5.279;  781.677
294.532;  129.927;   -1.369; 1031.958
295.131;  114.376;   -7.641;  834.394
295.730;  116.099;   -8.420;  809.588
296.328;  114.745;   -5.611;  783.442
296.927;  116.414;   -5.781;  779.652
297.525;  116.894;   -6.361;  781.236
298.124;  107.062;  -11.382;  654.009
298.722;  110.777;   -7.641;  761.933
299.321;  109.157;   -6.811;  708.597
299.919;  106.497;   -6.991;  751.918
300.518;  103.906;  -10.362;  689.338
301.116;  105.042;   -9.581;  691.381
301.715;  105.450;   -4.891;  730.222
302.313;  104.991;   -8.801;  704.943
302.911;   99.720;   -8.522;  733.830
303.509;  104.888;   -6.171;  925.627
304.108;  102.686;   -7.311;  760.383
304.706;  101.505;   -8.321;  801.664
305.304;   96.478;  -10.222;  796.707
305.902;  101.597;   -6.021;  784.484
306.500;   97.845;   -4.971;  728.200
307.098;   95.638;   -7.061;  746.560
307.696;   94.058;   -8.801;  780.432
308.294;   94.495;   -6.411;  731.359
308.892;   96.327;   -2.901;  759.769
309.490;   92.975;   -5.041;  712.161
310.088;   91.182;   -5.002;  788.444
310.686;   95.215;   -2.041;  821.749
311.284;   90.530;   -2.351;  766.040
311.882;   88.379;   -4.422;  731.225
312.480;   85.754;   -4.192;  697.167
313.078;   87.426;   -1.172;  808.331
313.675;   87.857;   -2.601;  691.600
314.273;   82.277;   -1.312;  797.837
314.871;   82.680;   -3.942;  589.829
315.468;   80.119;   -2.802;  652.090
316.066;   83.620;   -0.701;  694.427
316.664;   75.809;   -4.362;  656.351
317.261;   79.935;   -2.872;  910.128
317.859;   75.603;   -2.022;  768.735
318.456;   76.002;   -0.531;  830.096
319.054;   72.173;   -3.912;  787.828
319.651;   70.714;   -4.752;  759.928
320.249;   69.527;   -2.602;  810.188
320.846;   67.910;   -0.821;  714.286
321.443;   64.544;   -4.642;  832.135
322.041;   62.224;   -5.002;  812.315
322.638;   60.100;   -3.982;  701.456
323.235;   61.683;   -3.411;  665.683
323.833;   58.612;   -7.361;  740.354
324.430;   52.630;   -8.611;  615.900
325.027;   54.362;   -4.061;  876.855
325.624;   54.313;   -4.031;  644.532
326.221;   50.564;   -7.481;  689.717
326.818;   51.154;   -5.281;  818.332
327.415;   53.934;   -7.460;  748.828
328.012;   53.234;   -5.510;  690.585
328.609;   51.610;   -7.880;  731.389
329.206;   49.316;   -8.331;  778.621
329.803;   49.973;   -5.121;  737.841
330.400;   53.205;   -4.510;  704.260
330.997;   54.063;   -6.441;  817.147
331.594;   52.204;   -8.831;  788.185
332.191;   58.848;   -7.621;  728.722
332.787;   61.000;   -4.591;  844.463
333.384;   60.013;   -7.412;  763.093
333.981;   57.963;   -8.293;  815.687
334.578;   60.736;   -7.052;  708.378
335.174;   64.755;   -3.102;  731.469
335.771;   63.306;   -5.943;  836.456
336.367;   60.083;   -7.393;  710.631
336.964;   64.249;   -4.063;  793.266
337.561;   62.456;   -3.813;  731.112
338.157;   57.310;   -4.654;  911.916
338.754;   54.726;   -7.934;  796.589
339.350;   53.992;   -4.414;  722.493
339.946;   56.660;   -4.664;  773.135
340.543;   47.910;   -6.375;  846.136
341.139;   41.919;   -9.815;  720.836
341.735;   40.492;   -4.526;  772.593
342.332;   38.931;   -4.895;  691.472
342.928;   38.528;   -4.295;  795.394
343.524;   32.614;   -5.476;  761.684
344.120;   29.687;   -5.856;  738.562
344.716;   33.435;   -2.155;  723.717
345.313;   29.953;   -6.275;  795.342
345.909;   24.882;   -8.815;  627.336
346.505;   26.629;   -5.305;  740.247
347.101;   27.655;   -2.674;  827.864
347.697;   27.086;   -4.344;  785.398
348.293;   22.231;   -9.975;  627.244
348.889;   23.313;   -5.774;  745.914
349.485;   22.743;   -5.004;  688.205
350.081;   23.311;   -4.704;  772.592
350.676;   17.689;   -6.635;  691.606
351.272;   23.207;   -4.504;  809.530
351.868;   22.401;   -3.914;  780.497
352.464;   18.824;   -9.044;  723.932
353.059;   15.281;   -8.314;  646.017
353.655;   19.568;   -7.024;  777.063
354.251;   20.040;   -5.343;  759.845
354.846;   14.576;   -8.604;  740.646
355.442;   12.317;   -6.945;  753.071
356.038;   14.669;   -7.564;  751.708
356.633;   15.320;   -5.814;  728.594
357.229;   12.587;   -7.364;  724.757
357.824;   10.390;   -8.024;  703.600
358.420;   10.183;   -9.384;  679.726
359.015;   10.434;   -5.104;  695.357
359.610;   11.651;   -6.854;  763.920
360.206;    5.191;  -10.185;  603.240
360.801;    8.589;   -7.054;  646.503
361.396;   10.433;   -5.034;  725.975
361.992;    5.766;   -8.284;  668.220
362.587;    3.376;   -8.625;  670.160
363.182;    5.841;   -7.674;  689.631
363.777;    5.878;   -5.164;  738.242
364.372;    5.533;   -8.604;  737.314
364.967;    2.268;   -9.055;  680.744
365.563;    6.453;   -6.114;  815.567
366.158;    3.799;   -5.814;  685.161
366.753;    4.192;   -7.854;  649.263
367.348;    2.262;   -7.804;  746.056
367.942;    2.586;   -7.954;  697.298
368.537;    0.643;   -4.984;  754.245
369.132;    0.993;   -8.564;  703.428
369.727;   -2.538;   -8.855;  638.079
370.322;   -1.784;   -6.245;  580.186
370.917;   -1.715;   -6.425;  710.646
371.511;    0.884;   -6.294;  861.834
372.106;   -2.477;   -7.685;  776.964
372.701;   -5.697;   -7.335;  585.988
373.296;   -0.879;   -4.564;  863.135
373.890;   -5.046;  -10.235;  647.840
374.485;   -7.019;   -7.885;  691.199
375.079;   -3.025;   -7.324;  738.685
375.674;   -1.157;   -3.494;  812.970
376.268;   -6.694;   -8.525;  691.759
376.863;  -12.385;  -10.086;  580.327
377.457;   -5.683;   -7.025;  662.490
378.052;   -7.156;   -3.585;  764.884
378.646;   -8.405;   -7.595;  741.167
379.240;   -8.494;   -8.335;  721.176
379.835;   -8.253;   -5.785;  636.978
380.429;   -9.622;   -4.335;  562.557
381.023;   -9.381;   -6.805;  779.205
381.617;  -12.765;   -9.195;  680.106
382.212;   -8.746;   -6.905;  685.303
382.806;   -8.106;   -3.745;  760.690
383.400;  -11.881;   -7.745;  672.281
383.994;  -13.266;   -9.765;  664.870
384.588;   -9.491;   -6.564;  697.701
385.182;   -8.233;   -5.344;  726.624
385.776;   -9.256;   -8.514;  706.875
386.370;  -13.329;   -9.555;  681.968
386.964;  -11.849;   -8.715;  684.155
387.558;  -10.105;   -6.174;  598.360
388.152;  -13.420;   -8.725;  681.959
388.745;  -11.798;   -7.965;  814.707
389.339;  -10.085;   -5.924;  747.642
389.933;   -8.778;   -5.524;  695.370
390.527;  -10.005;   -7.114;  859.029
391.120;  -15.995;  -10.725;  595.318
391.714;  -13.349;   -8.035;  711.633
392.308;  -10.029;   -3.574;  780.253
392.901;  -13.323;   -7.245;  642.460
393.495;  -15.520;   -9.285;  595.414
394.089;  -14.410;   -5.895;  760.452
394.682;  -13.757;   -4.295;  697.188
395.275;  -15.016;   -9.875;  719.927
395.869;  -16.215;   -8.485;  667.314
396.462;  -14.585;   -7.455;  616.609
397.056;  -10.640;   -5.424;  776.621
397.649;  -15.712;   -6.605;  731.575
398.242;  -12.726;   -8.224;  712.645
398.836;  -11.492;   -7.474;  766.408
399.429;  -13.030;   -7.094;  631.041
400.022;  -16.524;   -9.475;  665.902
400.615;  -14.269;   -7.145;  805.609
401.208;  -12.194;   -7.174;  691.451
401.802;  -14.455;   -5.515;  699.329
402.395;  -15.391;   -9.875;  683.502
402.988;  -16.247;   -8.845;  696.627
403.581;  -12.667;   -8.874;  646.878
404.174;  -10.889;   -5.324;  686.568
404.767;  -14.132;   -9.575;  638.583
405.360;  -16.427;  -10.965;  621.445
405.953;  -10.811;   -8.764;  759.034
406.545;  -10.458;   -7.514;  725.342
407.138;  -14.781;  -10.025;  618.350
407.731;  -13.247;  -10.034;  613.303
408.324;   -9.219;   -9.374;  660.554
408.917;  -10.036;   -6.534;  681.864
409.509;  -12.119;   -8.004;  740.396
410.102;  -13.715;   -9.875;  643.948
410.695;   -8.347;   -8.604;  665.758
411.287;   -9.081;   -6.794;  599.821
411.880;  -11.349;   -9.334;  585.421
412.472;  -13.603;  -10.254;  613.092
413.065;  -10.246;   -6.714;  629.408
413.657;   -8.476;   -7.234;  576.678
414.250;   -8.361;  -10.544;  646.681
414.842;  -10.718;   -9.744;  676.353
415.434;   -8.445;   -6.994;  570.463
416.027;   -3.548;   -5.893;  652.196
416.619;   -6.117;   -7.264;  713.400
417.211;   -6.394;  -10.374;  599.352
417.804;   -2.945;   -7.993;  628.499
418.396;   -7.207;   -7.234;  607.643
418.988;   -4.424;   -9.443;  659.238
419.580;   -8.698;  -10.724;  568.276
420.172;   -5.662;  -10.323;  536.196
420.764;   -1.849;   -8.793;  672.482
421.356;   -2.724;  -11.143;  636.898
421.948;   -3.369;   -8.293;  677.661
422.540;    1.136;   -7.893;  680.027
423.132;    0.972;   -7.082;  600.641
423.724;   -3.346;   -8.653;  561.267
424.316;   -1.288;  -10.213;  621.345
424.908;    2.549;   -9.762;  591.517
425.500;    2.725;   -5.572;  647.978
426.092;    2.998;   -8.422;  648.268
426.683;    2.532;   -9.283;  684.836
427.275;    5.144;   -7.852;  641.471
427.867;    7.313;   -5.272;  668.948
428.458;    7.668;   -7.682;  732.344
429.050;    5.839;  -10.612;  680.749
429.642;    8.058;   -9.882;  743.124
430.233;    8.644;   -6.962;  569.356
430.825;    9.632;   -6.842;  724.809
431.416;    7.055;   -9.672;  698.241
432.008;   11.214;   -6.552;  651.723
432.599;   11.490;   -6.891;  656.073
433.190;    8.477;  -10.912;  637.670
433.782;    7.465;  -11.172;  590.395
434.373;   15.044;   -6.061;  884.765
434.964;   14.066;   -8.251;  602.920
435.556;   11.238;   -9.722;  634.537
436.147;   14.487;   -9.082;  758.490
436.738;   14.460;   -8.041;  701.099
437.329;   19.300;   -7.341;  721.723
437.920;   12.466;   -8.162;  666.688
438.511;   12.797;  -11.802;  564.526
439.103;   19.217;  -10.191;  623.998
439.694;   21.105;   -7.601;  681.583
440.285;   21.473;   -8.541;  764.432
440.876;   19.365;   -9.751;  845.738
441.466;   19.418;   -9.401;  575.162
442.057;   24.974;   -7.760;  665.814
442.648;   23.037;   -9.971;  746.255
443.239;   21.064;  -11.001;  620.477
443.830;   26.843;   -7.990;  704.958
444.421;   28.029;   -7.910;  655.474
445.011;   24.570;   -8.131;  693.619
445.602;   24.642;   -7.111;  743.126
446.193;   26.225;  -10.920;  488.117
446.783;   31.209;   -6.500;  640.397
447.374;   27.012;   -8.671;  692.759
447.964;   26.944;  -10.781;  713.770
448.555;   35.708;   -9.650;  822.742
449.145;   31.950;   -8.660;  662.853
449.736;   32.764;   -8.990;  803.179
450.326;   31.719;   -9.500;  713.626
450.917;   37.457;   -8.680;  675.324
451.507;   36.570;   -7.520;  600.661
452.097;   36.689;   -8.590;  746.267
452.688;   37.496;  -11.340;  742.160
453.278;   37.580;  -10.100;  566.840
453.868;   42.562;   -6.019;  793.550
454.458;   40.267;   -9.440;  651.141
455.048;   40.484;  -10.560;  711.783
455.639;   41.662;  -11.799;  567.096
456.229;   45.680;   -6.899;  710.694
456.819;   47.217;   -7.389;  751.158
457.409;   46.819;  -11.119;  773.993
457.999;   50.672;   -9.289;  737.505
458.589;   50.697;   -6.139;  686.606
459.179;   49.922;   -8.729;  717.658
459.769;   47.855;   -9.789;  627.099
460.358;   53.209;  -10.259;  797.262
460.948;   52.934;   -7.299;  689.503
461.538;   54.418;  -10.289;  660.677
462.128;   52.669;  -11.269;  664.934
462.717;   59.122;   -9.368;  710.326
463.307;   62.956;   -7.908;  705.846
463.897;   57.867;   -9.599;  656.942
464.486;   57.348;   -9.769;  837.128
465.076;   61.935;   -8.048;  733.776
465.666;   65.572;   -9.358;  652.900
466.255;   62.133;   -7.919;  785.651
466.845;   61.952;  -11.689;  666.749
467.434;   65.071;   -7.818;  725.873
468.023;   66.802;   -7.678;  658.357
468.613;   63.447;  -10.939;  713.946
469.202;   68.662;  -10.118;  646.507
469.791;   71.885;   -9.108;  737.811
470.381;   74.850;   -6.058;  742.813
470.970;   74.288;  -10.428;  711.099
471.559;   73.551;  -10.268;  733.291
472.148;   76.596;   -8.448;  675.737
472.738;   78.799;   -6.917;  765.466
473.327;   78.514;  -11.978;  637.529
473.916;   77.991;  -11.888;  737.446
474.505;   83.068;   -9.437;  751.703
475.094;   86.062;   -6.747;  806.570
475.683;   85.304;   -9.367;  797.699
476.272;   86.002;  -12.637;  730.632
476.861;   88.129;  -10.027;  706.754
477.449;   95.503;   -8.716;  728.487
478.038;   89.026;   -9.577;  692.513
478.627;   90.057;   -9.718;  714.852
479.216;   97.485;   -8.947;  769.441
479.805;  100.322;   -6.256;  783.375
480.393;   99.987;   -7.937; 1008.945
480.982;   98.707;   -7.717;  874.501
481.571;  104.736;   -9.266;  858.333
482.159;  105.497;   -7.636;  705.386
482.748;  105.600;   -9.667;  821.385
483.336;  109.512;  -10.376;  858.209
483.925;  111.509;   -7.147;  774.373
484.513;  117.621;   -7.996;  758.962
485.102;  113.968;  -10.027;  810.965
485.690;  122.601;  -10.446; 1011.050
486.278;  124.803;   -8.446;  979.329
486.867;  125.739;   -6.356;  809.662
487.455;  127.308;   -9.136;  898.229
488.043;  127.956;  -10.646;  748.361
488.631;  136.768;   -7.456; 1005.079
489.220;  140.522;   -6.636;  908.626
489.808;  140.799;  -11.036;  741.415
490.396;  148.543;  -10.246;  914.645
490.984;  154.094;   -8.556;  830.161
491.572;  163.417;   -5.886;  940.315
492.160;  169.103;   -9.486;  919.081
492.748;  180.545;  -10.976;  884.341
493.336;  203.183;   -8.776; 1019.693
493.924;  229.562;   -5.465;  958.077
494.512;  256.624;   -9.986; 1066.638
495.100;  293.837;  -10.636; 1103.280
495.687;  346.564;  -10.885; 1206.373
496.275;  405.905;   -8.126; 1150.796
496.863;  470.305;  -10.586; 1281.171
497.451;  568.133;  -11.926; 1386.805
498.038;  710.374;  -10.885; 1556.729
498.626;  829.239;   -6.315; 1741.407
499.214;  970.745;   -7.326; 2016.609
499.801; 1160.048;  -11.906; 2220.633
500.389; 1413.390;  -10.466; 2312.494
500.976; 1740.542;   -5.236; 2744.849
501.564; 2157.955;   -8.936; 3148.565
502.151; 2519.935;  -13.176; 3515.999
502.738; 2980.834;  -10.646; 3971.274
503.326; 3362.448;   -9.525; 4403.796
503.913; 3777.873;  -10.856; 5161.749
504.500; 4121.407;  -11.586; 5986.420
505.088; 4566.974;  -10.336; 6381.201
505.675; 5107.229;   -6.355; 6925.547
506.262; 5727.796;   -9.046; 7619.060
506.849; 6501.241;  -10.416; 8733.969
507.436; 6971.752;  -10.305; 9790.121
508.023; 7412.232;   -5.496; 9985.472
508.610; 7679.963;   -7.856;10434.618
509.197; 8376.444;  -10.097;11198.435
509.784; 9787.612;  -10.886;12391.194
510.371;10913.479;   -9.315;13603.713
510.958;11598.313;   -9.936;14426.586
511.545;12196.978;   -9.326;15243.775
512.132;12863.702;  -10.075;15945.876
512.719;13442.389;   -7.796;16340.369
513.305;14522.738;  -10.606;18011.766
513.892;15388.178;  -11.486;19754.971
514.479;16853.682;   -9.126;20967.805
515.066;18265.928;   -6.026;22299.793
515.652;19357.010;   -8.466;22908.660
516.239;20549.217;  -10.886;23798.875
516.825;21321.406;  -11.496;25567.275
517.412;22119.697;   -5.796;28154.959
517.998;22991.684;  -10.506;28344.111
518.585;23164.148;  -10.076;27134.219
519.171;23177.520;   -8.315;27268.576
519.758;24332.494;   -8.596;28964.129
520.344;25954.918;   -8.466;30664.494
520.930;25959.904;  -11.006;32550.605
521.516;27567.674;  -10.495;35422.895
522.103;30185.143;   -5.526;38280.004
522.689;30861.988;   -8.746;37835.117
523.275;30229.195;  -11.376;37288.613
523.861;30738.148;  -11.156;37281.395
524.447;31748.932;   -8.135;37846.949
525.033;31171.104;   -7.896;38321.949
525.619;30868.156;  -12.476;38579.285
526.205;30371.404;   -9.516;40622.875
526.791;30665.902;   -6.926;42258.836
527.377;30854.035;   -8.346;42966.902
527.963;35191.934;   -8.717;42018.949
528.549;37053.125;  -11.016;42476.828
529.135;36608.289;   -8.536;41854.852
529.721;36260.531;   -9.666;41237.711
530.306;35535.910;  -10.066;41259.445
530.892;35619.469;  -11.356;41506.047
531.478;36749.652;   -6.596;43559.613
532.063;38815.160;   -8.836;47695.563
532.649;39178.434;  -10.047;50808.324
533.235;40334.672;   -9.746;51787.500
533.820;41681.930;   -6.566;52145.035
534.406;42076.570;  -10.817;51133.488
534.991;41387.891;   -9.416;49996.805
535.576;40241.703;   -9.036;48882.852
536.162;40515.031;   -6.156;46942.285
536.747;41141.914;  -11.607;45711.746
537.333;43763.602;  -11.787;48510.180
537.918;45664.746;  -12.437;50439.891
538.503;43502.512;   -7.196;50863.711
539.088;38734.309;  -10.556;50906.922
539.673;36482.730;   -8.767;52621.965
540.259;35462.262;  -10.026;52368.094
540.844;34827.480;   -7.416;50879.109
541.429;38419.871;   -9.467;52077.777
542.014;44417.016;   -9.527;52716.695
542.599;46607.238;   -9.946;52363.281
543.184;44032.867;   -7.927;53187.137
543.769;44840.891;   -9.297;54697.605
544.354;45018.832;  -10.127;53913.914
544.938;44168.691;   -9.267;49680.164
545.523;46336.484;   -6.506;47386.277
546.108;48711.449;   -9.787;49151.949
546.693;50701.969;  -11.587;51384.637
547.278;50318.828;  -10.986;51853.254
547.862;46990.836;   -8.206;51173.750
548.447;42315.250;  -10.067;51691.395
549.031;41718.973;   -9.637;52456.703
549.616;46512.762;   -9.926;52714.516
550.201;45961.719;   -6.347;52414.598
550.785;46115.809;   -7.917;52355.059
551.370;45920.742;  -10.867;54589.453
551.954;46281.781;   -9.047;58267.348
552.538;47987.172;   -7.827;59062.176
553.123;46620.852;  -10.287;58115.285
553.707;44095.273;  -12.178;56556.285
554.291;44433.742;   -8.717;56201.668
554.876;45529.469;   -7.457;55335.762
555.460;46222.281;  -10.387;54155.703
556.044;48083.465;   -9.618;53721.484
556.628;46293.762;  -11.567;53731.016
557.212;45700.207;   -8.097;54312.531
557.796;44058.941;  -11.077;53797.773
558.380;44140.602;  -11.108;56145.984
558.964;44814.375;   -9.057;57277.930
559.548;45593.273;   -6.977;56459.641
560.132;43725.297;  -11.457;54434.543
560.716;42489.949;  -11.378;54800.617
561.300;42971.539;   -9.577;57606.945
561.884;44181.230;   -7.127;58972.445
562.467;43188.227;   -7.118;57327.570
563.051;42640.113;  -13.358;54962.434
563.635;43127.551;  -10.178;52594.473
564.219;43893.949;   -7.837;50610.410
564.802;44620.238;  -11.398;49551.180
565.386;44683.715;  -12.788;48370.953
565.969;44091.875;   -9.077;48178.871
566.553;43048.172;   -6.207;49957.305
567.136;43331.605;   -8.568;50369.594
567.720;39891.605;  -11.868;49492.004
568.303;38278.027;   -8.268;50616.352
568.887;38070.125;   -8.698;50727.148
569.470;38524.094;   -6.808;51698.379
570.053;37432.285;  -13.188;52122.078
570.637;35809.047;  -12.037;52536.438
571.220;35388.660;   -8.577;51186.098
571.803;35776.344;   -8.498;51032.762
572.386;37835.145;  -10.498;49609.887
572.969;40826.656;   -9.388;48285.926
573.552;39707.645;   -8.338;47624.285
574.135;38688.605;   -8.518;45498.641
574.718;35726.707;  -13.628;41970.434
575.301;34607.570;  -10.893;41447.137
575.884;33488.430;   -8.158;40923.836
576.467;34393.953;  -10.328;45267.723
577.050;36849.820;  -13.058;48175.543
577.633;38607.430;   -9.458;47729.328
578.216;37590.594;   -8.928;47579.793
578.799;36448.953;   -9.358;47820.996
579.381;34806.875;  -11.388;48115.551
579.964;32865.223;  -11.718;47333.766
580.547;34102.547;   -8.588;46668.969
581.129;34569.984;   -8.859;44466.141
581.712;34976.957;  -10.729;44164.922
582.294;35937.133;  -11.118;46477.855
582.877;36681.961;   -5.218;48244.254
583.459;35076.953;   -8.679;47437.895
584.042;33284.164;  -10.709;46943.219
584.624;33425.641;  -11.669;46792.227
585.206;32683.594;   -8.218;46557.250
585.789;32902.219;  -10.569;45793.773
586.371;35933.840;  -11.859;43836.391
586.953;36764.547;  -10.719;42972.492
587.536;37237.555;   -7.198;42487.211
588.118;37504.328;   -8.720;42086.414
588.700;34057.320;  -10.439;43389.930
589.282;32943.785;   -9.198;43646.039
589.864;33700.039;   -9.199;43438.109
590.446;35348.516;  -11.319;43151.926
591.028;35040.414;  -11.159;42781.867
591.610;33882.492;  -11.779;42839.098
592.192;30844.580;   -7.668;42820.402
592.774;29283.127;  -11.949;40724.277
593.356;28426.719;  -12.129;39874.789
593.937;28209.963;  -10.669;39980.648
594.519;30268.289;   -6.509;42069.633
595.101;32286.807;  -10.849;42976.031
595.683;32474.969;  -11.679;44084.441
596.264;33467.273;   -9.049;43478.797
596.846;32395.605;   -8.849;43803.672
597.427;31598.518;   -9.570;42986.934
598.009;33247.309;  -12.620;42832.219
598.591;33795.664;  -10.039;42580.086
599.172;33442.109;  -10.369;43061.805
599.753;33721.695;   -9.140;41691.469
600.335;35208.129;  -11.430;40692.520
600.916;33429.531;   -9.939;39982.422
601.498;31091.861;   -8.479;40318.617
602.079;29680.615;  -10.920;40670.609
602.660;29405.879;  -11.480;41450.898
603.241;30172.945;  -11.699;41137.738
603.823;28885.279;   -9.579;38868.797
604.404;28806.393;  -10.620;38182.785
604.985;30361.947;  -10.450;38078.047
605.566;29729.115;   -9.129;38056.633
606.147;29629.889;   -7.510;37020.418
606.728;31865.338;  -10.660;37883.359
607.309;30901.229;  -11.740;38748.273
607.890;30217.496;   -9.759;38850.230
608.471;30035.824;   -8.250;37457.918
609.051;29592.141;   -9.240;36066.457
609.632;28427.104;  -12.120;35991.074
610.213;29085.141;   -9.110;37402.641
610.794;29827.537;   -8.030;38383.363
611.374;28914.967;   -8.110;40562.387
611.955;29062.820;  -13.560;38533.727
612.536;30645.959;  -11.400;36951.789
613.116;30432.447;   -8.070;37197.891
613.697;30915.453;  -10.830;38411.125
614.277;29147.119;  -11.641;38673.938
614.858;30001.984;  -13.310;37075.863
615.438;29934.586;   -7.460;35092.906
616.019;27430.615;   -7.601;33666.301
616.599;27737.898;  -12.020;34189.023
617.179;29679.010;  -11.780;36952.047
617.760;30342.344;   -8.570;39582.574
618.340;31390.010;  -11.471;38943.977
618.920;32777.879;  -11.170;37594.156
619.500;32218.607;  -11.071;37866.938
620.080;31698.377;   -7.750;37869.043
620.660;32810.273;  -12.711;36868.617
621.241;33628.340;  -10.211;36352.309
621.821;33304.727;  -10.961;35459.520
622.401;33051.996;   -7.720;35207.414
622.980;32239.031;   -8.981;35980.422
623.560;30603.912;   -9.331;37351.328
624.140;29835.039;   -9.850;34388.582
624.720;25512.457;   -7.451;32368.764
625.300;21777.090;   -9.070;32638.629
625.880;24753.678;  -12.601;34599.035
626.459;28259.777;  -11.751;36831.738
627.039;31037.127;   -9.281;38299.098
627.619;31039.271;   -8.801;38289.574
628.198;29474.896;  -12.071;37220.695
628.778;29072.111;   -9.461;37632.563
629.357;29851.447;   -8.491;38003.012
629.937;29514.287;   -9.721;38402.039
630.516;28774.139;   -9.951;37868.801
631.096;28879.730;  -11.731;35760.410
631.675;31625.740;   -8.572;35225.219
632.254;36752.926;  -11.282;35130.289
632.834;36318.000;  -13.322;35794.570
633.413;34824.816;  -10.301;35788.922
633.992;31965.576;   -8.582;34532.863
634.571;33246.445;   -8.352;33590.113
635.151;35961.281;  -11.912;34943.863
635.730;34010.164;  -10.511;35352.523
636.309;30431.861;   -7.731;35366.605
636.888;27695.459;   -9.952;36165.637
637.467;28123.367;  -11.672;37515.902
638.046;30400.893;   -8.901;39288.695
638.625;33679.738;   -7.912;38279.699
639.204;33537.367;  -10.022;37741.598
639.782;31739.633;  -12.252;38364.551
640.361;28016.602;  -10.041;36740.621
640.940;25260.217;  -11.161;34950.082
641.519;25502.283;   -9.701;34137.398
642.097;27908.303;  -11.271;35654.258
642.676;30888.045;   -8.651;35637.957
643.255;32331.785;   -8.711;36567.074
643.833;31339.393;   -9.581;37809.434
644.412;31673.908;  -13.711;37337.293
644.990;31085.986;  -11.811;37018.531
645.569;30770.580;   -9.411;36518.469
646.147;29564.598;  -10.291;36186.430
646.726;29047.945;  -12.401;36267.688
647.304;30423.166;  -10.411;36647.625
647.882;31854.762;   -9.651;39286.742
648.461;33233.793;   -9.631;39157.703
649.039;32283.760;  -11.881;35412.883
649.617;32124.029;   -9.661;34744.918
650.195;32000.537;   -9.301;35403.098
650.773;30838.475;  -10.511;35053.797
651.352;28182.791;  -11.521;33756.816
651.930;25597.561;  -12.211;31868.773
652.508;23622.936;   -9.171;33121.551
653.086;27347.256;   -9.371;33564.793
653.663;30852.586;  -13.161;34054.668
654.241;29541.443;  -13.031;35693.309
654.819;30747.574;   -9.371;36422.906
655.397;30215.641;  -10.511;38213.484
655.975;29798.777;  -10.371;39507.625
656.553;30212.959;  -10.051;39498.223
657.130;28985.088;  -10.061;40395.480
657.708;28654.209;   -9.561;39242.020
658.286;28685.354;  -11.511;38920.020
658.863;29468.059;  -10.261;40202.898
659.441;31773.250;   -7.531;39677.938
660.018;31160.742;   -9.501;40413.355
660.596;30148.451;  -13.301;39931.414
661.173;32010.807;  -11.211;39604.531
661.750;32283.463;   -9.951;39700.070
662.328;31263.260;   -9.390;39292.809
662.905;30540.090;  -11.330;38235.648
663.482;26358.920;   -9.050;36212.305
664.060;24372.414;   -8.240;35944.945
664.637;27029.953;  -10.050;35170.785
665.214;28710.297;  -11.760;34197.523
665.791;30790.664;  -10.530;34549.520
666.368;29884.652;   -9.690;35118.578
666.945;29951.814;   -9.320;36019.418
667.522;30961.463;  -11.860;36048.438
668.099;31409.484;  -10.770;36243.914
668.676;30901.072;   -6.260;35958.875
669.253;29249.785;   -7.000;37384.730
669.830;29420.896;  -10.190;36779.629
670.407;29212.342;   -9.550;35231.289
670.984;29789.205;   -9.260;35544.270
671.560;29967.566;   -9.280;35466.867
672.137;28549.896;  -11.810;34280.863
672.714;29331.143;  -11.490;34632.863
673.290;29682.262;   -7.740;35135.422
673.867;29600.531;  -10.660;36114.480
674.443;30187.227;  -12.230;36152.859
675.020;28492.428;  -10.450;35327.238
675.596;29502.473;   -9.260;35795.176
676.173;30190.070;  -10.780;35430.355
676.749;29438.248;  -13.690;33549.516
677.326;29495.217;  -11.980;32210.012
677.902;29888.791;   -8.630;32068.871
678.478;29141.830;  -10.730;32583.891
679.054;28777.080;  -10.520;32088.928
679.631;29786.930;  -11.920;30978.848
680.207;30661.342;   -7.490;33160.887
680.783;31798.549;   -9.860;35570.363
681.359;30940.898;  -13.380;36125.184
681.935;29775.289;  -12.480;35240.922
682.511;28576.252;   -7.900;34429.961
683.087;28483.869;   -7.710;34463.680
683.663;28615.908;  -11.480;34648.898
684.239;28274.979;  -14.090;34546.457
684.815;27822.135;   -7.560;35586.375
685.390;28029.826;   -9.910;35821.895
685.966;28696.123;  -11.159;35085.871
686.542;31343.285;  -11.169;34198.230
687.118;33441.398;   -5.959;32847.707
687.693;33433.645;  -10.329;32794.027
688.269;32741.059;  -12.059;33072.367
688.844;30539.928;  -10.909;33141.664
689.420;28929.777;   -8.019;33965.742
689.995;27160.781;   -8.399;34655.523
690.571;25857.928;  -10.949;33576.742
691.146;26172.281;   -9.619;32657.219
691.722;25435.510;   -8.999;32526.979
692.297;24826.973;  -11.589;33014.617
692.872;26625.500;  -11.739;34012.254
693.448;26652.854;  -11.059;34237.434
694.023;25706.152;  -10.139;34142.672
694.598;27608.203;   -9.029;34132.031
695.173;27857.848;  -13.319;34205.250
695.748;27370.043;  -10.169;32882.488
696.323;27231.291;   -8.339;32864.906
696.898;26924.420;   -8.169;33170.004
697.473;26801.711;  -12.309;32432.984
698.048;26833.020;  -10.989;31649.303
698.623;27346.998;   -9.329;30778.141
699.198;29021.715;   -9.849;31140.119
699.773;29940.844;  -12.329;31764.299
700.348;28610.064;  -10.389;31780.816
700.922;28849.861;   -9.269;32046.375
701.497;29395.523;   -9.329;32603.574
702.072;29458.840;  -10.789;34799.871
702.646;28827.174;  -10.839;35793.172
703.221;27277.486;   -9.099;35201.590
703.795;29353.529;  -10.939;34764.527
704.370;29475.693;  -12.859;34307.367
704.944;29592.252;  -11.559;33509.887
705.519;30746.219;   -7.939;31388.584
706.093;31689.027;  -10.499;31340.104
706.668;31619.029;  -11.289;32630.281
707.242;30045.305;  -11.509;32728.779
707.816;28514.865;   -9.639;32947.238
708.390;27149.059;  -11.429;33277.855
708.965;28051.631;  -11.869;33834.336
709.539;28837.717;  -11.689;33709.273
710.113;29281.979;  -10.478;33044.313
710.687;28489.355;  -10.228;31953.992
711.261;26124.602;  -13.698;30505.949
711.835;25880.664;  -13.378;30262.369
712.409;26972.719;   -9.698;31254.447
712.983;28479.650;  -11.898;32754.986
713.557;29556.686;  -15.138;34018.824
714.131;29310.650;  -14.098;34579.625
714.704;28284.004;   -9.958;33890.262
715.278;25833.588;  -10.028;33531.102
715.852;25360.781;  -11.148;33601.660
716.425;26180.430;   -9.068;33515.117
716.999;26593.113;  -10.038;33185.555
717.573;27670.293;   -9.798;33905.996
718.146;29073.646;  -12.378;35199.293
718.720;28927.035;  -11.918;35060.551
719.293;28554.482;   -8.088;34973.230
719.867;31348.873;  -10.888;36394.449
720.440;31342.641;  -11.938;36663.008
721.013;29840.877;  -12.818;35102.426
721.587;28200.934;  -10.298;33985.266
722.160;26074.430;  -10.048;33524.965
722.733;25245.428;  -12.108;32987.043
723.306;26349.314;  -10.818;33066.301
723.880;28418.598;   -8.908;33399.500
724.453;30250.324;   -9.878;33468.297
725.026;29297.098;  -11.188;33816.637
725.599;26355.904;  -11.678;32797.996
726.172;26425.111;   -9.618;33187.434
726.745;27786.092;   -8.258;35136.613
727.318;29536.512;  -12.978;35751.730
727.891;30483.938;  -12.148;35890.430
728.463;30474.729;   -8.968;34822.090
729.036;29257.563;  -10.188;32895.086
729.609;29332.855;  -11.788;31823.225
730.182;25811.445;  -11.788;31445.283
730.754;23328.596;  -10.268;32373.223
731.327;23603.975;   -9.998;33676.820
731.900;23581.980;  -12.228;33417.000
732.472;24882.215;  -13.848;31978.498
733.045;27333.146;   -8.698;30368.777
733.617;27403.168;  -10.607;30574.215
734.190;26945.041;  -11.507;31280.975
734.762;24184.533;  -13.647;31674.412
735.334;22446.352;   -9.767;31247.291
735.907;22780.561;   -9.897;29876.211
736.479;22488.082;  -11.637;29808.488
737.051;22184.549;   -9.567;30233.547
737.623;23530.889;   -8.187;31469.086
738.195;24553.539;  -11.187;31784.225
738.768;26121.627;  -12.337;32120.523
739.340;26170.611;  -12.227;32094.342
739.912;25051.115;  -11.057;31312.680
740.484;24059.986;  -10.207;31946.238
741.056;22900.680;  -10.047;32984.059
741.628;24508.570;  -13.627;33897.715
742.199;26883.891;   -7.177;33213.016
742.771;25393.273;  -10.797;31369.113
743.343;22918.072;  -11.997;31865.473
743.915;21600.947;  -12.867;32388.631
744.487;21687.146;   -7.617;31079.568
745.058;21931.516;   -9.557;30570.107
745.630;22784.268;   -9.877;29970.127
746.201;24057.807;  -14.177;29186.766
746.773;24541.506;   -9.237;28805.723
747.344;24399.691;   -9.847;29591.223
747.916;22802.377;  -11.657;31412.201
748.487;22265.318;  -10.587;32194.898
749.059;23567.270;   -8.707;32533.719
749.630;24884.449;  -10.537;32158.518
750.201;24070.795;  -11.687;30855.395
750.773;22481.547;  -11.647;28622.555
751.344;22417.920;   -7.147;28405.732
751.915;23285.988;   -9.757;28461.551
752.486;22481.563;  -12.427;27842.850
753.057;20156.787;  -12.227;27845.008
753.628;19075.930;  -10.417;27728.107
754.199;20037.586;  -11.767;27381.086
754.770;21067.057;  -11.187;25882.203
755.341;21214.650;  -10.507;25886.184
755.912;21571.025;   -9.387;26050.861
756.483;21033.816;  -10.647;26798.779
757.054;19171.531;  -11.837;27048.238
757.625;17736.916;  -12.716;26294.838
758.195;17373.402;   -9.666;26142.076
758.766;17168.221;   -8.656;26392.234
759.337;18124.639;  -12.856;26334.594
759.907;19847.277;  -13.366;27579.652
760.478;20866.197;   -8.576;28352.770
761.048;20647.424;  -10.526;27325.088
761.619;19997.539;  -11.116;26460.428
762.189;19717.715;  -12.136;26029.826
762.760;20348.836;   -9.456;26430.145
763.330;21450.486;   -7.136;26670.902
763.900;20894.111;  -11.786;26603.021
764.471;18055.461;  -11.546;25542.740
765.041;16675.424;   -8.096;24358.459
765.611;17052.201;   -8.876;23991.297
766.181;17715.574;  -12.196;24470.236
766.751;18558.564;  -11.636;24845.975
767.321;18321.930;  -10.156;24533.633
767.891;16285.938;  -11.766;24916.492
768.461;15613.360;  -14.936;24776.771
769.031;16074.729;  -12.356;24757.988
769.601;17886.107;   -7.526;24181.088
770.171;18008.682;  -10.766;23670.387
770.741;17118.521;  -13.176;22960.045
771.311;17237.371;  -10.616;22917.523
771.880;17510.221;   -9.576;23562.941
772.450;17052.010;  -10.336;24216.500
773.020;16969.010;  -13.516;24140.398
773.589;16553.947;  -13.466;24414.857
774.159;16265.150;   -8.686;23858.717
774.729;15962.955;   -9.476;22942.135
775.298;15399.131;  -13.666;22324.033
775.867;14940.171;  -11.716;21140.313
776.437;14976.201;   -9.906;20838.092
777.006;14597.490;  -12.166;20599.510
777.576;14508.719;  -12.356;20508.809
778.145;14745.147;  -11.646;20732.947
778.714;14709.548;   -8.226;21062.465
779.283;13844.388;   -9.556;20949.664
779.853;13421.320;  -14.116;20508.623
780.422;13846.961;  -11.506;20649.082
780.991;13360.678;   -9.556;21527.520
781.560;12425.736;   -9.095;22632.658
782.129;12331.545;  -12.135;23048.277
782.698;12152.923;  -10.865;23438.555
783.267;11703.676;   -9.335;23267.734
783.836;11667.503;  -11.045;22415.133
784.404;12616.169;  -13.865;20443.152
784.973;12985.803;  -13.095;19699.150
785.542;12799.344;  -11.575;19763.828
786.111;12701.255;   -9.705;20341.408
786.679;12414.285;  -12.105;20207.967
787.248;12232.692;  -12.455;19516.465
787.817;11923.123;  -11.535;18900.363
788.385;11434.454;   -9.765;17879.121
788.954;10751.905;  -14.005;17658.301
789.522;10329.059;  -11.955;17788.879
790.090;10947.716;  -10.135;18118.277
790.659;11404.360;  -10.975;18338.736
791.227;10790.847;  -13.375;18508.615
791.795;11226.660;  -12.375;17898.254
792.364;11643.911;  -10.725;17295.133
792.932;11906.961;   -9.715;16822.051
793.500;12047.809;  -12.675;17040.148
794.068;12324.098;  -13.495;17179.787
794.636;12588.794;  -10.885;16664.246
795.204;12070.178;  -11.045;16524.545
795.772;11940.456;  -13.175;17274.564
796.340;11419.729;  -12.445;17891.002
796.908;11247.417;   -9.735;17648.561
797.476;11238.269;   -9.815;17064.080
798.044;10822.546;  -13.985;16672.777
798.612; 9985.131;  -13.115;17023.996
799.180; 9598.686;  -10.185;16561.615
799.747; 9465.663;   -9.055;15962.773
800.315; 9157.432;  -12.385;15296.992
800.883; 8858.043;  -15.035;14801.771
801.450; 8841.296;  -10.365;14534.430
802.018; 8864.322;   -9.855;14173.248
802.585; 8872.176;  -11.905;14029.547
803.153; 8921.940;  -11.585;13836.846
803.720; 8876.779;   -9.095;13567.324
804.287; 8551.555;   -9.135;13360.622
804.855; 8112.746;  -11.604;13681.981
805.422; 7971.590;  -11.794;13536.560
805.989; 7921.292;  -10.734;13355.958
806.556; 8086.151;  -10.444;13747.896
807.124; 8463.233;  -12.764;13987.376
807.691; 8427.004;  -12.964;14038.674
808.258; 8226.175;  -11.134;14120.152
808.825; 7907.384;   -9.854;13860.111
809.392; 7971.240;  -10.504;13268.790
809.959; 7535.366;  -13.054;12680.389
810.526; 7134.986;   -8.294;12427.308
811.093; 7150.837;   -8.394;12030.105
811.659; 7734.141;  -12.304;11653.664
812.226; 8195.174;  -13.944;11637.183
812.793; 7903.615;  -10.484;11611.521
813.360; 7288.581;  -10.144;11885.181
813.926; 6815.767;  -11.684;12770.539
814.493; 6527.256;  -13.644;12677.638
815.060; 6153.613;   -9.724;11974.336
815.626; 6169.882;   -9.854;11594.715
816.193; 6619.183;  -13.254;11579.474
816.759; 6722.688;  -13.204;11666.972
817.325; 6908.800;   -9.434;11325.530
817.892; 7289.306;  -10.134;11105.369
818.458; 7689.108;  -13.474;10843.928
819.024; 7343.392;  -11.854;10714.406
819.591; 7032.537;  -10.244;10469.165
820.157; 6785.021;  -10.704;10235.523
820.723; 6286.862;  -12.324;10847.563
821.289; 6051.115;   -9.444;11040.980
821.855; 6055.271;   -8.374;10357.100
822.421; 6126.805;  -10.234; 9978.918
822.987; 6054.722;  -13.294; 9754.177
823.553; 5689.540;  -10.884;10065.755
824.119; 5528.091;   -8.884;10036.294
824.685; 5647.093;   -6.784;10029.192
825.251; 5719.791;  -12.004;10199.230
825.816; 5663.336;  -11.474; 9820.189
826.382; 5456.750;   -9.174; 9297.248
826.948; 5662.196;   -9.214; 9381.347
827.513; 6123.028;  -10.774; 9450.726
828.079; 5977.948;  -11.924; 9472.444
828.645; 5374.474;  -10.543; 9292.643
829.210; 5225.559;  -10.533; 9065.341
829.776; 5176.319;  -10.753; 9132.620
830.341; 5058.429;  -10.173; 9092.878
830.906; 5242.659;  -10.743; 9078.557
831.472; 5634.227;  -11.113; 8534.535
832.037; 5476.359;  -10.603; 8677.874
832.602; 4930.742;  -13.323; 8628.692
833.167; 4536.075;  -10.823; 8879.031
833.733; 4427.174;  -10.113; 9189.790
834.298; 4518.054;  -13.583; 9052.608
834.863; 4526.476;  -12.703; 8895.087
835.428; 4521.631;  -10.523; 8824.266
835.993; 4504.918;   -6.963; 8845.385
836.558; 4390.066;  -10.763; 8888.563
837.123; 4452.775;   -9.903; 8966.582
837.688; 4632.940;   -9.913; 8617.860
838.253; 4852.303;  -10.283; 8590.699
838.817; 5062.783;  -12.963; 8443.797
839.382; 5000.232;  -14.243; 8799.356
839.947; 4696.580;  -10.733; 8810.595
840.511; 4366.947;   -9.383; 8796.394
841.076; 3975.673;  -12.563; 8347.231
841.641; 3996.019;  -12.953; 8224.330
842.205; 4054.534;   -7.043; 8223.349
842.770; 4145.365;   -8.163; 8622.107
843.334; 4416.996;  -12.503; 8410.386
843.898; 4438.419;  -11.693; 8337.465
844.463; 4449.482;  -10.203; 8506.283
845.027; 4172.192;   -9.533; 8280.962
845.591; 3928.013;  -13.443; 8231.141
846.156; 3939.189;  -13.143; 7969.179
846.720; 3830.705;   -9.433; 7768.278
847.284; 3718.790;  -11.033; 7630.957
847.848; 3547.375;  -10.403; 7472.395
848.412; 3443.947;  -11.553; 7437.394
848.976; 3505.770;   -8.393; 7674.592
849.540; 3456.603;   -8.713; 7836.011
850.104; 3522.483;  -12.463; 7913.669
850.668; 3849.789;  -12.973; 7694.508
851.232; 3967.478;  -10.793; 7756.887
851.796; 3793.507;  -10.662; 7926.545
852.359; 3471.277;  -13.082; 7827.844
852.923; 3316.117;  -12.192; 7641.163
853.487; 3170.313;  -11.912; 7342.501
854.050; 3116.653;  -10.892; 7042.820
854.614; 3254.984;  -13.992; 7151.338
855.177; 3369.042;  -11.732; 7105.077
855.741; 3420.041;   -8.962; 6989.675
856.304; 3294.416;   -9.442; 6596.634
856.868; 3234.415;  -14.192; 6356.272
857.431; 3368.141;  -12.702; 6468.571
857.995; 3482.421;   -9.942; 6373.210
858.558; 3506.793;   -9.112; 6324.448
859.121; 3231.154;  -12.932; 6408.327
859.684; 3095.540;  -13.442; 6347.886
860.247; 3228.222;  -10.632; 6321.264
860.810; 3218.969;  -11.272; 6301.903
861.374; 2956.140;   -9.832; 6607.881
861.937; 2676.901;  -11.762; 6408.200
862.500; 2625.759;   -9.722; 6572.639
863.062; 2759.585;  -10.512; 6387.297
863.625; 2926.230;  -11.232; 6190.836
864.188; 3087.531;  -14.112; 5807.254
864.751; 3160.400;  -11.302; 5682.413
865.314; 3059.758;  -10.112; 5547.492
865.876; 2885.128;  -12.182; 5500.150
866.439; 2903.574;  -10.722; 5415.909
867.002; 2855.682;   -9.252; 5501.567
867.564; 2623.248;   -9.572; 5413.946
868.127; 2406.263;  -13.142; 5160.325
868.689; 2327.501;  -12.902; 5133.183
869.252; 2272.941;   -9.732; 5252.382
869.814; 2190.199;   -9.432; 5297.141
870.377; 2192.360;  -11.552; 5390.919
870.939; 2263.528;   -9.052; 5599.898
871.501; 2328.334;  -10.982; 5248.336
872.063; 2338.572;  -12.292; 4854.235
872.626; 2301.649;  -14.912; 4817.074
873.188; 2296.774;  -13.112; 4987.732
873.750; 2245.802;  -13.442; 4868.651
874.312; 2153.807;   -9.402; 4779.330
874.874; 2076.811;  -11.062; 4866.348
875.436; 2004.881;  -13.931; 4718.887
875.998; 1996.975;   -9.561; 4660.005
876.560; 2003.057;  -11.321; 4462.964
877.122; 1958.841;  -12.221; 4145.042
877.683; 1917.867;  -12.191; 4056.481
878.245; 1953.432;  -12.101; 3950.740
878.807; 2094.004;   -8.971; 4058.958
879.369; 2134.175;  -12.071; 3954.677
879.930; 1891.948;  -14.621; 3941.495
880.492; 1555.189;  -10.311; 4067.014
881.053; 1204.262;  -10.901; 3859.633
881.615;  921.231;  -14.411; 3776.071
882.176;  830.966;  -13.761; 3734.750
882.738;  875.676;   -9.181; 3678.489
883.299;  939.961;  -11.791; 3405.407
883.860;  995.490;  -13.121; 3351.106
884.422; 1044.343;  -11.211; 3394.044
884.983; 1054.767;  -10.091; 3166.443
885.544; 1013.359;   -8.461; 3189.802
886.105;  974.522;  -12.361; 3160.360
886.666;  946.658;  -14.141; 3093.059
887.227;  913.658;  -11.361; 2941.957
887.788;  857.379;  -11.401; 2974.836
888.349;  802.950;  -13.791; 2721.214
888.910;  810.897;  -13.191; 2696.493
889.471;  827.022;   -9.881; 2560.172
890.032;  812.695;   -9.881; 2558.190
890.593;  785.750;  -10.371; 2567.669
891.153;  762.805;  -13.301; 2460.307
891.714;  722.361;  -11.431; 2372.046
892.275;  693.084;  -11.291; 2309.505
892.835;  660.579;  -11.471; 2382.543
893.396;  607.578;  -11.541; 2295.502
893.956;  558.045;  -11.181; 2162.420
894.517;  522.791;  -11.741; 2125.439
895.077;  516.345;  -11.671; 2086.978
895.638;  517.736;  -11.311; 2126.316
896.198;  492.459;   -9.831; 1838.275
896.758;  448.282;   -8.421; 1892.813
897.319;  416.160;  -12.351; 1792.232
897.879;  402.256;  -13.511; 1762.751
898.439;  377.893;  -12.001; 1661.149
898.999;  350.441;  -10.180; 1781.468
899.559;  340.630;  -12.030; 1703.347
900.119;  337.793;  -15.710; 1537.525
900.679;  336.176;   -8.900; 1638.384
901.239;  323.730;   -8.340; 1527.902
901.799;  313.113;  -13.910; 1456.441
902.359;  306.024;  -13.460; 1357.140
902.919;  297.834;  -11.490; 1331.118
903.479;  283.437;  -12.110; 1317.257
904.038;  261.451;  -11.720; 1262.595
904.598;  246.436;  -13.610; 1152.034
905.158;  242.350;  -11.040; 1240.893
905.717;  234.676;  -10.900; 1233.691
906.277;  223.567;  -15.080; 1217.330
906.836;  215.154;  -13.380; 1222.408
907.396;  207.262;  -10.780; 1193.047
907.955;  200.853;   -8.500; 1182.526
908.515;  195.263;  -12.760; 1099.364
909.074;  188.768;  -11.900; 1092.863
909.633;  183.196;   -8.950; 1069.121
910.192;  178.916;   -8.770; 1196.460
910.752;  173.276;  -12.390; 1029.960
911.311;  168.992;  -13.680; 1009.780
911.870;  165.499;  -12.370;  971.460
912.429;  163.897;  -10.900; 1094.080
912.988;  161.029;  -11.690; 1081.060
913.547;  154.079;  -13.240;  940.380
914.106;  150.513;  -11.990;  999.420
914.665;  147.987;   -9.990;  984.020
915.224;  147.568;  -12.880; 1035.760
915.782;  147.971;  -12.350;  922.560
916.341;  148.562;   -9.110; 1049.840
916.900;  144.957;   -9.270;  925.260
917.458;  142.838;  -13.240;  884.220
918.017;  142.492;  -13.550;  942.600
918.576;  142.508;  -12.320;  904.440
919.134;  141.300;  -11.490;  837.980
919.693;  138.065;  -13.670;  893.060
920.251;  137.041;  -15.470;  876.500
920.809;  135.980;  -11.290;  839.580
921.368;  136.256;  -10.210;  885.360
921.926;  134.424;  -12.140;  842.940
922.484;  133.278;  -13.080;  903.360
923.042;  132.826;  -11.720;  880.340
923.601;  135.494;   -7.480;  998.680
924.159;  133.574;  -11.570;  935.560
924.717;  130.644;  -13.840;  841.080
925.275;  131.654;  -10.640;  903.240
925.833;  131.283;  -11.540;  779.320
926.391;  131.223;  -12.960;  938.380
926.949;  129.809;  -14.130;  857.680
927.506;  130.026;  -11.750;  903.500
928.064;  129.879;  -10.250;  877.580
928.622;  129.816;  -13.030;  880.100
929.180;  128.898;  -13.400;  814.180
929.737;  130.536;  -10.700;  808.540
930.295;  133.963;  -10.070;  928.480
930.853;  135.082;  -11.960;  849.100
931.410;  135.571;  -13.120;  821.120
931.968;  135.390;  -10.770;  940.660
932.525;  134.476;  -10.680;  909.380
933.082;  135.387;  -13.130;  811.440
933.640;  135.838;  -13.210;  925.900
934.197;  134.740;  -11.060;  886.360
934.754;  135.603;   -9.580;  897.780
935.312;  138.155;  -14.000;  863.340
935.869;  141.527;  -10.710; 1012.980
936.426;  142.509;   -9.860;  872.800
936.983;  143.509;   -9.710;  889.020
937.540;  142.051;  -13.990;  838.280
938.097;  140.874;  -14.040;  940.120
938.654;  142.874;  -10.310;  898.860
939.211;  144.790;  -10.560;  952.480
939.768;  147.726;  -13.900;  915.420
940.324;  152.071;  -14.760;  904.200
940.881;  152.170;  -10.370;  878.500
941.438;  153.985;   -8.260; 1021.200
941.995;  148.810;  -12.540;  992.560
942.551;  146.690;  -14.670;  875.620
943.108;  146.197;  -10.450;  937.920
943.664;  149.542;  -10.750;  869.340
944.221;  152.162;  -11.550; 1088.140
944.777;  149.419;  -14.770;  869.680
945.334;  151.803;  -12.820;  884.840
945.890;  154.453;  -10.130;  946.480
946.446;  153.519;  -13.470;  947.020
947.003;  155.677;  -12.120;  964.940
947.559;  156.914;   -9.980; 1063.040
948.115;  156.846;   -9.080; 1026.540
948.671;  154.037;  -10.830;  967.300
949.227;  150.895;  -12.440;  859.560
949.783;  147.771;  -12.910;  858.900
950.339;  150.520;  -10.270;  991.000
950.895;  149.330;  -13.630; 1023.840
951.451;  148.856;  -15.100;  925.280
952.007;  150.903;  -11.330;  998.540
952.563;  152.652;  -10.580;  937.780
953.118;  151.241;  -13.440;  904.940
953.674;  150.482;  -12.710;  935.780
954.230;  151.726;  -10.350;  949.640
954.785;  149.115;   -9.190;  936.640
955.341;  145.391;  -11.200;  998.160
955.897;  144.407;  -16.560;  834.660
956.452;  145.981;  -12.570;  953.840
957.008;  144.231;   -7.970; 1083.640
957.563;  141.976;  -11.940; 1009.540
958.118;  136.556;  -13.450;  877.700
958.674;  137.539;  -12.030;  946.780
959.229;  139.077;   -9.410; 1013.980
959.784;  136.248;  -12.000;  832.400
960.339;  134.564;  -14.780; 1001.280
960.894;  131.851;   -9.860;  963.760
961.449;  127.106;   -9.970;  859.960
962.004;  127.268;  -10.900; 1212.840
962.559;  122.842;  -13.150;  860.140
963.114;  121.584;  -13.740;  742.480
963.669;  120.188;   -9.820;  915.500
964.224;  118.718;  -13.890;  874.340
964.779;  117.903;  -12.600;  828.420
965.334;  119.542;  -10.950; 1017.860
965.888;  118.348;  -11.170;  875.360
966.443;  120.487;  -12.540;  972.380
966.998;  119.937;  -15.780;  819.460
967.552;  119.570;   -9.760;  908.380
968.107;  115.588;   -9.060;  868.300
968.661;  116.203;  -11.950;  922.440
969.216;  116.865;  -12.800;  856.280
969.770;  116.720;  -11.210;  917.200
970.324;  115.730;  -11.610;  923.140
970.879;  112.627;  -11.370;  947.180
971.433;  109.596;  -12.540;  952.720
971.987;  104.955;  -11.320;  895.340
972.541;  102.436;  -10.720;  917.100
973.095;  101.145;   -9.680; 1009.460
973.649;  100.849;  -11.440;  809.480
974.203;  100.301;  -11.210;  829.040
974.757;  100.176;  -10.240;  855.220
975.311;  100.503;  -13.720;  872.600
975.865;   99.813;  -13.770;  881.820
976.419;   98.393;  -11.690;  857.400
976.973;   98.656;   -9.510;  849.620
977.526;   99.615;  -12.620;  949.920
978.080;   98.937;  -12.010;  796.780
978.634;  100.801;  -10.170;  921.320
979.187;   99.164;   -9.020;  905.400
979.741;   95.751;   -9.820; 1018.380
980.294;   90.564;  -14.870;  789.160
980.848;   89.269;  -12.380;  717.220
981.401;   91.414;  -10.350;  816.540
981.955;   92.645;  -13.720;  844.300
982.508;   92.756;  -11.490;  746.340
983.061;   92.409;  -10.000;  915.260
983.615;   89.811;  -11.480;  798.800
984.168;   85.250;  -13.220;  770.080
984.721;   84.946;  -13.960;  880.760
985.274;   84.152;  -10.870;  867.500
985.827;   83.079;   -9.790;  834.220
986.380;   80.774;  -13.120;  721.340
986.933;   79.542;  -12.450;  864.800
987.486;   78.193;  -10.210;  861.920
988.039;   76.727;   -8.430;  863.100
988.591;   75.008;  -10.520;  893.260
989.144;   71.898;  -14.860;  737.260
989.697;   72.041;  -13.080;  758.740
990.250;   72.909;  -10.150;  858.100
990.802;   71.230;  -13.430;  755.860
991.355;   72.462;  -12.750;  974.880
991.907;   70.264;  -12.040;  864.320
992.460;   68.066;  -11.330;  753.760
993.012;   66.740;  -13.610;  749.540
993.565;   65.408;  -13.460;  711.360
994.117;   67.510;   -9.360;  950.780
994.669;   63.944;  -11.300;  701.320
995.221;   62.112;  -13.540;  791.920
995.774;   59.999;  -13.430;  787.580
996.326;   58.531;  -12.520;  740.220
996.878;   58.580;  -10.950;  838.420
997.430;   56.320;  -14.300;  699.860
997.982;   55.588;  -13.760;  750.140
998.534;   55.537;  -11.530;  739.060
999.086;   53.441;  -10.310;  738.220
999.638;   52.245;  -12.530;  661.380
1000.190;   51.882;  -11.840;  699.320
1000.741;   51.419;  -10.260;  742.700
1001.293;   51.528;   -8.860;  686.020
1001.845;   48.629;  -13.700;  676.640
1002.396;   49.452;  -12.100;  743.400
1002.948;   48.827;  -12.760;  737.400
1003.500;   47.966;  -10.380;  723.780
1004.051;   48.299;  -11.900;  907.580
1004.603;   46.157;  -12.250;  791.820
1005.154;   42.601;  -13.210;  608.980
1005.705;   42.060;  -10.950;  723.960
1006.257;   40.943;  -13.880;  707.220
1006.808;   40.183;  -12.840;  685.460
1007.359;   40.619;  -10.570;  763.240
1007.910;   39.032;   -9.620;  646.640
1008.461;   39.300;  -13.630;  732.940
1009.013;   37.809;  -17.200;  588.340
1009.564;   39.754;  -10.200;  793.520
1010.115;   37.610;  -12.570;  597.040
1010.665;   36.548;  -15.150;  602.160
1011.216;   36.716;  -14.480;  667.920
1011.767;   36.284;  -11.340;  697.920
1012.318;   36.822;   -9.780;  736.980
1012.869;   34.995;  -12.380;  679.000
1013.419;   34.548;  -15.560;  603.120
1013.970;   35.854;  -11.010;  666.640
1014.521;   35.018;  -11.610;  620.620
1015.071;   34.758;  -13.450;  670.380
1015.622;   34.236;  -13.870;  635.460
1016.172;   34.096;  -11.610;  596.820
1016.723;   33.549;  -12.120;  614.380
1017.273;   32.942;  -13.620;  604.160
1017.823;   32.890;  -14.140;  650.340
1018.374;   33.047;  -12.800;  611.760
1018.924;   32.633;  -12.340;  716.880
1019.474;   32.806;  -11.410;  718.880
1020.024;   32.066;  -14.770;  657.580
1020.574;   32.310;   -9.780;  726.160
1021.124;   32.851;   -8.560;  673.580
1021.674;   30.261;  -15.190;  559.120
1022.224;   32.257;  -13.530;  708.940
1022.774;   32.540;  -13.280;  668.820
1023.324;   32.767;  -10.690;  753.520
1023.874;   32.317;  -10.240;  875.760
1024.423;   30.489;  -12.540;  613.700
1024.973;   30.360;  -10.010;  610.760
1025.523;   29.775;  -10.550;  620.960
1026.072;   28.855;  -13.560;  606.420
1026.622;   29.302;  -15.120;  675.740
1027.172;   30.491;  -11.260;  715.660
1027.721;   29.139;  -11.410;  601.220
1028.270;   29.207;  -13.530;  663.400
1028.820;   28.316;  -13.680;  638.080
1029.369;   28.853;  -13.520;  612.700
1029.918;   28.671;  -10.980;  649.840
1030.468;   28.287;  -13.530;  564.780
1031.017;   28.266;  -13.170;  634.800
1031.566;   27.797;  -12.200;  608.900
1032.115;   28.186;   -9.960;  694.500
1032.664;   26.794;  -13.210;  596.480
1033.213;   27.802;  -12.500;  735.420
1033.762;   27.566;  -11.910;  635.620
1034.311;   27.218;   -9.640;  677.220
1034.860;   27.704;  -13.310;  691.000
1035.408;   27.213;  -11.830;  722.720
1035.957;   27.177;  -12.000;  719.540
1036.506;   25.756;  -11.690;  530.800
1037.055;   27.314;  -10.990;  844.320
1037.603;   25.411;  -15.120;  664.000
1038.152;   24.815;  -12.450;  534.760
1038.700;   24.729;  -10.560;  585.740
1039.249;   24.711;  -11.080;  681.220
1039.797;   25.367;  -12.540;  633.360
1040.345;   25.460;  -11.920;  705.420
1040.894;   25.362;  -11.410;  625.300
1041.442;   24.253;  -14.320;  632.200
1041.990;   23.561;  -16.240;  559.160
1042.538;   23.830;  -11.680;  536.180
1043.087;   23.652;  -10.760;  570.860
1043.635;   24.557;  -11.850;  670.500
1044.183;   23.294;  -15.480;  586.400
1044.731;   24.001;  -11.770;  576.000
1045.279;   23.584;  -13.090;  674.920
1045.827;   24.611;  -12.440;  892.400
1046.374;   21.683;  -13.840;  515.420
1046.922;   21.693;  -13.220;  590.580
1047.470;   24.384;  -10.230;  691.300
1048.018;   22.712;  -14.590;  647.960
1048.565;   23.453;  -12.050;  708.600
1049.113;   21.686;  -11.650;  557.000
1049.660;   22.455;  -10.510;  629.660
1050.208;   21.716;  -13.310;  675.640
1050.755;   21.100;  -15.900;  606.580
1051.303;   22.655;  -11.430;  686.820
1051.850;   21.547;   -8.480;  635.120
1052.397;   19.764;  -15.010;  473.960
1052.945;   20.890;  -13.960;  617.760
1053.492;   21.925;  -13.150;  741.840
1054.039;   22.156;   -9.630;  720.180
1054.586;   20.177;  -13.680;  557.240
1055.133;   21.170;  -14.570;  693.140
1055.680;   20.901;  -13.820;  646.620
1056.227;   20.035;  -11.730;  542.780
1056.774;   21.322;  -12.480;  794.980
1057.321;   18.824;  -13.930;  523.260
1057.868;   20.156;  -11.690;  651.320
1058.415;   20.069;   -9.520;  651.980
1058.961;   20.148;  -13.160;  678.940
1059.508;   19.168;  -12.920;  643.820
1060.055;   19.388;  -11.920;  581.780
1060.601;   20.151;  -11.500;  624.300
1061.148;   19.095;  -14.330;  616.820
1061.694;   18.608;  -16.870;  592.580
1062.241;   19.294;  -10.330;  596.320
1062.787;   18.853;  -10.620;  663.140
1063.334;   20.027;  -10.110;  808.560
1063.880;   18.496;  -13.400;  668.360
1064.426;   18.433;  -10.680;  706.820
1064.972;   18.684;   -9.920;  601.340
1065.518;   16.801;  -10.980;  566.640
1066.065;   17.593;  -14.890;  624.460
1066.611;   17.518;  -12.870;  598.800
1067.157;   18.714;  -12.950;  641.860
1067.703;   17.468;  -13.540;  668.480
1068.249;   17.621;  -13.540;  605.220
1068.794;   17.305;  -12.600;  626.880
1069.340;   16.372;  -10.620;  578.960
1069.886;   16.976;  -12.830;  590.700
1070.432;   15.544;  -14.870;  541.720
1070.977;   16.923;  -11.980;  601.080
1071.523;   16.341;   -8.200;  573.060
1072.068;   16.860;  -12.330;  582.000
1072.614;   16.244;  -16.370;  527.760
1073.160;   17.312;  -11.100;  687.040
1073.705;   15.473;  -10.480;  572.520
1074.250;   15.528;  -14.520;  559.900
1074.796;   16.505;  -11.460;  655.160
1075.341;   15.728;  -11.950;  664.100
1075.886;   15.923;  -11.460;  594.240
1076.431;   14.529;  -13.770;  649.880
1076.976;   14.754;  -12.680;  639.220
1077.521;   14.972;  -13.170;  583.080
1078.067;   14.825;  -10.860;  579.400
1078.612;   14.627;  -13.920;  661.620
1079.156;   13.766;  -13.880;  601.540
1079.701;   15.178;  -13.120;  693.260
1080.246;   15.322;   -9.940;  696.300
1080.791;   14.856;  -14.740;  625.020
1081.336;   14.851;  -13.750;  659.320
1081.880;   14.680;  -13.400;  649.680
1082.425;   13.158;  -12.220;  573.480
1082.970;   14.726;  -11.610;  717.040
1083.514;   13.700;  -13.580;  597.000
1084.059;   13.283;  -12.810;  586.720
1084.603;   13.064;  -12.320;  565.840
1085.147;   13.338;  -13.190;  645.220
1085.692;   13.612;  -12.480;  716.800
1086.236;   12.967;  -13.020;  503.140
1086.780;   14.532;   -9.190;  751.440
1087.325;   13.538;  -12.480;  654.620
1087.869;   12.324;  -12.450;  610.700
1088.413;   13.917;  -12.240;  705.040
1088.957;   11.483;   -9.020;  543.400
1089.501;   13.182;  -10.320;  766.640
1090.045;   13.145;  -12.720;  726.480
1090.589;   10.596;  -13.690;  569.920
1091.133;   13.197;  -10.020;  673.340
1091.676;   12.184;  -12.330;  591.940
1092.220;   12.138;  -14.970;  600.920
1092.764;   12.717;  -12.430;  706.960
1093.307;   12.724;   -9.800;  673.780
1093.851;   10.723;  -14.970;  556.540
1094.395;   11.949;  -15.310;  683.140
1094.938;   11.718;  -10.370;  632.520
1095.482;   11.429;  -11.050;  559.800
1096.025;   11.634;  -11.840;  710.880
1096.568;   12.587;  -12.840;  779.280
1097.112;    9.727;  -14.700;  508.180
1097.655;   11.706;   -8.720;  603.000
1098.198;   10.038;  -13.610;  600.180
1098.741;   10.081;  -13.350;  612.860
1099.285;   10.849;  -11.230;  657.300
1099.828;    9.378;  -11.840;  439.400
1100.371;    9.688;  -10.840;  608.160
1100.914;   10.740;  -14.190;  682.660
1101.457;   10.221;  -11.240;  679.900
1101.999;    9.519;  -11.270;  584.680
1102.542;    9.752;  -11.480;  641.440
1103.085;    9.538;  -11.750;  658.500
1103.628;   10.398;  -11.400;  762.060
1104.170;    9.599;  -10.490;  588.280
1104.713;    9.469;  -10.600;  646.700
1105.256;    8.967;  -14.360;  557.440
1105.798;    8.336;  -13.210;  499.980
1106.341;   10.307;  -10.270;  728.900
1106.883;    8.427;  -12.200;  521.340
1107.425;    9.105;  -13.110;  668.180
1107.968;    8.720;  -12.840;  612.380
1108.510;    9.772;   -6.480;  684.960
1109.052;    7.507;  -13.940;  612.620
1109.594;    7.549;  -13.690;  554.440
1110.136;    8.510;  -11.880;  643.220
1110.679;    8.255;   -9.500;  633.080
1111.221;    8.066;  -14.160;  604.460
1111.763;    7.977;  -13.980;  559.220
1112.304;    7.598;  -13.880;  547.140
1112.846;    8.534;  -12.210;  666.240
1113.388;   10.100;  -11.390;  942.180
1113.930;    7.754;  -14.540;  694.200
1114.472;    7.321;  -12.640;  606.540
1115.013;    6.882;  -11.620;  551.280
1115.555;    6.074;  -13.640;  587.100
1116.097;    6.560;  -15.380;  579.480
1116.638;    7.412;  -12.640;  684.600
1117.180;    7.854;   -9.850;  667.740
1117.721;    6.674;  -13.690;  568.580
1118.262;    7.077;  -12.680;  677.960
1118.804;    7.333;  -12.530;  637.340
1119.345;    6.120;  -11.690;  578.400
1119.886;    6.980;  -13.380;  704.040
1120.427;    6.064;  -14.070;  589.020
1120.969;    5.551;  -13.500;  597.920
1121.510;    5.546;  -11.480;  563.060
1122.051;    6.079;  -12.830;  723.580
1122.592;    5.119;  -14.290;  655.420
1123.133;    5.446;  -12.400;  547.940
1123.673;    7.008;  -10.130;  706.480
1124.214;    5.292;  -12.930;  612.460
1124.755;    5.731;  -14.380;  639.460
1125.296;    5.984;  -14.000;  627.320
1125.836;    6.917;  -10.070;  691.500
1126.377;    5.092;  -12.640;  599.660
1126.918;    5.665;  -12.960;  614.980
1127.458;    4.819;  -13.350;  622.220
1127.999;    5.810;  -10.750;  656.980
1128.539;    5.297;  -12.350;  694.240
1129.079;    4.269;  -14.860;  632.720
1129.620;    4.195;  -13.840;  558.100
1130.160;    4.372;  -12.330;  539.480
1130.700;    4.798;  -14.530;  640.840
1131.240;    4.823;  -12.530;  643.700
1131.781;    4.968;  -14.450;  619.680
1132.321;    5.170;   -9.790;  599.120
1132.861;    2.862;  -14.860;  564.200
1133.401;    2.845;  -14.290;  593.940
1133.941;    4.190;  -11.750;  626.280
1134.481;    3.335;   -9.920;  597.580
1135.020;    3.045;  -12.290;  609.160
1135.560;    3.500;  -11.650;  674.940
1136.100;    2.998;  -16.270;  501.160
1136.640;    2.944;  -10.890;  510.480
1137.179;    2.845;  -14.180;  537.960
1137.719;    3.554;  -16.250;  605.400
1138.258;    3.700;  -14.230;  587.360
1138.798;    3.978;   -9.090;  663.780
1139.337;    2.003;  -15.130;  482.840
1139.877;    3.033;  -13.680;  642.360
1140.416;    5.089;  -11.320;  878.060
1140.955;    2.205;  -10.860;  535.380
1141.494;    2.496;  -12.920;  669.280
1142.034;    2.008;  -13.930;  583.520
1142.573;    3.316;  -11.440;  646.280
1143.112;    2.793;  -12.000;  553.480
1143.651;    2.703;  -13.670;  536.480
1144.190;    2.583;  -12.730;  691.640
1144.729;    3.028;  -14.560;  607.420
1145.267;    2.490;  -11.830;  584.900
1145.806;    2.717;  -12.230;  637.040
1146.345;    1.344;  -14.130;  635.020
1146.884;    2.213;  -11.590;  622.500
1147.422;    1.357;  -12.550;  533.060
1147.961;    2.792;  -11.180;  708.460
1148.500;    2.246;  -11.510;  669.720
1149.038;    2.930;  -11.640;  632.500
1149.577;    2.845;  -10.130;  698.640
1150.115;   -0.005;  -13.970;  452.280
1150.653;    1.730;  -14.520;  607.340
1151.192;    1.190;  -12.810;  552.920
1151.730;    1.720;   -9.100;  652.560
1152.268;    0.896;  -12.220;  589.520
1152.806;    0.941;  -14.140;  571.180
1153.344;   -0.116;  -12.350;  577.640
1153.882;    0.958;   -8.980;  600.060
1154.421;   -0.042;  -15.190;  470.620
1154.958;    0.428;  -15.210;  595.240
1155.496;    2.156;  -12.850;  645.280
1156.034;    0.838;   -9.940;  721.880
1156.572;    2.554;  -13.570;  667.060
1157.110;   -0.022;  -14.590;  473.940
1157.647;    1.171;  -13.030;  676.960
1158.185;    0.411;  -12.140;  564.320
1158.723;   -0.700;  -14.390;  509.200
1159.260;    0.827;  -14.090;  701.700
1159.798;    1.381;  -11.920;  658.160
1160.335;    0.284;  -11.110;  631.820

