
Integration time [ms]:   3.276
Averaging Nr. [scans]: 1000
Smoothing Nr. [pixels]: 0
Data measured with spectrometer [name]: 7414430SP
Wave   ;Sample   ;Dark     ;Reference
[nm]   ;[counts] ;[counts] ;[counts] 

288.544;  150.471;    7.793;  793.890
289.143;  155.405;    7.462;  681.602
289.742;  155.839;    8.602;  828.814
290.341;  140.675;    1.321;  789.841
290.940;  129.785;   -0.709;  730.702
291.538;  130.749;    0.881;  881.108
292.137;  131.426;    0.122;  792.581
292.736;  136.018;   -1.929;  975.101
293.335;  131.621;   -8.229;  735.086
293.934;  132.619;   -5.279;  781.677
294.532;  131.898;   -1.369; 1031.958
295.131;  116.790;   -7.641;  834.394
295.730;  116.747;   -8.420;  809.588
296.328;  116.044;   -5.611;  783.442
296.927;  117.698;   -5.781;  779.652
297.525;  118.508;   -6.361;  781.236
298.124;  107.910;  -11.382;  654.009
298.722;  111.033;   -7.641;  761.933
299.321;  111.322;   -6.811;  708.597
299.919;  108.032;   -6.991;  751.918
300.518;  104.212;  -10.362;  689.338
301.116;  107.208;   -9.581;  691.381
301.715;  107.430;   -4.891;  730.222
302.313;  105.018;   -8.801;  704.943
302.911;  100.567;   -8.522;  733.830
303.509;  105.974;   -6.171;  925.627
304.108;  103.990;   -7.311;  760.383
304.706;  103.184;   -8.321;  801.664
305.304;   96.666;  -10.222;  796.707
305.902;  103.349;   -6.021;  784.484
306.500;   99.754;   -4.971;  728.200
307.098;   97.625;   -7.061;  746.560
307.696;   95.192;   -8.801;  780.432
308.294;   96.141;   -6.411;  731.359
308.892;   98.431;   -2.901;  759.769
309.490;   93.561;   -5.041;  712.161
310.088;   91.947;   -5.002;  788.444
310.686;   96.281;   -2.041;  821.749
311.284;   92.493;   -2.351;  766.040
311.882;   89.674;   -4.422;  731.225
312.480;   87.156;   -4.192;  697.167
313.078;   87.644;   -1.172;  808.331
313.675;   89.413;   -2.601;  691.600
314.273;   83.631;   -1.312;  797.837
314.871;   83.728;   -3.942;  589.829
315.468;   81.686;   -2.802;  652.090
316.066;   84.787;   -0.701;  694.427
316.664;   77.224;   -4.362;  656.351
317.261;   80.937;   -2.872;  910.128
317.859;   76.724;   -2.022;  768.735
318.456;   77.447;   -0.531;  830.096
319.054;   72.950;   -3.912;  787.828
319.651;   71.934;   -4.752;  759.928
320.249;   71.323;   -2.602;  810.188
320.846;   69.512;   -0.821;  714.286
321.443;   66.191;   -4.642;  832.135
322.041;   63.058;   -5.002;  812.315
322.638;   60.851;   -3.982;  701.456
323.235;   63.170;   -3.411;  665.683
323.833;   60.358;   -7.361;  740.354
324.430;   54.459;   -8.611;  615.900
325.027;   55.083;   -4.061;  876.855
325.624;   56.550;   -4.031;  644.532
326.221;   52.864;   -7.481;  689.717
326.818;   52.124;   -5.281;  818.332
327.415;   55.943;   -7.460;  748.828
328.012;   55.961;   -5.510;  690.585
328.609;   54.012;   -7.880;  731.389
329.206;   51.476;   -8.331;  778.621
329.803;   52.282;   -5.121;  737.841
330.400;   55.242;   -4.510;  704.260
330.997;   55.532;   -6.441;  817.147
331.594;   53.758;   -8.831;  788.185
332.191;   58.897;   -7.621;  728.722
332.787;   63.134;   -4.591;  844.463
333.384;   61.245;   -7.412;  763.093
333.981;   59.837;   -8.293;  815.687
334.578;   63.279;   -7.052;  708.378
335.174;   66.218;   -3.102;  731.469
335.771;   65.079;   -5.943;  836.456
336.367;   62.121;   -7.393;  710.631
336.964;   66.112;   -4.063;  793.266
337.561;   64.692;   -3.813;  731.112
338.157;   59.730;   -4.654;  911.916
338.754;   56.245;   -7.934;  796.589
339.350;   54.411;   -4.414;  722.493
339.946;   57.655;   -4.664;  773.135
340.543;   48.380;   -6.375;  846.136
341.139;   44.003;   -9.815;  720.836
341.735;   41.838;   -4.526;  772.593
342.332;   40.786;   -4.895;  691.472
342.928;   40.894;   -4.295;  795.394
343.524;   34.357;   -5.476;  761.684
344.120;   31.568;   -5.856;  738.562
344.716;   34.745;   -2.155;  723.717
345.313;   32.404;   -6.275;  795.342
345.909;   25.999;   -8.815;  627.336
346.505;   28.597;   -5.305;  740.247
347.101;   29.770;   -2.674;  827.864
347.697;   29.528;   -4.344;  785.398
348.293;   24.136;   -9.975;  627.244
348.889;   25.201;   -5.774;  745.914
349.485;   25.041;   -5.004;  688.205
350.081;   25.206;   -4.704;  772.592
350.676;   20.487;   -6.635;  691.606
351.272;   24.104;   -4.504;  809.530
351.868;   24.768;   -3.914;  780.497
352.464;   21.608;   -9.044;  723.932
353.059;   17.070;   -8.314;  646.017
353.655;   21.595;   -7.024;  777.063
354.251;   22.517;   -5.343;  759.845
354.846;   16.462;   -8.604;  740.646
355.442;   14.332;   -6.945;  753.071
356.038;   17.581;   -7.564;  751.708
356.633;   17.243;   -5.814;  728.594
357.229;   14.848;   -7.364;  724.757
357.824;   12.041;   -8.024;  703.600
358.420;   12.183;   -9.384;  679.726
359.015;   12.973;   -5.104;  695.357
359.610;   13.046;   -6.854;  763.920
360.206;    7.129;  -10.185;  603.240
360.801;   11.056;   -7.054;  646.503
361.396;   13.533;   -5.034;  725.975
361.992;    8.773;   -8.284;  668.220
362.587;    4.730;   -8.625;  670.160
363.182;    7.011;   -7.674;  689.631
363.777;    8.980;   -5.164;  738.242
364.372;    7.924;   -8.604;  737.314
364.967;    4.375;   -9.055;  680.744
365.563;    8.047;   -6.114;  815.567
366.158;    5.880;   -5.814;  685.161
366.753;    5.784;   -7.854;  649.263
367.348;    3.809;   -7.804;  746.056
367.942;    4.671;   -7.954;  697.298
368.537;    3.437;   -4.984;  754.245
369.132;    3.375;   -8.564;  703.428
369.727;   -0.793;   -8.855;  638.079
370.322;    0.966;   -6.245;  580.186
370.917;    0.922;   -6.425;  710.646
371.511;    4.224;   -6.294;  861.834
372.106;   -0.591;   -7.685;  776.964
372.701;   -3.209;   -7.335;  585.988
373.296;    3.201;   -4.564;  863.135
373.890;   -1.905;  -10.235;  647.840
374.485;   -4.867;   -7.885;  691.199
375.079;   -0.512;   -7.324;  738.685
375.674;    1.298;   -3.494;  812.970
376.268;   -3.566;   -8.525;  691.759
376.863;   -9.352;  -10.086;  580.327
377.457;   -3.670;   -7.025;  662.490
378.052;   -3.896;   -3.585;  764.884
378.646;   -5.967;   -7.595;  741.167
379.240;   -6.522;   -8.335;  721.176
379.835;   -5.004;   -5.785;  636.978
380.429;   -6.837;   -4.335;  562.557
381.023;   -7.134;   -6.805;  779.205
381.617;   -9.775;   -9.195;  680.106
382.212;   -6.143;   -6.905;  685.303
382.806;   -5.499;   -3.745;  760.690
383.400;   -9.481;   -7.745;  672.281
383.994;  -11.172;   -9.765;  664.870
384.588;   -6.396;   -6.564;  697.701
385.182;   -4.909;   -5.344;  726.624
385.776;   -6.559;   -8.514;  706.875
386.370;  -10.661;   -9.555;  681.968
386.964;   -8.611;   -8.715;  684.155
387.558;   -6.561;   -6.174;  598.360
388.152;   -9.746;   -8.725;  681.959
388.745;   -8.588;   -7.965;  814.707
389.339;   -7.931;   -5.924;  747.642
389.933;   -4.915;   -5.524;  695.370
390.527;   -7.291;   -7.114;  859.029
391.120;  -13.731;  -10.725;  595.318
391.714;  -10.595;   -8.035;  711.633
392.308;   -6.273;   -3.574;  780.253
392.901;  -11.226;   -7.245;  642.460
393.495;  -12.933;   -9.285;  595.414
394.089;  -11.069;   -5.895;  760.452
394.682;  -11.120;   -4.295;  697.188
395.275;  -11.743;   -9.875;  719.927
395.869;  -12.886;   -8.485;  667.314
396.462;  -11.759;   -7.455;  616.609
397.056;   -6.645;   -5.424;  776.621
397.649;  -11.669;   -6.605;  731.575
398.242;  -10.731;   -8.224;  712.645
398.836;   -8.526;   -7.474;  766.408
399.429;   -8.928;   -7.094;  631.041
400.022;  -13.176;   -9.475;  665.902
400.615;  -11.005;   -7.145;  805.609
401.208;   -8.876;   -7.174;  691.451
401.802;  -10.715;   -5.515;  699.329
402.395;  -11.739;   -9.875;  683.502
402.988;  -13.190;   -8.845;  696.627
403.581;   -9.499;   -8.874;  646.878
404.174;   -7.137;   -5.324;  686.568
404.767;  -10.501;   -9.575;  638.583
405.360;  -13.292;  -10.965;  621.445
405.953;   -8.093;   -8.764;  759.034
406.545;   -6.658;   -7.514;  725.342
407.138;  -11.436;  -10.025;  618.350
407.731;  -10.413;  -10.034;  613.303
408.324;   -6.174;   -9.374;  660.554
408.917;   -6.447;   -6.534;  681.864
409.509;   -8.813;   -8.004;  740.396
410.102;  -11.325;   -9.875;  643.948
410.695;   -5.105;   -8.604;  665.758
411.287;   -5.410;   -6.794;  599.821
411.880;   -7.369;   -9.334;  585.421
412.472;  -10.531;  -10.254;  613.092
413.065;   -6.900;   -6.714;  629.408
413.657;   -4.153;   -7.234;  576.678
414.250;   -5.008;  -10.544;  646.681
414.842;   -6.763;   -9.744;  676.353
415.434;   -4.553;   -6.994;  570.463
416.027;   -0.186;   -5.893;  652.196
416.619;   -2.450;   -7.264;  713.400
417.211;   -3.591;  -10.374;  599.352
417.804;    0.426;   -7.993;  628.499
418.396;   -2.632;   -7.234;  607.643
418.988;   -0.872;   -9.443;  659.238
419.580;   -4.945;  -10.724;  568.276
420.172;   -1.962;  -10.323;  536.196
420.764;    2.376;   -8.793;  672.482
421.356;    0.605;  -11.143;  636.898
421.948;   -0.101;   -8.293;  677.661
422.540;    5.178;   -7.893;  680.027
423.132;    5.009;   -7.082;  600.641
423.724;    2.000;   -8.653;  561.267
424.316;    3.014;  -10.213;  621.345
424.908;    5.885;   -9.762;  591.517
425.500;    7.313;   -5.572;  647.978
426.092;    8.144;   -8.422;  648.268
426.683;    6.715;   -9.283;  684.836
427.275;    9.079;   -7.852;  641.471
427.867;   11.612;   -5.272;  668.948
428.458;   11.623;   -7.682;  732.344
429.050;    9.857;  -10.612;  680.749
429.642;   13.044;   -9.882;  743.124
430.233;   13.663;   -6.962;  569.356
430.825;   13.905;   -6.842;  724.809
431.416;   11.335;   -9.672;  698.241
432.008;   15.486;   -6.552;  651.723
432.599;   16.536;   -6.891;  656.073
433.190;   13.635;  -10.912;  637.670
433.782;   12.758;  -11.172;  590.395
434.373;   19.444;   -6.061;  884.765
434.964;   18.660;   -8.251;  602.920
435.556;   16.448;   -9.722;  634.537
436.147;   18.450;   -9.082;  758.490
436.738;   19.798;   -8.041;  701.099
437.329;   25.140;   -7.341;  721.723
437.920;   17.635;   -8.162;  666.688
438.511;   17.121;  -11.802;  564.526
439.103;   23.892;  -10.191;  623.998
439.694;   25.609;   -7.601;  681.583
440.285;   26.974;   -8.541;  764.432
440.876;   24.759;   -9.751;  845.738
441.466;   24.186;   -9.401;  575.162
442.057;   29.335;   -7.760;  665.814
442.648;   28.871;   -9.971;  746.255
443.239;   26.461;  -11.001;  620.477
443.830;   31.673;   -7.990;  704.958
444.421;   33.996;   -7.910;  655.474
445.011;   30.414;   -8.131;  693.619
445.602;   29.145;   -7.111;  743.126
446.193;   31.772;  -10.920;  488.117
446.783;   36.255;   -6.500;  640.397
447.374;   31.780;   -8.671;  692.759
447.964;   31.316;  -10.781;  713.770
448.555;   40.228;   -9.650;  822.742
449.145;   37.633;   -8.660;  662.853
449.736;   38.392;   -8.990;  803.179
450.326;   37.823;   -9.500;  713.626
450.917;   42.759;   -8.680;  675.324
451.507;   42.586;   -7.520;  600.661
452.097;   43.791;   -8.590;  746.267
452.688;   43.789;  -11.340;  742.160
453.278;   43.658;  -10.100;  566.840
453.868;   48.868;   -6.019;  793.550
454.458;   46.271;   -9.440;  651.141
455.048;   46.220;  -10.560;  711.783
455.639;   47.983;  -11.799;  567.096
456.229;   52.715;   -6.899;  710.694
456.819;   53.357;   -7.389;  751.158
457.409;   54.696;  -11.119;  773.993
457.999;   56.431;   -9.289;  737.505
458.589;   57.289;   -6.139;  686.606
459.179;   56.342;   -8.729;  717.658
459.769;   54.496;   -9.789;  627.099
460.358;   59.182;  -10.259;  797.262
460.948;   59.699;   -7.299;  689.503
461.538;   61.404;  -10.289;  660.677
462.128;   58.687;  -11.269;  664.934
462.717;   65.518;   -9.368;  710.326
463.307;   68.929;   -7.908;  705.846
463.897;   65.008;   -9.599;  656.942
464.486;   64.084;   -9.769;  837.128
465.076;   68.502;   -8.048;  733.776
465.666;   72.884;   -9.358;  652.900
466.255;   70.294;   -7.919;  785.651
466.845;   68.690;  -11.689;  666.749
467.434;   71.899;   -7.818;  725.873
468.023;   73.972;   -7.678;  658.357
468.613;   71.320;  -10.939;  713.946
469.202;   75.078;  -10.118;  646.507
469.791;   79.247;   -9.108;  737.811
470.381;   81.558;   -6.058;  742.813
470.970;   81.328;  -10.428;  711.099
471.559;   81.150;  -10.268;  733.291
472.148;   84.258;   -8.448;  675.737
472.738;   87.542;   -6.917;  765.466
473.327;   86.241;  -11.978;  637.529
473.916;   85.521;  -11.888;  737.446
474.505;   89.631;   -9.437;  751.703
475.094;   94.663;   -6.747;  806.570
475.683;   93.013;   -9.367;  797.699
476.272;   93.303;  -12.637;  730.632
476.861;   96.984;  -10.027;  706.754
477.449;  104.028;   -8.716;  728.487
478.038;   98.687;   -9.577;  692.513
478.627;   98.584;   -9.718;  714.852
479.216;  106.558;   -8.947;  769.441
479.805;  109.502;   -6.256;  783.375
480.393;  108.770;   -7.937; 1008.945
480.982;  107.641;   -7.717;  874.501
481.571;  114.657;   -9.266;  858.333
482.159;  116.045;   -7.636;  705.386
482.748;  114.661;   -9.667;  821.385
483.336;  118.732;  -10.376;  858.209
483.925;  120.367;   -7.147;  774.373
484.513;  128.319;   -7.996;  758.962
485.102;  124.419;  -10.027;  810.965
485.690;  131.719;  -10.446; 1011.050
486.278;  134.705;   -8.446;  979.329
486.867;  136.680;   -6.356;  809.662
487.455;  137.868;   -9.136;  898.229
488.043;  138.682;  -10.646;  748.361
488.631;  148.189;   -7.456; 1005.079
489.220;  152.947;   -6.636;  908.626
489.808;  152.803;  -11.036;  741.415
490.396;  160.699;  -10.246;  914.645
490.984;  166.753;   -8.556;  830.161
491.572;  177.548;   -5.886;  940.315
492.160;  184.131;   -9.486;  919.081
492.748;  196.748;  -10.976;  884.341
493.336;  220.966;   -8.776; 1019.693
493.924;  250.272;   -5.465;  958.077
494.512;  280.401;   -9.986; 1066.638
495.100;  320.547;  -10.636; 1103.280
495.687;  378.048;  -10.885; 1206.373
496.275;  443.851;   -8.126; 1150.796
496.863;  515.644;  -10.586; 1281.171
497.451;  621.669;  -11.926; 1386.805
498.038;  777.331;  -10.885; 1556.729
498.626;  902.974;   -6.315; 1741.407
499.214; 1055.339;   -7.326; 2016.609
499.801; 1267.012;  -11.906; 2220.633
500.389; 1544.317;  -10.466; 2312.494
500.976; 1908.835;   -5.236; 2744.849
501.564; 2349.713;   -8.936; 3148.565
502.151; 2748.250;  -13.176; 3515.999
502.738; 3269.304;  -10.646; 3971.274
503.326; 3692.436;   -9.525; 4403.796
503.913; 4144.111;  -10.856; 5161.749
504.500; 4518.809;  -11.586; 5986.420
505.088; 4999.464;  -10.336; 6381.201
505.675; 5588.862;   -6.355; 6925.547
506.262; 6245.128;   -9.046; 7619.060
506.849; 7085.909;  -10.416; 8733.969
507.436; 7588.773;  -10.305; 9790.121
508.023; 8053.194;   -5.496; 9985.472
508.610; 8345.240;   -7.856;10434.618
509.197; 9139.900;  -10.097;11198.435
509.784;10755.434;  -10.886;12391.194
510.371;11957.635;   -9.315;13603.713
510.958;12677.094;   -9.936;14426.586
511.545;13345.315;   -9.326;15243.775
512.132;13987.664;  -10.075;15945.876
512.719;14650.169;   -7.796;16340.369
513.305;15902.007;  -10.606;18011.766
513.892;16862.031;  -11.486;19754.971
514.479;18511.090;   -9.126;20967.805
515.066;20050.111;   -6.026;22299.793
515.652;21190.426;   -8.466;22908.660
516.239;22443.004;  -10.886;23798.875
516.825;23147.281;  -11.496;25567.275
517.412;24077.820;   -5.796;28154.959
517.998;25170.256;  -10.506;28344.111
518.585;25371.455;  -10.076;27134.219
519.171;25430.064;   -8.315;27268.576
519.758;26788.889;   -8.596;28964.129
520.344;28522.787;   -8.466;30664.494
520.930;28607.877;  -11.006;32550.605
521.516;30567.297;  -10.495;35422.895
522.103;33455.910;   -5.526;38280.004
522.689;34265.918;   -8.746;37835.117
523.275;33513.898;  -11.376;37288.613
523.861;34246.543;  -11.156;37281.395
524.447;35815.578;   -8.135;37846.949
525.033;35629.074;   -7.896;38321.949
525.619;36035.926;  -12.476;38579.285
526.205;37298.559;   -9.516;40622.875
526.791;40063.008;   -6.926;42258.836
527.377;40411.508;   -8.346;42966.902
527.963;42513.832;   -8.717;42018.949
528.549;41485.891;  -11.016;42476.828
529.135;39257.805;   -8.536;41854.852
529.721;38615.035;   -9.666;41237.711
530.306;37840.563;  -10.066;41259.445
530.892;37920.559;  -11.356;41506.047
531.478;39152.688;   -6.596;43559.613
532.063;41432.820;   -8.836;47695.563
532.649;41855.652;  -10.047;50808.324
533.235;43562.633;   -9.746;51787.500
533.820;45232.285;   -6.566;52145.035
534.406;45536.113;  -10.817;51133.488
534.991;44975.270;   -9.416;49996.805
535.576;43939.434;   -9.036;48882.852
536.162;44440.012;   -6.156;46942.285
536.747;45232.984;  -11.607;45711.746
537.333;48685.840;  -11.787;48510.180
537.918;51539.563;  -12.437;50439.891
538.503;50310.945;   -7.196;50863.711
539.088;47239.012;  -10.556;50906.922
539.673;47701.715;   -8.767;52621.965
540.259;47772.871;  -10.026;52368.094
540.844;44824.445;   -7.416;50879.109
541.429;45146.961;   -9.467;52077.777
542.014;48678.098;   -9.527;52716.695
542.599;49217.234;   -9.946;52363.281
543.184;45828.582;   -7.927;53187.137
543.769;46749.090;   -9.297;54697.605
544.354;46964.516;  -10.127;53913.914
544.938;46103.352;   -9.267;49680.164
545.523;48242.297;   -6.506;47386.277
546.108;50455.996;   -9.787;49151.949
546.693;52384.977;  -11.587;51384.637
547.278;52097.188;  -10.986;51853.254
547.862;48501.867;   -8.206;51173.750
548.447;43673.215;  -10.067;51691.395
549.031;43039.660;   -9.637;52456.703
549.616;48237.719;   -9.926;52714.516
550.201;47974.148;   -6.347;52414.598
550.785;47864.336;   -7.917;52355.059
551.370;47596.215;  -10.867;54589.453
551.954;48041.336;   -9.047;58267.348
552.538;49751.332;   -7.827;59062.176
553.123;48624.063;  -10.287;58115.285
553.707;46112.613;  -12.178;56556.285
554.291;46351.879;   -8.717;56201.668
554.876;46979.336;   -7.457;55335.762
555.460;47765.031;  -10.387;54155.703
556.044;50187.813;   -9.618;53721.484
556.628;48163.418;  -11.567;53731.016
557.212;47528.832;   -8.097;54312.531
557.796;45922.191;  -11.077;53797.773
558.380;46198.629;  -11.108;56145.984
558.964;46660.965;   -9.057;57277.930
559.548;47210.926;   -6.977;56459.641
560.132;45411.496;  -11.457;54434.543
560.716;44293.063;  -11.378;54800.617
561.300;44645.133;   -9.577;57606.945
561.884;45947.902;   -7.127;58972.445
562.467;45133.789;   -7.118;57327.570
563.051;44443.684;  -13.358;54962.434
563.635;44654.871;  -10.178;52594.473
564.219;45619.359;   -7.837;50610.410
564.802;46564.801;  -11.398;49551.180
565.386;46651.098;  -12.788;48370.953
565.969;45966.590;   -9.077;48178.871
566.553;45132.711;   -6.207;49957.305
567.136;45453.043;   -8.568;50369.594
567.720;41669.754;  -11.868;49492.004
568.303;39870.094;   -8.268;50616.352
568.887;39670.230;   -8.698;50727.148
569.470;40077.902;   -6.808;51698.379
570.053;38803.281;  -13.188;52122.078
570.637;37582.543;  -12.037;52536.438
571.220;37337.281;   -8.577;51186.098
571.803;37455.043;   -8.498;51032.762
572.386;39482.676;  -10.498;49609.887
572.969;42651.945;   -9.388;48285.926
573.552;41294.891;   -8.338;47624.285
574.135;40284.820;   -8.518;45498.641
574.718;37110.707;  -13.628;41970.434
575.301;36034.656;  -10.893;41447.137
575.884;34958.609;   -8.158;40923.836
576.467;35700.484;  -10.328;45267.723
577.050;38331.859;  -13.058;48175.543
577.633;40113.059;   -9.458;47729.328
578.216;38921.715;   -8.928;47579.793
578.799;37868.254;   -9.358;47820.996
579.381;36187.797;  -11.388;48115.551
579.964;34268.246;  -11.718;47333.766
580.547;35394.867;   -8.588;46668.969
581.129;35688.680;   -8.859;44466.141
581.712;35969.617;  -10.729;44164.922
582.294;37054.836;  -11.118;46477.855
582.877;37972.805;   -5.218;48244.254
583.459;36416.719;   -8.679;47437.895
584.042;34617.496;  -10.709;46943.219
584.624;34789.934;  -11.669;46792.227
585.206;33797.027;   -8.218;46557.250
585.789;34103.547;  -10.569;45793.773
586.371;37398.816;  -11.859;43836.391
586.953;38092.133;  -10.719;42972.492
587.536;38622.191;   -7.198;42487.211
588.118;38767.906;   -8.720;42086.414
588.700;35316.766;  -10.439;43389.930
589.282;34286.254;   -9.198;43646.039
589.864;34759.941;   -9.199;43438.109
590.446;36310.766;  -11.319;43151.926
591.028;35939.488;  -11.159;42781.867
591.610;34866.895;  -11.779;42839.098
592.192;31822.031;   -7.668;42820.402
592.774;30358.773;  -11.949;40724.277
593.356;29500.205;  -12.129;39874.789
593.937;29144.889;  -10.669;39980.648
594.519;31191.650;   -6.509;42069.633
595.101;33308.586;  -10.849;42976.031
595.683;33510.102;  -11.679;44084.441
596.264;34584.766;   -9.049;43478.797
596.846;33342.371;   -8.849;43803.672
597.427;32378.127;   -9.570;42986.934
598.009;34169.359;  -12.620;42832.219
598.591;34775.500;  -10.039;42580.086
599.172;34344.227;  -10.369;43061.805
599.753;34541.137;   -9.140;41691.469
600.335;36003.082;  -11.430;40692.520
600.916;34286.707;   -9.939;39982.422
601.498;32157.166;   -8.479;40318.617
602.079;30767.520;  -10.920;40670.609
602.660;30471.051;  -11.480;41450.898
603.241;31025.252;  -11.699;41137.738
603.823;29669.559;   -9.579;38868.797
604.404;29975.898;  -10.620;38182.785
604.985;31499.166;  -10.450;38078.047
605.566;30561.119;   -9.129;38056.633
606.147;30479.541;   -7.510;37020.418
606.728;32976.801;  -10.660;37883.359
607.309;31968.004;  -11.740;38748.273
607.890;31090.518;   -9.759;38850.230
608.471;30617.744;   -8.250;37457.918
609.051;30232.852;   -9.240;36066.457
609.632;29294.016;  -12.120;35991.074
610.213;30116.998;   -9.110;37402.641
610.794;30758.365;   -8.030;38383.363
611.374;29530.346;   -8.110;40562.387
611.955;29414.551;  -13.560;38533.727
612.536;31085.182;  -11.400;36951.789
613.116;31028.162;   -8.070;37197.891
613.697;31659.604;  -10.830;38411.125
614.277;30100.666;  -11.641;38673.938
614.858;30894.762;  -13.310;37075.863
615.438;30674.137;   -7.460;35092.906
616.019;27997.316;   -7.601;33666.301
616.599;28420.236;  -12.020;34189.023
617.179;30530.664;  -11.780;36952.047
617.760;31151.338;   -8.570;39582.574
618.340;32288.980;  -11.471;38943.977
618.920;33698.332;  -11.170;37594.156
619.500;33123.855;  -11.071;37866.938
620.080;32685.514;   -7.750;37869.043
620.660;33749.977;  -12.711;36868.617
621.241;34490.516;  -10.211;36352.309
621.821;34124.355;  -10.961;35459.520
622.401;33713.414;   -7.720;35207.414
622.980;32797.148;   -8.981;35980.422
623.560;31266.166;   -9.331;37351.328
624.140;30626.650;   -9.850;34388.582
624.720;26183.500;   -7.451;32368.764
625.300;22294.178;   -9.070;32638.629
625.880;25200.844;  -12.601;34599.035
626.459;28650.945;  -11.751;36831.738
627.039;31569.207;   -9.281;38299.098
627.619;31600.852;   -8.801;38289.574
628.198;30077.674;  -12.071;37220.695
628.778;29928.063;   -9.461;37632.563
629.357;30760.195;   -8.491;38003.012
629.937;30270.814;   -9.721;38402.039
630.516;29368.598;   -9.951;37868.801
631.096;29568.139;  -11.731;35760.410
631.675;32788.305;   -8.572;35225.219
632.254;38163.922;  -11.282;35130.289
632.834;37364.984;  -13.322;35794.570
633.413;35540.414;  -10.301;35788.922
633.992;32533.426;   -8.582;34532.863
634.571;33910.668;   -8.352;33590.113
635.151;36593.160;  -11.912;34943.863
635.730;34440.141;  -10.511;35352.523
636.309;30894.254;   -7.731;35366.605
636.888;28359.465;   -9.952;36165.637
637.467;28821.447;  -11.672;37515.902
638.046;31094.314;   -8.901;39288.695
638.625;34368.461;   -7.912;38279.699
639.204;34160.520;  -10.022;37741.598
639.782;32383.482;  -12.252;38364.551
640.361;28769.355;  -10.041;36740.621
640.940;25860.066;  -11.161;34950.082
641.519;25757.527;   -9.701;34137.398
642.097;28118.072;  -11.271;35654.258
642.676;31501.748;   -8.651;35637.957
643.255;33031.184;   -8.711;36567.074
643.833;31872.025;   -9.581;37809.434
644.412;32154.332;  -13.711;37337.293
644.990;31617.096;  -11.811;37018.531
645.569;31351.709;   -9.411;36518.469
646.147;30017.875;  -10.291;36186.430
646.726;29321.785;  -12.401;36267.688
647.304;30801.865;  -10.411;36647.625
647.882;32230.453;   -9.651;39286.742
648.461;33770.602;   -9.631;39157.703
649.039;32966.203;  -11.881;35412.883
649.617;32674.992;   -9.661;34744.918
650.195;32602.840;   -9.301;35403.098
650.773;31387.813;  -10.511;35053.797
651.352;28753.117;  -11.521;33756.816
651.930;26052.666;  -12.211;31868.773
652.508;23878.197;   -9.171;33121.551
653.086;27607.275;   -9.371;33564.793
653.663;31142.783;  -13.161;34054.668
654.241;29942.266;  -13.031;35693.309
654.819;31258.982;   -9.371;36422.906
655.397;30580.051;  -10.511;38213.484
655.975;30163.980;  -10.371;39507.625
656.553;30601.332;  -10.051;39498.223
657.130;29483.107;  -10.061;40395.480
657.708;29169.949;   -9.561;39242.020
658.286;29213.037;  -11.511;38920.020
658.863;29900.801;  -10.261;40202.898
659.441;32032.311;   -7.531;39677.938
660.018;31275.211;   -9.501;40413.355
660.596;30399.105;  -13.301;39931.414
661.173;32421.666;  -11.211;39604.531
661.750;32648.268;   -9.951;39700.070
662.328;31679.502;   -9.390;39292.809
662.905;30955.434;  -11.330;38235.648
663.482;26612.299;   -9.050;36212.305
664.060;24513.740;   -8.240;35944.945
664.637;27141.346;  -10.050;35170.785
665.214;28883.959;  -11.760;34197.523
665.791;30921.859;  -10.530;34549.520
666.368;30116.209;   -9.690;35118.578
666.945;30357.682;   -9.320;36019.418
667.522;31309.211;  -11.860;36048.438
668.099;31621.293;  -10.770;36243.914
668.676;31189.697;   -6.260;35958.875
669.253;29631.172;   -7.000;37384.730
669.830;29703.809;  -10.190;36779.629
670.407;29379.271;   -9.550;35231.289
670.984;30110.143;   -9.260;35544.270
671.560;30029.113;   -9.280;35466.867
672.137;28520.115;  -11.810;34280.863
672.714;29422.838;  -11.490;34632.863
673.290;29751.666;   -7.740;35135.422
673.867;29784.514;  -10.660;36114.480
674.443;30280.002;  -12.230;36152.859
675.020;28491.525;  -10.450;35327.238
675.596;29499.186;   -9.260;35795.176
676.173;30084.875;  -10.780;35430.355
676.749;29383.768;  -13.690;33549.516
677.326;29482.664;  -11.980;32210.012
677.902;29965.426;   -8.630;32068.871
678.478;29232.641;  -10.730;32583.891
679.054;29019.361;  -10.520;32088.928
679.631;30128.617;  -11.920;30978.848
680.207;30884.078;   -7.490;33160.887
680.783;32051.016;   -9.860;35570.363
681.359;31030.164;  -13.380;36125.184
681.935;29649.537;  -12.480;35240.922
682.511;28318.711;   -7.900;34429.961
683.087;28308.846;   -7.710;34463.680
683.663;28714.771;  -11.480;34648.898
684.239;28514.627;  -14.090;34546.457
684.815;28115.838;   -7.560;35586.375
685.390;28361.799;   -9.910;35821.895
685.966;28794.193;  -11.159;35085.871
686.542;31196.400;  -11.169;34198.230
687.118;33229.539;   -5.959;32847.707
687.693;33345.000;  -10.329;32794.027
688.269;32649.703;  -12.059;33072.367
688.844;30289.672;  -10.909;33141.664
689.420;28563.301;   -8.019;33965.742
689.995;26864.547;   -8.399;34655.523
690.571;25897.494;  -10.949;33576.742
691.146;26364.480;   -9.619;32657.219
691.722;25501.232;   -8.999;32526.979
692.297;24930.412;  -11.589;33014.617
692.872;26743.180;  -11.739;34012.254
693.448;26725.320;  -11.059;34237.434
694.023;25759.861;  -10.139;34142.672
694.598;27710.963;   -9.029;34132.031
695.173;27813.342;  -13.319;34205.250
695.748;27268.730;  -10.169;32882.488
696.323;27053.838;   -8.339;32864.906
696.898;26769.096;   -8.169;33170.004
697.473;26611.416;  -12.309;32432.984
698.048;26616.467;  -10.989;31649.303
698.623;27185.828;   -9.329;30778.141
699.198;28873.930;   -9.849;31140.119
699.773;29773.723;  -12.329;31764.299
700.348;28550.957;  -10.389;31780.816
700.922;28925.744;   -9.269;32046.375
701.497;29371.162;   -9.329;32603.574
702.072;29342.695;  -10.789;34799.871
702.646;28851.201;  -10.839;35793.172
703.221;27456.664;   -9.099;35201.590
703.795;29490.525;  -10.939;34764.527
704.370;29444.977;  -12.859;34307.367
704.944;29483.846;  -11.559;33509.887
705.519;30563.994;   -7.939;31388.584
706.093;31575.479;  -10.499;31340.104
706.668;31516.904;  -11.289;32630.281
707.242;29938.604;  -11.509;32728.779
707.816;28493.951;   -9.639;32947.238
708.390;27000.287;  -11.429;33277.855
708.965;27700.891;  -11.869;33834.336
709.539;28511.293;  -11.689;33709.273
710.113;28966.049;  -10.478;33044.313
710.687;28201.678;  -10.228;31953.992
711.261;25875.070;  -13.698;30505.949
711.835;25621.275;  -13.378;30262.369
712.409;26828.799;   -9.698;31254.447
712.983;28397.439;  -11.898;32754.986
713.557;29535.109;  -15.138;34018.824
714.131;29170.209;  -14.098;34579.625
714.704;28050.193;   -9.958;33890.262
715.278;25620.494;  -10.028;33531.102
715.852;25251.648;  -11.148;33601.660
716.425;26213.797;   -9.068;33515.117
716.999;26617.545;  -10.038;33185.555
717.573;27548.742;   -9.798;33905.996
718.146;28899.518;  -12.378;35199.293
718.720;28860.813;  -11.918;35060.551
719.293;28525.781;   -8.088;34973.230
719.867;31219.174;  -10.888;36394.449
720.440;31180.748;  -11.938;36663.008
721.013;29799.715;  -12.818;35102.426
721.587;28379.256;  -10.298;33985.266
722.160;26373.709;  -10.048;33524.965
722.733;25464.354;  -12.108;32987.043
723.306;26412.211;  -10.818;33066.301
723.880;28259.225;   -8.908;33399.500
724.453;29910.813;   -9.878;33468.297
725.026;28879.461;  -11.188;33816.637
725.599;26028.254;  -11.678;32797.996
726.172;26312.859;   -9.618;33187.434
726.745;27724.338;   -8.258;35136.613
727.318;29397.205;  -12.978;35751.730
727.891;30199.072;  -12.148;35890.430
728.463;30123.746;   -8.968;34822.090
729.036;28901.523;  -10.188;32895.086
729.609;28983.676;  -11.788;31823.225
730.182;25406.660;  -11.788;31445.283
730.754;23008.488;  -10.268;32373.223
731.327;23377.426;   -9.998;33676.820
731.900;23368.465;  -12.228;33417.000
732.472;24792.270;  -13.848;31978.498
733.045;27345.449;   -8.698;30368.777
733.617;27454.949;  -10.607;30574.215
734.190;26844.293;  -11.507;31280.975
734.762;23812.232;  -13.647;31674.412
735.334;22139.779;   -9.767;31247.291
735.907;22564.070;   -9.897;29876.211
736.479;22314.223;  -11.637;29808.488
737.051;22010.281;   -9.567;30233.547
737.623;23311.508;   -8.187;31469.086
738.195;24378.002;  -11.187;31784.225
738.768;26044.908;  -12.337;32120.523
739.340;25909.426;  -12.227;32094.342
739.912;24624.176;  -11.057;31312.680
740.484;23823.619;  -10.207;31946.238
741.056;22769.109;  -10.047;32984.059
741.628;24188.344;  -13.627;33897.715
742.199;26519.105;   -7.177;33213.016
742.771;25155.361;  -10.797;31369.113
743.343;22631.572;  -11.997;31865.473
743.915;21289.203;  -12.867;32388.631
744.487;21428.166;   -7.617;31079.568
745.058;21764.861;   -9.557;30570.107
745.630;22564.510;   -9.877;29970.127
746.201;23756.326;  -14.177;29186.766
746.773;24172.238;   -9.237;28805.723
747.344;23999.207;   -9.847;29591.223
747.916;22420.154;  -11.657;31412.201
748.487;21870.348;  -10.587;32194.898
749.059;23148.309;   -8.707;32533.719
749.630;24453.084;  -10.537;32158.518
750.201;23709.740;  -11.687;30855.395
750.773;22197.320;  -11.647;28622.555
751.344;22306.947;   -7.147;28405.732
751.915;23243.730;   -9.757;28461.551
752.486;22347.371;  -12.427;27842.850
753.057;20034.822;  -12.227;27845.008
753.628;19008.211;  -10.417;27728.107
754.199;19896.533;  -11.767;27381.086
754.770;20830.504;  -11.187;25882.203
755.341;20892.172;  -10.507;25886.184
755.912;21099.930;   -9.387;26050.861
756.483;20575.041;  -10.647;26798.779
757.054;18789.639;  -11.837;27048.238
757.625;17489.357;  -12.716;26294.838
758.195;17218.354;   -9.666;26142.076
758.766;17006.182;   -8.656;26392.234
759.337;17941.691;  -12.856;26334.594
759.907;19704.057;  -13.366;27579.652
760.478;20757.922;   -8.576;28352.770
761.048;20588.232;  -10.526;27325.088
761.619;19955.539;  -11.116;26460.428
762.189;19609.633;  -12.136;26029.826
762.760;20089.201;   -9.456;26430.145
763.330;21044.795;   -7.136;26670.902
763.900;20406.932;  -11.786;26603.021
764.471;17617.063;  -11.546;25542.740
765.041;16362.733;   -8.096;24358.459
765.611;16859.645;   -8.876;23991.297
766.181;17485.928;  -12.196;24470.236
766.751;18177.033;  -11.636;24845.975
767.321;17994.682;  -10.156;24533.633
767.891;16057.024;  -11.766;24916.492
768.461;15385.638;  -14.936;24776.771
769.031;15840.101;  -12.356;24757.988
769.601;17627.166;   -7.526;24181.088
770.171;17795.291;  -10.766;23670.387
770.741;17033.623;  -13.176;22960.045
771.311;17060.592;  -10.616;22917.523
771.880;17149.404;   -9.576;23562.941
772.450;16682.936;  -10.336;24216.500
773.020;16685.477;  -13.516;24140.398
773.589;16371.333;  -13.466;24414.857
774.159;16131.244;   -8.686;23858.717
774.729;15825.112;   -9.476;22942.135
775.298;15173.248;  -13.666;22324.033
775.867;14670.946;  -11.716;21140.313
776.437;14704.859;   -9.906;20838.092
777.006;14385.097;  -12.166;20599.510
777.576;14361.673;  -12.356;20508.809
778.145;14647.864;  -11.646;20732.947
778.714;14556.267;   -8.226;21062.465
779.283;13589.403;   -9.556;20949.664
779.853;13169.355;  -14.116;20508.623
780.422;13657.726;  -11.506;20649.082
780.991;13214.828;   -9.556;21527.520
781.560;12303.277;   -9.095;22632.658
782.129;12201.412;  -12.135;23048.277
782.698;12022.702;  -10.865;23438.555
783.267;11571.862;   -9.335;23267.734
783.836;11525.182;  -11.045;22415.133
784.404;12419.828;  -13.865;20443.152
784.973;12705.649;  -13.095;19699.150
785.542;12505.787;  -11.575;19763.828
786.111;12408.146;   -9.705;20341.408
786.679;12113.931;  -12.105;20207.967
787.248;11987.203;  -12.455;19516.465
787.817;11660.217;  -11.535;18900.363
788.385;11142.190;   -9.765;17879.121
788.954;10449.825;  -14.005;17658.301
789.522;10072.534;  -11.955;17788.879
790.090;10744.414;  -10.135;18118.277
790.659;11224.204;  -10.975;18338.736
791.227;10629.133;  -13.375;18508.615
791.795;11036.678;  -12.375;17898.254
792.364;11450.932;  -10.725;17295.133
792.932;11715.977;   -9.715;16822.051
793.500;11823.809;  -12.675;17040.148
794.068;12060.335;  -13.495;17179.787
794.636;12253.549;  -10.885;16664.246
795.204;11785.405;  -11.045;16524.545
795.772;11666.025;  -13.175;17274.564
796.340;11137.436;  -12.445;17891.002
796.908;10970.994;   -9.735;17648.561
797.476;10952.394;   -9.815;17064.080
798.044;10502.848;  -13.985;16672.777
798.612; 9682.291;  -13.115;17023.996
799.180; 9351.701;  -10.185;16561.615
799.747; 9262.729;   -9.055;15962.773
800.315; 8954.681;  -12.385;15296.992
800.883; 8628.109;  -15.035;14801.771
801.450; 8606.312;  -10.365;14534.430
802.018; 8644.597;   -9.855;14173.248
802.585; 8656.809;  -11.905;14029.547
803.153; 8721.988;  -11.585;13836.846
803.720; 8691.482;   -9.095;13567.324
804.287; 8315.108;   -9.135;13360.622
804.855; 7860.269;  -11.604;13681.981
805.422; 7741.398;  -11.794;13536.560
805.989; 7682.489;  -10.734;13355.958
806.556; 7854.643;  -10.444;13747.896
807.124; 8238.885;  -12.764;13987.376
807.691; 8239.068;  -12.964;14038.674
808.258; 8057.669;  -11.134;14120.152
808.825; 7758.076;   -9.854;13860.111
809.392; 7823.306;  -10.504;13268.790
809.959; 7397.581;  -13.054;12680.389
810.526; 6994.717;   -8.294;12427.308
811.093; 6959.098;   -8.394;12030.105
811.659; 7496.295;  -12.304;11653.664
812.226; 7950.628;  -13.944;11637.183
812.793; 7687.766;  -10.484;11611.521
813.360; 7075.546;  -10.144;11885.181
813.926; 6613.281;  -11.684;12770.539
814.493; 6339.507;  -13.644;12677.638
815.060; 5984.854;   -9.724;11974.336
815.626; 6019.821;   -9.854;11594.715
816.193; 6474.286;  -13.254;11579.474
816.759; 6573.704;  -13.204;11666.972
817.325; 6769.588;   -9.434;11325.530
817.892; 7145.152;  -10.134;11105.369
818.458; 7540.713;  -13.474;10843.928
819.024; 7181.532;  -11.854;10714.406
819.591; 6861.032;  -10.244;10469.165
820.157; 6598.932;  -10.704;10235.523
820.723; 6115.761;  -12.324;10847.563
821.289; 5903.257;   -9.444;11040.980
821.855; 5910.060;   -8.374;10357.100
822.421; 5976.531;  -10.234; 9978.918
822.987; 5892.715;  -13.294; 9754.177
823.553; 5551.442;  -10.884;10065.755
824.119; 5409.206;   -8.884;10036.294
824.685; 5522.928;   -6.784;10029.192
825.251; 5570.645;  -12.004;10199.230
825.816; 5494.928;  -11.474; 9820.189
826.382; 5322.694;   -9.174; 9297.248
826.948; 5547.625;   -9.214; 9381.347
827.513; 5964.342;  -10.774; 9450.726
828.079; 5790.062;  -11.924; 9472.444
828.645; 5206.943;  -10.543; 9292.643
829.210; 5109.695;  -10.533; 9065.341
829.776; 5099.085;  -10.753; 9132.620
830.341; 5004.721;  -10.173; 9092.878
830.906; 5171.899;  -10.743; 9078.557
831.472; 5528.253;  -11.113; 8534.535
832.037; 5352.276;  -10.603; 8677.874
832.602; 4818.603;  -13.323; 8628.692
833.167; 4431.687;  -10.823; 8879.031
833.733; 4311.147;  -10.113; 9189.790
834.298; 4383.825;  -13.583; 9052.608
834.863; 4367.332;  -12.703; 8895.087
835.428; 4357.475;  -10.523; 8824.266
835.993; 4372.130;   -6.963; 8845.385
836.558; 4290.199;  -10.763; 8888.563
837.123; 4353.717;   -9.903; 8966.582
837.688; 4502.548;   -9.913; 8617.860
838.253; 4688.113;  -10.283; 8590.699
838.817; 4879.910;  -12.963; 8443.797
839.382; 4834.316;  -14.243; 8799.356
839.947; 4551.711;  -10.733; 8810.595
840.511; 4241.679;   -9.383; 8796.394
841.076; 3865.123;  -12.563; 8347.231
841.641; 3874.727;  -12.953; 8224.330
842.205; 3922.526;   -7.043; 8223.349
842.770; 4031.025;   -8.163; 8622.107
843.334; 4302.435;  -12.503; 8410.386
843.898; 4299.806;  -11.693; 8337.465
844.463; 4296.451;  -10.203; 8506.283
845.027; 4034.799;   -9.533; 8280.962
845.591; 3822.965;  -13.443; 8231.141
846.156; 3835.220;  -13.143; 7969.179
846.720; 3714.079;   -9.433; 7768.278
847.284; 3599.683;  -11.033; 7630.957
847.848; 3421.350;  -10.403; 7472.395
848.412; 3314.325;  -11.553; 7437.394
848.976; 3374.572;   -8.393; 7674.592
849.540; 3334.837;   -8.713; 7836.011
850.104; 3401.306;  -12.463; 7913.669
850.668; 3713.521;  -12.973; 7694.508
851.232; 3815.013;  -10.793; 7756.887
851.796; 3646.741;  -10.662; 7926.545
852.359; 3343.376;  -13.082; 7827.844
852.923; 3199.619;  -12.192; 7641.163
853.487; 3051.186;  -11.912; 7342.501
854.050; 2986.759;  -10.892; 7042.820
854.614; 3116.002;  -13.992; 7151.338
855.177; 3229.394;  -11.732; 7105.077
855.741; 3275.924;   -8.962; 6989.675
856.304; 3154.953;   -9.442; 6596.634
856.868; 3107.288;  -14.192; 6356.272
857.431; 3237.858;  -12.702; 6468.571
857.995; 3350.657;   -9.942; 6373.210
858.558; 3374.816;   -9.112; 6324.448
859.121; 3117.168;  -12.932; 6408.327
859.684; 2987.542;  -13.442; 6347.886
860.247; 3101.125;  -10.632; 6321.264
860.810; 3078.982;  -11.272; 6301.903
861.374; 2816.532;   -9.832; 6607.881
861.937; 2548.021;  -11.762; 6408.200
862.500; 2510.258;   -9.722; 6572.639
863.062; 2632.603;  -10.512; 6387.297
863.625; 2774.534;  -11.232; 6190.836
864.188; 2919.692;  -14.112; 5807.254
864.751; 2988.330;  -11.302; 5682.413
865.314; 2901.125;  -10.112; 5547.492
865.876; 2744.371;  -12.182; 5500.150
866.439; 2767.353;  -10.722; 5415.909
867.002; 2705.848;   -9.252; 5501.567
867.564; 2481.704;   -9.572; 5413.946
868.127; 2276.812;  -13.142; 5160.325
868.689; 2212.921;  -12.902; 5133.183
869.252; 2163.131;   -9.732; 5252.382
869.814; 2071.422;   -9.432; 5297.141
870.377; 2065.978;  -11.552; 5390.919
870.939; 2136.990;   -9.052; 5599.898
871.501; 2191.109;  -10.982; 5248.336
872.063; 2202.384;  -12.292; 4854.235
872.626; 2171.647;  -14.912; 4817.074
873.188; 2159.401;  -13.112; 4987.732
873.750; 2104.897;  -13.442; 4868.651
874.312; 2014.954;   -9.402; 4779.330
874.874; 1942.082;  -11.062; 4866.348
875.436; 1876.407;  -13.931; 4718.887
875.998; 1863.468;   -9.561; 4660.005
876.560; 1861.214;  -11.321; 4462.964
877.122; 1803.569;  -12.221; 4145.042
877.683; 1708.610;  -12.191; 4056.481
878.245; 1642.826;  -12.101; 3950.740
878.807; 1672.402;   -8.971; 4058.958
879.369; 1674.093;  -12.071; 3954.677
879.930; 1577.544;  -14.621; 3941.495
880.492; 1532.008;  -10.311; 4067.014
881.053; 1507.711;  -10.901; 3859.633
881.615; 1402.861;  -14.411; 3776.071
882.176; 1331.434;  -13.761; 3734.750
882.738; 1314.022;   -9.181; 3678.489
883.299; 1301.680;  -11.791; 3405.407
883.860; 1299.357;  -13.121; 3351.106
884.422; 1297.437;  -11.211; 3394.044
884.983; 1253.433;  -10.091; 3166.443
885.544; 1160.741;   -8.461; 3189.802
886.105; 1084.845;  -12.361; 3160.360
886.666; 1031.290;  -14.141; 3093.059
887.227;  981.360;  -11.361; 2941.957
887.788;  910.508;  -11.401; 2974.836
888.349;  844.604;  -13.791; 2721.214
888.910;  850.480;  -13.191; 2696.493
889.471;  860.709;   -9.881; 2560.172
890.032;  838.922;   -9.881; 2558.190
890.593;  809.044;  -10.371; 2567.669
891.153;  781.162;  -13.301; 2460.307
891.714;  737.838;  -11.431; 2372.046
892.275;  702.825;  -11.291; 2309.505
892.835;  665.738;  -11.471; 2382.543
893.396;  611.545;  -11.541; 2295.502
893.956;  561.220;  -11.181; 2162.420
894.517;  524.170;  -11.741; 2125.439
895.077;  517.243;  -11.671; 2086.978
895.638;  519.243;  -11.311; 2126.316
896.198;  492.582;   -9.831; 1838.275
896.758;  448.785;   -8.421; 1892.813
897.319;  414.505;  -12.351; 1792.232
897.879;  399.823;  -13.511; 1762.751
898.439;  376.883;  -12.001; 1661.149
898.999;  348.752;  -10.180; 1781.468
899.559;  339.633;  -12.030; 1703.347
900.119;  333.416;  -15.710; 1537.525
900.679;  332.421;   -8.900; 1638.384
901.239;  318.692;   -8.340; 1527.902
901.799;  308.381;  -13.910; 1456.441
902.359;  300.572;  -13.460; 1357.140
902.919;  292.783;  -11.490; 1331.118
903.479;  279.789;  -12.110; 1317.257
904.038;  257.802;  -11.720; 1262.595
904.598;  241.904;  -13.610; 1152.034
905.158;  237.473;  -11.040; 1240.893
905.717;  230.360;  -10.900; 1233.691
906.277;  219.281;  -15.080; 1217.330
906.836;  209.989;  -13.380; 1222.408
907.396;  203.447;  -10.780; 1193.047
907.955;  197.633;   -8.500; 1182.526
908.515;  191.280;  -12.760; 1099.364
909.074;  184.126;  -11.900; 1092.863
909.633;  178.975;   -8.950; 1069.121
910.192;  175.055;   -8.770; 1196.460
910.752;  170.225;  -12.390; 1029.960
911.311;  166.154;  -13.680; 1009.780
911.870;  163.015;  -12.370;  971.460
912.429;  164.451;  -10.900; 1094.080
912.988;  162.913;  -11.690; 1081.060
913.547;  157.013;  -13.240;  940.380
914.106;  152.086;  -11.990;  999.420
914.665;  149.944;   -9.990;  984.020
915.224;  148.874;  -12.880; 1035.760
915.782;  147.586;  -12.350;  922.560
916.341;  148.716;   -9.110; 1049.840
916.900;  145.253;   -9.270;  925.260
917.458;  142.985;  -13.240;  884.220
918.017;  141.311;  -13.550;  942.600
918.576;  140.956;  -12.320;  904.440
919.134;  140.720;  -11.490;  837.980
919.693;  136.941;  -13.670;  893.060
920.251;  134.532;  -15.470;  876.500
920.809;  134.826;  -11.290;  839.580
921.368;  134.354;  -10.210;  885.360
921.926;  133.341;  -12.140;  842.940
922.484;  131.073;  -13.080;  903.360
923.042;  131.366;  -11.720;  880.340
923.601;  134.437;   -7.480;  998.680
924.159;  132.531;  -11.570;  935.560
924.717;  128.751;  -13.840;  841.080
925.275;  129.044;  -10.640;  903.240
925.833;  129.557;  -11.540;  779.320
926.391;  130.076;  -12.960;  938.380
926.949;  127.288;  -14.130;  857.680
927.506;  128.222;  -11.750;  903.500
928.064;  128.911;  -10.250;  877.580
928.622;  127.535;  -13.030;  880.100
929.180;  126.824;  -13.400;  814.180
929.737;  128.678;  -10.700;  808.540
930.295;  132.180;  -10.070;  928.480
930.853;  133.898;  -11.960;  849.100
931.410;  133.894;  -13.120;  821.120
931.968;  133.993;  -10.770;  940.660
932.525;  133.841;  -10.680;  909.380
933.082;  133.205;  -13.130;  811.440
933.640;  133.732;  -13.210;  925.900
934.197;  132.298;  -11.060;  886.360
934.754;  133.952;   -9.580;  897.780
935.312;  135.547;  -14.000;  863.340
935.869;  140.025;  -10.710; 1012.980
936.426;  140.929;   -9.860;  872.800
936.983;  142.084;   -9.710;  889.020
937.540;  139.770;  -13.990;  838.280
938.097;  138.943;  -14.040;  940.120
938.654;  141.040;  -10.310;  898.860
939.211;  142.691;  -10.560;  952.480
939.768;  145.832;  -13.900;  915.420
940.324;  149.316;  -14.760;  904.200
940.881;  150.276;  -10.370;  878.500
941.438;  151.331;   -8.260; 1021.200
941.995;  146.566;  -12.540;  992.560
942.551;  142.688;  -14.670;  875.620
943.108;  143.811;  -10.450;  937.920
943.664;  146.125;  -10.750;  869.340
944.221;  149.580;  -11.550; 1088.140
944.777;  147.870;  -14.770;  869.680
945.334;  149.528;  -12.820;  884.840
945.890;  152.158;  -10.130;  946.480
946.446;  151.508;  -13.470;  947.020
947.003;  152.178;  -12.120;  964.940
947.559;  154.098;   -9.980; 1063.040
948.115;  153.614;   -9.080; 1026.540
948.671;  151.474;  -10.830;  967.300
949.227;  147.660;  -12.440;  859.560
949.783;  144.760;  -12.910;  858.900
950.339;  146.629;  -10.270;  991.000
950.895;  147.307;  -13.630; 1023.840
951.451;  145.736;  -15.100;  925.280
952.007;  148.674;  -11.330;  998.540
952.563;  150.275;  -10.580;  937.780
953.118;  149.304;  -13.440;  904.940
953.674;  148.138;  -12.710;  935.780
954.230;  148.261;  -10.350;  949.640
954.785;  146.791;   -9.190;  936.640
955.341;  144.669;  -11.200;  998.160
955.897;  141.104;  -16.560;  834.660
956.452;  143.167;  -12.570;  953.840
957.008;  141.668;   -7.970; 1083.640
957.563;  138.392;  -11.940; 1009.540
958.118;  134.751;  -13.450;  877.700
958.674;  136.033;  -12.030;  946.780
959.229;  137.579;   -9.410; 1013.980
959.784;  133.621;  -12.000;  832.400
960.339;  132.813;  -14.780; 1001.280
960.894;  129.147;   -9.860;  963.760
961.449;  125.703;   -9.970;  859.960
962.004;  125.217;  -10.900; 1212.840
962.559;  121.272;  -13.150;  860.140
963.114;  119.648;  -13.740;  742.480
963.669;  118.741;   -9.820;  915.500
964.224;  116.920;  -13.890;  874.340
964.779;  114.847;  -12.600;  828.420
965.334;  117.123;  -10.950; 1017.860
965.888;  116.201;  -11.170;  875.360
966.443;  118.505;  -12.540;  972.380
966.998;  116.612;  -15.780;  819.460
967.552;  116.960;   -9.760;  908.380
968.107;  112.794;   -9.060;  868.300
968.661;  113.885;  -11.950;  922.440
969.216;  114.100;  -12.800;  856.280
969.770;  115.199;  -11.210;  917.200
970.324;  114.551;  -11.610;  923.140
970.879;  110.874;  -11.370;  947.180
971.433;  106.686;  -12.540;  952.720
971.987;  103.847;  -11.320;  895.340
972.541;  100.815;  -10.720;  917.100
973.095;  100.079;   -9.680; 1009.460
973.649;   98.237;  -11.440;  809.480
974.203;   97.877;  -11.210;  829.040
974.757;   98.764;  -10.240;  855.220
975.311;   98.704;  -13.720;  872.600
975.865;   97.915;  -13.770;  881.820
976.419;   96.945;  -11.690;  857.400
976.973;   96.604;   -9.510;  849.620
977.526;   97.743;  -12.620;  949.920
978.080;   96.722;  -12.010;  796.780
978.634;   99.089;  -10.170;  921.320
979.187;   97.662;   -9.020;  905.400
979.741;   94.700;   -9.820; 1018.380
980.294;   89.220;  -14.870;  789.160
980.848;   86.924;  -12.380;  717.220
981.401;   89.855;  -10.350;  816.540
981.955;   91.244;  -13.720;  844.300
982.508;   89.475;  -11.490;  746.340
983.061;   90.925;  -10.000;  915.260
983.615;   87.746;  -11.480;  798.800
984.168;   83.517;  -13.220;  770.080
984.721;   82.448;  -13.960;  880.760
985.274;   81.922;  -10.870;  867.500
985.827;   81.765;   -9.790;  834.220
986.380;   79.333;  -13.120;  721.340
986.933;   77.964;  -12.450;  864.800
987.486;   76.914;  -10.210;  861.920
988.039;   76.347;   -8.430;  863.100
988.591;   73.702;  -10.520;  893.260
989.144;   71.099;  -14.860;  737.260
989.697;   70.435;  -13.080;  758.740
990.250;   71.926;  -10.150;  858.100
990.802;   70.234;  -13.430;  755.860
991.355;   71.518;  -12.750;  974.880
991.907;   69.456;  -12.040;  864.320
992.460;   67.394;  -11.330;  753.760
993.012;   65.905;  -13.610;  749.540
993.565;   64.384;  -13.460;  711.360
994.117;   66.533;   -9.360;  950.780
994.669;   63.208;  -11.300;  701.320
995.221;   60.901;  -13.540;  791.920
995.774;   58.471;  -13.430;  787.580
996.326;   57.677;  -12.520;  740.220
996.878;   58.024;  -10.950;  838.420
997.430;   54.865;  -14.300;  699.860
997.982;   54.201;  -13.760;  750.140
998.534;   53.852;  -11.530;  739.060
999.086;   53.411;  -10.310;  738.220
999.638;   51.362;  -12.530;  661.380
1000.190;   49.957;  -11.840;  699.320
1000.741;   50.463;  -10.260;  742.700
1001.293;   50.944;   -8.860;  686.020
1001.845;   49.467;  -13.700;  676.640
1002.396;   48.529;  -12.100;  743.400
1002.948;   48.560;  -12.760;  737.400
1003.500;   47.624;  -10.380;  723.780
1004.051;   47.126;  -11.900;  907.580
1004.603;   45.497;  -12.250;  791.820
1005.154;   42.302;  -13.210;  608.980
1005.705;   41.698;  -10.950;  723.960
1006.257;   40.708;  -13.880;  707.220
1006.808;   39.328;  -12.840;  685.460
1007.359;   39.954;  -10.570;  763.240
1007.910;   39.637;   -9.620;  646.640
1008.461;   38.640;  -13.630;  732.940
1009.013;   37.676;  -17.200;  588.340
1009.564;   38.189;  -10.200;  793.520
1010.115;   37.153;  -12.570;  597.040
1010.665;   36.819;  -15.150;  602.160
1011.216;   36.059;  -14.480;  667.920
1011.767;   36.276;  -11.340;  697.920
1012.318;   36.254;   -9.780;  736.980
1012.869;   35.151;  -12.380;  679.000
1013.419;   34.285;  -15.560;  603.120
1013.970;   34.657;  -11.010;  666.640
1014.521;   34.343;  -11.610;  620.620
1015.071;   34.311;  -13.450;  670.380
1015.622;   33.462;  -13.870;  635.460
1016.172;   32.866;  -11.610;  596.820
1016.723;   33.458;  -12.120;  614.380
1017.273;   33.265;  -13.620;  604.160
1017.823;   32.043;  -14.140;  650.340
1018.374;   32.430;  -12.800;  611.760
1018.924;   32.843;  -12.340;  716.880
1019.474;   32.791;  -11.410;  718.880
1020.024;   30.812;  -14.770;  657.580
1020.574;   32.115;   -9.780;  726.160
1021.124;   32.699;   -8.560;  673.580
1021.674;   30.863;  -15.190;  559.120
1022.224;   31.216;  -13.530;  708.940
1022.774;   31.634;  -13.280;  668.820
1023.324;   31.833;  -10.690;  753.520
1023.874;   33.106;  -10.240;  875.760
1024.423;   30.370;  -12.540;  613.700
1024.973;   30.391;  -10.010;  610.760
1025.523;   29.264;  -10.550;  620.960
1026.072;   28.816;  -13.560;  606.420
1026.622;   28.573;  -15.120;  675.740
1027.172;   30.077;  -11.260;  715.660
1027.721;   28.976;  -11.410;  601.220
1028.270;   28.356;  -13.530;  663.400
1028.820;   28.098;  -13.680;  638.080
1029.369;   28.046;  -13.520;  612.700
1029.918;   29.286;  -10.980;  649.840
1030.468;   27.759;  -13.530;  564.780
1031.017;   28.277;  -13.170;  634.800
1031.566;   27.061;  -12.200;  608.900
1032.115;   28.303;   -9.960;  694.500
1032.664;   26.681;  -13.210;  596.480
1033.213;   26.797;  -12.500;  735.420
1033.762;   27.374;  -11.910;  635.620
1034.311;   27.074;   -9.640;  677.220
1034.860;   27.066;  -13.310;  691.000
1035.408;   26.375;  -11.830;  722.720
1035.957;   27.431;  -12.000;  719.540
1036.506;   25.837;  -11.690;  530.800
1037.055;   27.557;  -10.990;  844.320
1037.603;   25.387;  -15.120;  664.000
1038.152;   24.247;  -12.450;  534.760
1038.700;   25.399;  -10.560;  585.740
1039.249;   24.500;  -11.080;  681.220
1039.797;   24.503;  -12.540;  633.360
1040.345;   24.718;  -11.920;  705.420
1040.894;   24.792;  -11.410;  625.300
1041.442;   24.409;  -14.320;  632.200
1041.990;   23.033;  -16.240;  559.160
1042.538;   23.422;  -11.680;  536.180
1043.087;   23.296;  -10.760;  570.860
1043.635;   24.774;  -11.850;  670.500
1044.183;   22.737;  -15.480;  586.400
1044.731;   22.063;  -11.770;  576.000
1045.279;   23.327;  -13.090;  674.920
1045.827;   24.660;  -12.440;  892.400
1046.374;   21.928;  -13.840;  515.420
1046.922;   21.164;  -13.220;  590.580
1047.470;   23.776;  -10.230;  691.300
1048.018;   22.654;  -14.590;  647.960
1048.565;   22.930;  -12.050;  708.600
1049.113;   20.969;  -11.650;  557.000
1049.660;   22.115;  -10.510;  629.660
1050.208;   22.299;  -13.310;  675.640
1050.755;   20.961;  -15.900;  606.580
1051.303;   21.588;  -11.430;  686.820
1051.850;   21.061;   -8.480;  635.120
1052.397;   19.824;  -15.010;  473.960
1052.945;   19.341;  -13.960;  617.760
1053.492;   21.797;  -13.150;  741.840
1054.039;   22.276;   -9.630;  720.180
1054.586;   19.765;  -13.680;  557.240
1055.133;   20.436;  -14.570;  693.140
1055.680;   20.344;  -13.820;  646.620
1056.227;   20.324;  -11.730;  542.780
1056.774;   21.794;  -12.480;  794.980
1057.321;   17.924;  -13.930;  523.260
1057.868;   19.588;  -11.690;  651.320
1058.415;   20.176;   -9.520;  651.980
1058.961;   20.444;  -13.160;  678.940
1059.508;   18.907;  -12.920;  643.820
1060.055;   18.821;  -11.920;  581.780
1060.601;   19.565;  -11.500;  624.300
1061.148;   18.758;  -14.330;  616.820
1061.694;   18.360;  -16.870;  592.580
1062.241;   19.008;  -10.330;  596.320
1062.787;   19.457;  -10.620;  663.140
1063.334;   19.832;  -10.110;  808.560
1063.880;   18.165;  -13.400;  668.360
1064.426;   18.486;  -10.680;  706.820
1064.972;   17.072;   -9.920;  601.340
1065.518;   16.085;  -10.980;  566.640
1066.065;   17.857;  -14.890;  624.460
1066.611;   17.111;  -12.870;  598.800
1067.157;   18.268;  -12.950;  641.860
1067.703;   17.697;  -13.540;  668.480
1068.249;   17.336;  -13.540;  605.220
1068.794;   17.045;  -12.600;  626.880
1069.340;   16.989;  -10.620;  578.960
1069.886;   16.809;  -12.830;  590.700
1070.432;   16.035;  -14.870;  541.720
1070.977;   15.753;  -11.980;  601.080
1071.523;   16.342;   -8.200;  573.060
1072.068;   16.710;  -12.330;  582.000
1072.614;   15.492;  -16.370;  527.760
1073.160;   16.316;  -11.100;  687.040
1073.705;   15.476;  -10.480;  572.520
1074.250;   14.964;  -14.520;  559.900
1074.796;   15.718;  -11.460;  655.160
1075.341;   16.243;  -11.950;  664.100
1075.886;   15.898;  -11.460;  594.240
1076.431;   15.150;  -13.770;  649.880
1076.976;   14.631;  -12.680;  639.220
1077.521;   14.679;  -13.170;  583.080
1078.067;   14.430;  -10.860;  579.400
1078.612;   15.972;  -13.920;  661.620
1079.156;   14.278;  -13.880;  601.540
1079.701;   15.039;  -13.120;  693.260
1080.246;   15.580;   -9.940;  696.300
1080.791;   14.872;  -14.740;  625.020
1081.336;   14.043;  -13.750;  659.320
1081.880;   14.268;  -13.400;  649.680
1082.425;   13.409;  -12.220;  573.480
1082.970;   15.941;  -11.610;  717.040
1083.514;   13.098;  -13.580;  597.000
1084.059;   12.442;  -12.810;  586.720
1084.603;   13.822;  -12.320;  565.840
1085.147;   13.269;  -13.190;  645.220
1085.692;   13.981;  -12.480;  716.800
1086.236;   12.591;  -13.020;  503.140
1086.780;   14.933;   -9.190;  751.440
1087.325;   13.756;  -12.480;  654.620
1087.869;   12.557;  -12.450;  610.700
1088.413;   13.527;  -12.240;  705.040
1088.957;   12.073;   -9.020;  543.400
1089.501;   13.964;  -10.320;  766.640
1090.045;   12.759;  -12.720;  726.480
1090.589;   11.056;  -13.690;  569.920
1091.133;   13.070;  -10.020;  673.340
1091.676;   12.550;  -12.330;  591.940
1092.220;   10.819;  -14.970;  600.920
1092.764;   12.375;  -12.430;  706.960
1093.307;   12.513;   -9.800;  673.780
1093.851;   10.107;  -14.970;  556.540
1094.395;   11.302;  -15.310;  683.140
1094.938;   11.119;  -10.370;  632.520
1095.482;   11.481;  -11.050;  559.800
1096.025;   12.754;  -11.840;  710.880
1096.568;   11.616;  -12.840;  779.280
1097.112;    9.484;  -14.700;  508.180
1097.655;   11.592;   -8.720;  603.000
1098.198;    9.364;  -13.610;  600.180
1098.741;    9.533;  -13.350;  612.860
1099.285;   11.048;  -11.230;  657.300
1099.828;    9.525;  -11.840;  439.400
1100.371;   10.049;  -10.840;  608.160
1100.914;    9.318;  -14.190;  682.660
1101.457;   10.090;  -11.240;  679.900
1101.999;    9.319;  -11.270;  584.680
1102.542;    9.932;  -11.480;  641.440
1103.085;    9.185;  -11.750;  658.500
1103.628;    9.958;  -11.400;  762.060
1104.170;    9.972;  -10.490;  588.280
1104.713;    9.656;  -10.600;  646.700
1105.256;    8.664;  -14.360;  557.440
1105.798;    7.413;  -13.210;  499.980
1106.341;   10.370;  -10.270;  728.900
1106.883;    9.047;  -12.200;  521.340
1107.425;    8.129;  -13.110;  668.180
1107.968;    8.861;  -12.840;  612.380
1108.510;    9.314;   -6.480;  684.960
1109.052;    7.274;  -13.940;  612.620
1109.594;    6.967;  -13.690;  554.440
1110.136;    8.381;  -11.880;  643.220
1110.679;    8.388;   -9.500;  633.080
1111.221;    8.637;  -14.160;  604.460
1111.763;    6.916;  -13.980;  559.220
1112.304;    7.413;  -13.880;  547.140
1112.846;    8.481;  -12.210;  666.240
1113.388;   10.768;  -11.390;  942.180
1113.930;    7.373;  -14.540;  694.200
1114.472;    6.795;  -12.640;  606.540
1115.013;    6.620;  -11.620;  551.280
1115.555;    6.458;  -13.640;  587.100
1116.097;    5.641;  -15.380;  579.480
1116.638;    7.602;  -12.640;  684.600
1117.180;    7.121;   -9.850;  667.740
1117.721;    6.366;  -13.690;  568.580
1118.262;    6.879;  -12.680;  677.960
1118.804;    7.296;  -12.530;  637.340
1119.345;    6.185;  -11.690;  578.400
1119.886;    7.194;  -13.380;  704.040
1120.427;    4.768;  -14.070;  589.020
1120.969;    5.250;  -13.500;  597.920
1121.510;    5.737;  -11.480;  563.060
1122.051;    7.208;  -12.830;  723.580
1122.592;    5.273;  -14.290;  655.420
1123.133;    4.333;  -12.400;  547.940
1123.673;    7.246;  -10.130;  706.480
1124.214;    6.098;  -12.930;  612.460
1124.755;    5.525;  -14.380;  639.460
1125.296;    5.649;  -14.000;  627.320
1125.836;    6.453;  -10.070;  691.500
1126.377;    4.965;  -12.640;  599.660
1126.918;    5.587;  -12.960;  614.980
1127.458;    4.332;  -13.350;  622.220
1127.999;    6.047;  -10.750;  656.980
1128.539;    5.143;  -12.350;  694.240
1129.079;    4.288;  -14.860;  632.720
1129.620;    3.802;  -13.840;  558.100
1130.160;    4.520;  -12.330;  539.480
1130.700;    5.328;  -14.530;  640.840
1131.240;    5.360;  -12.530;  643.700
1131.781;    3.720;  -14.450;  619.680
1132.321;    4.455;   -9.790;  599.120
1132.861;    3.810;  -14.860;  564.200
1133.401;    3.126;  -14.290;  593.940
1133.941;    3.827;  -11.750;  626.280
1134.481;    3.750;   -9.920;  597.580
1135.020;    4.067;  -12.290;  609.160
1135.560;    3.623;  -11.650;  674.940
1136.100;    2.708;  -16.270;  501.160
1136.640;    4.097;  -10.890;  510.480
1137.179;    3.088;  -14.180;  537.960
1137.719;    3.092;  -16.250;  605.400
1138.258;    3.485;  -14.230;  587.360
1138.798;    3.967;   -9.090;  663.780
1139.337;    2.438;  -15.130;  482.840
1139.877;    2.881;  -13.680;  642.360
1140.416;    4.459;  -11.320;  878.060
1140.955;    2.827;  -10.860;  535.380
1141.494;    3.092;  -12.920;  669.280
1142.034;    2.500;  -13.930;  583.520
1142.573;    3.385;  -11.440;  646.280
1143.112;    2.707;  -12.000;  553.480
1143.651;    2.981;  -13.670;  536.480
1144.190;    2.288;  -12.730;  691.640
1144.729;    2.193;  -14.560;  607.420
1145.267;    2.621;  -11.830;  584.900
1145.806;    3.479;  -12.230;  637.040
1146.345;    0.523;  -14.130;  635.020
1146.884;    2.334;  -11.590;  622.500
1147.422;    1.513;  -12.550;  533.060
1147.961;    3.185;  -11.180;  708.460
1148.500;    2.129;  -11.510;  669.720
1149.038;    2.640;  -11.640;  632.500
1149.577;    2.909;  -10.130;  698.640
1150.115;    0.517;  -13.970;  452.280
1150.653;    1.494;  -14.520;  607.340
1151.192;    1.411;  -12.810;  552.920
1151.730;    1.963;   -9.100;  652.560
1152.268;    1.477;  -12.220;  589.520
1152.806;    0.658;  -14.140;  571.180
1153.344;   -0.716;  -12.350;  577.640
1153.882;    1.664;   -8.980;  600.060
1154.421;    0.083;  -15.190;  470.620
1154.958;    0.066;  -15.210;  595.240
1155.496;    1.808;  -12.850;  645.280
1156.034;    1.220;   -9.940;  721.880
1156.572;    2.497;  -13.570;  667.060
1157.110;   -0.769;  -14.590;  473.940
1157.647;    1.334;  -13.030;  676.960
1158.185;   -0.061;  -12.140;  564.320
1158.723;   -0.146;  -14.390;  509.200
1159.260;    0.947;  -14.090;  701.700
1159.798;    0.923;  -11.920;  658.160
1160.335;    0.548;  -11.110;  631.820

