
Integration time [ms]:   3.276
Averaging Nr. [scans]: 1000
Smoothing Nr. [pixels]: 0
Data measured with spectrometer [name]: 7414430SP
Wave   ;Sample   ;Dark     ;Reference
[nm]   ;[counts] ;[counts] ;[counts] 

288.544;  150.334;    7.793;  793.890
289.143;  154.686;    7.462;  681.602
289.742;  154.367;    8.602;  828.814
290.341;  140.101;    1.321;  789.841
290.940;  129.324;   -0.709;  730.702
291.538;  129.939;    0.881;  881.108
292.137;  129.501;    0.122;  792.581
292.736;  134.285;   -1.929;  975.101
293.335;  131.464;   -8.229;  735.086
293.934;  131.909;   -5.279;  781.677
294.532;  129.291;   -1.369; 1031.958
295.131;  114.564;   -7.641;  834.394
295.730;  115.627;   -8.420;  809.588
296.328;  114.652;   -5.611;  783.442
296.927;  114.934;   -5.781;  779.652
297.525;  116.094;   -6.361;  781.236
298.124;  106.852;  -11.382;  654.009
298.722;  110.727;   -7.641;  761.933
299.321;  108.168;   -6.811;  708.597
299.919;  106.435;   -6.991;  751.918
300.518;  103.360;  -10.362;  689.338
301.116;  105.390;   -9.581;  691.381
301.715;  105.634;   -4.891;  730.222
302.313;  103.865;   -8.801;  704.943
302.911;   99.807;   -8.522;  733.830
303.509;  104.953;   -6.171;  925.627
304.108;  102.897;   -7.311;  760.383
304.706;  101.329;   -8.321;  801.664
305.304;   96.245;  -10.222;  796.707
305.902;  101.510;   -6.021;  784.484
306.500;   96.757;   -4.971;  728.200
307.098;   95.612;   -7.061;  746.560
307.696;   93.384;   -8.801;  780.432
308.294;   94.150;   -6.411;  731.359
308.892;   96.595;   -2.901;  759.769
309.490;   91.696;   -5.041;  712.161
310.088;   90.628;   -5.002;  788.444
310.686;   94.988;   -2.041;  821.749
311.284;   90.987;   -2.351;  766.040
311.882;   88.789;   -4.422;  731.225
312.480;   85.049;   -4.192;  697.167
313.078;   87.222;   -1.172;  808.331
313.675;   87.572;   -2.601;  691.600
314.273;   82.531;   -1.312;  797.837
314.871;   82.873;   -3.942;  589.829
315.468;   79.585;   -2.802;  652.090
316.066;   82.748;   -0.701;  694.427
316.664;   75.297;   -4.362;  656.351
317.261;   79.442;   -2.872;  910.128
317.859;   74.836;   -2.022;  768.735
318.456;   75.345;   -0.531;  830.096
319.054;   71.265;   -3.912;  787.828
319.651;   70.242;   -4.752;  759.928
320.249;   69.282;   -2.602;  810.188
320.846;   67.328;   -0.821;  714.286
321.443;   64.049;   -4.642;  832.135
322.041;   61.981;   -5.002;  812.315
322.638;   59.132;   -3.982;  701.456
323.235;   60.918;   -3.411;  665.683
323.833;   57.274;   -7.361;  740.354
324.430;   53.778;   -8.611;  615.900
325.027;   54.451;   -4.061;  876.855
325.624;   53.974;   -4.031;  644.532
326.221;   50.888;   -7.481;  689.717
326.818;   49.974;   -5.281;  818.332
327.415;   53.653;   -7.460;  748.828
328.012;   52.582;   -5.510;  690.585
328.609;   51.506;   -7.880;  731.389
329.206;   49.800;   -8.331;  778.621
329.803;   50.130;   -5.121;  737.841
330.400;   51.930;   -4.510;  704.260
330.997;   53.221;   -6.441;  817.147
331.594;   51.589;   -8.831;  788.185
332.191;   57.903;   -7.621;  728.722
332.787;   59.577;   -4.591;  844.463
333.384;   58.467;   -7.412;  763.093
333.981;   57.004;   -8.293;  815.687
334.578;   60.736;   -7.052;  708.378
335.174;   63.537;   -3.102;  731.469
335.771;   62.784;   -5.943;  836.456
336.367;   60.166;   -7.393;  710.631
336.964;   63.659;   -4.063;  793.266
337.561;   61.990;   -3.813;  731.112
338.157;   57.386;   -4.654;  911.916
338.754;   54.571;   -7.934;  796.589
339.350;   52.926;   -4.414;  722.493
339.946;   54.163;   -4.664;  773.135
340.543;   46.877;   -6.375;  846.136
341.139;   41.812;   -9.815;  720.836
341.735;   39.300;   -4.526;  772.593
342.332;   37.451;   -4.895;  691.472
342.928;   38.421;   -4.295;  795.394
343.524;   32.629;   -5.476;  761.684
344.120;   28.558;   -5.856;  738.562
344.716;   32.659;   -2.155;  723.717
345.313;   29.509;   -6.275;  795.342
345.909;   24.677;   -8.815;  627.336
346.505;   26.767;   -5.305;  740.247
347.101;   27.172;   -2.674;  827.864
347.697;   26.861;   -4.344;  785.398
348.293;   22.119;   -9.975;  627.244
348.889;   22.893;   -5.774;  745.914
349.485;   22.107;   -5.004;  688.205
350.081;   22.850;   -4.704;  772.592
350.676;   17.688;   -6.635;  691.606
351.272;   22.386;   -4.504;  809.530
351.868;   21.325;   -3.914;  780.497
352.464;   18.787;   -9.044;  723.932
353.059;   15.775;   -8.314;  646.017
353.655;   18.819;   -7.024;  777.063
354.251;   20.343;   -5.343;  759.845
354.846;   13.518;   -8.604;  740.646
355.442;   11.880;   -6.945;  753.071
356.038;   14.205;   -7.564;  751.708
356.633;   14.271;   -5.814;  728.594
357.229;   12.066;   -7.364;  724.757
357.824;   10.860;   -8.024;  703.600
358.420;    9.573;   -9.384;  679.726
359.015;    9.148;   -5.104;  695.357
359.610;   11.565;   -6.854;  763.920
360.206;    4.430;  -10.185;  603.240
360.801;    8.144;   -7.054;  646.503
361.396;   10.086;   -5.034;  725.975
361.992;    4.501;   -8.284;  668.220
362.587;    2.418;   -8.625;  670.160
363.182;    4.977;   -7.674;  689.631
363.777;    5.075;   -5.164;  738.242
364.372;    5.639;   -8.604;  737.314
364.967;    1.853;   -9.055;  680.744
365.563;    5.567;   -6.114;  815.567
366.158;    2.764;   -5.814;  685.161
366.753;    2.373;   -7.854;  649.263
367.348;    1.627;   -7.804;  746.056
367.942;    1.635;   -7.954;  697.298
368.537;    0.850;   -4.984;  754.245
369.132;    0.330;   -8.564;  703.428
369.727;   -3.464;   -8.855;  638.079
370.322;   -1.569;   -6.245;  580.186
370.917;   -1.680;   -6.425;  710.646
371.511;   -0.240;   -6.294;  861.834
372.106;   -2.975;   -7.685;  776.964
372.701;   -6.106;   -7.335;  585.988
373.296;   -0.853;   -4.564;  863.135
373.890;   -5.604;  -10.235;  647.840
374.485;   -7.637;   -7.885;  691.199
375.079;   -3.585;   -7.324;  738.685
375.674;   -1.841;   -3.494;  812.970
376.268;   -6.860;   -8.525;  691.759
376.863;  -12.955;  -10.086;  580.327
377.457;   -6.649;   -7.025;  662.490
378.052;   -8.369;   -3.585;  764.884
378.646;   -8.867;   -7.595;  741.167
379.240;   -8.327;   -8.335;  721.176
379.835;   -7.794;   -5.785;  636.978
380.429;  -10.353;   -4.335;  562.557
381.023;  -10.185;   -6.805;  779.205
381.617;  -12.809;   -9.195;  680.106
382.212;   -9.424;   -6.905;  685.303
382.806;   -8.251;   -3.745;  760.690
383.400;  -12.967;   -7.745;  672.281
383.994;  -13.214;   -9.765;  664.870
384.588;   -9.129;   -6.564;  697.701
385.182;   -8.457;   -5.344;  726.624
385.776;   -9.740;   -8.514;  706.875
386.370;  -13.424;   -9.555;  681.968
386.964;  -12.453;   -8.715;  684.155
387.558;  -10.105;   -6.174;  598.360
388.152;  -13.848;   -8.725;  681.959
388.745;  -12.235;   -7.965;  814.707
389.339;   -9.970;   -5.924;  747.642
389.933;   -9.207;   -5.524;  695.370
390.527;  -10.912;   -7.114;  859.029
391.120;  -16.516;  -10.725;  595.318
391.714;  -14.219;   -8.035;  711.633
392.308;  -11.017;   -3.574;  780.253
392.901;  -14.547;   -7.245;  642.460
393.495;  -15.584;   -9.285;  595.414
394.089;  -12.997;   -5.895;  760.452
394.682;  -14.479;   -4.295;  697.188
395.275;  -15.549;   -9.875;  719.927
395.869;  -16.014;   -8.485;  667.314
396.462;  -14.901;   -7.455;  616.609
397.056;  -10.652;   -5.424;  776.621
397.649;  -15.805;   -6.605;  731.575
398.242;  -12.898;   -8.224;  712.645
398.836;  -12.580;   -7.474;  766.408
399.429;  -13.290;   -7.094;  631.041
400.022;  -17.148;   -9.475;  665.902
400.615;  -14.158;   -7.145;  805.609
401.208;  -12.097;   -7.174;  691.451
401.802;  -14.635;   -5.515;  699.329
402.395;  -15.619;   -9.875;  683.502
402.988;  -17.151;   -8.845;  696.627
403.581;  -13.440;   -8.874;  646.878
404.174;  -11.214;   -5.324;  686.568
404.767;  -14.068;   -9.575;  638.583
405.360;  -16.311;  -10.965;  621.445
405.953;  -11.416;   -8.764;  759.034
406.545;  -11.408;   -7.514;  725.342
407.138;  -14.757;  -10.025;  618.350
407.731;  -14.088;  -10.034;  613.303
408.324;   -9.346;   -9.374;  660.554
408.917;  -10.464;   -6.534;  681.864
409.509;  -13.281;   -8.004;  740.396
410.102;  -14.518;   -9.875;  643.948
410.695;   -8.470;   -8.604;  665.758
411.287;   -9.458;   -6.794;  599.821
411.880;  -11.051;   -9.334;  585.421
412.472;  -14.225;  -10.254;  613.092
413.065;  -11.087;   -6.714;  629.408
413.657;   -8.898;   -7.234;  576.678
414.250;   -9.650;  -10.544;  646.681
414.842;  -11.189;   -9.744;  676.353
415.434;   -7.783;   -6.994;  570.463
416.027;   -3.528;   -5.893;  652.196
416.619;   -6.199;   -7.264;  713.400
417.211;   -6.349;  -10.374;  599.352
417.804;   -2.986;   -7.993;  628.499
418.396;   -7.135;   -7.234;  607.643
418.988;   -5.393;   -9.443;  659.238
419.580;   -8.900;  -10.724;  568.276
420.172;   -6.500;  -10.323;  536.196
420.764;   -2.067;   -8.793;  672.482
421.356;   -3.669;  -11.143;  636.898
421.948;   -3.556;   -8.293;  677.661
422.540;    1.149;   -7.893;  680.027
423.132;   -0.378;   -7.082;  600.641
423.724;   -1.965;   -8.653;  561.267
424.316;   -0.913;  -10.213;  621.345
424.908;    2.889;   -9.762;  591.517
425.500;    3.056;   -5.572;  647.978
426.092;    4.130;   -8.422;  648.268
426.683;    2.295;   -9.283;  684.836
427.275;    5.322;   -7.852;  641.471
427.867;    6.248;   -5.272;  668.948
428.458;    7.342;   -7.682;  732.344
429.050;    5.878;  -10.612;  680.749
429.642;    7.645;   -9.882;  743.124
430.233;    8.393;   -6.962;  569.356
430.825;    9.546;   -6.842;  724.809
431.416;    7.137;   -9.672;  698.241
432.008;   10.812;   -6.552;  651.723
432.599;   11.512;   -6.891;  656.073
433.190;    7.968;  -10.912;  637.670
433.782;    7.645;  -11.172;  590.395
434.373;   15.378;   -6.061;  884.765
434.964;   14.292;   -8.251;  602.920
435.556;   10.770;   -9.722;  634.537
436.147;   14.501;   -9.082;  758.490
436.738;   14.583;   -8.041;  701.099
437.329;   19.791;   -7.341;  721.723
437.920;   12.380;   -8.162;  666.688
438.511;   12.212;  -11.802;  564.526
439.103;   19.220;  -10.191;  623.998
439.694;   20.355;   -7.601;  681.583
440.285;   21.973;   -8.541;  764.432
440.876;   19.148;   -9.751;  845.738
441.466;   19.589;   -9.401;  575.162
442.057;   24.598;   -7.760;  665.814
442.648;   23.338;   -9.971;  746.255
443.239;   21.607;  -11.001;  620.477
443.830;   26.321;   -7.990;  704.958
444.421;   28.394;   -7.910;  655.474
445.011;   24.649;   -8.131;  693.619
445.602;   24.553;   -7.111;  743.126
446.193;   26.559;  -10.920;  488.117
446.783;   30.710;   -6.500;  640.397
447.374;   26.233;   -8.671;  692.759
447.964;   26.155;  -10.781;  713.770
448.555;   35.461;   -9.650;  822.742
449.145;   31.669;   -8.660;  662.853
449.736;   32.388;   -8.990;  803.179
450.326;   31.923;   -9.500;  713.626
450.917;   37.736;   -8.680;  675.324
451.507;   36.250;   -7.520;  600.661
452.097;   37.484;   -8.590;  746.267
452.688;   38.149;  -11.340;  742.160
453.278;   38.028;  -10.100;  566.840
453.868;   42.221;   -6.019;  793.550
454.458;   40.416;   -9.440;  651.141
455.048;   40.045;  -10.560;  711.783
455.639;   41.941;  -11.799;  567.096
456.229;   44.747;   -6.899;  710.694
456.819;   47.109;   -7.389;  751.158
457.409;   47.616;  -11.119;  773.993
457.999;   50.127;   -9.289;  737.505
458.589;   50.513;   -6.139;  686.606
459.179;   49.914;   -8.729;  717.658
459.769;   47.960;   -9.789;  627.099
460.358;   52.775;  -10.259;  797.262
460.948;   52.813;   -7.299;  689.503
461.538;   55.168;  -10.289;  660.677
462.128;   52.761;  -11.269;  664.934
462.717;   59.028;   -9.368;  710.326
463.307;   61.979;   -7.908;  705.846
463.897;   57.599;   -9.599;  656.942
464.486;   57.458;   -9.769;  837.128
465.076;   62.120;   -8.048;  733.776
465.666;   65.360;   -9.358;  652.900
466.255;   63.222;   -7.919;  785.651
466.845;   62.046;  -11.689;  666.749
467.434;   64.362;   -7.818;  725.873
468.023;   66.333;   -7.678;  658.357
468.613;   64.092;  -10.939;  713.946
469.202;   68.829;  -10.118;  646.507
469.791;   72.190;   -9.108;  737.811
470.381;   74.181;   -6.058;  742.813
470.970;   73.505;  -10.428;  711.099
471.559;   73.356;  -10.268;  733.291
472.148;   76.343;   -8.448;  675.737
472.738;   78.635;   -6.917;  765.466
473.327;   78.251;  -11.978;  637.529
473.916;   78.495;  -11.888;  737.446
474.505;   82.364;   -9.437;  751.703
475.094;   84.988;   -6.747;  806.570
475.683;   84.439;   -9.367;  797.699
476.272;   85.906;  -12.637;  730.632
476.861;   89.102;  -10.027;  706.754
477.449;   94.654;   -8.716;  728.487
478.038;   89.817;   -9.577;  692.513
478.627;   90.739;   -9.718;  714.852
479.216;   97.007;   -8.947;  769.441
479.805;  100.046;   -6.256;  783.375
480.393;  100.115;   -7.937; 1008.945
480.982;   99.013;   -7.717;  874.501
481.571;  105.122;   -9.266;  858.333
482.159;  104.960;   -7.636;  705.386
482.748;  105.263;   -9.667;  821.385
483.336;  109.230;  -10.376;  858.209
483.925;  111.647;   -7.147;  774.373
484.513;  117.480;   -7.996;  758.962
485.102;  113.656;  -10.027;  810.965
485.690;  122.394;  -10.446; 1011.050
486.278;  124.718;   -8.446;  979.329
486.867;  124.713;   -6.356;  809.662
487.455;  126.617;   -9.136;  898.229
488.043;  127.878;  -10.646;  748.361
488.631;  136.729;   -7.456; 1005.079
489.220;  140.592;   -6.636;  908.626
489.808;  140.889;  -11.036;  741.415
490.396;  148.651;  -10.246;  914.645
490.984;  154.807;   -8.556;  830.161
491.572;  163.552;   -5.886;  940.315
492.160;  169.096;   -9.486;  919.081
492.748;  180.668;  -10.976;  884.341
493.336;  203.159;   -8.776; 1019.693
493.924;  228.805;   -5.465;  958.077
494.512;  256.195;   -9.986; 1066.638
495.100;  292.260;  -10.636; 1103.280
495.687;  348.335;  -10.885; 1206.373
496.275;  410.092;   -8.126; 1150.796
496.863;  475.932;  -10.586; 1281.171
497.451;  572.980;  -11.926; 1386.805
498.038;  706.097;  -10.885; 1556.729
498.626;  808.578;   -6.315; 1741.407
499.214;  950.348;   -7.326; 2016.609
499.801; 1151.211;  -11.906; 2220.633
500.389; 1379.293;  -10.466; 2312.494
500.976; 1684.162;   -5.236; 2744.849
501.564; 2092.488;   -8.936; 3148.565
502.151; 2455.925;  -13.176; 3515.999
502.738; 2876.182;  -10.646; 3971.274
503.326; 3242.742;   -9.525; 4403.796
503.913; 3639.086;  -10.856; 5161.749
504.500; 4011.904;  -11.586; 5986.420
505.088; 4362.926;  -10.336; 6381.201
505.675; 4876.343;   -6.355; 6925.547
506.262; 5548.935;   -9.046; 7619.060
506.849; 6265.148;  -10.416; 8733.969
507.436; 6819.979;  -10.305; 9790.121
508.023; 7380.565;   -5.496; 9985.472
508.610; 7558.266;   -7.856;10434.618
509.197; 8118.123;  -10.097;11198.435
509.784; 9416.704;  -10.886;12391.194
510.371;10516.183;   -9.315;13603.713
510.958;11191.750;   -9.936;14426.586
511.545;11882.211;   -9.326;15243.775
512.132;12778.994;  -10.075;15945.876
512.719;13480.244;   -7.796;16340.369
513.305;14641.451;  -10.606;18011.766
513.892;15366.752;  -11.486;19754.971
514.479;16447.393;   -9.126;20967.805
515.066;17587.471;   -6.026;22299.793
515.652;19015.424;   -8.466;22908.660
516.239;20466.158;  -10.886;23798.875
516.825;21489.783;  -11.496;25567.275
517.412;22716.732;   -5.796;28154.959
517.998;23404.797;  -10.506;28344.111
518.585;23152.408;  -10.076;27134.219
519.171;23576.498;   -8.315;27268.576
519.758;25609.055;   -8.596;28964.129
520.344;27448.756;   -8.466;30664.494
520.930;27044.301;  -11.006;32550.605
521.516;28574.568;  -10.495;35422.895
522.103;30532.035;   -5.526;38280.004
522.689;31310.660;   -8.746;37835.117
523.275;30383.576;  -11.376;37288.613
523.861;31345.432;  -11.156;37281.395
524.447;33146.434;   -8.135;37846.949
525.033;33102.988;   -7.896;38321.949
525.619;33306.613;  -12.476;38579.285
526.205;34716.898;   -9.516;40622.875
526.791;37479.992;   -6.926;42258.836
527.377;37298.945;   -8.346;42966.902
527.963;38441.984;   -8.717;42018.949
528.549;37604.809;  -11.016;42476.828
529.135;36477.273;   -8.536;41854.852
529.721;35692.211;   -9.666;41237.711
530.306;35434.520;  -10.066;41259.445
530.892;35281.625;  -11.356;41506.047
531.478;36038.223;   -6.596;43559.613
532.063;39017.957;   -8.836;47695.563
532.649;39658.578;  -10.047;50808.324
533.235;40580.320;   -9.746;51787.500
533.820;41616.652;   -6.566;52145.035
534.406;42692.523;  -10.817;51133.488
534.991;42559.672;   -9.416;49996.805
535.576;41053.273;   -9.036;48882.852
536.162;41568.984;   -6.156;46942.285
536.747;42944.164;  -11.607;45711.746
537.333;46007.188;  -11.787;48510.180
537.918;48185.336;  -12.437;50439.891
538.503;47322.340;   -7.196;50863.711
539.088;44903.234;  -10.556;50906.922
539.673;45534.344;   -8.767;52621.965
540.259;45694.457;  -10.026;52368.094
540.844;42783.363;   -7.416;50879.109
541.429;44106.160;   -9.467;52077.777
542.014;46411.527;   -9.527;52716.695
542.599;45695.203;   -9.946;52363.281
543.184;42697.574;   -7.927;53187.137
543.769;44146.500;   -9.297;54697.605
544.354;44344.586;  -10.127;53913.914
544.938;42843.754;   -9.267;49680.164
545.523;44333.055;   -6.506;47386.277
546.108;46543.328;   -9.787;49151.949
546.693;48656.555;  -11.587;51384.637
547.278;49208.918;  -10.986;51853.254
547.862;45950.988;   -8.206;51173.750
548.447;41389.000;  -10.067;51691.395
549.031;40820.289;   -9.637;52456.703
549.616;45572.625;   -9.926;52714.516
550.201;44914.891;   -6.347;52414.598
550.785;46059.875;   -7.917;52355.059
551.370;45551.340;  -10.867;54589.453
551.954;45789.824;   -9.047;58267.348
552.538;46512.141;   -7.827;59062.176
553.123;44857.688;  -10.287;58115.285
553.707;43131.223;  -12.178;56556.285
554.291;44505.578;   -8.717;56201.668
554.876;46985.500;   -7.457;55335.762
555.460;47133.246;  -10.387;54155.703
556.044;47424.695;   -9.618;53721.484
556.628;45239.293;  -11.567;53731.016
557.212;44134.742;   -8.097;54312.531
557.796;43137.891;  -11.077;53797.773
558.380;42960.172;  -11.108;56145.984
558.964;43071.625;   -9.057;57277.930
559.548;43490.965;   -6.977;56459.641
560.132;41859.000;  -11.457;54434.543
560.716;41095.676;  -11.378;54800.617
561.300;42692.703;   -9.577;57606.945
561.884;43538.125;   -7.127;58972.445
562.467;41703.809;   -7.118;57327.570
563.051;40551.781;  -13.358;54962.434
563.635;41529.082;  -10.178;52594.473
564.219;42688.047;   -7.837;50610.410
564.802;43463.434;  -11.398;49551.180
565.386;43130.055;  -12.788;48370.953
565.969;42683.109;   -9.077;48178.871
566.553;42034.504;   -6.207;49957.305
567.136;42529.254;   -8.568;50369.594
567.720;38873.754;  -11.868;49492.004
568.303;36933.574;   -8.268;50616.352
568.887;36931.344;   -8.698;50727.148
569.470;37528.391;   -6.808;51698.379
570.053;36655.941;  -13.188;52122.078
570.637;34272.148;  -12.037;52536.438
571.220;33704.152;   -8.577;51186.098
571.803;34386.699;   -8.498;51032.762
572.386;37055.145;  -10.498;49609.887
572.969;39546.340;   -9.388;48285.926
573.552;37607.461;   -8.338;47624.285
574.135;36231.801;   -8.518;45498.641
574.718;33685.016;  -13.628;41970.434
575.301;32688.523;  -10.893;41447.137
575.884;31692.031;   -8.158;40923.836
576.467;32927.281;  -10.328;45267.723
577.050;34937.680;  -13.058;48175.543
577.633;35945.477;   -9.458;47729.328
578.216;34825.121;   -8.928;47579.793
578.799;33851.262;   -9.358;47820.996
579.381;32395.387;  -11.388;48115.551
579.964;30612.953;  -11.718;47333.766
580.547;32316.416;   -8.588;46668.969
581.129;33282.879;   -8.859;44466.141
581.712;34114.895;  -10.729;44164.922
582.294;34765.297;  -11.118;46477.855
582.877;35100.938;   -5.218;48244.254
583.459;33200.230;   -8.679;47437.895
584.042;30965.543;  -10.709;46943.219
584.624;31111.775;  -11.669;46792.227
585.206;30720.551;   -8.218;46557.250
585.789;30992.182;  -10.569;45793.773
586.371;32306.758;  -11.859;43836.391
586.953;30797.473;  -10.719;42972.492
587.536;29087.313;   -7.198;42487.211
588.118;28105.227;   -8.720;42086.414
588.700;27457.871;  -10.439;43389.930
589.282;29713.086;   -9.198;43646.039
589.864;32532.758;   -9.199;43438.109
590.446;34230.617;  -11.319;43151.926
591.028;33758.914;  -11.159;42781.867
591.610;32645.689;  -11.779;42839.098
592.192;30519.400;   -7.668;42820.402
592.774;29389.920;  -11.949;40724.277
593.356;28421.740;  -12.129;39874.789
593.937;27599.641;  -10.669;39980.648
594.519;30121.590;   -6.509;42069.633
595.101;32038.236;  -10.849;42976.031
595.683;31915.203;  -11.679;44084.441
596.264;32738.082;   -9.049;43478.797
596.846;32001.963;   -8.849;43803.672
597.427;31551.180;   -9.570;42986.934
598.009;32727.928;  -12.620;42832.219
598.591;33042.547;  -10.039;42580.086
599.172;32497.270;  -10.369;43061.805
599.753;32637.680;   -9.140;41691.469
600.335;33857.574;  -11.430;40692.520
600.916;32375.811;   -9.939;39982.422
601.498;30602.000;   -8.479;40318.617
602.079;29057.041;  -10.920;40670.609
602.660;29113.305;  -11.480;41450.898
603.241;30704.957;  -11.699;41137.738
603.823;29140.250;   -9.579;38868.797
604.404;29173.496;  -10.620;38182.785
604.985;30671.477;  -10.450;38078.047
605.566;30164.861;   -9.129;38056.633
606.147;30193.332;   -7.510;37020.418
606.728;31894.570;  -10.660;37883.359
607.309;30596.492;  -11.740;38748.273
607.890;30194.693;   -9.759;38850.230
608.471;29796.016;   -8.250;37457.918
609.051;29105.215;   -9.240;36066.457
609.632;27847.033;  -12.120;35991.074
610.213;28323.758;   -9.110;37402.641
610.794;29122.207;   -8.030;38383.363
611.374;29129.594;   -8.110;40562.387
611.955;29679.188;  -13.560;38533.727
612.536;30860.412;  -11.400;36951.789
613.116;30874.910;   -8.070;37197.891
613.697;30882.574;  -10.830;38411.125
614.277;29311.266;  -11.641;38673.938
614.858;30275.727;  -13.310;37075.863
615.438;29833.566;   -7.460;35092.906
616.019;27310.047;   -7.601;33666.301
616.599;27509.084;  -12.020;34189.023
617.179;29024.162;  -11.780;36952.047
617.760;29940.820;   -8.570;39582.574
618.340;30723.580;  -11.471;38943.977
618.920;31564.842;  -11.170;37594.156
619.500;31734.412;  -11.071;37866.938
620.080;31238.844;   -7.750;37869.043
620.660;32511.615;  -12.711;36868.617
621.241;34430.719;  -10.211;36352.309
621.821;34625.262;  -10.961;35459.520
622.401;33266.863;   -7.720;35207.414
622.980;32126.447;   -8.981;35980.422
623.560;30738.396;   -9.331;37351.328
624.140;29799.510;   -9.850;34388.582
624.720;24821.613;   -7.451;32368.764
625.300;21289.613;   -9.070;32638.629
625.880;24670.848;  -12.601;34599.035
626.459;28947.344;  -11.751;36831.738
627.039;31871.625;   -9.281;38299.098
627.619;31653.084;   -8.801;38289.574
628.198;29829.363;  -12.071;37220.695
628.778;28732.406;   -9.461;37632.563
629.357;29543.479;   -8.491;38003.012
629.937;29885.582;   -9.721;38402.039
630.516;29402.883;   -9.951;37868.801
631.096;28892.879;  -11.731;35760.410
631.675;31845.355;   -8.572;35225.219
632.254;36939.035;  -11.282;35130.289
632.834;36282.855;  -13.322;35794.570
633.413;34532.305;  -10.301;35788.922
633.992;31610.061;   -8.582;34532.863
634.571;32162.693;   -8.352;33590.113
635.151;34398.809;  -11.912;34943.863
635.730;33000.652;  -10.511;35352.523
636.309;30112.691;   -7.731;35366.605
636.888;27991.449;   -9.952;36165.637
637.467;28853.980;  -11.672;37515.902
638.046;30256.121;   -8.901;39288.695
638.625;33204.496;   -7.912;38279.699
639.204;33053.504;  -10.022;37741.598
639.782;31937.328;  -12.252;38364.551
640.361;27725.896;  -10.041;36740.621
640.940;25089.672;  -11.161;34950.082
641.519;25642.674;   -9.701;34137.398
642.097;28680.375;  -11.271;35654.258
642.676;31523.771;   -8.651;35637.957
643.255;32349.273;   -8.711;36567.074
643.833;31565.588;   -9.581;37809.434
644.412;31879.246;  -13.711;37337.293
644.990;31041.662;  -11.811;37018.531
645.569;31437.014;   -9.411;36518.469
646.147;30974.883;  -10.291;36186.430
646.726;30337.797;  -12.401;36267.688
647.304;30789.965;  -10.411;36647.625
647.882;32476.207;   -9.651;39286.742
648.461;34334.055;   -9.631;39157.703
649.039;32508.502;  -11.881;35412.883
649.617;31427.828;   -9.661;34744.918
650.195;30757.719;   -9.301;35403.098
650.773;29291.143;  -10.511;35053.797
651.352;27378.059;  -11.521;33756.816
651.930;25304.162;  -12.211;31868.773
652.508;23443.387;   -9.171;33121.551
653.086;27319.627;   -9.371;33564.793
653.663;30015.785;  -13.161;34054.668
654.241;28991.639;  -13.031;35693.309
654.819;30597.629;   -9.371;36422.906
655.397;30336.668;  -10.511;38213.484
655.975;29868.518;  -10.371;39507.625
656.553;29234.453;  -10.051;39498.223
657.130;27913.752;  -10.061;40395.480
657.708;27758.662;   -9.561;39242.020
658.286;27889.326;  -11.511;38920.020
658.863;28670.766;  -10.261;40202.898
659.441;31899.426;   -7.531;39677.938
660.018;31733.064;   -9.501;40413.355
660.596;30346.934;  -13.301;39931.414
661.173;32081.055;  -11.211;39604.531
661.750;32702.566;   -9.951;39700.070
662.328;32254.070;   -9.390;39292.809
662.905;31082.807;  -11.330;38235.648
663.482;26063.473;   -9.050;36212.305
664.060;24293.316;   -8.240;35944.945
664.637;27348.875;  -10.050;35170.785
665.214;28892.660;  -11.760;34197.523
665.791;30230.479;  -10.530;34549.520
666.368;29146.393;   -9.690;35118.578
666.945;29957.412;   -9.320;36019.418
667.522;31406.557;  -11.860;36048.438
668.099;31287.338;  -10.770;36243.914
668.676;29971.334;   -6.260;35958.875
669.253;28599.947;   -7.000;37384.730
669.830;28917.074;  -10.190;36779.629
670.407;28913.943;   -9.550;35231.289
670.984;29357.795;   -9.260;35544.270
671.560;29912.277;   -9.280;35466.867
672.137;28789.063;  -11.810;34280.863
672.714;29840.234;  -11.490;34632.863
673.290;30900.959;   -7.740;35135.422
673.867;30994.645;  -10.660;36114.480
674.443;30436.594;  -12.230;36152.859
675.020;28413.807;  -10.450;35327.238
675.596;29803.566;   -9.260;35795.176
676.173;30618.697;  -10.780;35430.355
676.749;30278.820;  -13.690;33549.516
677.326;29972.514;  -11.980;32210.012
677.902;29815.982;   -8.630;32068.871
678.478;29069.646;  -10.730;32583.891
679.054;28440.928;  -10.520;32088.928
679.631;28941.197;  -11.920;30978.848
680.207;30221.254;   -7.490;33160.887
680.783;31613.057;   -9.860;35570.363
681.359;30703.660;  -13.380;36125.184
681.935;30573.385;  -12.480;35240.922
682.511;30238.678;   -7.900;34429.961
683.087;30581.055;   -7.710;34463.680
683.663;30071.373;  -11.480;34648.898
684.239;28481.063;  -14.090;34546.457
684.815;27832.934;   -7.560;35586.375
685.390;27993.332;   -9.910;35821.895
685.966;28416.053;  -11.159;35085.871
686.542;31175.250;  -11.169;34198.230
687.118;33427.824;   -5.959;32847.707
687.693;33431.473;  -10.329;32794.027
688.269;33058.656;  -12.059;33072.367
688.844;31202.850;  -10.909;33141.664
689.420;29231.420;   -8.019;33965.742
689.995;27388.438;   -8.399;34655.523
690.571;26230.525;  -10.949;33576.742
691.146;26414.086;   -9.619;32657.219
691.722;26063.955;   -8.999;32526.979
692.297;26201.160;  -11.589;33014.617
692.872;27665.656;  -11.739;34012.254
693.448;27137.631;  -11.059;34237.434
694.023;26160.518;  -10.139;34142.672
694.598;28394.467;   -9.029;34132.031
695.173;28930.078;  -13.319;34205.250
695.748;28081.141;  -10.169;32882.488
696.323;27664.881;   -8.339;32864.906
696.898;27761.059;   -8.169;33170.004
697.473;27818.963;  -12.309;32432.984
698.048;26996.553;  -10.989;31649.303
698.623;26865.117;   -9.329;30778.141
699.198;28609.018;   -9.849;31140.119
699.773;29833.223;  -12.329;31764.299
700.348;28731.213;  -10.389;31780.816
700.922;28588.625;   -9.269;32046.375
701.497;29177.996;   -9.329;32603.574
702.072;28992.836;  -10.789;34799.871
702.646;27854.650;  -10.839;35793.172
703.221;26407.891;   -9.099;35201.590
703.795;28227.875;  -10.939;34764.527
704.370;28466.217;  -12.859;34307.367
704.944;28667.291;  -11.559;33509.887
705.519;29429.211;   -7.939;31388.584
706.093;30803.020;  -10.499;31340.104
706.668;30971.564;  -11.289;32630.281
707.242;30020.463;  -11.509;32728.779
707.816;28898.680;   -9.639;32947.238
708.390;27374.902;  -11.429;33277.855
708.965;28056.156;  -11.869;33834.336
709.539;28612.785;  -11.689;33709.273
710.113;28633.527;  -10.478;33044.313
710.687;27643.242;  -10.228;31953.992
711.261;25918.537;  -13.698;30505.949
711.835;25988.377;  -13.378;30262.369
712.409;26687.959;   -9.698;31254.447
712.983;28499.830;  -11.898;32754.986
713.557;29600.023;  -15.138;34018.824
714.131;29396.982;  -14.098;34579.625
714.704;28394.721;   -9.958;33890.262
715.278;25933.010;  -10.028;33531.102
715.852;25032.496;  -11.148;33601.660
716.425;26339.748;   -9.068;33515.117
716.999;27425.869;  -10.038;33185.555
717.573;28248.623;   -9.798;33905.996
718.146;29150.629;  -12.378;35199.293
718.720;28979.207;  -11.918;35060.551
719.293;28785.922;   -8.088;34973.230
719.867;31673.518;  -10.888;36394.449
720.440;31081.881;  -11.938;36663.008
721.013;29125.359;  -12.818;35102.426
721.587;27743.877;  -10.298;33985.266
722.160;26804.238;  -10.048;33524.965
722.733;26005.117;  -12.108;32987.043
723.306;26464.379;  -10.818;33066.301
723.880;28376.154;   -8.908;33399.500
724.453;29933.848;   -9.878;33468.297
725.026;28977.787;  -11.188;33816.637
725.599;26685.037;  -11.678;32797.996
726.172;27253.830;   -9.618;33187.434
726.745;28499.182;   -8.258;35136.613
727.318;29867.881;  -12.978;35751.730
727.891;30067.504;  -12.148;35890.430
728.463;29330.441;   -8.968;34822.090
729.036;28049.660;  -10.188;32895.086
729.609;28524.348;  -11.788;31823.225
730.182;25698.396;  -11.788;31445.283
730.754;23462.568;  -10.268;32373.223
731.327;23953.121;   -9.998;33676.820
731.900;24614.586;  -12.228;33417.000
732.472;25541.291;  -13.848;31978.498
733.045;26877.977;   -8.698;30368.777
733.617;26769.082;  -10.607;30574.215
734.190;26767.762;  -11.507;31280.975
734.762;24113.295;  -13.647;31674.412
735.334;22391.035;   -9.767;31247.291
735.907;23030.363;   -9.897;29876.211
736.479;23118.758;  -11.637;29808.488
737.051;22737.572;   -9.567;30233.547
737.623;23307.367;   -8.187;31469.086
738.195;24008.531;  -11.187;31784.225
738.768;26523.225;  -12.337;32120.523
739.340;26917.789;  -12.227;32094.342
739.912;25610.660;  -11.057;31312.680
740.484;24221.918;  -10.207;31946.238
741.056;22925.621;  -10.047;32984.059
741.628;24174.867;  -13.627;33897.715
742.199;26414.049;   -7.177;33213.016
742.771;25224.043;  -10.797;31369.113
743.343;23152.865;  -11.997;31865.473
743.915;22184.113;  -12.867;32388.631
744.487;22116.789;   -7.617;31079.568
745.058;21965.740;   -9.557;30570.107
745.630;22589.887;   -9.877;29970.127
746.201;23752.939;  -14.177;29186.766
746.773;24404.682;   -9.237;28805.723
747.344;24264.588;   -9.847;29591.223
747.916;22599.850;  -11.657;31412.201
748.487;22792.951;  -10.587;32194.898
749.059;24197.869;   -8.707;32533.719
749.630;25099.727;  -10.537;32158.518
750.201;24437.338;  -11.687;30855.395
750.773;22626.955;  -11.647;28622.555
751.344;22279.896;   -7.147;28405.732
751.915;23050.789;   -9.757;28461.551
752.486;22691.049;  -12.427;27842.850
753.057;20694.631;  -12.227;27845.008
753.628;19653.209;  -10.417;27728.107
754.199;20639.244;  -11.767;27381.086
754.770;21728.396;  -11.187;25882.203
755.341;21975.787;  -10.507;25886.184
755.912;21989.711;   -9.387;26050.861
756.483;21468.066;  -10.647;26798.779
757.054;19495.572;  -11.837;27048.238
757.625;18020.711;  -12.716;26294.838
758.195;18055.254;   -9.666;26142.076
758.766;17936.662;   -8.656;26392.234
759.337;18500.414;  -12.856;26334.594
759.907;20033.092;  -13.366;27579.652
760.478;20871.971;   -8.576;28352.770
761.048;20127.600;  -10.526;27325.088
761.619;19147.830;  -11.116;26460.428
762.189;19426.096;  -12.136;26029.826
762.760;20775.828;   -9.456;26430.145
763.330;21697.715;   -7.136;26670.902
763.900;21057.037;  -11.786;26603.021
764.471;18491.074;  -11.546;25542.740
765.041;16964.072;   -8.096;24358.459
765.611;16819.934;   -8.876;23991.297
766.181;17278.018;  -12.196;24470.236
766.751;18549.014;  -11.636;24845.975
767.321;18215.340;  -10.156;24533.633
767.891;15901.225;  -11.766;24916.492
768.461;15301.607;  -14.936;24776.771
769.031;15986.512;  -12.356;24757.988
769.601;17623.215;   -7.526;24181.088
770.171;17606.908;  -10.766;23670.387
770.741;16923.678;  -13.176;22960.045
771.311;17197.484;  -10.616;22917.523
771.880;17667.582;   -9.576;23562.941
772.450;17650.459;  -10.336;24216.500
773.020;17774.797;  -13.516;24140.398
773.589;16971.285;  -13.466;24414.857
774.159;16311.893;   -8.686;23858.717
774.729;15895.076;   -9.476;22942.135
775.298;15409.494;  -13.666;22324.033
775.867;14949.069;  -11.716;21140.313
776.437;15032.882;   -9.906;20838.092
777.006;14757.228;  -12.166;20599.510
777.576;14445.398;  -12.356;20508.809
778.145;14544.764;  -11.646;20732.947
778.714;14604.450;   -8.226;21062.465
779.283;14111.084;   -9.556;20949.664
779.853;13622.940;  -14.116;20508.623
780.422;14028.496;  -11.506;20649.082
780.991;13610.892;   -9.556;21527.520
781.560;12340.311;   -9.095;22632.658
782.129;12063.207;  -12.135;23048.277
782.698;12043.058;  -10.865;23438.555
783.267;11659.536;   -9.335;23267.734
783.836;11667.021;  -11.045;22415.133
784.404;12706.657;  -13.865;20443.152
784.973;13289.058;  -13.095;19699.150
785.542;13377.080;  -11.575;19763.828
786.111;13271.141;   -9.705;20341.408
786.679;12703.341;  -12.105;20207.967
787.248;12432.384;  -12.455;19516.465
787.817;12201.805;  -11.535;18900.363
788.385;11720.670;   -9.765;17879.121
788.954;11112.579;  -14.005;17658.301
789.522;10569.991;  -11.955;17788.879
790.090;11010.836;  -10.135;18118.277
790.659;11547.133;  -10.975;18338.736
791.227;11141.811;  -13.375;18508.615
791.795;11537.681;  -12.375;17898.254
792.364;11766.413;  -10.725;17295.133
792.932;12013.494;   -9.715;16822.051
793.500;12352.931;  -12.675;17040.148
794.068;12762.767;  -13.495;17179.787
794.636;12915.881;  -10.885;16664.246
795.204;12306.819;  -11.045;16524.545
795.772;12293.197;  -13.175;17274.564
796.340;11748.560;  -12.445;17891.002
796.908;11499.399;   -9.735;17648.561
797.476;11341.187;   -9.815;17064.080
798.044;10917.339;  -13.985;16672.777
798.612;10233.208;  -13.115;17023.996
799.180; 9862.419;  -10.185;16561.615
799.747; 9694.111;   -9.055;15962.773
800.315; 9427.350;  -12.385;15296.992
800.883; 9186.248;  -15.035;14801.771
801.450; 9315.980;  -10.365;14534.430
802.018; 9399.543;   -9.855;14173.248
802.585; 9402.994;  -11.905;14029.547
803.153; 9436.350;  -11.585;13836.846
803.720; 9269.406;   -9.095;13567.324
804.287; 8694.642;   -9.135;13360.622
804.855; 8204.636;  -11.604;13681.981
805.422; 8142.516;  -11.794;13536.560
805.989; 8201.541;  -10.734;13355.958
806.556; 8468.280;  -10.444;13747.896
807.124; 8805.689;  -12.764;13987.376
807.691; 8778.569;  -12.964;14038.674
808.258; 8524.338;  -11.134;14120.152
808.825; 8045.717;   -9.854;13860.111
809.392; 8129.366;  -10.504;13268.790
809.959; 7765.094;  -13.054;12680.389
810.526; 7335.069;   -8.294;12427.308
811.093; 7333.004;   -8.394;12030.105
811.659; 7876.200;  -12.304;11653.664
812.226; 8338.755;  -13.944;11637.183
812.793; 7991.879;  -10.484;11611.521
813.360; 7339.014;  -10.144;11885.181
813.926; 7053.289;  -11.684;12770.539
814.493; 6903.318;  -13.644;12677.638
815.060; 6572.641;   -9.724;11974.336
815.626; 6572.387;   -9.854;11594.715
816.193; 6927.849;  -13.254;11579.474
816.759; 6957.123;  -13.204;11666.972
817.325; 7033.209;   -9.434;11325.530
817.892; 7418.920;  -10.134;11105.369
818.458; 7835.655;  -13.474;10843.928
819.024; 7419.740;  -11.854;10714.406
819.591; 7123.525;  -10.244;10469.165
820.157; 6955.347;  -10.704;10235.523
820.723; 6487.574;  -12.324;10847.563
821.289; 6199.455;   -9.444;11040.980
821.855; 6066.476;   -8.374;10357.100
822.421; 5898.800;  -10.234; 9978.918
822.987; 5762.971;  -13.294; 9754.177
823.553; 5436.937;  -10.884;10065.755
824.119; 5345.248;   -8.884;10036.294
824.685; 5530.027;   -6.784;10029.192
825.251; 5655.873;  -12.004;10199.230
825.816; 5608.965;  -11.474; 9820.189
826.382; 5345.411;   -9.174; 9297.248
826.948; 5538.199;   -9.214; 9381.347
827.513; 5905.078;  -10.774; 9450.726
828.079; 5712.792;  -11.924; 9472.444
828.645; 5148.901;  -10.543; 9292.643
829.210; 5026.195;  -10.533; 9065.341
829.776; 4988.447;  -10.753; 9132.620
830.341; 4858.179;  -10.173; 9092.878
830.906; 5035.304;  -10.743; 9078.557
831.472; 5359.540;  -11.113; 8534.535
832.037; 5108.455;  -10.603; 8677.874
832.602; 4571.777;  -13.323; 8628.692
833.167; 4334.736;  -10.823; 8879.031
833.733; 4286.696;  -10.113; 9189.790
834.298; 4408.484;  -13.583; 9052.608
834.863; 4506.456;  -12.703; 8895.087
835.428; 4513.164;  -10.523; 8824.266
835.993; 4380.284;   -6.963; 8845.385
836.558; 4219.026;  -10.763; 8888.563
837.123; 4318.043;   -9.903; 8966.582
837.688; 4571.139;   -9.913; 8617.860
838.253; 4774.906;  -10.283; 8590.699
838.817; 4950.647;  -12.963; 8443.797
839.382; 4904.403;  -14.243; 8799.356
839.947; 4619.971;  -10.733; 8810.595
840.511; 4299.865;   -9.383; 8796.394
841.076; 3915.329;  -12.563; 8347.231
841.641; 3985.577;  -12.953; 8224.330
842.205; 4075.899;   -7.043; 8223.349
842.770; 4123.792;   -8.163; 8622.107
843.334; 4297.481;  -12.503; 8410.386
843.898; 4293.984;  -11.693; 8337.465
844.463; 4305.178;  -10.203; 8506.283
845.027; 4098.701;   -9.533; 8280.962
845.591; 3922.576;  -13.443; 8231.141
846.156; 3888.945;  -13.143; 7969.179
846.720; 3794.775;   -9.433; 7768.278
847.284; 3675.441;  -11.033; 7630.957
847.848; 3529.300;  -10.403; 7472.395
848.412; 3407.662;  -11.553; 7437.394
848.976; 3417.603;   -8.393; 7674.592
849.540; 3349.116;   -8.713; 7836.011
850.104; 3431.146;  -12.463; 7913.669
850.668; 3780.811;  -12.973; 7694.508
851.232; 3916.752;  -10.793; 7756.887
851.796; 3766.975;  -10.662; 7926.545
852.359; 3445.956;  -13.082; 7827.844
852.923; 3292.366;  -12.192; 7641.163
853.487; 3165.685;  -11.912; 7342.501
854.050; 3141.865;  -10.892; 7042.820
854.614; 3257.268;  -13.992; 7151.338
855.177; 3344.523;  -11.732; 7105.077
855.741; 3379.601;   -8.962; 6989.675
856.304; 3309.087;   -9.442; 6596.634
856.868; 3296.565;  -14.192; 6356.272
857.431; 3426.113;  -12.702; 6468.571
857.995; 3574.790;   -9.942; 6373.210
858.558; 3598.370;   -9.112; 6324.448
859.121; 3331.084;  -12.932; 6408.327
859.684; 3163.249;  -13.442; 6347.886
860.247; 3235.932;  -10.632; 6321.264
860.810; 3237.387;  -11.272; 6301.903
861.374; 2983.508;   -9.832; 6607.881
861.937; 2727.165;  -11.762; 6408.200
862.500; 2736.945;   -9.722; 6572.639
863.062; 2894.971;  -10.512; 6387.297
863.625; 3022.961;  -11.232; 6190.836
864.188; 3186.571;  -14.112; 5807.254
864.751; 3284.080;  -11.302; 5682.413
865.314; 3201.361;  -10.112; 5547.492
865.876; 2993.660;  -12.182; 5500.150
866.439; 2976.638;  -10.722; 5415.909
867.002; 2926.741;   -9.252; 5501.567
867.564; 2718.208;   -9.572; 5413.946
868.127; 2484.437;  -13.142; 5160.325
868.689; 2356.573;  -12.902; 5133.183
869.252; 2230.310;   -9.732; 5252.382
869.814; 2114.547;   -9.432; 5297.141
870.377; 2133.958;  -11.552; 5390.919
870.939; 2221.791;   -9.052; 5599.898
871.501; 2302.041;  -10.982; 5248.336
872.063; 2310.149;  -12.292; 4854.235
872.626; 2250.038;  -14.912; 4817.074
873.188; 2246.004;  -13.112; 4987.732
873.750; 2223.675;  -13.442; 4868.651
874.312; 2155.000;   -9.402; 4779.330
874.874; 2069.903;  -11.062; 4866.348
875.436; 1981.618;  -13.931; 4718.887
875.998; 1974.266;   -9.561; 4660.005
876.560; 1990.891;  -11.321; 4462.964
877.122; 1927.873;  -12.221; 4145.042
877.683; 1835.621;  -12.191; 4056.481
878.245; 1762.792;  -12.101; 3950.740
878.807; 1798.958;   -8.971; 4058.958
879.369; 1816.595;  -12.071; 3954.677
879.930; 1733.583;  -14.621; 3941.495
880.492; 1674.501;  -10.311; 4067.014
881.053; 1627.056;  -10.901; 3859.633
881.615; 1511.145;  -14.411; 3776.071
882.176; 1420.984;  -13.761; 3734.750
882.738; 1379.329;   -9.181; 3678.489
883.299; 1360.671;  -11.791; 3405.407
883.860; 1354.906;  -13.121; 3351.106
884.422; 1336.801;  -11.211; 3394.044
884.983; 1287.369;  -10.091; 3166.443
885.544; 1209.191;   -8.461; 3189.802
886.105; 1134.637;  -12.361; 3160.360
886.666; 1073.485;  -14.141; 3093.059
887.227; 1014.327;  -11.361; 2941.957
887.788;  949.720;  -11.401; 2974.836
888.349;  879.939;  -13.791; 2721.214
888.910;  876.835;  -13.191; 2696.493
889.471;  880.974;   -9.881; 2560.172
890.032;  857.158;   -9.881; 2558.190
890.593;  827.200;  -10.371; 2567.669
891.153;  804.938;  -13.301; 2460.307
891.714;  760.280;  -11.431; 2372.046
892.275;  720.556;  -11.291; 2309.505
892.835;  679.414;  -11.471; 2382.543
893.396;  623.841;  -11.541; 2295.502
893.956;  564.409;  -11.181; 2162.420
894.517;  524.865;  -11.741; 2125.439
895.077;  521.121;  -11.671; 2086.978
895.638;  524.812;  -11.311; 2126.316
896.198;  495.706;   -9.831; 1838.275
896.758;  453.566;   -8.421; 1892.813
897.319;  421.519;  -12.351; 1792.232
897.879;  406.569;  -13.511; 1762.751
898.439;  380.692;  -12.001; 1661.149
898.999;  353.891;  -10.180; 1781.468
899.559;  342.174;  -12.030; 1703.347
900.119;  338.863;  -15.710; 1537.525
900.679;  333.655;   -8.900; 1638.384
901.239;  319.055;   -8.340; 1527.902
901.799;  310.305;  -13.910; 1456.441
902.359;  304.836;  -13.460; 1357.140
902.919;  296.799;  -11.490; 1331.118
903.479;  283.973;  -12.110; 1317.257
904.038;  263.673;  -11.720; 1262.595
904.598;  248.600;  -13.610; 1152.034
905.158;  244.351;  -11.040; 1240.893
905.717;  237.354;  -10.900; 1233.691
906.277;  226.051;  -15.080; 1217.330
906.836;  216.463;  -13.380; 1222.408
907.396;  208.148;  -10.780; 1193.047
907.955;  201.557;   -8.500; 1182.526
908.515;  195.698;  -12.760; 1099.364
909.074;  189.493;  -11.900; 1092.863
909.633;  183.659;   -8.950; 1069.121
910.192;  179.242;   -8.770; 1196.460
910.752;  172.497;  -12.390; 1029.960
911.311;  168.873;  -13.680; 1009.780
911.870;  167.090;  -12.370;  971.460
912.429;  168.336;  -10.900; 1094.080
912.988;  167.143;  -11.690; 1081.060
913.547;  162.668;  -13.240;  940.380
914.106;  157.650;  -11.990;  999.420
914.665;  154.174;   -9.990;  984.020
915.224;  153.489;  -12.880; 1035.760
915.782;  154.387;  -12.350;  922.560
916.341;  152.958;   -9.110; 1049.840
916.900;  148.828;   -9.270;  925.260
917.458;  146.509;  -13.240;  884.220
918.017;  146.360;  -13.550;  942.600
918.576;  146.618;  -12.320;  904.440
919.134;  144.581;  -11.490;  837.980
919.693;  142.956;  -13.670;  893.060
920.251;  140.949;  -15.470;  876.500
920.809;  140.126;  -11.290;  839.580
921.368;  139.198;  -10.210;  885.360
921.926;  138.763;  -12.140;  842.940
922.484;  137.605;  -13.080;  903.360
923.042;  137.192;  -11.720;  880.340
923.601;  139.946;   -7.480;  998.680
924.159;  137.837;  -11.570;  935.560
924.717;  134.650;  -13.840;  841.080
925.275;  134.067;  -10.640;  903.240
925.833;  133.311;  -11.540;  779.320
926.391;  134.027;  -12.960;  938.380
926.949;  133.256;  -14.130;  857.680
927.506;  133.796;  -11.750;  903.500
928.064;  133.886;  -10.250;  877.580
928.622;  132.423;  -13.030;  880.100
929.180;  132.528;  -13.400;  814.180
929.737;  133.447;  -10.700;  808.540
930.295;  137.529;  -10.070;  928.480
930.853;  138.949;  -11.960;  849.100
931.410;  139.873;  -13.120;  821.120
931.968;  139.457;  -10.770;  940.660
932.525;  139.658;  -10.680;  909.380
933.082;  139.104;  -13.130;  811.440
933.640;  140.699;  -13.210;  925.900
934.197;  139.633;  -11.060;  886.360
934.754;  140.858;   -9.580;  897.780
935.312;  142.913;  -14.000;  863.340
935.869;  147.596;  -10.710; 1012.980
936.426;  147.929;   -9.860;  872.800
936.983;  149.915;   -9.710;  889.020
937.540;  148.544;  -13.990;  838.280
938.097;  147.203;  -14.040;  940.120
938.654;  146.770;  -10.310;  898.860
939.211;  150.422;  -10.560;  952.480
939.768;  154.258;  -13.900;  915.420
940.324;  157.790;  -14.760;  904.200
940.881;  159.030;  -10.370;  878.500
941.438;  159.863;   -8.260; 1021.200
941.995;  155.652;  -12.540;  992.560
942.551;  152.679;  -14.670;  875.620
943.108;  152.986;  -10.450;  937.920
943.664;  155.197;  -10.750;  869.340
944.221;  158.277;  -11.550; 1088.140
944.777;  156.998;  -14.770;  869.680
945.334;  157.946;  -12.820;  884.840
945.890;  159.235;  -10.130;  946.480
946.446;  158.682;  -13.470;  947.020
947.003;  160.961;  -12.120;  964.940
947.559;  163.985;   -9.980; 1063.040
948.115;  163.498;   -9.080; 1026.540
948.671;  161.774;  -10.830;  967.300
949.227;  159.737;  -12.440;  859.560
949.783;  157.451;  -12.910;  858.900
950.339;  159.561;  -10.270;  991.000
950.895;  159.648;  -13.630; 1023.840
951.451;  159.119;  -15.100;  925.280
952.007;  158.406;  -11.330;  998.540
952.563;  157.501;  -10.580;  937.780
953.118;  155.345;  -13.440;  904.940
953.674;  155.474;  -12.710;  935.780
954.230;  155.217;  -10.350;  949.640
954.785;  152.910;   -9.190;  936.640
955.341;  151.912;  -11.200;  998.160
955.897;  149.916;  -16.560;  834.660
956.452;  152.605;  -12.570;  953.840
957.008;  150.919;   -7.970; 1083.640
957.563;  150.258;  -11.940; 1009.540
958.118;  145.089;  -13.450;  877.700
958.674;  145.813;  -12.030;  946.780
959.229;  147.554;   -9.410; 1013.980
959.784;  145.693;  -12.000;  832.400
960.339;  144.445;  -14.780; 1001.280
960.894;  140.416;   -9.860;  963.760
961.449;  135.511;   -9.970;  859.960
962.004;  135.570;  -10.900; 1212.840
962.559;  130.574;  -13.150;  860.140
963.114;  127.418;  -13.740;  742.480
963.669;  126.959;   -9.820;  915.500
964.224;  125.620;  -13.890;  874.340
964.779;  124.374;  -12.600;  828.420
965.334;  125.857;  -10.950; 1017.860
965.888;  125.631;  -11.170;  875.360
966.443;  128.637;  -12.540;  972.380
966.998;  127.534;  -15.780;  819.460
967.552;  126.533;   -9.760;  908.380
968.107;  123.398;   -9.060;  868.300
968.661;  124.572;  -11.950;  922.440
969.216;  125.888;  -12.800;  856.280
969.770;  126.667;  -11.210;  917.200
970.324;  125.787;  -11.610;  923.140
970.879;  122.221;  -11.370;  947.180
971.433;  118.443;  -12.540;  952.720
971.987;  113.057;  -11.320;  895.340
972.541;  108.725;  -10.720;  917.100
973.095;  107.815;   -9.680; 1009.460
973.649;  106.591;  -11.440;  809.480
974.203;  105.782;  -11.210;  829.040
974.757;  106.785;  -10.240;  855.220
975.311;  107.132;  -13.720;  872.600
975.865;  104.828;  -13.770;  881.820
976.419;   98.653;  -11.690;  857.400
976.973;   90.225;   -9.510;  849.620
977.526;   83.781;  -12.620;  949.920
978.080;   78.438;  -12.010;  796.780
978.634;   78.556;  -10.170;  921.320
979.187;   78.780;   -9.020;  905.400
979.741;   80.127;   -9.820; 1018.380
980.294;   78.708;  -14.870;  789.160
980.848;   78.671;  -12.380;  717.220
981.401;   80.996;  -10.350;  816.540
981.955;   83.028;  -13.720;  844.300
982.508;   83.168;  -11.490;  746.340
983.061;   84.584;  -10.000;  915.260
983.615;   82.349;  -11.480;  798.800
984.168;   79.863;  -13.220;  770.080
984.721;   80.787;  -13.960;  880.760
985.274;   80.229;  -10.870;  867.500
985.827;   79.375;   -9.790;  834.220
986.380;   77.462;  -13.120;  721.340
986.933;   77.075;  -12.450;  864.800
987.486;   75.524;  -10.210;  861.920
988.039;   73.943;   -8.430;  863.100
988.591;   72.599;  -10.520;  893.260
989.144;   70.974;  -14.860;  737.260
989.697;   70.460;  -13.080;  758.740
990.250;   71.310;  -10.150;  858.100
990.802;   69.480;  -13.430;  755.860
991.355;   70.288;  -12.750;  974.880
991.907;   68.674;  -12.040;  864.320
992.460;   67.061;  -11.330;  753.760
993.012;   66.700;  -13.610;  749.540
993.565;   65.966;  -13.460;  711.360
994.117;   67.603;   -9.360;  950.780
994.669;   63.356;  -11.300;  701.320
995.221;   60.891;  -13.540;  791.920
995.774;   57.666;  -13.430;  787.580
996.326;   56.104;  -12.520;  740.220
996.878;   56.684;  -10.950;  838.420
997.430;   54.615;  -14.300;  699.860
997.982;   53.891;  -13.760;  750.140
998.534;   54.510;  -11.530;  739.060
999.086;   53.627;  -10.310;  738.220
999.638;   51.644;  -12.530;  661.380
1000.190;   51.294;  -11.840;  699.320
1000.741;   51.665;  -10.260;  742.700
1001.293;   51.101;   -8.860;  686.020
1001.845;   49.058;  -13.700;  676.640
1002.396;   50.026;  -12.100;  743.400
1002.948;   49.609;  -12.760;  737.400
1003.500;   47.385;  -10.380;  723.780
1004.051;   47.153;  -11.900;  907.580
1004.603;   46.252;  -12.250;  791.820
1005.154;   43.113;  -13.210;  608.980
1005.705;   42.443;  -10.950;  723.960
1006.257;   41.223;  -13.880;  707.220
1006.808;   40.813;  -12.840;  685.460
1007.359;   40.596;  -10.570;  763.240
1007.910;   39.704;   -9.620;  646.640
1008.461;   39.643;  -13.630;  732.940
1009.013;   37.746;  -17.200;  588.340
1009.564;   40.232;  -10.200;  793.520
1010.115;   37.788;  -12.570;  597.040
1010.665;   36.887;  -15.150;  602.160
1011.216;   37.691;  -14.480;  667.920
1011.767;   36.002;  -11.340;  697.920
1012.318;   37.011;   -9.780;  736.980
1012.869;   36.351;  -12.380;  679.000
1013.419;   34.970;  -15.560;  603.120
1013.970;   35.613;  -11.010;  666.640
1014.521;   34.724;  -11.610;  620.620
1015.071;   34.749;  -13.450;  670.380
1015.622;   34.668;  -13.870;  635.460
1016.172;   34.412;  -11.610;  596.820
1016.723;   34.062;  -12.120;  614.380
1017.273;   33.337;  -13.620;  604.160
1017.823;   33.299;  -14.140;  650.340
1018.374;   33.066;  -12.800;  611.760
1018.924;   33.111;  -12.340;  716.880
1019.474;   33.160;  -11.410;  718.880
1020.024;   31.916;  -14.770;  657.580
1020.574;   33.243;   -9.780;  726.160
1021.124;   32.379;   -8.560;  673.580
1021.674;   31.061;  -15.190;  559.120
1022.224;   33.098;  -13.530;  708.940
1022.774;   31.966;  -13.280;  668.820
1023.324;   32.380;  -10.690;  753.520
1023.874;   33.651;  -10.240;  875.760
1024.423;   30.503;  -12.540;  613.700
1024.973;   30.269;  -10.010;  610.760
1025.523;   29.901;  -10.550;  620.960
1026.072;   28.635;  -13.560;  606.420
1026.622;   29.470;  -15.120;  675.740
1027.172;   30.326;  -11.260;  715.660
1027.721;   29.298;  -11.410;  601.220
1028.270;   29.407;  -13.530;  663.400
1028.820;   28.916;  -13.680;  638.080
1029.369;   29.088;  -13.520;  612.700
1029.918;   29.200;  -10.980;  649.840
1030.468;   28.295;  -13.530;  564.780
1031.017;   28.893;  -13.170;  634.800
1031.566;   28.152;  -12.200;  608.900
1032.115;   28.129;   -9.960;  694.500
1032.664;   27.511;  -13.210;  596.480
1033.213;   27.616;  -12.500;  735.420
1033.762;   27.008;  -11.910;  635.620
1034.311;   26.966;   -9.640;  677.220
1034.860;   28.056;  -13.310;  691.000
1035.408;   27.636;  -11.830;  722.720
1035.957;   27.684;  -12.000;  719.540
1036.506;   25.776;  -11.690;  530.800
1037.055;   28.024;  -10.990;  844.320
1037.603;   26.367;  -15.120;  664.000
1038.152;   25.131;  -12.450;  534.760
1038.700;   25.470;  -10.560;  585.740
1039.249;   24.564;  -11.080;  681.220
1039.797;   25.482;  -12.540;  633.360
1040.345;   25.512;  -11.920;  705.420
1040.894;   24.639;  -11.410;  625.300
1041.442;   24.121;  -14.320;  632.200
1041.990;   23.686;  -16.240;  559.160
1042.538;   23.958;  -11.680;  536.180
1043.087;   23.746;  -10.760;  570.860
1043.635;   24.709;  -11.850;  670.500
1044.183;   23.741;  -15.480;  586.400
1044.731;   23.283;  -11.770;  576.000
1045.279;   23.489;  -13.090;  674.920
1045.827;   24.626;  -12.440;  892.400
1046.374;   22.572;  -13.840;  515.420
1046.922;   22.025;  -13.220;  590.580
1047.470;   24.077;  -10.230;  691.300
1048.018;   23.023;  -14.590;  647.960
1048.565;   24.229;  -12.050;  708.600
1049.113;   22.363;  -11.650;  557.000
1049.660;   22.294;  -10.510;  629.660
1050.208;   21.856;  -13.310;  675.640
1050.755;   21.551;  -15.900;  606.580
1051.303;   22.560;  -11.430;  686.820
1051.850;   21.450;   -8.480;  635.120
1052.397;   19.737;  -15.010;  473.960
1052.945;   20.566;  -13.960;  617.760
1053.492;   21.834;  -13.150;  741.840
1054.039;   21.863;   -9.630;  720.180
1054.586;   20.562;  -13.680;  557.240
1055.133;   21.544;  -14.570;  693.140
1055.680;   21.286;  -13.820;  646.620
1056.227;   20.252;  -11.730;  542.780
1056.774;   21.646;  -12.480;  794.980
1057.321;   19.729;  -13.930;  523.260
1057.868;   19.894;  -11.690;  651.320
1058.415;   19.450;   -9.520;  651.980
1058.961;   20.217;  -13.160;  678.940
1059.508;   18.676;  -12.920;  643.820
1060.055;   19.338;  -11.920;  581.780
1060.601;   19.757;  -11.500;  624.300
1061.148;   19.071;  -14.330;  616.820
1061.694;   18.634;  -16.870;  592.580
1062.241;   19.868;  -10.330;  596.320
1062.787;   18.489;  -10.620;  663.140
1063.334;   20.575;  -10.110;  808.560
1063.880;   19.123;  -13.400;  668.360
1064.426;   18.805;  -10.680;  706.820
1064.972;   18.213;   -9.920;  601.340
1065.518;   17.103;  -10.980;  566.640
1066.065;   18.365;  -14.890;  624.460
1066.611;   16.963;  -12.870;  598.800
1067.157;   18.183;  -12.950;  641.860
1067.703;   17.518;  -13.540;  668.480
1068.249;   17.723;  -13.540;  605.220
1068.794;   17.951;  -12.600;  626.880
1069.340;   16.242;  -10.620;  578.960
1069.886;   17.275;  -12.830;  590.700
1070.432;   16.017;  -14.870;  541.720
1070.977;   16.425;  -11.980;  601.080
1071.523;   16.899;   -8.200;  573.060
1072.068;   16.455;  -12.330;  582.000
1072.614;   16.651;  -16.370;  527.760
1073.160;   17.206;  -11.100;  687.040
1073.705;   15.439;  -10.480;  572.520
1074.250;   15.158;  -14.520;  559.900
1074.796;   16.873;  -11.460;  655.160
1075.341;   16.694;  -11.950;  664.100
1075.886;   15.484;  -11.460;  594.240
1076.431;   15.565;  -13.770;  649.880
1076.976;   14.987;  -12.680;  639.220
1077.521;   14.947;  -13.170;  583.080
1078.067;   14.333;  -10.860;  579.400
1078.612;   14.673;  -13.920;  661.620
1079.156;   15.331;  -13.880;  601.540
1079.701;   16.046;  -13.120;  693.260
1080.246;   15.631;   -9.940;  696.300
1080.791;   14.569;  -14.740;  625.020
1081.336;   14.537;  -13.750;  659.320
1081.880;   14.803;  -13.400;  649.680
1082.425;   13.791;  -12.220;  573.480
1082.970;   15.406;  -11.610;  717.040
1083.514;   13.497;  -13.580;  597.000
1084.059;   13.371;  -12.810;  586.720
1084.603;   12.773;  -12.320;  565.840
1085.147;   13.224;  -13.190;  645.220
1085.692;   13.975;  -12.480;  716.800
1086.236;   12.766;  -13.020;  503.140
1086.780;   14.610;   -9.190;  751.440
1087.325;   13.592;  -12.480;  654.620
1087.869;   13.011;  -12.450;  610.700
1088.413;   13.835;  -12.240;  705.040
1088.957;   11.734;   -9.020;  543.400
1089.501;   13.868;  -10.320;  766.640
1090.045;   13.095;  -12.720;  726.480
1090.589;   11.715;  -13.690;  569.920
1091.133;   12.689;  -10.020;  673.340
1091.676;   11.928;  -12.330;  591.940
1092.220;   12.043;  -14.970;  600.920
1092.764;   12.861;  -12.430;  706.960
1093.307;   12.592;   -9.800;  673.780
1093.851;   10.949;  -14.970;  556.540
1094.395;   11.925;  -15.310;  683.140
1094.938;   11.384;  -10.370;  632.520
1095.482;   11.221;  -11.050;  559.800
1096.025;   12.091;  -11.840;  710.880
1096.568;   12.240;  -12.840;  779.280
1097.112;    9.492;  -14.700;  508.180
1097.655;   11.329;   -8.720;  603.000
1098.198;    9.692;  -13.610;  600.180
1098.741;    9.839;  -13.350;  612.860
1099.285;   10.936;  -11.230;  657.300
1099.828;    9.066;  -11.840;  439.400
1100.371;   10.062;  -10.840;  608.160
1100.914;   10.469;  -14.190;  682.660
1101.457;   10.854;  -11.240;  679.900
1101.999;    9.115;  -11.270;  584.680
1102.542;    9.862;  -11.480;  641.440
1103.085;    9.794;  -11.750;  658.500
1103.628;   10.710;  -11.400;  762.060
1104.170;    9.975;  -10.490;  588.280
1104.713;    9.711;  -10.600;  646.700
1105.256;    9.311;  -14.360;  557.440
1105.798;    8.617;  -13.210;  499.980
1106.341;    9.953;  -10.270;  728.900
1106.883;    8.779;  -12.200;  521.340
1107.425;    9.073;  -13.110;  668.180
1107.968;    8.221;  -12.840;  612.380
1108.510;    9.355;   -6.480;  684.960
1109.052;    7.344;  -13.940;  612.620
1109.594;    7.903;  -13.690;  554.440
1110.136;    8.829;  -11.880;  643.220
1110.679;    8.464;   -9.500;  633.080
1111.221;    8.764;  -14.160;  604.460
1111.763;    7.617;  -13.980;  559.220
1112.304;    7.638;  -13.880;  547.140
1112.846;    8.326;  -12.210;  666.240
1113.388;   11.181;  -11.390;  942.180
1113.930;    7.952;  -14.540;  694.200
1114.472;    7.596;  -12.640;  606.540
1115.013;    5.843;  -11.620;  551.280
1115.555;    6.520;  -13.640;  587.100
1116.097;    6.098;  -15.380;  579.480
1116.638;    6.914;  -12.640;  684.600
1117.180;    7.318;   -9.850;  667.740
1117.721;    7.009;  -13.690;  568.580
1118.262;    7.499;  -12.680;  677.960
1118.804;    7.435;  -12.530;  637.340
1119.345;    6.035;  -11.690;  578.400
1119.886;    7.281;  -13.380;  704.040
1120.427;    5.871;  -14.070;  589.020
1120.969;    6.038;  -13.500;  597.920
1121.510;    5.543;  -11.480;  563.060
1122.051;    6.553;  -12.830;  723.580
1122.592;    5.405;  -14.290;  655.420
1123.133;    4.624;  -12.400;  547.940
1123.673;    6.601;  -10.130;  706.480
1124.214;    5.035;  -12.930;  612.460
1124.755;    6.471;  -14.380;  639.460
1125.296;    6.459;  -14.000;  627.320
1125.836;    6.771;  -10.070;  691.500
1126.377;    5.093;  -12.640;  599.660
1126.918;    5.683;  -12.960;  614.980
1127.458;    4.775;  -13.350;  622.220
1127.999;    5.533;  -10.750;  656.980
1128.539;    5.688;  -12.350;  694.240
1129.079;    4.785;  -14.860;  632.720
1129.620;    4.460;  -13.840;  558.100
1130.160;    4.126;  -12.330;  539.480
1130.700;    5.034;  -14.530;  640.840
1131.240;    5.111;  -12.530;  643.700
1131.781;    4.319;  -14.450;  619.680
1132.321;    4.137;   -9.790;  599.120
1132.861;    3.228;  -14.860;  564.200
1133.401;    3.155;  -14.290;  593.940
1133.941;    4.727;  -11.750;  626.280
1134.481;    3.528;   -9.920;  597.580
1135.020;    3.638;  -12.290;  609.160
1135.560;    4.463;  -11.650;  674.940
1136.100;    3.097;  -16.270;  501.160
1136.640;    2.824;  -10.890;  510.480
1137.179;    3.235;  -14.180;  537.960
1137.719;    3.059;  -16.250;  605.400
1138.258;    3.963;  -14.230;  587.360
1138.798;    4.041;   -9.090;  663.780
1139.337;    1.993;  -15.130;  482.840
1139.877;    2.797;  -13.680;  642.360
1140.416;    5.452;  -11.320;  878.060
1140.955;    2.041;  -10.860;  535.380
1141.494;    2.470;  -12.920;  669.280
1142.034;    2.685;  -13.930;  583.520
1142.573;    3.824;  -11.440;  646.280
1143.112;    2.208;  -12.000;  553.480
1143.651;    2.784;  -13.670;  536.480
1144.190;    3.160;  -12.730;  691.640
1144.729;    1.578;  -14.560;  607.420
1145.267;    2.237;  -11.830;  584.900
1145.806;    2.779;  -12.230;  637.040
1146.345;    1.757;  -14.130;  635.020
1146.884;    1.674;  -11.590;  622.500
1147.422;    1.489;  -12.550;  533.060
1147.961;    2.650;  -11.180;  708.460
1148.500;    2.323;  -11.510;  669.720
1149.038;    1.997;  -11.640;  632.500
1149.577;    1.887;  -10.130;  698.640
1150.115;    0.106;  -13.970;  452.280
1150.653;    1.591;  -14.520;  607.340
1151.192;    1.329;  -12.810;  552.920
1151.730;    2.285;   -9.100;  652.560
1152.268;    1.086;  -12.220;  589.520
1152.806;    1.233;  -14.140;  571.180
1153.344;   -0.258;  -12.350;  577.640
1153.882;    0.744;   -8.980;  600.060
1154.421;   -0.402;  -15.190;  470.620
1154.958;    0.159;  -15.210;  595.240
1155.496;    1.582;  -12.850;  645.280
1156.034;    1.257;   -9.940;  721.880
1156.572;    1.907;  -13.570;  667.060
1157.110;    0.014;  -14.590;  473.940
1157.647;    1.030;  -13.030;  676.960
1158.185;   -0.260;  -12.140;  564.320
1158.723;   -0.708;  -14.390;  509.200
1159.260;    0.909;  -14.090;  701.700
1159.798;    0.390;  -11.920;  658.160
1160.335;    0.380;  -11.110;  631.820

