
Integration time [ms]:   3.882
Averaging Nr. [scans]: 1000
Smoothing Nr. [pixels]: 0
Data measured with spectrometer [name]: 7414430SP
Wave   ;Sample   ;Dark     ;Reference
[nm]   ;[counts] ;[counts] ;[counts] 

288.544;  140.511;    7.153;  793.890
289.143;  144.394;    8.402;  681.602
289.742;  145.352;    7.062;  828.814
290.341;  132.177;    0.191;  789.841
290.940;  121.847;    0.321;  730.702
291.538;  122.631;    3.811;  881.108
292.137;  121.302;   -3.438;  792.581
292.736;  125.036;   -2.809;  975.101
293.335;  121.866;   -5.239;  735.086
293.934;  123.058;   -4.939;  781.677
294.532;  122.545;   -2.199; 1031.958
295.131;  107.919;   -6.831;  834.394
295.730;  107.940;   -6.620;  809.588
296.328;  106.098;   -6.471;  783.442
296.927;  106.260;   -6.571;  779.652
297.525;  106.763;   -7.391;  781.236
298.124;   97.306;   -9.402;  654.009
298.722;  102.943;   -5.781;  761.933
299.321;  100.329;   -6.351;  708.597
299.919;   98.044;   -8.661;  751.918
300.518;   93.908;  -11.922;  689.338
301.116;   96.346;   -6.941;  691.381
301.715;   96.913;   -5.471;  730.222
302.313;   95.381;   -8.361;  704.943
302.911;   90.524;   -9.082;  733.830
303.509;   96.079;   -4.571;  925.627
304.108;   93.793;   -7.111;  760.383
304.706;   92.836;   -7.681;  801.664
305.304;   88.140;   -9.162;  796.707
305.902;   93.288;   -6.761;  784.484
306.500;   88.700;   -6.921;  728.200
307.098;   86.469;   -6.491;  746.560
307.696;   84.353;   -6.941;  780.432
308.294;   85.549;   -6.301;  731.359
308.892;   87.952;   -4.771;  759.769
309.490;   83.331;   -5.141;  712.161
310.088;   81.939;   -2.912;  788.444
310.686;   87.191;   -0.421;  821.749
311.284;   82.518;   -3.461;  766.040
311.882;   80.155;   -6.282;  731.225
312.480;   76.502;   -3.632;  697.167
313.078;   79.569;   -2.112;  808.331
313.675;   79.925;   -1.931;  691.600
314.273;   73.998;   -1.442;  797.837
314.871;   73.970;   -3.002;  589.829
315.468;   72.010;   -2.252;  652.090
316.066;   74.986;   -1.091;  694.427
316.664;   67.925;   -4.512;  656.351
317.261;   72.124;   -0.062;  910.128
317.859;   67.657;   -0.952;  768.735
318.456;   69.084;    0.719;  830.096
319.054;   64.315;   -4.002;  787.828
319.651;   63.172;   -4.972;  759.928
320.249;   62.696;   -1.162;  810.188
320.846;   60.597;   -2.651;  714.286
321.443;   58.083;   -3.832;  832.135
322.041;   55.517;   -4.312;  812.315
322.638;   53.114;   -3.872;  701.456
323.235;   55.185;   -4.361;  665.683
323.833;   52.457;   -4.821;  740.354
324.430;   47.717;   -6.971;  615.900
325.027;   49.845;   -4.361;  876.855
325.624;   48.846;   -5.581;  644.532
326.221;   46.537;   -6.601;  689.717
326.818;   45.050;   -7.301;  818.332
327.415;   48.882;   -6.180;  748.828
328.012;   48.171;   -5.920;  690.585
328.609;   45.771;   -8.390;  731.389
329.206;   44.009;   -6.121;  778.621
329.803;   44.470;   -5.241;  737.841
330.400;   46.367;   -7.420;  704.260
330.997;   47.169;   -5.931;  817.147
331.594;   44.565;   -5.641;  788.185
332.191;   50.843;   -6.451;  728.722
332.787;   54.237;   -4.651;  844.463
333.384;   51.005;   -5.472;  763.093
333.981;   48.914;   -6.303;  815.687
334.578;   52.828;   -5.892;  708.378
335.174;   54.711;   -4.102;  731.469
335.771;   53.063;   -8.053;  836.456
336.367;   51.257;   -7.363;  710.631
336.964;   55.905;   -6.243;  793.266
337.561;   54.035;   -5.653;  731.112
338.157;   48.220;   -7.074;  911.916
338.754;   47.489;   -5.474;  796.589
339.350;   45.193;   -5.624;  722.493
339.946;   48.077;   -5.054;  773.135
340.543;   40.388;   -6.695;  846.136
341.139;   34.130;   -6.215;  720.836
341.735;   32.404;   -5.746;  772.593
342.332;   31.969;   -7.335;  691.472
342.928;   32.043;   -4.835;  795.394
343.524;   26.266;   -4.586;  761.684
344.120;   23.017;   -3.946;  738.562
344.716;   26.550;   -4.835;  723.717
345.313;   23.685;   -5.325;  795.342
345.909;   19.031;   -6.535;  627.336
346.505;   21.275;   -4.725;  740.247
347.101;   22.019;   -4.164;  827.864
347.697;   21.706;   -5.274;  785.398
348.293;   15.893;   -7.145;  627.244
348.889;   17.843;   -4.364;  745.914
349.485;   16.794;   -6.404;  688.205
350.081;   17.063;   -7.534;  772.592
350.676;   12.550;   -6.995;  691.606
351.272;   18.163;   -3.544;  809.530
351.868;   17.654;   -5.324;  780.497
352.464;   14.236;   -7.204;  723.932
353.059;   10.141;   -6.894;  646.017
353.655;   13.827;   -3.754;  777.063
354.251;   15.110;   -6.143;  759.845
354.846;    9.743;   -9.464;  740.646
355.442;    6.993;   -7.555;  753.071
356.038;   10.067;   -5.474;  751.708
356.633;    9.418;   -5.914;  728.594
357.229;    8.223;   -8.944;  724.757
357.824;    6.021;   -6.794;  703.600
358.420;    5.410;   -5.754;  679.726
359.015;    5.843;   -5.664;  695.357
359.610;    6.563;   -8.004;  763.920
360.206;   -0.248;   -8.815;  603.240
360.801;    3.958;   -8.834;  646.503
361.396;    6.465;   -6.274;  725.975
361.992;    1.776;   -8.574;  668.220
362.587;   -1.654;   -9.265;  670.160
363.182;    1.269;   -5.484;  689.631
363.777;    1.839;   -5.164;  738.242
364.372;    0.977;   -6.954;  737.314
364.967;   -2.660;   -7.065;  680.744
365.563;    2.045;   -5.684;  815.567
366.158;   -1.447;   -6.484;  685.161
366.753;   -0.428;   -8.004;  649.263
367.348;   -2.688;  -10.114;  746.056
367.942;   -2.122;   -7.764;  697.298
368.537;   -2.580;   -4.554;  754.245
369.132;   -3.500;   -7.664;  703.428
369.727;   -7.287;   -8.905;  638.079
370.322;   -5.687;   -4.945;  580.186
370.917;   -5.582;   -7.095;  710.646
371.511;   -2.741;   -6.574;  861.834
372.106;   -6.825;   -6.515;  776.964
372.701;   -9.136;   -8.225;  585.988
373.296;   -3.642;   -4.494;  863.135
373.890;   -9.521;   -7.965;  647.840
374.485;  -11.480;   -9.745;  691.199
375.079;   -6.997;   -5.554;  738.685
375.674;   -4.817;   -4.724;  812.970
376.268;   -9.620;   -8.365;  691.759
376.863;  -15.819;   -8.126;  580.327
377.457;   -9.335;   -6.045;  662.490
378.052;  -10.378;   -6.835;  764.884
378.646;  -11.868;   -9.375;  741.167
379.240;  -12.464;   -6.185;  721.176
379.835;  -11.273;   -6.135;  636.978
380.429;  -13.114;   -8.365;  562.557
381.023;  -12.633;   -7.935;  779.205
381.617;  -15.868;   -8.325;  680.106
382.212;  -11.817;   -7.405;  685.303
382.806;  -11.452;   -4.155;  760.690
383.400;  -15.811;   -8.945;  672.281
383.994;  -16.230;   -8.365;  664.870
384.588;  -12.010;   -7.824;  697.701
385.182;  -10.765;   -7.984;  726.624
385.776;  -12.670;  -10.404;  706.875
386.370;  -16.648;   -7.335;  681.968
386.964;  -14.082;   -7.485;  684.155
387.558;  -12.705;   -8.174;  598.360
388.152;  -16.121;  -10.415;  681.959
388.745;  -13.794;   -9.595;  814.707
389.339;  -12.849;   -6.454;  747.642
389.933;  -11.948;   -5.804;  695.370
390.527;  -12.719;   -6.854;  859.029
391.120;  -19.691;   -7.665;  595.318
391.714;  -16.739;   -7.245;  711.633
392.308;  -12.899;   -4.514;  780.253
392.901;  -16.970;   -7.935;  642.460
393.495;  -19.191;   -8.585;  595.414
394.089;  -16.627;   -5.245;  760.452
394.682;  -16.868;   -6.305;  697.188
395.275;  -17.889;   -9.335;  719.927
395.869;  -18.878;   -7.375;  667.314
396.462;  -17.594;   -7.055;  616.609
397.056;  -13.234;   -5.434;  776.621
397.649;  -17.859;   -9.525;  731.575
398.242;  -15.283;   -7.574;  712.645
398.836;  -13.731;   -5.134;  766.408
399.429;  -15.957;   -6.544;  631.041
400.022;  -18.730;   -9.215;  665.902
400.615;  -16.332;   -8.105;  805.609
401.208;  -14.592;   -7.614;  691.451
401.802;  -16.575;   -8.085;  699.329
402.395;  -18.016;   -9.575;  683.502
402.988;  -19.690;   -9.285;  696.627
403.581;  -16.115;   -7.514;  646.878
404.174;  -12.881;   -6.404;  686.568
404.767;  -16.630;   -8.775;  638.583
405.360;  -19.278;   -7.415;  621.445
405.953;  -12.889;   -5.624;  759.034
406.545;  -12.680;   -6.474;  725.342
407.138;  -17.147;   -8.445;  618.350
407.731;  -15.930;  -10.044;  613.303
408.324;  -11.865;   -8.484;  660.554
408.917;  -12.599;   -7.624;  681.864
409.509;  -14.480;   -8.304;  740.396
410.102;  -17.111;   -8.495;  643.948
410.695;  -10.825;   -7.824;  665.758
411.287;  -11.510;   -7.754;  599.821
411.880;  -13.366;   -9.294;  585.421
412.472;  -16.033;   -8.814;  613.092
413.065;  -13.477;   -6.674;  629.408
413.657;  -11.402;   -9.664;  576.678
414.250;  -10.392;  -10.264;  646.681
414.842;  -13.176;   -8.664;  676.353
415.434;  -10.415;   -8.584;  570.463
416.027;   -5.979;   -9.423;  652.196
416.619;   -7.860;  -10.764;  713.400
417.211;   -8.931;   -7.404;  599.352
417.804;   -5.057;   -7.383;  628.499
418.396;   -9.279;   -8.334;  607.643
418.988;   -6.880;   -9.633;  659.238
419.580;  -10.459;  -10.554;  568.276
420.172;   -8.466;   -8.683;  536.196
420.764;   -3.976;   -9.713;  672.482
421.356;   -5.341;  -11.303;  636.898
421.948;   -6.007;   -8.453;  677.661
422.540;   -1.211;   -5.793;  680.027
423.132;   -1.950;   -7.162;  600.641
423.724;   -5.620;   -7.933;  561.267
424.316;   -3.343;   -9.083;  621.345
424.908;    0.451;   -8.392;  591.517
425.500;    0.955;   -8.062;  647.978
426.092;    0.989;   -9.692;  648.268
426.683;   -0.144;   -8.223;  684.836
427.275;    3.579;   -8.602;  641.471
427.867;    4.491;   -8.382;  668.948
428.458;    5.182;  -10.472;  732.344
429.050;    2.952;   -9.112;  680.749
429.642;    6.324;   -7.752;  743.124
430.233;    6.542;   -8.832;  569.356
430.825;    7.436;   -8.292;  724.809
431.416;    4.527;   -7.522;  698.241
432.008;    8.672;   -9.262;  651.723
432.599;    9.331;   -6.441;  656.073
433.190;    6.553;   -9.222;  637.670
433.782;    5.142;  -11.832;  590.395
434.373;   13.028;   -7.121;  884.765
434.964;   11.990;   -9.141;  602.920
435.556;    9.288;   -9.332;  634.537
436.147;   11.559;   -8.892;  758.490
436.738;   12.171;   -8.151;  701.099
437.329;   17.367;   -8.281;  721.723
437.920;   10.054;   -9.062;  666.688
438.511;    9.233;  -11.182;  564.526
439.103;   17.285;   -7.461;  623.998
439.694;   19.328;   -8.541;  681.583
440.285;   19.106;   -7.351;  764.432
440.876;   17.608;   -8.201;  845.738
441.466;   16.645;  -10.381;  575.162
442.057;   22.578;   -7.620;  665.814
442.648;   20.740;   -8.461;  746.255
443.239;   18.255;   -8.991;  620.477
443.830;   24.208;   -7.910;  704.958
444.421;   26.535;   -7.340;  655.474
445.011;   22.884;   -8.981;  693.619
445.602;   21.362;   -9.341;  743.126
446.193;   23.242;  -11.390;  488.117
446.783;   28.633;  -11.240;  640.397
447.374;   24.112;   -8.471;  692.759
447.964;   24.348;   -8.471;  713.770
448.555;   32.948;   -6.590;  822.742
449.145;   29.727;   -8.200;  662.853
449.736;   29.767;  -11.040;  803.179
450.326;   29.174;   -9.640;  713.626
450.917;   34.669;   -9.480;  675.324
451.507;   34.806;   -8.020;  600.661
452.097;   34.781;  -10.210;  746.267
452.688;   35.369;   -7.810;  742.160
453.278;   35.113;   -9.360;  566.840
453.868;   40.547;   -8.669;  793.550
454.458;   37.224;  -10.950;  651.141
455.048;   37.580;  -10.200;  711.783
455.639;   39.825;   -9.369;  567.096
456.229;   43.808;   -7.739;  710.694
456.819;   44.649;   -8.939;  751.158
457.409;   44.977;   -7.169;  773.993
457.999;   47.612;   -7.779;  737.505
458.589;   47.470;   -7.039;  686.606
459.179;   47.613;   -9.019;  717.658
459.769;   44.856;   -8.909;  627.099
460.358;   50.943;   -8.659;  797.262
460.948;   49.954;   -8.209;  689.503
461.538;   52.197;   -9.879;  660.677
462.128;   49.719;   -9.379;  664.934
462.717;   56.586;   -9.158;  710.326
463.307;   59.935;   -8.638;  705.846
463.897;   54.793;   -8.869;  656.942
464.486;   54.775;   -7.409;  837.128
465.076;   59.711;   -9.618;  733.776
465.666;   62.419;   -7.578;  652.900
466.255;   59.437;   -9.369;  785.651
466.845;   58.791;  -10.049;  666.749
467.434;   62.684;   -8.168;  725.873
468.023;   63.644;   -9.188;  658.357
468.613;   60.325;   -9.849;  713.946
469.202;   64.249;  -12.958;  646.507
469.791;   68.803;   -9.488;  737.811
470.381;   70.968;   -6.468;  742.813
470.970;   69.944;  -10.248;  711.099
471.559;   70.355;  -11.428;  733.291
472.148;   73.430;   -9.738;  675.737
472.738;   75.925;   -7.877;  765.466
473.327;   75.626;  -11.868;  637.529
473.916;   74.264;   -8.578;  737.446
474.505;   79.333;  -11.137;  751.703
475.094;   81.834;   -9.407;  806.570
475.683;   80.688;   -9.977;  797.699
476.272;   80.906;  -10.807;  730.632
476.861;   84.655;  -11.017;  706.754
477.449;   91.090;  -10.316;  728.487
478.038;   85.325;  -10.187;  692.513
478.627;   85.498;  -12.458;  714.852
479.216;   93.207;  -10.127;  769.441
479.805;   96.906;   -6.256;  783.375
480.393;   95.818;   -8.737; 1008.945
480.982;   94.058;   -9.087;  874.501
481.571;  100.468;   -7.806;  858.333
482.159;  101.174;  -10.596;  705.386
482.748;  100.317;  -11.507;  821.385
483.336;  105.209;   -8.366;  858.209
483.925;  106.050;   -7.497;  774.373
484.513;  112.166;   -8.326;  758.962
485.102;  108.819;  -10.277;  810.965
485.690;  117.200;   -8.256; 1011.050
486.278;  118.968;   -7.146;  979.329
486.867;  119.249;   -7.986;  809.662
487.455;  121.273;   -9.926;  898.229
488.043;  121.903;  -10.026;  748.361
488.631;  131.330;   -7.226; 1005.079
489.220;  134.802;   -8.696;  908.626
489.808;  133.929;  -12.276;  741.415
490.396;  141.016;   -9.386;  914.645
490.984;  145.778;   -8.506;  830.161
491.572;  155.823;   -8.226;  940.315
492.160;  161.142;   -9.836;  919.081
492.748;  169.492;  -10.316;  884.341
493.336;  188.947;   -7.146; 1019.693
493.924;  210.065;   -7.965;  958.077
494.512;  232.268;  -10.316; 1066.638
495.100;  263.708;  -10.186; 1103.280
495.687;  311.089;   -7.805; 1206.373
496.275;  369.458;   -9.686; 1150.796
496.863;  442.007;  -11.566; 1281.171
497.451;  528.086;  -11.406; 1386.805
498.038;  644.566;   -8.235; 1556.729
498.626;  753.978;   -7.485; 1741.407
499.214;  898.822;   -8.646; 2016.609
499.801; 1117.795;   -9.936; 2220.633
500.389; 1302.147;   -8.056; 2312.494
500.976; 1471.461;   -6.166; 2744.849
501.564; 1650.956;   -9.126; 3148.565
502.151; 1944.006;  -12.456; 3515.999
502.738; 2325.447;  -10.056; 3971.274
503.326; 2688.955;  -10.605; 4403.796
503.913; 3016.141;  -10.576; 5161.749
504.500; 3469.183;   -9.056; 5986.420
505.088; 3918.126;  -10.136; 6381.201
505.675; 4649.234;   -9.075; 6925.547
506.262; 5093.759;  -11.346; 7619.060
506.849; 5661.867;   -9.376; 8733.969
507.436; 6208.784;   -7.365; 9790.121
508.023; 6559.360;   -8.686; 9985.472
508.610; 6952.974;   -8.846;10434.618
509.197; 7841.356;   -9.077;11198.435
509.784; 9114.659;  -10.246;12391.194
510.371; 9561.849;   -9.825;13603.713
510.958;10249.132;  -10.896;14426.586
511.545;10955.263;   -9.006;15243.775
512.132;11621.667;   -8.765;15945.876
512.719;12705.130;   -8.286;16340.369
513.305;14618.591;   -9.256;18011.766
513.892;16772.605;  -11.106;19754.971
514.479;18483.146;   -8.576;20967.805
515.066;19841.979;   -9.046;22299.793
515.652;20363.500;  -10.676;22908.660
516.239;21611.527;  -10.166;23798.875
516.825;22034.641;  -11.266;25567.275
517.412;21596.125;   -7.446;28154.959
517.998;21794.084;  -10.916;28344.111
518.585;21114.877;   -9.166;27134.219
519.171;20946.191;  -10.135;27268.576
519.758;22410.424;   -8.806;28964.129
520.344;25420.457;   -6.716;30664.494
520.930;27372.205;  -10.166;32550.605
521.516;27973.186;   -9.615;35422.895
522.103;29351.998;   -8.656;38280.004
522.689;31237.236;   -9.646;37835.117
523.275;31852.475;  -10.786;37288.613
523.861;32617.430;   -9.266;37281.395
524.447;32498.270;   -8.285;37846.949
525.033;32687.570;   -9.426;38321.949
525.619;32340.326;   -9.836;38579.285
526.205;33210.383;   -8.136;40622.875
526.791;34183.109;   -9.986;42258.836
527.377;35803.652;   -8.236;42966.902
527.963;34249.309;  -12.117;42018.949
528.549;32670.240;   -8.376;42476.828
529.135;33995.711;   -8.696;41854.852
529.721;35728.684;   -9.686;41237.711
530.306;37720.516;   -8.616;41259.445
530.892;41185.883;   -9.396;41506.047
531.478;41908.652;   -9.926;43559.613
532.063;42900.543;  -10.236;47695.563
532.649;44891.582;   -8.257;50808.324
533.235;46181.430;  -11.476;51787.500
533.820;45137.879;   -8.156;52145.035
534.406;44444.547;  -12.257;51133.488
534.991;42873.738;   -8.686;49996.805
535.576;40631.898;   -9.426;48882.852
536.162;40047.633;   -8.436;46942.285
536.747;38745.762;  -10.957;45711.746
537.333;38293.957;  -13.147;48510.180
537.918;40649.000;   -9.027;50439.891
538.503;41670.715;   -8.256;50863.711
539.088;45145.645;  -10.576;50906.922
539.673;47178.852;  -10.907;52621.965
540.259;47892.250;   -9.126;52368.094
540.844;45150.664;   -9.026;50879.109
541.429;46874.477;   -9.597;52077.777
542.014;50501.566;  -11.447;52716.695
542.599;51201.684;   -9.236;52363.281
543.184;49366.668;  -12.267;53187.137
543.769;50837.078;  -10.367;54697.605
544.354;50898.805;  -10.887;53913.914
544.938;44752.871;  -11.687;49680.164
545.523;40251.113;   -8.286;47386.277
546.108;41473.887;   -9.317;49151.949
546.693;43179.902;  -10.187;51384.637
547.278;42166.086;   -9.926;51853.254
547.862;41666.207;   -9.196;51173.750
548.447;41392.703;   -9.657;51691.395
549.031;42050.492;   -9.127;52456.703
549.616;45259.277;  -10.836;52714.516
550.201;48405.867;   -8.507;52414.598
550.785;49081.758;  -10.537;52355.059
551.370;49394.785;  -11.727;54589.453
551.954;49099.043;   -9.457;58267.348
552.538;48061.816;   -8.147;59062.176
553.123;46867.883;   -9.397;58115.285
553.707;45021.313;   -9.558;56556.285
554.291;45504.004;   -9.417;56201.668
554.876;45787.309;   -7.627;55335.762
555.460;44250.008;  -10.457;54155.703
556.044;42378.313;  -10.078;53721.484
556.628;43100.074;   -9.407;53731.016
557.212;43120.852;   -7.957;54312.531
557.796;42876.160;  -11.327;53797.773
558.380;47026.910;  -10.868;56145.984
558.964;47434.719;   -9.637;57277.930
559.548;45786.168;   -8.807;56459.641
560.132;46750.094;  -10.187;54434.543
560.716;45961.047;   -9.868;54800.617
561.300;47146.797;  -10.217;57606.945
561.884;47733.477;   -4.947;58972.445
562.467;46788.867;   -9.588;57327.570
563.051;44865.660;  -11.138;54962.434
563.635;42879.004;   -9.358;52594.473
564.219;42362.441;   -9.797;50610.410
564.802;42886.035;   -9.918;49551.180
565.386;40757.605;  -10.838;48370.953
565.969;39697.449;   -8.037;48178.871
566.553;39097.070;   -5.667;49957.305
567.136;38339.043;   -8.258;50369.594
567.720;37208.348;  -11.278;49492.004
568.303;38836.855;   -9.028;50616.352
568.887;38518.504;   -7.508;50727.148
569.470;36659.293;  -11.068;51698.379
570.053;35573.242;  -10.028;52122.078
570.637;33948.148;  -11.077;52536.438
571.220;35055.906;   -8.747;51186.098
571.803;38262.273;   -8.868;51032.762
572.386;40981.289;  -10.608;49609.887
572.969;40366.051;  -10.548;48285.926
573.552;38072.906;   -7.898;47624.285
574.135;39457.953;   -9.918;45498.641
574.718;35471.816;  -10.328;41970.434
575.301;32516.703;   -9.548;41447.137
575.884;29561.590;   -8.768;40923.836
576.467;32868.410;   -9.858;45267.723
577.050;33535.586;  -11.018;48175.543
577.633;34837.555;  -10.048;47729.328
578.216;34256.828;  -10.268;47579.793
578.799;31641.082;  -11.808;47820.996
579.381;31155.156;   -7.338;48115.551
579.964;33826.180;   -9.728;47333.766
580.547;35129.598;   -8.928;46668.969
581.129;36139.043;   -9.149;44466.141
581.712;36196.215;  -11.359;44164.922
582.294;33913.730;  -10.738;46477.855
582.877;32795.168;   -8.788;48244.254
583.459;33436.836;   -9.859;47437.895
584.042;35577.137;   -9.649;46943.219
584.624;35311.133;  -10.529;46792.227
585.206;33956.816;  -10.298;46557.250
585.789;33157.883;  -11.029;45793.773
586.371;31655.850;   -9.359;43836.391
586.953;31037.867;   -8.799;42972.492
587.536;30591.516;   -8.928;42487.211
588.118;30900.283;   -9.180;42086.414
588.700;30500.375;  -10.519;43389.930
589.282;29431.740;   -8.098;43646.039
589.864;29052.154;   -8.139;43438.109
590.446;30877.857;  -10.509;43151.926
591.028;31875.086;  -11.119;42781.867
591.610;33235.715;  -10.019;42839.098
592.192;32739.357;   -8.838;42820.402
592.774;29760.799;  -11.549;40724.277
593.356;26868.775;  -11.609;39874.789
593.937;26238.658;  -10.019;39980.648
594.519;28451.715;   -7.839;42069.633
595.101;30706.398;  -10.779;42976.031
595.683;31423.330;  -10.049;44084.441
596.264;30225.943;   -9.969;43478.797
596.846;28602.578;   -9.699;43803.672
597.427;26333.338;  -10.970;42986.934
598.009;26023.398;  -13.090;42832.219
598.591;27122.621;   -9.509;42580.086
599.172;28800.502;   -9.019;43061.805
599.753;30189.418;  -13.310;41691.469
600.335;31393.736;  -11.010;40692.520
600.916;31103.799;  -10.309;39982.422
601.498;30080.357;   -8.209;40318.617
602.079;29488.049;  -11.440;40670.609
602.660;31270.484;   -8.690;41450.898
603.241;32671.195;  -12.759;41137.738
603.823;31217.221;  -10.409;38868.797
604.404;30614.646;  -11.790;38182.785
604.985;32239.545;  -10.280;38078.047
605.566;33552.340;   -8.059;38056.633
606.147;31058.850;   -8.960;37020.418
606.728;29205.168;  -10.710;37883.359
607.309;28415.516;  -12.760;38748.273
607.890;26856.596;   -9.959;38850.230
608.471;27290.574;   -9.780;37457.918
609.051;29105.760;   -8.940;36066.457
609.632;30424.820;  -12.070;35991.074
610.213;30282.588;   -9.610;37402.641
610.794;29950.033;   -8.750;38383.363
611.374;30198.285;  -11.100;40562.387
611.955;30704.244;  -12.200;38533.727
612.536;30960.916;  -10.410;36951.789
613.116;30302.373;  -10.010;37197.891
613.697;28802.049;  -10.480;38411.125
614.277;28488.531;  -12.751;38673.938
614.858;27714.262;  -11.600;37075.863
615.438;27968.473;   -8.190;35092.906
616.019;26733.840;   -8.941;33666.301
616.599;28345.180;  -13.540;34189.023
617.179;30606.814;  -10.890;36952.047
617.760;29766.086;   -7.610;39582.574
618.340;28097.867;  -14.441;38943.977
618.920;27867.689;   -9.180;37594.156
619.500;30184.221;  -11.881;37866.938
620.080;31871.342;   -9.870;37869.043
620.660;30642.109;  -13.211;36868.617
621.241;29209.785;  -11.921;36352.309
621.821;28576.445;  -10.271;35459.520
622.401;29301.439;   -8.200;35207.414
622.980;30836.406;  -11.141;35980.422
623.560;30564.404;  -14.321;37351.328
624.140;29158.467;   -9.360;34388.582
624.720;25251.238;   -7.481;32368.764
625.300;23098.881;  -12.730;32638.629
625.880;27280.248;  -11.441;34599.035
626.459;30767.887;  -10.971;36831.738
627.039;33989.426;   -9.011;38299.098
627.619;34143.445;   -8.521;38289.574
628.198;32654.344;   -9.861;37220.695
628.778;31640.795;   -8.841;37632.563
629.357;31581.141;   -9.891;38003.012
629.937;31324.043;  -11.871;38402.039
630.516;31075.039;  -10.641;37868.801
631.096;33382.914;  -11.391;35760.410
631.675;35026.492;   -6.622;35225.219
632.254;32213.490;  -13.002;35130.289
632.834;30911.832;  -11.622;35794.570
633.413;31773.641;   -8.321;35788.922
633.992;30041.578;   -7.732;34532.863
634.571;30267.879;  -10.992;33590.113
635.151;29706.395;  -10.422;34943.863
635.730;30243.453;  -11.511;35352.523
636.309;29977.203;   -7.901;35366.605
636.888;29405.098;  -11.452;36165.637
637.467;28900.121;  -10.672;37515.902
638.046;29691.953;   -9.301;39288.695
638.625;31027.777;  -11.452;38279.699
639.204;31649.377;  -12.262;37741.598
639.782;31925.506;  -11.892;38364.551
640.361;30350.295;  -11.411;36740.621
640.940;25678.447;  -11.501;34950.082
641.519;27823.926;  -10.921;34137.398
642.097;31345.902;  -10.101;35654.258
642.676;30019.186;  -10.821;35637.957
643.255;31281.945;   -8.631;36567.074
643.833;33801.301;  -11.411;37809.434
644.412;36318.168;  -12.021;37337.293
644.990;36644.145;  -12.271;37018.531
645.569;35517.762;   -9.741;36518.469
646.147;33079.602;   -9.051;36186.430
646.726;32875.285;  -13.861;36267.688
647.304;32974.715;   -9.461;36647.625
647.882;32285.943;  -13.171;39286.742
648.461;32435.930;  -11.911;39157.703
649.039;31642.855;   -9.541;35412.883
649.617;31312.928;   -8.901;34744.918
650.195;29021.205;   -8.591;35403.098
650.773;28465.047;  -13.031;35053.797
651.352;27957.182;  -12.211;33756.816
651.930;25715.396;  -11.361;31868.773
652.508;22573.922;   -8.601;33121.551
653.086;25369.836;   -9.991;33564.793
653.663;29625.422;  -11.931;34054.668
654.241;32104.488;  -10.821;35693.309
654.819;33711.242;   -9.341;36422.906
655.397;31589.705;  -10.851;38213.484
655.975;30076.381;  -11.461;39507.625
656.553;30087.875;   -8.841;39498.223
657.130;29376.828;  -10.371;40395.480
657.708;29888.365;  -11.071;39242.020
658.286;29264.740;  -11.141;38920.020
658.863;30417.109;  -10.861;40202.898
659.441;34880.637;  -11.181;39677.938
660.018;35283.363;  -10.851;40413.355
660.596;35015.031;  -12.571;39931.414
661.173;35766.652;  -12.141;39604.531
661.750;35153.816;  -11.571;39700.070
662.328;32475.188;  -10.780;39292.809
662.905;30065.730;  -10.750;38235.648
663.482;27165.537;  -11.320;36212.305
664.060;26355.992;  -10.160;35944.945
664.637;31215.258;  -13.120;35170.785
665.214;33069.102;  -11.500;34197.523
665.791;30974.422;  -12.430;34549.520
666.368;28630.770;   -9.840;35118.578
666.945;27578.334;  -11.290;36019.418
667.522;28165.322;  -13.540;36048.438
668.099;29036.398;  -10.250;36243.914
668.676;28094.350;  -11.270;35958.875
669.253;26935.592;   -8.210;37384.730
669.830;26084.902;   -9.710;36779.629
670.407;25862.576;   -9.700;35231.289
670.984;26670.514;   -9.190;35544.270
671.560;26005.553;   -9.560;35466.867
672.137;25838.760;  -11.820;34280.863
672.714;28671.070;  -12.460;34632.863
673.290;32961.289;  -10.940;35135.422
673.867;33353.910;  -10.510;36114.480
674.443;30191.945;  -12.110;36152.859
675.020;31338.193;  -11.760;35327.238
675.596;32255.824;   -9.380;35795.176
676.173;31142.016;  -11.120;35430.355
676.749;29866.613;  -13.390;33549.516
677.326;28966.066;  -12.600;32210.012
677.902;28061.061;  -10.830;32068.871
678.478;28081.652;  -12.400;32583.891
679.054;29637.766;   -8.610;32088.928
679.631;29753.018;  -11.640;30978.848
680.207;29882.617;   -8.140;33160.887
680.783;30555.688;  -12.300;35570.363
681.359;29737.861;  -10.910;36125.184
681.935;30190.654;  -11.040;35240.922
682.511;30598.281;  -11.130;34429.961
683.087;30622.453;  -11.080;34463.680
683.663;32746.617;  -10.530;34648.898
684.239;32317.346;  -12.120;34546.457
684.815;29843.549;   -8.870;35586.375
685.390;28903.469;   -8.940;35821.895
685.966;28690.469;  -12.109;35085.871
686.542;27808.787;  -13.539;34198.230
687.118;27819.646;  -10.379;32847.707
687.693;28190.148;  -10.189;32794.027
688.269;26892.016;  -12.939;33072.367
688.844;25889.701;   -8.679;33141.664
689.420;26872.207;  -10.919;33965.742
689.995;27350.406;   -7.489;34655.523
690.571;26975.488;  -12.199;33576.742
691.146;27438.320;   -8.979;32657.219
691.722;28886.232;   -9.119;32526.979
692.297;27271.078;  -10.519;33014.617
692.872;26715.533;  -10.629;34012.254
693.448;27160.135;  -12.119;34237.434
694.023;27584.467;   -8.219;34142.672
694.598;25656.689;  -13.209;34132.031
695.173;24953.885;  -11.879;34205.250
695.748;25797.043;  -12.039;32882.488
696.323;25680.428;  -11.779;32864.906
696.898;26446.162;  -10.219;33170.004
697.473;27564.170;  -13.639;32432.984
698.048;28087.883;  -11.239;31649.303
698.623;30153.025;  -10.859;30778.141
699.198;31936.055;  -13.379;31140.119
699.773;32661.621;  -13.409;31764.299
700.348;32808.379;  -12.329;31780.816
700.922;33042.766;   -8.749;32046.375
701.497;33335.508;  -12.449;32603.574
702.072;31669.545;   -8.879;34799.871
702.646;29641.160;  -10.719;35793.172
703.221;28578.199;   -8.469;35201.590
703.795;28258.520;  -11.389;34764.527
704.370;27748.912;  -12.499;34307.367
704.944;27603.521;  -11.449;33509.887
705.519;26964.863;  -10.659;31388.584
706.093;26519.408;  -12.909;31340.104
706.668;27191.410;  -13.509;32630.281
707.242;26884.355;  -10.049;32728.779
707.816;24991.971;  -10.629;32947.238
708.390;24399.561;  -11.829;33277.855
708.965;25014.760;  -11.159;33834.336
709.539;25835.217;  -11.069;33709.273
710.113;24933.691;  -10.908;33044.313
710.687;23240.365;   -9.488;31953.992
711.261;23617.043;  -13.068;30505.949
711.835;26630.055;  -12.748;30262.369
712.409;27469.617;  -10.678;31254.447
712.983;26049.053;  -11.658;32754.986
713.557;26280.441;  -13.718;34018.824
714.131;26768.262;  -13.388;34579.625
714.704;27736.957;   -9.818;33890.262
715.278;29033.908;  -11.818;33531.102
715.852;30075.412;  -11.328;33601.660
716.425;30287.623;   -9.118;33515.117
716.999;30179.568;  -10.188;33185.555
717.573;30230.389;   -9.808;33905.996
718.146;32607.227;  -11.478;35199.293
718.720;32297.916;  -10.998;35060.551
719.293;30557.211;   -9.508;34973.230
719.867;30303.395;  -12.138;36394.449
720.440;29375.594;  -11.288;36663.008
721.013;32309.627;  -11.428;35102.426
721.587;33778.016;  -11.698;33985.266
722.160;34522.625;  -11.608;33524.965
722.733;32999.434;  -11.428;32987.043
723.306;31418.949;  -12.518;33066.301
723.880;31143.367;   -7.408;33399.500
724.453;30050.008;  -11.048;33468.297
725.026;28584.240;  -11.678;33816.637
725.599;27495.377;  -10.978;32797.996
726.172;26589.797;   -8.838;33187.434
726.745;27555.846;  -11.438;35136.613
727.318;28580.129;   -9.828;35751.730
727.891;27505.941;  -10.868;35890.430
728.463;25775.939;  -11.348;34822.090
729.036;24205.082;  -11.608;32895.086
729.609;24181.314;  -14.738;31823.225
730.182;25424.895;   -8.448;31445.283
730.754;26558.938;  -11.228;32373.223
731.327;26704.541;  -12.018;33676.820
731.900;28373.275;  -13.748;33417.000
732.472;28655.143;  -10.928;31978.498
733.045;27183.373;   -9.478;30368.777
733.617;25399.908;  -12.967;30574.215
734.190;24388.299;  -11.707;31280.975
734.762;23381.393;  -11.067;31674.412
735.334;22723.383;  -10.587;31247.291
735.907;21923.311;  -11.947;29876.211
736.479;22622.779;  -11.667;29808.488
737.051;25174.121;  -10.187;30233.547
737.623;27415.625;   -6.887;31469.086
738.195;30338.297;  -12.117;31784.225
738.768;32236.867;  -14.077;32120.523
739.340;31020.457;  -12.207;32094.342
739.912;27565.342;   -8.977;31312.680
740.484;25962.873;  -11.017;31946.238
741.056;27075.744;  -13.517;32984.059
741.628;28976.721;  -11.507;33897.715
742.199;29246.158;   -7.597;33213.016
742.771;29921.561;  -12.227;31369.113
743.343;29301.133;  -12.427;31865.473
743.915;27600.824;   -9.827;32388.631
744.487;26511.271;  -10.007;31079.568
745.058;24876.055;  -11.887;30570.107
745.630;24119.352;  -10.787;29970.127
746.201;23459.721;  -10.887;29186.766
746.773;23641.037;   -9.707;28805.723
747.344;24573.166;  -11.137;29591.223
747.916;24758.984;  -11.887;31412.201
748.487;24207.955;   -9.707;32194.898
749.059;23507.877;  -10.027;32533.719
749.630;23227.348;  -11.787;32158.518
750.201;22274.541;  -12.767;30855.395
750.773;21890.422;  -11.497;28622.555
751.344;22751.982;   -9.937;28405.732
751.915;23048.770;  -11.567;28461.551
752.486;22254.744;  -13.267;27842.850
753.057;20353.922;  -10.627;27845.008
753.628;19105.459;  -11.657;27728.107
754.199;21350.680;  -12.097;27381.086
754.770;22879.721;  -11.447;25882.203
755.341;22723.742;  -11.997;25886.184
755.912;20707.941;  -10.207;26050.861
756.483;19090.561;  -10.937;26798.779
757.054;19103.480;  -11.527;27048.238
757.625;19315.492;  -12.886;26294.838
758.195;19563.580;  -11.226;26142.076
758.766;19559.451;  -12.366;26392.234
759.337;18373.932;  -11.946;26334.594
759.907;18446.641;  -13.856;27579.652
760.478;19422.912;   -9.606;28352.770
761.048;19543.502;  -11.606;27325.088
761.619;19761.152;  -11.036;26460.428
762.189;19159.453;  -12.206;26029.826
762.760;20340.240;   -9.666;26430.145
763.330;21189.275;   -9.796;26670.902
763.900;19332.035;  -10.896;26603.021
764.471;17889.738;  -11.726;25542.740
765.041;18554.158;   -9.656;24358.459
765.611;19467.707;  -11.276;23991.297
766.181;19069.014;  -12.116;24470.236
766.751;18428.297;  -12.376;24845.975
767.321;18418.324;  -11.626;24533.633
767.891;18622.449;  -10.426;24916.492
768.461;17337.496;  -13.456;24776.771
769.031;15335.378;  -11.616;24757.988
769.601;15253.524;  -11.356;24181.088
770.171;15493.183;  -11.586;23670.387
770.741;15901.057;  -12.696;22960.045
771.311;16103.965;  -10.226;22917.523
771.880;15844.590;  -11.146;23562.941
772.450;16557.211;  -11.716;24216.500
773.020;16847.600;  -13.226;24140.398
773.589;16411.318;  -12.586;24414.857
774.159;16078.854;  -10.246;23858.717
774.729;15588.394;  -11.586;22942.135
775.298;14813.469;  -15.926;22324.033
775.867;14908.131;  -10.426;21140.313
776.437;14700.996;  -11.416;20838.092
777.006;13233.204;  -12.766;20599.510
777.576;13451.841;  -13.666;20508.809
778.145;14082.920;  -10.066;20732.947
778.714;13690.873;  -10.276;21062.465
779.283;14010.745;  -12.086;20949.664
779.853;15322.125;  -14.016;20508.623
780.422;15610.685;  -12.376;20649.082
780.991;14577.929;   -9.246;21527.520
781.560;13729.155;   -9.775;22632.658
782.129;13453.751;  -12.495;23048.277
782.698;13162.429;  -11.775;23438.555
783.267;13429.807;  -10.065;23267.734
783.836;14050.261;  -12.455;22415.133
784.404;14739.298;  -13.385;20443.152
784.973;15473.020;  -11.045;19699.150
785.542;15078.171;   -9.505;19763.828
786.111;14036.119;   -9.385;20341.408
786.679;13832.271;  -13.475;20207.967
787.248;13895.451;  -11.245;19516.465
787.817;12123.387;  -12.485;18900.363
788.385;10436.255;  -11.165;17879.121
788.954;10991.731;  -11.755;17658.301
789.522;11761.011;   -9.625;17788.879
790.090;11519.018;   -9.665;18118.277
790.659;11174.652;   -9.295;18338.736
791.227;12190.238;  -12.175;18508.615
791.795;13611.776;  -12.145;17898.254
792.364;13432.461;  -11.575;17295.133
792.932;12124.487;  -11.085;16822.051
793.500;11037.233;  -11.345;17040.148
794.068;10945.225;  -12.565;17179.787
794.636;11947.446;  -12.105;16664.246
795.204;12401.775;  -11.995;16524.545
795.772;11685.918;  -12.615;17274.564
796.340;11173.883;  -12.425;17891.002
796.908;10971.203;  -11.455;17648.561
797.476;10437.154;  -12.165;17064.080
798.044;10156.632;  -15.795;16672.777
798.612;10393.877;  -10.985;17023.996
799.180;11168.575;  -12.055;16561.615
799.747;11517.053;  -12.525;15962.773
800.315;10356.957;  -14.765;15296.992
800.883; 9128.623;  -12.435;14801.771
801.450; 9012.291;  -11.295;14534.430
802.018; 9420.174;  -11.185;14173.248
802.585; 9394.898;  -11.625;14029.547
803.153; 8452.283;  -10.665;13836.846
803.720; 8047.430;  -10.275;13567.324
804.287; 7930.378;  -12.865;13360.622
804.855; 8132.693;  -12.324;13681.981
805.422; 8441.021;  -11.574;13536.560
805.989; 8229.896;  -11.004;13355.958
806.556; 8436.055;  -12.214;13747.896
807.124; 8846.672;  -13.304;13987.376
807.691; 8512.153;  -12.034;14038.674
808.258; 7845.595;  -11.014;14120.152
808.825; 7697.749;  -11.804;13860.111
809.392; 7624.084;  -11.544;13268.790
809.959; 7553.665;  -14.954;12680.389
810.526; 7904.230;  -10.214;12427.308
811.093; 8340.799;  -10.754;12030.105
811.659; 7970.307;  -12.194;11653.664
812.226; 6838.518;   -9.194;11637.183
812.793; 6551.687;   -9.644;11611.521
813.360; 7371.057;  -11.544;11885.181
813.926; 8207.937;  -12.814;12770.539
814.493; 8140.254;  -11.524;12677.638
815.060; 7827.611;  -12.254;11974.336
815.626; 7371.260;  -12.114;11594.715
816.193; 7057.854;  -11.994;11579.474
816.759; 6968.951;  -11.464;11666.972
817.325; 6658.377;  -10.444;11325.530
817.892; 6324.021;  -11.124;11105.369
818.458; 6224.255;  -11.864;10843.928
819.024; 6561.476;  -10.634;10714.406
819.591; 6646.842;  -10.554;10469.165
820.157; 6829.569;  -13.334;10235.523
820.723; 7047.764;  -13.044;10847.563
821.289; 7159.893;   -9.664;11040.980
821.855; 7365.883;  -10.994;10357.100
822.421; 7459.958;  -11.784; 9978.918
822.987; 7484.358;  -12.554; 9754.177
823.553; 7810.387;  -12.554;10065.755
824.119; 7626.748;   -8.544;10036.294
824.685; 6672.826;  -12.144;10029.192
825.251; 6108.626;  -12.754;10199.230
825.816; 5648.187;  -11.354; 9820.189
826.382; 5319.565;  -11.004; 9297.248
826.948; 5290.697;  -11.004; 9381.347
827.513; 5206.404;  -12.474; 9450.726
828.079; 5199.740;  -13.084; 9472.444
828.645; 5390.249;  -10.813; 9292.643
829.210; 5232.359;  -11.593; 9065.341
829.776; 5217.366;  -12.633; 9132.620
830.341; 5265.788;  -10.473; 9092.878
830.906; 5053.238;   -8.763; 9078.557
831.472; 4738.376;  -13.453; 8534.535
832.037; 4132.788;  -12.173; 8677.874
832.602; 3924.265;  -14.093; 8628.692
833.167; 4204.849;  -13.593; 8879.031
833.733; 4725.524;  -10.793; 9189.790
834.298; 5076.574;  -14.783; 9052.608
834.863; 4667.646;  -11.023; 8895.087
835.428; 4428.196;  -11.113; 8824.266
835.993; 4877.165;   -9.983; 8845.385
836.558; 5120.641;  -13.003; 8888.563
837.123; 4923.440;  -10.733; 8966.582
837.688; 4528.777;   -9.683; 8617.860
838.253; 4368.069;  -12.253; 8590.699
838.817; 4417.118;  -11.643; 8443.797
839.382; 4411.476;  -11.953; 8799.356
839.947; 4483.747;  -11.443; 8810.595
840.511; 4771.089;  -10.843; 8796.394
841.076; 5000.879;  -13.533; 8347.231
841.641; 4812.021;  -11.743; 8224.330
842.205; 4294.657;  -10.013; 8223.349
842.770; 4017.626;  -11.023; 8622.107
843.334; 4124.329;  -14.273; 8410.386
843.898; 4519.486;  -11.323; 8337.465
844.463; 4899.291;  -10.263; 8506.283
845.027; 5065.210;  -10.353; 8280.962
845.591; 4988.580;  -12.163; 8231.141
846.156; 4824.707;  -12.263; 7969.179
846.720; 4815.895;  -11.553; 7768.278
847.284; 4600.504;  -12.393; 7630.957
847.848; 3807.694;  -12.623; 7472.395
848.412; 3212.236;  -11.863; 7437.394
848.976; 3149.548;  -10.203; 7674.592
849.540; 3352.862;  -10.603; 7836.011
850.104; 3553.504;  -12.423; 7913.669
850.668; 3571.543;  -14.613; 7694.508
851.232; 3557.137;  -12.873; 7756.887
851.796; 3771.874;  -14.192; 7926.545
852.359; 3963.494;  -13.652; 7827.844
852.923; 3897.569;  -11.402; 7641.163
853.487; 3602.131;  -12.022; 7342.501
854.050; 3440.643;  -15.202; 7042.820
854.614; 3461.221;  -14.592; 7151.338
855.177; 3448.214;  -12.572; 7105.077
855.741; 3477.554;   -9.932; 6989.675
856.304; 3430.611;  -12.192; 6596.634
856.868; 3321.278;  -13.462; 6356.272
857.431; 3309.788;  -11.542; 6468.571
857.995; 3383.831;  -12.062; 6373.210
858.558; 3188.053;  -11.142; 6324.448
859.121; 3032.835;  -11.742; 6408.327
859.684; 3072.272;  -10.332; 6347.886
860.247; 3176.967;  -11.962; 6321.264
860.810; 3241.152;  -12.332; 6301.903
861.374; 3117.341;  -10.292; 6607.881
861.937; 2928.001;  -12.062; 6408.200
862.500; 2943.496;  -11.702; 6572.639
863.062; 3099.233;  -13.852; 6387.297
863.625; 3169.427;  -12.972; 6190.836
864.188; 3109.057;  -10.292; 5807.254
864.751; 3034.642;  -12.382; 5682.413
865.314; 2826.062;  -13.232; 5547.492
865.876; 2539.977;  -12.772; 5500.150
866.439; 2318.149;  -11.952; 5415.909
867.002; 2390.783;   -9.332; 5501.567
867.564; 2738.982;  -11.712; 5413.946
868.127; 2908.946;  -12.012; 5160.325
868.689; 2558.338;  -11.882; 5133.183
869.252; 2175.308;  -11.572; 5252.382
869.814; 2066.985;  -10.692; 5297.141
870.377; 2139.207;  -12.392; 5390.919
870.939; 2234.550;  -10.582; 5599.898
871.501; 2284.088;  -12.782; 5248.336
872.063; 2301.389;  -15.612; 4854.235
872.626; 2352.254;  -13.922; 4817.074
873.188; 2317.080;  -13.832; 4987.732
873.750; 2250.826;  -10.962; 4868.651
874.312; 2312.883;  -11.022; 4779.330
874.874; 2375.120;  -13.152; 4866.348
875.436; 2310.028;  -13.401; 4718.887
875.998; 2188.378;   -8.891; 4660.005
876.560; 2087.568;  -12.591; 4462.964
877.122; 2017.852;  -14.531; 4145.042
877.683; 1976.607;  -10.781; 4056.481
878.245; 1875.878;  -14.281; 3950.740
878.807; 1811.175;  -10.311; 4058.958
879.369; 1767.789;  -13.201; 3954.677
879.930; 1737.494;  -12.061; 3941.495
880.492; 1732.254;   -9.181; 4067.014
881.053; 1737.948;  -12.051; 3859.633
881.615; 1691.640;  -11.501; 3776.071
882.176; 1590.511;  -12.221; 3734.750
882.738; 1477.706;   -8.931; 3678.489
883.299; 1406.413;  -13.571; 3405.407
883.860; 1421.084;  -12.331; 3351.106
884.422; 1366.172;  -10.201; 3394.044
884.983; 1225.396;  -12.521; 3166.443
885.544; 1099.495;  -12.291; 3189.802
886.105; 1046.640;  -12.991; 3160.360
886.666; 1041.046;  -12.901; 3093.059
887.227; 1031.935;  -12.061; 2941.957
887.788;  996.334;  -11.641; 2974.836
888.349;  941.979;  -14.691; 2721.214
888.910;  891.874;   -9.681; 2696.493
889.471;  889.267;   -9.971; 2560.172
890.032;  897.062;  -13.151; 2558.190
890.593;  875.628;  -12.051; 2567.669
891.153;  836.069;  -12.841; 2460.307
891.714;  808.164;  -13.561; 2372.046
892.275;  779.973;  -12.401; 2309.505
892.835;  741.292;  -13.191; 2382.543
893.396;  698.686;  -12.551; 2295.502
893.956;  677.418;  -11.981; 2162.420
894.517;  661.381;  -12.221; 2125.439
895.077;  624.479;  -12.021; 2086.978
895.638;  561.118;  -10.891; 2126.316
896.198;  502.744;  -13.171; 1838.275
896.758;  463.617;  -11.891; 1892.813
897.319;  436.685;  -12.491; 1792.232
897.879;  420.223;  -12.401; 1762.751
898.439;  391.993;  -13.431; 1661.149
898.999;  374.583;  -11.340; 1781.468
899.559;  364.871;  -13.930; 1703.347
900.119;  345.024;  -13.730; 1537.525
900.679;  326.291;   -9.210; 1638.384
901.239;  309.451;  -10.860; 1527.902
901.799;  290.924;  -11.450; 1456.441
902.359;  273.216;  -13.800; 1357.140
902.919;  266.448;  -12.130; 1331.118
903.479;  266.868;  -12.650; 1317.257
904.038;  260.000;  -16.110; 1262.595
904.598;  244.963;  -13.690; 1152.034
905.158;  232.990;  -10.290; 1240.893
905.717;  225.461;  -10.670; 1233.691
906.277;  223.053;  -14.040; 1217.330
906.836;  223.645;  -13.510; 1222.408
907.396;  218.665;  -11.530; 1193.047
907.955;  207.643;  -13.190; 1182.526
908.515;  195.042;  -12.950; 1099.364
909.074;  186.293;  -12.390; 1092.863
909.633;  181.939;  -10.340; 1069.121
910.192;  179.589;  -11.170; 1196.460
910.752;  174.409;  -14.200; 1029.960
911.311;  170.154;  -13.810; 1009.780
911.870;  167.226;  -12.750;  971.460
912.429;  166.789;  -12.380; 1094.080
912.988;  163.028;  -11.930; 1081.060
913.547;  157.858;  -10.990;  940.380
914.106;  154.472;  -11.200;  999.420
914.665;  152.733;  -13.150;  984.020
915.224;  150.083;  -13.310; 1035.760
915.782;  148.100;  -13.340;  922.560
916.341;  148.828;  -10.710; 1049.840
916.900;  146.455;  -12.980;  925.260
917.458;  143.532;  -13.060;  884.220
918.017;  142.635;  -10.900;  942.600
918.576;  141.357;  -11.630;  904.440
919.134;  140.519;  -12.860;  837.980
919.693;  140.642;  -15.160;  893.060
920.251;  140.886;  -13.470;  876.500
920.809;  140.297;  -13.700;  839.580
921.368;  141.338;  -13.420;  885.360
921.926;  140.704;  -14.710;  842.940
922.484;  141.541;  -12.560;  903.360
923.042;  141.120;  -11.930;  880.340
923.601;  141.516;  -10.270;  998.680
924.159;  139.976;  -12.960;  935.560
924.717;  138.955;  -13.040;  841.080
925.275;  141.941;  -12.560;  903.240
925.833;  141.959;  -13.040;  779.320
926.391;  143.714;  -13.360;  938.380
926.949;  143.244;  -13.940;  857.680
927.506;  144.932;   -9.400;  903.500
928.064;  144.261;  -10.940;  877.580
928.622;  142.992;  -13.180;  880.100
929.180;  143.081;  -12.730;  814.180
929.737;  144.787;  -12.840;  808.540
930.295;  148.368;  -11.810;  928.480
930.853;  151.875;  -13.650;  849.100
931.410;  154.334;  -13.580;  821.120
931.968;  155.654;  -12.020;  940.660
932.525;  156.106;  -13.320;  909.380
933.082;  157.865;  -13.800;  811.440
933.640;  163.387;  -11.380;  925.900
934.197;  165.317;  -11.480;  886.360
934.754;  169.087;  -13.220;  897.780
935.312;  168.533;  -14.950;  863.340
935.869;  165.595;  -10.940; 1012.980
936.426;  161.540;  -12.100;  872.800
936.983;  161.172;  -12.930;  889.020
937.540;  161.688;  -14.250;  838.280
938.097;  166.616;  -12.600;  940.120
938.654;  174.010;  -11.260;  898.860
939.211;  176.892;  -13.020;  952.480
939.768;  177.562;  -15.760;  915.420
940.324;  179.768;  -13.920;  904.200
940.881;  175.707;  -11.620;  878.500
941.438;  173.458;   -9.870; 1021.200
941.995;  170.467;  -13.920;  992.560
942.551;  168.627;  -12.830;  875.620
943.108;  171.169;  -11.980;  937.920
943.664;  175.062;  -13.740;  869.340
944.221;  180.563;  -12.670; 1088.140
944.777;  178.854;  -13.250;  869.680
945.334;  178.298;  -13.000;  884.840
945.890;  177.294;  -13.020;  946.480
946.446;  178.204;  -13.880;  947.020
947.003;  180.737;  -12.660;  964.940
947.559;  180.559;   -8.730; 1063.040
948.115;  177.859;  -11.960; 1026.540
948.671;  174.554;  -12.360;  967.300
949.227;  171.460;  -12.700;  859.560
949.783;  168.804;  -13.450;  858.900
950.339;  167.301;  -10.620;  991.000
950.895;  164.029;  -14.770; 1023.840
951.451;  161.999;  -13.650;  925.280
952.007;  162.747;  -11.180;  998.540
952.563;  160.555;  -11.680;  937.780
953.118;  157.808;  -13.280;  904.940
953.674;  161.107;  -12.510;  935.780
954.230;  163.100;  -12.220;  949.640
954.785;  161.081;  -12.190;  936.640
955.341;  157.784;  -12.270;  998.160
955.897;  153.166;  -14.900;  834.660
956.452;  149.359;  -12.520;  953.840
957.008;  139.630;   -9.410; 1083.640
957.563;  126.083;  -11.280; 1009.540
958.118;  115.244;  -13.470;  877.700
958.674;  111.269;  -12.190;  946.780
959.229;  114.366;  -12.760; 1013.980
959.784;  121.266;  -15.710;  832.400
960.339;  131.382;  -12.540; 1001.280
960.894;  135.708;  -11.680;  963.760
961.449;  134.136;  -11.410;  859.960
962.004;  134.664;  -10.430; 1212.840
962.559;  130.770;  -14.040;  860.140
963.114;  129.594;  -14.270;  742.480
963.669;  131.598;  -11.320;  915.500
964.224;  129.633;  -14.620;  874.340
964.779;  128.955;  -14.150;  828.420
965.334;  129.772;  -10.850; 1017.860
965.888;  128.463;  -14.530;  875.360
966.443;  130.508;  -13.520;  972.380
966.998;  127.138;  -13.370;  819.460
967.552;  124.558;   -9.960;  908.380
968.107;  121.181;  -12.360;  868.300
968.661;  120.913;  -12.270;  922.440
969.216;  121.485;  -12.140;  856.280
969.770;  122.712;  -11.860;  917.200
970.324;  121.696;  -12.170;  923.140
970.879;  120.628;  -14.160;  947.180
971.433;  119.240;  -12.940;  952.720
971.987;  115.617;  -10.180;  895.340
972.541;  115.706;  -12.130;  917.100
973.095;  115.229;  -14.980; 1009.460
973.649;  113.595;  -14.480;  809.480
974.203;  115.471;  -13.530;  829.040
974.757;  117.347;  -12.060;  855.220
975.311;  114.379;  -13.240;  872.600
975.865;  112.583;  -12.550;  881.820
976.419;  110.718;  -13.180;  857.400
976.973;  111.242;  -14.100;  849.620
977.526;  109.481;  -13.330;  949.920
978.080;  105.413;  -15.390;  796.780
978.634;  106.312;  -11.670;  921.320
979.187;  103.475;  -10.640;  905.400
979.741;  103.018;  -13.330; 1018.380
980.294;   99.560;  -14.480;  789.160
980.848;   98.404;  -13.420;  717.220
981.401;   96.148;  -12.360;  816.540
981.955;   94.386;  -12.480;  844.300
982.508;   90.776;  -14.000;  746.340
983.061;   90.912;  -10.440;  915.260
983.615;   87.511;  -14.340;  798.800
984.168;   84.200;  -14.950;  770.080
984.721;   84.893;  -13.270;  880.760
985.274;   83.156;  -12.240;  867.500
985.827;   80.543;  -12.720;  834.220
986.380;   75.898;  -14.920;  721.340
986.933;   76.565;  -12.860;  864.800
987.486;   75.353;  -10.440;  861.920
988.039;   74.991;  -11.820;  863.100
988.591;   73.094;  -13.760;  893.260
989.144;   71.854;  -14.080;  737.260
989.697;   72.413;  -13.440;  758.740
990.250;   73.034;  -12.050;  858.100
990.802;   71.527;  -14.550;  755.860
991.355;   71.617;  -10.770;  974.880
991.907;   69.094;  -11.710;  864.320
992.460;   66.571;  -12.650;  753.760
993.012;   65.990;  -13.860;  749.540
993.565;   63.241;  -14.310;  711.360
994.117;   64.165;   -9.920;  950.780
994.669;   60.303;  -13.420;  701.320
995.221;   59.269;  -14.200;  791.920
995.774;   59.258;  -13.400;  787.580
996.326;   58.741;  -11.850;  740.220
996.878;   58.726;  -12.230;  838.420
997.430;   55.484;  -14.260;  699.860
997.982;   55.190;  -11.430;  750.140
998.534;   56.022;  -11.590;  739.060
999.086;   54.194;  -11.960;  738.220
999.638;   53.501;  -13.640;  661.380
1000.190;   52.994;  -13.660;  699.320
1000.741;   52.952;   -9.980;  742.700
1001.293;   51.934;  -11.860;  686.020
1001.845;   50.939;  -14.280;  676.640
1002.396;   51.777;  -12.270;  743.400
1002.948;   51.192;  -13.670;  737.400
1003.500;   49.659;  -12.010;  723.780
1004.051;   49.601;  -11.890;  907.580
1004.603;   49.623;  -11.220;  791.820
1005.154;   45.358;  -13.210;  608.980
1005.705;   44.820;  -11.850;  723.960
1006.257;   44.155;  -13.670;  707.220
1006.808;   43.566;  -12.060;  685.460
1007.359;   43.287;  -10.250;  763.240
1007.910;   41.176;  -13.440;  646.640
1008.461;   41.825;  -13.170;  732.940
1009.013;   39.828;  -14.590;  588.340
1009.564;   41.381;  -12.100;  793.520
1010.115;   38.880;  -14.000;  597.040
1010.665;   38.153;  -15.020;  602.160
1011.216;   39.823;  -12.560;  667.920
1011.767;   39.008;  -11.330;  697.920
1012.318;   39.287;  -11.450;  736.980
1012.869;   37.065;  -11.000;  679.000
1013.419;   36.850;  -11.760;  603.120
1013.970;   37.248;  -11.800;  666.640
1014.521;   37.520;  -14.750;  620.620
1015.071;   36.547;  -14.430;  670.380
1015.622;   35.531;  -14.170;  635.460
1016.172;   35.871;  -11.700;  596.820
1016.723;   34.800;  -13.230;  614.380
1017.273;   34.402;  -16.120;  604.160
1017.823;   35.254;  -13.360;  650.340
1018.374;   35.259;  -13.710;  611.760
1018.924;   35.057;  -11.050;  716.880
1019.474;   35.374;  -14.120;  718.880
1020.024;   33.148;  -12.990;  657.580
1020.574;   34.432;  -12.010;  726.160
1021.124;   34.678;  -12.080;  673.580
1021.674;   32.680;  -15.860;  559.120
1022.224;   34.624;  -11.710;  708.940
1022.774;   33.406;  -13.030;  668.820
1023.324;   34.185;  -11.000;  753.520
1023.874;   34.689;  -13.270;  875.760
1024.423;   32.297;  -14.570;  613.700
1024.973;   32.299;  -12.620;  610.760
1025.523;   30.847;  -12.630;  620.960
1026.072;   30.496;  -14.110;  606.420
1026.622;   30.860;  -15.390;  675.740
1027.172;   32.038;   -9.090;  715.660
1027.721;   30.154;  -12.250;  601.220
1028.270;   30.364;  -15.590;  663.400
1028.820;   30.478;  -13.840;  638.080
1029.369;   30.618;  -13.170;  612.700
1029.918;   30.634;  -14.080;  649.840
1030.468;   29.260;  -13.860;  564.780
1031.017;   30.132;  -12.970;  634.800
1031.566;   29.133;  -12.320;  608.900
1032.115;   30.110;  -13.140;  694.500
1032.664;   28.690;  -14.560;  596.480
1033.213;   29.867;  -11.620;  735.420
1033.762;   29.251;  -13.190;  635.620
1034.311;   28.949;  -13.460;  677.220
1034.860;   28.887;  -15.770;  691.000
1035.408;   28.730;  -13.100;  722.720
1035.957;   29.736;  -12.880;  719.540
1036.506;   26.924;  -13.640;  530.800
1037.055;   29.767;  -12.420;  844.320
1037.603;   27.721;  -13.740;  664.000
1038.152;   26.496;  -13.840;  534.760
1038.700;   26.870;  -10.770;  585.740
1039.249;   26.818;  -13.520;  681.220
1039.797;   26.797;  -13.060;  633.360
1040.345;   26.537;  -11.760;  705.420
1040.894;   26.799;  -10.790;  625.300
1041.442;   25.955;  -15.420;  632.200
1041.990;   24.917;  -14.550;  559.160
1042.538;   24.677;  -15.620;  536.180
1043.087;   25.487;  -14.940;  570.860
1043.635;   26.076;  -12.100;  670.500
1044.183;   24.507;  -13.200;  586.400
1044.731;   25.341;  -11.630;  576.000
1045.279;   25.551;  -14.200;  674.920
1045.827;   27.018;  -12.510;  892.400
1046.374;   23.982;  -14.960;  515.420
1046.922;   23.545;  -11.850;  590.580
1047.470;   24.490;  -13.770;  691.300
1048.018;   24.588;  -15.380;  647.960
1048.565;   24.980;  -14.010;  708.600
1049.113;   23.168;  -14.620;  557.000
1049.660;   23.622;  -14.940;  629.660
1050.208;   23.201;  -14.540;  675.640
1050.755;   22.566;  -13.710;  606.580
1051.303;   23.850;  -11.880;  686.820
1051.850;   23.116;  -12.160;  635.120
1052.397;   19.800;  -15.110;  473.960
1052.945;   21.654;  -14.770;  617.760
1053.492;   23.379;  -12.320;  741.840
1054.039;   23.029;  -13.290;  720.180
1054.586;   21.249;  -15.210;  557.240
1055.133;   21.985;  -12.920;  693.140
1055.680;   22.586;  -12.610;  646.620
1056.227;   21.509;  -12.620;  542.780
1056.774;   23.073;  -13.010;  794.980
1057.321;   20.796;  -16.180;  523.260
1057.868;   21.024;  -11.230;  651.320
1058.415;   21.096;  -10.890;  651.980
1058.961;   20.723;  -12.530;  678.940
1059.508;   20.499;  -14.120;  643.820
1060.055;   20.719;  -13.340;  581.780
1060.601;   21.230;  -12.920;  624.300
1061.148;   19.949;  -14.430;  616.820
1061.694;   19.473;  -14.140;  592.580
1062.241;   20.508;  -12.550;  596.320
1062.787;   20.613;  -13.370;  663.140
1063.334;   21.451;  -12.260;  808.560
1063.880;   19.866;  -10.800;  668.360
1064.426;   20.633;   -9.920;  706.820
1064.972;   19.127;  -12.970;  601.340
1065.518;   18.262;  -14.440;  566.640
1066.065;   19.076;  -12.680;  624.460
1066.611;   18.328;  -13.520;  598.800
1067.157;   19.401;  -11.100;  641.860
1067.703;   18.714;  -14.100;  668.480
1068.249;   18.573;  -13.750;  605.220
1068.794;   18.563;  -11.070;  626.880
1069.340;   18.015;  -13.210;  578.960
1069.886;   17.728;  -14.850;  590.700
1070.432;   17.166;  -14.580;  541.720
1070.977;   16.772;  -12.930;  601.080
1071.523;   17.256;  -11.970;  573.060
1072.068;   17.342;  -13.730;  582.000
1072.614;   16.990;  -14.550;  527.760
1073.160;   18.043;  -13.690;  687.040
1073.705;   16.621;  -14.780;  572.520
1074.250;   16.209;  -15.430;  559.900
1074.796;   16.983;  -11.620;  655.160
1075.341;   17.969;  -11.580;  664.100
1075.886;   16.375;  -13.190;  594.240
1076.431;   16.665;  -13.630;  649.880
1076.976;   16.223;  -11.670;  639.220
1077.521;   15.843;  -11.600;  583.080
1078.067;   15.266;  -13.920;  579.400
1078.612;   15.578;  -12.910;  661.620
1079.156;   15.978;  -15.340;  601.540
1079.701;   16.133;  -12.560;  693.260
1080.246;   16.590;  -12.490;  696.300
1080.791;   15.735;  -14.550;  625.020
1081.336;   15.502;  -15.210;  659.320
1081.880;   15.604;  -11.280;  649.680
1082.425;   14.614;  -12.830;  573.480
1082.970;   15.946;  -11.680;  717.040
1083.514;   14.555;  -15.500;  597.000
1084.059;   14.237;  -11.770;  586.720
1084.603;   14.061;  -13.480;  565.840
1085.147;   14.126;  -13.940;  645.220
1085.692;   15.270;  -13.170;  716.800
1086.236;   12.782;  -15.740;  503.140
1086.780;   15.763;  -10.750;  751.440
1087.325;   14.555;  -14.900;  654.620
1087.869;   14.311;  -15.160;  610.700
1088.413;   15.071;  -11.030;  705.040
1088.957;   12.413;  -15.210;  543.400
1089.501;   14.681;  -12.310;  766.640
1090.045;   14.316;  -12.790;  726.480
1090.589;   12.240;  -14.040;  569.920
1091.133;   13.514;  -12.800;  673.340
1091.676;   12.726;  -13.600;  591.940
1092.220;   12.523;  -12.960;  600.920
1092.764;   14.094;  -10.830;  706.960
1093.307;   13.268;  -12.390;  673.780
1093.851;   11.293;  -15.850;  556.540
1094.395;   12.790;  -12.980;  683.140
1094.938;   12.273;  -13.670;  632.520
1095.482;   12.456;  -12.740;  559.800
1096.025;   12.674;  -13.340;  710.880
1096.568;   12.908;  -10.500;  779.280
1097.112;    9.844;  -13.500;  508.180
1097.655;   12.208;  -13.060;  603.000
1098.198;   10.670;  -13.240;  600.180
1098.741;   10.888;  -15.490;  612.860
1099.285;   11.632;  -13.410;  657.300
1099.828;    9.684;  -15.640;  439.400
1100.371;   10.423;  -13.980;  608.160
1100.914;   11.123;  -13.990;  682.660
1101.457;   11.487;  -15.030;  679.900
1101.999;   10.202;  -12.480;  584.680
1102.542;   10.730;  -12.410;  641.440
1103.085;   10.374;  -14.730;  658.500
1103.628;   11.533;  -12.190;  762.060
1104.170;   10.184;  -12.360;  588.280
1104.713;   10.781;  -13.350;  646.700
1105.256;    9.371;  -14.930;  557.440
1105.798;    9.077;  -15.150;  499.980
1106.341;   10.953;  -13.230;  728.900
1106.883;    9.140;  -14.680;  521.340
1107.425;   10.334;  -14.810;  668.180
1107.968;    9.705;  -12.940;  612.380
1108.510;   10.174;  -10.550;  684.960
1109.052;    8.263;  -15.640;  612.620
1109.594;    8.621;  -14.440;  554.440
1110.136;   10.231;  -11.380;  643.220
1110.679;    8.761;  -13.090;  633.080
1111.221;    8.857;  -14.230;  604.460
1111.763;    7.335;  -14.260;  559.220
1112.304;    8.010;  -14.510;  547.140
1112.846;    9.230;  -14.700;  666.240
1113.388;   11.754;  -12.270;  942.180
1113.930;    8.486;  -13.340;  694.200
1114.472;    8.066;  -12.560;  606.540
1115.013;    6.820;  -14.280;  551.280
1115.555;    6.814;  -14.010;  587.100
1116.097;    6.681;  -14.730;  579.480
1116.638;    8.362;  -12.160;  684.600
1117.180;    8.075;  -14.320;  667.740
1117.721;    6.780;  -15.730;  568.580
1118.262;    8.171;  -13.480;  677.960
1118.804;    7.870;  -11.530;  637.340
1119.345;    6.990;  -13.540;  578.400
1119.886;    7.409;  -14.470;  704.040
1120.427;    6.703;  -13.030;  589.020
1120.969;    6.510;  -13.150;  597.920
1121.510;    5.789;  -13.940;  563.060
1122.051;    7.122;  -12.310;  723.580
1122.592;    5.837;  -13.870;  655.420
1123.133;    5.107;  -12.890;  547.940
1123.673;    7.193;  -13.300;  706.480
1124.214;    6.288;  -14.000;  612.460
1124.755;    6.808;  -13.210;  639.460
1125.296;    5.892;  -13.450;  627.320
1125.836;    7.641;  -12.610;  691.500
1126.377;    4.849;  -15.840;  599.660
1126.918;    7.409;  -11.830;  614.980
1127.458;    5.519;  -11.830;  622.220
1127.999;    5.960;  -11.490;  656.980
1128.539;    5.699;  -12.900;  694.240
1129.079;    5.674;  -14.910;  632.720
1129.620;    4.898;  -12.920;  558.100
1130.160;    4.314;  -14.640;  539.480
1130.700;    5.154;  -13.270;  640.840
1131.240;    6.055;  -14.110;  643.700
1131.781;    5.305;  -13.130;  619.680
1132.321;    5.270;  -15.220;  599.120
1132.861;    3.579;  -15.670;  564.200
1133.401;    3.535;  -13.970;  593.940
1133.941;    5.540;  -13.740;  626.280
1134.481;    4.736;  -13.200;  597.580
1135.020;    4.097;  -14.830;  609.160
1135.560;    4.740;  -14.590;  674.940
1136.100;    3.256;  -13.730;  501.160
1136.640;    2.990;  -15.240;  510.480
1137.179;    2.592;  -14.710;  537.960
1137.719;    3.774;  -14.090;  605.400
1138.258;    3.994;  -12.470;  587.360
1138.798;    4.968;  -12.580;  663.780
1139.337;    2.689;  -16.480;  482.840
1139.877;    3.680;  -13.970;  642.360
1140.416;    6.989;   -9.870;  878.060
1140.955;    2.824;  -14.860;  535.380
1141.494;    3.981;  -14.530;  669.280
1142.034;    2.648;  -13.940;  583.520
1142.573;    3.899;  -11.160;  646.280
1143.112;    2.736;  -15.050;  553.480
1143.651;    2.464;  -15.390;  536.480
1144.190;    3.889;  -12.990;  691.640
1144.729;    3.215;  -12.220;  607.420
1145.267;    2.785;  -14.020;  584.900
1145.806;    3.333;  -12.740;  637.040
1146.345;    2.774;  -14.810;  635.020
1146.884;    2.701;  -12.920;  622.500
1147.422;    2.101;  -13.930;  533.060
1147.961;    3.525;  -11.830;  708.460
1148.500;    3.434;  -12.710;  669.720
1149.038;    3.189;  -14.420;  632.500
1149.577;    3.269;  -13.920;  698.640
1150.115;    0.781;  -17.050;  452.280
1150.653;    2.179;  -14.890;  607.340
1151.192;    1.638;  -15.270;  552.920
1151.730;    2.489;  -13.160;  652.560
1152.268;    1.726;  -15.430;  589.520
1152.806;    1.474;  -15.880;  571.180
1153.344;    1.076;  -13.240;  577.640
1153.882;    1.368;  -13.010;  600.060
1154.421;    0.142;  -16.180;  470.620
1154.958;    0.630;  -13.880;  595.240
1155.496;    2.335;  -13.590;  645.280
1156.034;    2.051;  -11.910;  721.880
1156.572;    2.460;  -12.010;  667.060
1157.110;   -0.018;  -16.250;  473.940
1157.647;    2.261;  -15.230;  676.960
1158.185;    0.902;  -13.770;  564.320
1158.723;   -0.159;  -15.300;  509.200
1159.260;    1.737;  -13.130;  701.700
1159.798;    2.386;  -11.300;  658.160
1160.335;    0.730;  -13.210;  631.820

