
Integration time [ms]:   3.882
Averaging Nr. [scans]: 1000
Smoothing Nr. [pixels]: 0
Data measured with spectrometer [name]: 7414430SP
Wave   ;Sample   ;Dark     ;Reference
[nm]   ;[counts] ;[counts] ;[counts] 

288.544;  140.372;    7.153;  793.890
289.143;  144.507;    8.402;  681.602
289.742;  145.013;    7.062;  828.814
290.341;  132.655;    0.191;  789.841
290.940;  122.891;    0.321;  730.702
291.538;  123.647;    3.811;  881.108
292.137;  122.759;   -3.438;  792.581
292.736;  125.875;   -2.809;  975.101
293.335;  121.611;   -5.239;  735.086
293.934;  123.087;   -4.939;  781.677
294.532;  123.643;   -2.199; 1031.958
295.131;  108.976;   -6.831;  834.394
295.730;  108.432;   -6.620;  809.588
296.328;  106.174;   -6.471;  783.442
296.927;  106.718;   -6.571;  779.652
297.525;  108.093;   -7.391;  781.236
298.124;   98.473;   -9.402;  654.009
298.722;  103.122;   -5.781;  761.933
299.321;  101.626;   -6.351;  708.597
299.919;   99.300;   -8.661;  751.918
300.518;   95.483;  -11.922;  689.338
301.116;   96.043;   -6.941;  691.381
301.715;   96.798;   -5.471;  730.222
302.313;   96.247;   -8.361;  704.943
302.911;   91.734;   -9.082;  733.830
303.509;   96.725;   -4.571;  925.627
304.108;   93.993;   -7.111;  760.383
304.706;   94.182;   -7.681;  801.664
305.304;   88.282;   -9.162;  796.707
305.902;   93.983;   -6.761;  784.484
306.500;   89.067;   -6.921;  728.200
307.098;   87.983;   -6.491;  746.560
307.696;   85.832;   -6.941;  780.432
308.294;   86.698;   -6.301;  731.359
308.892;   88.594;   -4.771;  759.769
309.490;   84.690;   -5.141;  712.161
310.088;   83.006;   -2.912;  788.444
310.686;   88.408;   -0.421;  821.749
311.284;   83.426;   -3.461;  766.040
311.882;   80.710;   -6.282;  731.225
312.480;   78.644;   -3.632;  697.167
313.078;   80.135;   -2.112;  808.331
313.675;   80.451;   -1.931;  691.600
314.273;   75.189;   -1.442;  797.837
314.871;   73.992;   -3.002;  589.829
315.468;   73.208;   -2.252;  652.090
316.066;   76.158;   -1.091;  694.427
316.664;   69.742;   -4.512;  656.351
317.261;   74.222;   -0.062;  910.128
317.859;   68.816;   -0.952;  768.735
318.456;   69.998;    0.719;  830.096
319.054;   66.371;   -4.002;  787.828
319.651;   64.982;   -4.972;  759.928
320.249;   63.665;   -1.162;  810.188
320.846;   62.576;   -2.651;  714.286
321.443;   60.723;   -3.832;  832.135
322.041;   56.897;   -4.312;  812.315
322.638;   55.047;   -3.872;  701.456
323.235;   56.519;   -4.361;  665.683
323.833;   54.356;   -4.821;  740.354
324.430;   48.891;   -6.971;  615.900
325.027;   50.229;   -4.361;  876.855
325.624;   50.980;   -5.581;  644.532
326.221;   48.033;   -6.601;  689.717
326.818;   47.227;   -7.301;  818.332
327.415;   50.100;   -6.180;  748.828
328.012;   50.127;   -5.920;  690.585
328.609;   47.227;   -8.390;  731.389
329.206;   46.278;   -6.121;  778.621
329.803;   45.606;   -5.241;  737.841
330.400;   48.318;   -7.420;  704.260
330.997;   48.636;   -5.931;  817.147
331.594;   46.983;   -5.641;  788.185
332.191;   52.219;   -6.451;  728.722
332.787;   55.385;   -4.651;  844.463
333.384;   53.488;   -5.472;  763.093
333.981;   50.742;   -6.303;  815.687
334.578;   54.038;   -5.892;  708.378
335.174;   56.485;   -4.102;  731.469
335.771;   54.774;   -8.053;  836.456
336.367;   52.291;   -7.363;  710.631
336.964;   56.780;   -6.243;  793.266
337.561;   55.164;   -5.653;  731.112
338.157;   50.991;   -7.074;  911.916
338.754;   48.279;   -5.474;  796.589
339.350;   46.473;   -5.624;  722.493
339.946;   48.977;   -5.054;  773.135
340.543;   42.182;   -6.695;  846.136
341.139;   35.536;   -6.215;  720.836
341.735;   33.514;   -5.746;  772.593
342.332;   32.445;   -7.335;  691.472
342.928;   33.855;   -4.835;  795.394
343.524;   27.737;   -4.586;  761.684
344.120;   25.179;   -3.946;  738.562
344.716;   27.977;   -4.835;  723.717
345.313;   25.850;   -5.325;  795.342
345.909;   21.204;   -6.535;  627.336
346.505;   22.903;   -4.725;  740.247
347.101;   23.418;   -4.164;  827.864
347.697;   23.723;   -5.274;  785.398
348.293;   18.513;   -7.145;  627.244
348.889;   18.252;   -4.364;  745.914
349.485;   18.959;   -6.404;  688.205
350.081;   19.628;   -7.534;  772.592
350.676;   14.926;   -6.995;  691.606
351.272;   19.316;   -3.544;  809.530
351.868;   19.149;   -5.324;  780.497
352.464;   17.205;   -7.204;  723.932
353.059;   12.523;   -6.894;  646.017
353.655;   16.213;   -3.754;  777.063
354.251;   17.219;   -6.143;  759.845
354.846;   11.882;   -9.464;  740.646
355.442;   10.206;   -7.555;  753.071
356.038;   11.397;   -5.474;  751.708
356.633;   11.981;   -5.914;  728.594
357.229;    9.352;   -8.944;  724.757
357.824;    7.950;   -6.794;  703.600
358.420;    6.948;   -5.754;  679.726
359.015;    8.127;   -5.664;  695.357
359.610;    9.578;   -8.004;  763.920
360.206;    3.262;   -8.815;  603.240
360.801;    5.385;   -8.834;  646.503
361.396;    8.667;   -6.274;  725.975
361.992;    3.934;   -8.574;  668.220
362.587;    1.079;   -9.265;  670.160
363.182;    2.755;   -5.484;  689.631
363.777;    3.435;   -5.164;  738.242
364.372;    3.528;   -6.954;  737.314
364.967;   -0.009;   -7.065;  680.744
365.563;    4.693;   -5.684;  815.567
366.158;    1.404;   -6.484;  685.161
366.753;    2.391;   -8.004;  649.263
367.348;    0.068;  -10.114;  746.056
367.942;    0.627;   -7.764;  697.298
368.537;   -0.375;   -4.554;  754.245
369.132;   -0.314;   -7.664;  703.428
369.727;   -3.975;   -8.905;  638.079
370.322;   -2.978;   -4.945;  580.186
370.917;   -3.082;   -7.095;  710.646
371.511;    0.327;   -6.574;  861.834
372.106;   -3.859;   -6.515;  776.964
372.701;   -7.592;   -8.225;  585.988
373.296;   -1.095;   -4.494;  863.135
373.890;   -6.112;   -7.965;  647.840
374.485;   -8.168;   -9.745;  691.199
375.079;   -4.842;   -5.554;  738.685
375.674;   -3.617;   -4.724;  812.970
376.268;   -6.468;   -8.365;  691.759
376.863;  -12.500;   -8.126;  580.327
377.457;   -6.774;   -6.045;  662.490
378.052;   -8.153;   -6.835;  764.884
378.646;   -8.504;   -9.375;  741.167
379.240;   -9.196;   -6.185;  721.176
379.835;   -8.710;   -6.135;  636.978
380.429;  -10.357;   -8.365;  562.557
381.023;   -9.771;   -7.935;  779.205
381.617;  -12.310;   -8.325;  680.106
382.212;   -9.592;   -7.405;  685.303
382.806;   -8.169;   -4.155;  760.690
383.400;  -12.055;   -8.945;  672.281
383.994;  -13.518;   -8.365;  664.870
384.588;   -9.491;   -7.824;  697.701
385.182;   -8.397;   -7.984;  726.624
385.776;   -9.784;  -10.404;  706.875
386.370;  -12.459;   -7.335;  681.968
386.964;  -11.518;   -7.485;  684.155
387.558;  -10.111;   -8.174;  598.360
388.152;  -11.934;  -10.415;  681.959
388.745;  -11.724;   -9.595;  814.707
389.339;   -9.805;   -6.454;  747.642
389.933;   -8.523;   -5.804;  695.370
390.527;   -9.400;   -6.854;  859.029
391.120;  -15.972;   -7.665;  595.318
391.714;  -12.795;   -7.245;  711.633
392.308;   -8.880;   -4.514;  780.253
392.901;  -13.480;   -7.935;  642.460
393.495;  -15.469;   -8.585;  595.414
394.089;  -12.679;   -5.245;  760.452
394.682;  -13.527;   -6.305;  697.188
395.275;  -14.919;   -9.335;  719.927
395.869;  -15.327;   -7.375;  667.314
396.462;  -13.746;   -7.055;  616.609
397.056;   -9.546;   -5.434;  776.621
397.649;  -14.085;   -9.525;  731.575
398.242;  -12.189;   -7.574;  712.645
398.836;  -11.069;   -5.134;  766.408
399.429;  -12.694;   -6.544;  631.041
400.022;  -15.341;   -9.215;  665.902
400.615;  -12.867;   -8.105;  805.609
401.208;  -11.491;   -7.614;  691.451
401.802;  -13.099;   -8.085;  699.329
402.395;  -14.900;   -9.575;  683.502
402.988;  -15.708;   -9.285;  696.627
403.581;  -12.618;   -7.514;  646.878
404.174;   -9.436;   -6.404;  686.568
404.767;  -12.598;   -8.775;  638.583
405.360;  -15.611;   -7.415;  621.445
405.953;   -9.352;   -5.624;  759.034
406.545;   -9.601;   -6.474;  725.342
407.138;  -13.860;   -8.445;  618.350
407.731;  -12.316;  -10.044;  613.303
408.324;   -8.390;   -8.484;  660.554
408.917;   -9.131;   -7.624;  681.864
409.509;  -10.567;   -8.304;  740.396
410.102;  -13.359;   -8.495;  643.948
410.695;   -7.578;   -7.824;  665.758
411.287;   -7.586;   -7.754;  599.821
411.880;   -9.258;   -9.294;  585.421
412.472;  -11.161;   -8.814;  613.092
413.065;   -9.330;   -6.674;  629.408
413.657;   -7.045;   -9.664;  576.678
414.250;   -6.685;  -10.264;  646.681
414.842;   -8.893;   -8.664;  676.353
415.434;   -6.713;   -8.584;  570.463
416.027;   -2.146;   -9.423;  652.196
416.619;   -4.230;  -10.764;  713.400
417.211;   -5.433;   -7.404;  599.352
417.804;   -1.347;   -7.383;  628.499
418.396;   -4.659;   -8.334;  607.643
418.988;   -1.981;   -9.633;  659.238
419.580;   -7.161;  -10.554;  568.276
420.172;   -3.970;   -8.683;  536.196
420.764;    0.577;   -9.713;  672.482
421.356;   -0.488;  -11.303;  636.898
421.948;   -1.398;   -8.453;  677.661
422.540;    3.435;   -5.793;  680.027
423.132;    2.903;   -7.162;  600.641
423.724;   -0.967;   -7.933;  561.267
424.316;    1.541;   -9.083;  621.345
424.908;    4.529;   -8.392;  591.517
425.500;    6.048;   -8.062;  647.978
426.092;    7.340;   -9.692;  648.268
426.683;    5.139;   -8.223;  684.836
427.275;    7.961;   -8.602;  641.471
427.867;    9.131;   -8.382;  668.948
428.458;   10.173;  -10.472;  732.344
429.050;    8.235;   -9.112;  680.749
429.642;   10.945;   -7.752;  743.124
430.233;   10.909;   -8.832;  569.356
430.825;   12.324;   -8.292;  724.809
431.416;    9.855;   -7.522;  698.241
432.008;   12.429;   -9.262;  651.723
432.599;   14.483;   -6.441;  656.073
433.190;   11.355;   -9.222;  637.670
433.782;   10.387;  -11.832;  590.395
434.373;   18.248;   -7.121;  884.765
434.964;   16.799;   -9.141;  602.920
435.556;   13.579;   -9.332;  634.537
436.147;   16.440;   -8.892;  758.490
436.738;   16.597;   -8.151;  701.099
437.329;   22.733;   -8.281;  721.723
437.920;   15.618;   -9.062;  666.688
438.511;   14.804;  -11.182;  564.526
439.103;   21.384;   -7.461;  623.998
439.694;   24.434;   -8.541;  681.583
440.285;   24.670;   -7.351;  764.432
440.876;   23.435;   -8.201;  845.738
441.466;   21.929;  -10.381;  575.162
442.057;   27.816;   -7.620;  665.814
442.648;   26.013;   -8.461;  746.255
443.239;   24.631;   -8.991;  620.477
443.830;   29.219;   -7.910;  704.958
444.421;   31.205;   -7.340;  655.474
445.011;   28.043;   -8.981;  693.619
445.602;   27.106;   -9.341;  743.126
446.193;   28.356;  -11.390;  488.117
446.783;   34.564;  -11.240;  640.397
447.374;   29.246;   -8.471;  692.759
447.964;   30.079;   -8.471;  713.770
448.555;   38.384;   -6.590;  822.742
449.145;   34.634;   -8.200;  662.853
449.736;   35.508;  -11.040;  803.179
450.326;   34.869;   -9.640;  713.626
450.917;   40.226;   -9.480;  675.324
451.507;   39.504;   -8.020;  600.661
452.097;   40.436;  -10.210;  746.267
452.688;   41.825;   -7.810;  742.160
453.278;   41.290;   -9.360;  566.840
453.868;   46.363;   -8.669;  793.550
454.458;   44.136;  -10.950;  651.141
455.048;   44.112;  -10.200;  711.783
455.639;   45.075;   -9.369;  567.096
456.229;   49.110;   -7.739;  710.694
456.819;   51.272;   -8.939;  751.158
457.409;   51.587;   -7.169;  773.993
457.999;   53.689;   -7.779;  737.505
458.589;   53.594;   -7.039;  686.606
459.179;   54.078;   -9.019;  717.658
459.769;   51.814;   -8.909;  627.099
460.358;   56.120;   -8.659;  797.262
460.948;   56.795;   -8.209;  689.503
461.538;   58.252;   -9.879;  660.677
462.128;   55.878;   -9.379;  664.934
462.717;   63.141;   -9.158;  710.326
463.307;   66.104;   -8.638;  705.846
463.897;   62.332;   -8.869;  656.942
464.486;   61.832;   -7.409;  837.128
465.076;   66.011;   -9.618;  733.776
465.666;   68.780;   -7.578;  652.900
466.255;   67.333;   -9.369;  785.651
466.845;   65.727;  -10.049;  666.749
467.434;   69.188;   -8.168;  725.873
468.023;   69.820;   -9.188;  658.357
468.613;   68.340;   -9.849;  713.946
469.202;   71.482;  -12.958;  646.507
469.791;   76.700;   -9.488;  737.811
470.381;   79.178;   -6.468;  742.813
470.970;   77.961;  -10.248;  711.099
471.559;   78.091;  -11.428;  733.291
472.148;   80.509;   -9.738;  675.737
472.738;   84.532;   -7.877;  765.466
473.327;   83.563;  -11.868;  637.529
473.916;   83.025;   -8.578;  737.446
474.505;   86.806;  -11.137;  751.703
475.094;   90.552;   -9.407;  806.570
475.683;   89.950;   -9.977;  797.699
476.272;   90.215;  -10.807;  730.632
476.861;   92.677;  -11.017;  706.754
477.449;   99.540;  -10.316;  728.487
478.038;   95.018;  -10.187;  692.513
478.627;   94.843;  -12.458;  714.852
479.216;  101.916;  -10.127;  769.441
479.805;  106.132;   -6.256;  783.375
480.393;  105.430;   -8.737; 1008.945
480.982;  103.746;   -9.087;  874.501
481.571;  110.192;   -7.806;  858.333
482.159;  110.032;  -10.596;  705.386
482.748;  110.395;  -11.507;  821.385
483.336;  115.005;   -8.366;  858.209
483.925;  115.492;   -7.497;  774.373
484.513;  122.356;   -8.326;  758.962
485.102;  118.676;  -10.277;  810.965
485.690;  127.580;   -8.256; 1011.050
486.278;  128.638;   -7.146;  979.329
486.867;  130.175;   -7.986;  809.662
487.455;  133.054;   -9.926;  898.229
488.043;  132.703;  -10.026;  748.361
488.631;  141.797;   -7.226; 1005.079
489.220;  145.745;   -8.696;  908.626
489.808;  146.164;  -12.276;  741.415
490.396;  153.804;   -9.386;  914.645
490.984;  158.949;   -8.506;  830.161
491.572;  169.725;   -8.226;  940.315
492.160;  175.651;   -9.836;  919.081
492.748;  186.763;  -10.316;  884.341
493.336;  206.232;   -7.146; 1019.693
493.924;  229.419;   -7.965;  958.077
494.512;  256.295;  -10.316; 1066.638
495.100;  291.658;  -10.186; 1103.280
495.687;  344.690;   -7.805; 1206.373
496.275;  408.513;   -9.686; 1150.796
496.863;  490.199;  -11.566; 1281.171
497.451;  585.650;  -11.406; 1386.805
498.038;  711.909;   -8.235; 1556.729
498.626;  834.780;   -7.485; 1741.407
499.214;  997.432;   -8.646; 2016.609
499.801; 1241.851;   -9.936; 2220.633
500.389; 1445.170;   -8.056; 2312.494
500.976; 1630.399;   -6.166; 2744.849
501.564; 1830.504;   -9.126; 3148.565
502.151; 2154.333;  -12.456; 3515.999
502.738; 2576.081;  -10.056; 3971.274
503.326; 2981.504;  -10.605; 4403.796
503.913; 3349.631;  -10.576; 5161.749
504.500; 3850.494;   -9.056; 5986.420
505.088; 4347.627;  -10.136; 6381.201
505.675; 5167.521;   -9.075; 6925.547
506.262; 5664.866;  -11.346; 7619.060
506.849; 6293.208;   -9.376; 8733.969
507.436; 6888.313;   -7.365; 9790.121
508.023; 7259.558;   -8.686; 9985.472
508.610; 7677.985;   -8.846;10434.618
509.197; 8655.397;   -9.077;11198.435
509.784;10063.026;  -10.246;12391.194
510.371;10576.211;   -9.825;13603.713
510.958;11346.230;  -10.896;14426.586
511.545;12108.245;   -9.006;15243.775
512.132;12806.229;   -8.765;15945.876
512.719;13958.624;   -8.286;16340.369
513.305;16054.924;   -9.256;18011.766
513.892;18456.258;  -11.106;19754.971
514.479;20363.902;   -8.576;20967.805
515.066;21877.986;   -9.046;22299.793
515.652;22452.492;  -10.676;22908.660
516.239;23775.018;  -10.166;23798.875
516.825;24228.201;  -11.266;25567.275
517.412;23746.885;   -7.446;28154.959
517.998;23976.012;  -10.916;28344.111
518.585;23245.217;   -9.166;27134.219
519.171;23079.236;  -10.135;27268.576
519.758;24634.174;   -8.806;28964.129
520.344;27872.789;   -6.716;30664.494
520.930;29932.760;  -10.166;32550.605
521.516;30503.338;   -9.615;35422.895
522.103;32024.748;   -8.656;38280.004
522.689;34126.594;   -9.646;37835.117
523.275;34796.898;  -10.786;37288.613
523.861;35627.160;   -9.266;37281.395
524.447;35477.789;   -8.285;37846.949
525.033;35739.316;   -9.426;38321.949
525.619;35435.898;   -9.836;38579.285
526.205;36428.465;   -8.136;40622.875
526.791;37507.523;   -9.986;42258.836
527.377;39193.902;   -8.236;42966.902
527.963;37343.859;  -12.117;42018.949
528.549;35660.094;   -8.376;42476.828
529.135;37129.020;   -8.696;41854.852
529.721;38993.078;   -9.686;41237.711
530.306;41097.398;   -8.616;41259.445
530.892;44774.418;   -9.396;41506.047
531.478;45560.898;   -9.926;43559.613
532.063;46638.273;  -10.236;47695.563
532.649;48735.410;   -8.257;50808.324
533.235;50152.684;  -11.476;51787.500
533.820;48951.977;   -8.156;52145.035
534.406;48128.715;  -12.257;51133.488
534.991;46466.055;   -8.686;49996.805
535.576;44057.773;   -9.426;48882.852
536.162;43396.898;   -8.436;46942.285
536.747;42045.406;  -10.957;45711.746
537.333;41563.672;  -13.147;48510.180
537.918;44116.512;   -9.027;50439.891
538.503;45215.773;   -8.256;50863.711
539.088;48899.254;  -10.576;50906.922
539.673;51120.258;  -10.907;52621.965
540.259;51861.664;   -9.126;52368.094
540.844;48794.852;   -9.026;50879.109
541.429;50516.988;   -9.597;52077.777
542.014;54438.602;  -11.447;52716.695
542.599;55225.941;   -9.236;52363.281
543.184;53428.211;  -12.267;53187.137
543.769;55003.848;  -10.367;54697.605
544.354;54928.180;  -10.887;53913.914
544.938;48201.098;  -11.687;49680.164
545.523;43390.945;   -8.286;47386.277
546.108;44719.555;   -9.317;49151.949
546.693;46543.648;  -10.187;51384.637
547.278;45407.199;   -9.926;51853.254
547.862;44843.961;   -9.196;51173.750
548.447;44499.973;   -9.657;51691.395
549.031;45211.793;   -9.127;52456.703
549.616;48711.648;  -10.836;52714.516
550.201;52043.012;   -8.507;52414.598
550.785;52627.555;  -10.537;52355.059
551.370;52899.246;  -11.727;54589.453
551.954;52597.012;   -9.457;58267.348
552.538;51564.055;   -8.147;59062.176
553.123;50321.051;   -9.397;58115.285
553.707;48357.867;   -9.558;56556.285
554.291;48923.172;   -9.417;56201.668
554.876;49110.262;   -7.627;55335.762
555.460;47488.113;  -10.457;54155.703
556.044;45536.824;  -10.078;53721.484
556.628;46284.348;   -9.407;53731.016
557.212;46200.324;   -7.957;54312.531
557.796;45923.566;  -11.327;53797.773
558.380;50385.957;  -10.868;56145.984
558.964;50830.734;   -9.637;57277.930
559.548;49068.324;   -8.807;56459.641
560.132;50114.871;  -10.187;54434.543
560.716;49192.180;   -9.868;54800.617
561.300;50380.203;  -10.217;57606.945
561.884;51007.039;   -4.947;58972.445
562.467;49923.301;   -9.588;57327.570
563.051;47885.957;  -11.138;54962.434
563.635;45904.922;   -9.358;52594.473
564.219;45468.727;   -9.797;50610.410
564.802;46101.313;   -9.918;49551.180
565.386;43825.598;  -10.838;48370.953
565.969;42775.176;   -8.037;48178.871
566.553;42208.125;   -5.667;49957.305
567.136;41425.148;   -8.258;50369.594
567.720;40352.266;  -11.278;49492.004
568.303;42464.223;   -9.028;50616.352
568.887;42575.746;   -7.508;50727.148
569.470;41307.059;  -11.068;51698.379
570.053;41179.465;  -10.028;52122.078
570.637;39745.164;  -11.077;52536.438
571.220;39749.480;   -8.747;51186.098
571.803;41679.559;   -8.868;51032.762
572.386;43599.875;  -10.608;49609.887
572.969;42712.824;  -10.548;48285.926
573.552;40214.145;   -7.898;47624.285
574.135;41544.125;   -9.918;45498.641
574.718;37364.258;  -10.328;41970.434
575.301;34261.559;   -9.548;41447.137
575.884;31158.861;   -8.768;40923.836
576.467;34684.168;   -9.858;45267.723
577.050;35370.750;  -11.018;48175.543
577.633;36676.895;  -10.048;47729.328
578.216;36040.586;  -10.268;47579.793
578.799;33317.910;  -11.808;47820.996
579.381;32824.676;   -7.338;48115.551
579.964;35585.195;   -9.728;47333.766
580.547;36910.555;   -8.928;46668.969
581.129;37980.750;   -9.149;44466.141
581.712;38056.605;  -11.359;44164.922
582.294;35602.926;  -10.738;46477.855
582.877;34440.301;   -8.788;48244.254
583.459;35158.195;   -9.859;47437.895
584.042;37416.086;   -9.649;46943.219
584.624;37114.547;  -10.529;46792.227
585.206;35706.488;  -10.298;46557.250
585.789;34914.566;  -11.029;45793.773
586.371;33353.402;   -9.359;43836.391
586.953;32728.180;   -8.799;42972.492
587.536;32285.998;   -8.928;42487.211
588.118;32571.305;   -9.180;42086.414
588.700;32107.895;  -10.519;43389.930
589.282;30980.840;   -8.098;43646.039
589.864;30620.332;   -8.139;43438.109
590.446;32573.586;  -10.509;43151.926
591.028;33596.637;  -11.119;42781.867
591.610;35043.879;  -10.019;42839.098
592.192;34581.563;   -8.838;42820.402
592.774;31462.883;  -11.549;40724.277
593.356;28449.912;  -11.609;39874.789
593.937;27855.047;  -10.019;39980.648
594.519;30312.480;   -7.839;42069.633
595.101;32848.367;  -10.779;42976.031
595.683;33907.891;  -10.049;44084.441
596.264;33370.402;   -9.969;43478.797
596.846;32940.180;   -9.699;43803.672
597.427;31756.650;  -10.970;42986.934
598.009;31266.199;  -13.090;42832.219
598.591;30844.342;   -9.509;42580.086
599.172;31028.076;   -9.019;43061.805
599.753;31614.465;  -13.310;41691.469
600.335;32538.879;  -11.010;40692.520
600.916;32113.193;  -10.309;39982.422
601.498;31004.744;   -8.209;40318.617
602.079;30420.871;  -11.440;40670.609
602.660;32275.465;   -8.690;41450.898
603.241;33699.539;  -12.759;41137.738
603.823;32186.271;  -10.409;38868.797
604.404;31552.910;  -11.790;38182.785
604.985;33200.590;  -10.280;38078.047
605.566;34540.656;   -8.059;38056.633
606.147;31979.799;   -8.960;37020.418
606.728;30091.246;  -10.710;37883.359
607.309;29335.176;  -12.760;38748.273
607.890;27712.584;   -9.959;38850.230
608.471;28061.361;   -9.780;37457.918
609.051;29990.594;   -8.940;36066.457
609.632;31361.043;  -12.070;35991.074
610.213;31116.330;   -9.610;37402.641
610.794;30777.941;   -8.750;38383.363
611.374;31097.570;  -11.100;40562.387
611.955;31668.717;  -12.200;38533.727
612.536;31888.443;  -10.410;36951.789
613.116;31199.920;  -10.010;37197.891
613.697;29639.082;  -10.480;38411.125
614.277;29262.520;  -12.751;38673.938
614.858;28475.727;  -11.600;37075.863
615.438;28781.184;   -8.190;35092.906
616.019;27531.988;   -8.941;33666.301
616.599;29225.604;  -13.540;34189.023
617.179;31566.404;  -10.890;36952.047
617.760;30701.652;   -7.610;39582.574
618.340;28933.352;  -14.441;38943.977
618.920;28669.645;   -9.180;37594.156
619.500;31026.217;  -11.881;37866.938
620.080;32725.996;   -9.870;37869.043
620.660;31460.500;  -13.211;36868.617
621.241;29929.465;  -11.921;36352.309
621.821;29226.666;  -10.271;35459.520
622.401;29978.441;   -8.200;35207.414
622.980;31596.994;  -11.141;35980.422
623.560;31370.375;  -14.321;37351.328
624.140;29989.344;   -9.360;34388.582
624.720;25939.279;   -7.481;32368.764
625.300;23663.018;  -12.730;32638.629
625.880;27897.643;  -11.441;34599.035
626.459;31491.207;  -10.971;36831.738
627.039;34755.801;   -9.011;38299.098
627.619;34892.109;   -8.521;38289.574
628.198;33385.746;   -9.861;37220.695
628.778;32425.920;   -8.841;37632.563
629.357;32373.178;   -9.891;38003.012
629.937;32069.875;  -11.871;38402.039
630.516;31733.113;  -10.641;37868.801
631.096;34051.977;  -11.391;35760.410
631.675;35717.156;   -6.622;35225.219
632.254;32865.234;  -13.002;35130.289
632.834;31541.355;  -11.622;35794.570
633.413;32382.529;   -8.321;35788.922
633.992;30600.449;   -7.732;34532.863
634.571;30854.764;  -10.992;33590.113
635.151;30329.090;  -10.422;34943.863
635.730;30889.061;  -11.511;35352.523
636.309;30589.295;   -7.901;35366.605
636.888;29981.303;  -11.452;36165.637
637.467;29445.809;  -10.672;37515.902
638.046;30268.938;   -9.301;39288.695
638.625;31663.416;  -11.452;38279.699
639.204;32277.656;  -12.262;37741.598
639.782;32537.592;  -11.892;38364.551
640.361;30918.109;  -11.411;36740.621
640.940;26156.719;  -11.501;34950.082
641.519;28304.393;  -10.921;34137.398
642.097;31842.568;  -10.101;35654.258
642.676;30503.537;  -10.821;35637.957
643.255;31797.980;   -8.631;36567.074
643.833;34358.273;  -11.411;37809.434
644.412;36891.191;  -12.021;37337.293
644.990;37210.543;  -12.271;37018.531
645.569;36000.750;   -9.741;36518.469
646.147;33442.332;   -9.051;36186.430
646.726;33283.508;  -13.861;36267.688
647.304;33452.254;   -9.461;36647.625
647.882;32811.516;  -13.171;39286.742
648.461;32983.613;  -11.911;39157.703
649.039;32107.564;   -9.541;35412.883
649.617;31724.416;   -8.901;34744.918
650.195;29402.754;   -8.591;35403.098
650.773;28855.764;  -13.031;35053.797
651.352;28342.795;  -12.211;33756.816
651.930;26047.488;  -11.361;31868.773
652.508;22863.439;   -8.601;33121.551
653.086;25696.215;   -9.991;33564.793
653.663;30002.533;  -11.931;34054.668
654.241;32502.615;  -10.821;35693.309
654.819;34094.762;   -9.341;36422.906
655.397;31894.934;  -10.851;38213.484
655.975;30352.279;  -11.461;39507.625
656.553;30302.975;   -8.841;39498.223
657.130;29605.883;  -10.371;40395.480
657.708;30197.760;  -11.071;39242.020
658.286;29627.391;  -11.141;38920.020
658.863;30908.109;  -10.861;40202.898
659.441;35421.266;  -11.181;39677.938
660.018;35736.434;  -10.851;40413.355
660.596;35325.160;  -12.571;39931.414
661.173;36009.066;  -12.141;39604.531
661.750;35400.652;  -11.571;39700.070
662.328;32714.127;  -10.780;39292.809
662.905;30309.398;  -10.750;38235.648
663.482;27405.088;  -11.320;36212.305
664.060;26578.547;  -10.160;35944.945
664.637;31453.275;  -13.120;35170.785
665.214;33284.699;  -11.500;34197.523
665.791;31167.568;  -12.430;34549.520
666.368;28819.695;   -9.840;35118.578
666.945;27840.434;  -11.290;36019.418
667.522;28443.900;  -13.540;36048.438
668.099;29272.658;  -10.250;36243.914
668.676;28237.523;  -11.270;35958.875
669.253;27085.025;   -8.210;37384.730
669.830;26255.691;   -9.710;36779.629
670.407;25997.180;   -9.700;35231.289
670.984;26768.566;   -9.190;35544.270
671.560;26105.424;   -9.560;35466.867
672.137;25901.928;  -11.820;34280.863
672.714;28719.629;  -12.460;34632.863
673.290;32976.570;  -10.940;35135.422
673.867;33393.941;  -10.510;36114.480
674.443;30300.248;  -12.110;36152.859
675.020;31466.645;  -11.760;35327.238
675.596;32303.127;   -9.380;35795.176
676.173;31143.408;  -11.120;35430.355
676.749;29873.652;  -13.390;33549.516
677.326;28933.379;  -12.600;32210.012
677.902;27992.664;  -10.830;32068.871
678.478;28041.070;  -12.400;32583.891
679.054;29687.148;   -8.610;32088.928
679.631;29824.473;  -11.640;30978.848
680.207;29966.248;   -8.140;33160.887
680.783;30616.701;  -12.300;35570.363
681.359;29656.102;  -10.910;36125.184
681.935;30059.537;  -11.040;35240.922
682.511;30532.602;  -11.130;34429.961
683.087;30615.184;  -11.080;34463.680
683.663;32777.332;  -10.530;34648.898
684.239;32345.658;  -12.120;34546.457
684.815;29831.123;   -8.870;35586.375
685.390;28875.406;   -8.940;35821.895
685.966;28703.277;  -12.109;35085.871
686.542;27823.359;  -13.539;34198.230
687.118;27808.334;  -10.379;32847.707
687.693;28125.287;  -10.189;32794.027
688.269;26788.869;  -12.939;33072.367
688.844;25801.586;   -8.679;33141.664
689.420;26779.551;  -10.919;33965.742
689.995;27263.074;   -7.489;34655.523
690.571;26934.889;  -12.199;33576.742
691.146;27420.979;   -8.979;32657.219
691.722;28902.355;   -9.119;32526.979
692.297;27237.156;  -10.519;33014.617
692.872;26593.443;  -10.629;34012.254
693.448;26994.584;  -12.119;34237.434
694.023;27450.971;   -8.219;34142.672
694.598;25576.041;  -13.209;34132.031
695.173;24818.416;  -11.879;34205.250
695.748;25656.146;  -12.039;32882.488
696.323;25558.344;  -11.779;32864.906
696.898;26288.971;  -10.219;33170.004
697.473;27389.701;  -13.639;32432.984
698.048;27965.717;  -11.239;31649.303
698.623;30026.215;  -10.859;30778.141
699.198;31747.016;  -13.379;31140.119
699.773;32472.045;  -13.409;31764.299
700.348;32666.074;  -12.329;31780.816
700.922;32962.656;   -8.749;32046.375
701.497;33246.719;  -12.449;32603.574
702.072;31570.898;   -8.879;34799.871
702.646;29479.426;  -10.719;35793.172
703.221;28357.553;   -8.469;35201.590
703.795;28051.611;  -11.389;34764.527
704.370;27565.053;  -12.499;34307.367
704.944;27391.826;  -11.449;33509.887
705.519;26760.189;  -10.659;31388.584
706.093;26303.465;  -12.909;31340.104
706.668;26955.467;  -13.509;32630.281
707.242;26654.068;  -10.049;32728.779
707.816;24797.762;  -10.629;32947.238
708.390;24224.820;  -11.829;33277.855
708.965;24807.922;  -11.159;33834.336
709.539;25627.822;  -11.069;33709.273
710.113;24753.932;  -10.908;33044.313
710.687;23094.354;   -9.488;31953.992
711.261;23487.088;  -13.068;30505.949
711.835;26519.053;  -12.748;30262.369
712.409;27324.432;  -10.678;31254.447
712.983;25866.838;  -11.658;32754.986
713.557;26091.875;  -13.718;34018.824
714.131;26568.646;  -13.388;34579.625
714.704;27516.559;   -9.818;33890.262
715.278;28773.484;  -11.818;33531.102
715.852;29826.354;  -11.328;33601.660
716.425;30083.193;   -9.118;33515.117
716.999;29960.629;  -10.188;33185.555
717.573;29971.619;   -9.808;33905.996
718.146;32321.877;  -11.478;35199.293
718.720;31954.734;  -10.998;35060.551
719.293;30160.463;   -9.508;34973.230
719.867;29910.342;  -12.138;36394.449
720.440;29013.521;  -11.288;36663.008
721.013;31922.721;  -11.428;35102.426
721.587;33418.633;  -11.698;33985.266
722.160;34192.512;  -11.608;33524.965
722.733;32665.828;  -11.428;32987.043
723.306;31076.188;  -12.518;33066.301
723.880;30763.736;   -7.408;33399.500
724.453;29663.900;  -11.048;33468.297
725.026;28198.658;  -11.678;33816.637
725.599;27131.697;  -10.978;32797.996
726.172;26222.291;   -8.838;33187.434
726.745;27169.887;  -11.438;35136.613
727.318;28177.211;   -9.828;35751.730
727.891;27141.311;  -10.868;35890.430
728.463;25451.924;  -11.348;34822.090
729.036;23860.295;  -11.608;32895.086
729.609;23814.980;  -14.738;31823.225
730.182;25010.311;   -8.448;31445.283
730.754;26165.551;  -11.228;32373.223
731.327;26395.449;  -12.018;33676.820
731.900;28098.051;  -13.748;33417.000
732.472;28355.258;  -10.928;31978.498
733.045;26859.180;   -9.478;30368.777
733.617;25061.121;  -12.967;30574.215
734.190;24074.582;  -11.707;31280.975
734.762;23076.748;  -11.067;31674.412
735.334;22421.107;  -10.587;31247.291
735.907;21610.377;  -11.947;29876.211
736.479;22289.463;  -11.667;29808.488
737.051;24808.672;  -10.187;30233.547
737.623;27042.219;   -6.887;31469.086
738.195;29955.475;  -12.117;31784.225
738.768;31796.326;  -14.077;32120.523
739.340;30566.990;  -12.207;32094.342
739.912;27132.926;   -8.977;31312.680
740.484;25515.031;  -11.017;31946.238
741.056;26589.455;  -13.517;32984.059
741.628;28462.313;  -11.507;33897.715
742.199;28753.037;   -7.597;33213.016
742.771;29464.385;  -12.227;31369.113
743.343;28864.068;  -12.427;31865.473
743.915;27186.215;   -9.827;32388.631
744.487;26069.031;  -10.007;31079.568
745.058;24405.361;  -11.887;30570.107
745.630;23659.658;  -10.787;29970.127
746.201;22986.484;  -10.887;29186.766
746.773;23194.305;   -9.707;28805.723
747.344;24140.014;  -11.137;29591.223
747.916;24340.912;  -11.887;31412.201
748.487;23779.973;   -9.707;32194.898
749.059;23068.406;  -10.027;32533.719
749.630;22775.459;  -11.787;32158.518
750.201;21791.377;  -12.767;30855.395
750.773;21388.965;  -11.497;28622.555
751.344;22216.363;   -9.937;28405.732
751.915;22538.502;  -11.567;28461.551
752.486;21799.805;  -13.267;27842.850
753.057;19959.020;  -10.627;27845.008
753.628;18750.971;  -11.657;27728.107
754.199;21005.607;  -12.097;27381.086
754.770;22544.309;  -11.447;25882.203
755.341;22378.525;  -11.997;25886.184
755.912;20347.557;  -10.207;26050.861
756.483;18738.412;  -10.937;26798.779
757.054;18728.668;  -11.527;27048.238
757.625;18939.959;  -12.886;26294.838
758.195;19190.637;  -11.226;26142.076
758.766;19184.563;  -12.366;26392.234
759.337;17996.504;  -11.946;26334.594
759.907;18050.350;  -13.856;27579.652
760.478;19004.299;   -9.606;28352.770
761.048;19119.264;  -11.606;27325.088
761.619;19324.227;  -11.036;26460.428
762.189;18743.734;  -12.206;26029.826
762.760;19929.428;   -9.666;26430.145
763.330;20739.451;   -9.796;26670.902
763.900;18913.838;  -10.896;26603.021
764.471;17492.912;  -11.726;25542.740
765.041;18103.613;   -9.656;24358.459
765.611;18940.303;  -11.276;23991.297
766.181;18529.248;  -12.116;24470.236
766.751;17907.123;  -12.376;24845.975
767.321;17912.748;  -11.626;24533.633
767.891;18123.377;  -10.426;24916.492
768.461;16865.012;  -13.456;24776.771
769.031;14898.191;  -11.616;24757.988
769.601;14862.028;  -11.356;24181.088
770.171;15121.477;  -11.586;23670.387
770.741;15495.181;  -12.696;22960.045
771.311;15660.647;  -10.226;22917.523
771.880;15393.206;  -11.146;23562.941
772.450;16075.678;  -11.716;24216.500
773.020;16350.406;  -13.226;24140.398
773.589;15932.580;  -12.586;24414.857
774.159;15622.631;  -10.246;23858.717
774.729;15166.683;  -11.586;22942.135
775.298;14444.024;  -15.926;22324.033
775.867;14560.570;  -10.426;21140.313
776.437;14335.394;  -11.416;20838.092
777.006;12880.910;  -12.766;20599.510
777.576;13099.235;  -13.666;20508.809
778.145;13742.019;  -10.066;20732.947
778.714;13370.015;  -10.276;21062.465
779.283;13670.295;  -12.086;20949.664
779.853;14938.191;  -14.016;20508.623
780.422;15224.526;  -12.376;20649.082
780.991;14239.548;   -9.246;21527.520
781.560;13418.176;   -9.775;22632.658
782.129;13138.114;  -12.495;23048.277
782.698;12847.333;  -11.775;23438.555
783.267;13068.801;  -10.065;23267.734
783.836;13643.498;  -12.455;22415.133
784.404;14308.350;  -13.385;20443.152
784.973;15034.665;  -11.045;19699.150
785.542;14674.409;   -9.505;19763.828
786.111;13654.078;   -9.385;20341.408
786.679;13449.124;  -13.475;20207.967
787.248;13501.263;  -11.245;19516.465
787.817;11782.496;  -12.485;18900.363
788.385;10155.599;  -11.165;17879.121
788.954;10687.074;  -11.755;17658.301
789.522;11427.274;   -9.625;17788.879
790.090;11188.766;   -9.665;18118.277
790.659;10843.232;   -9.295;18338.736
791.227;11838.162;  -12.175;18508.615
791.795;13223.995;  -12.145;17898.254
792.364;13048.805;  -11.575;17295.133
792.932;11772.371;  -11.085;16822.051
793.500;10691.899;  -11.345;17040.148
794.068;10600.342;  -12.565;17179.787
794.636;11633.736;  -12.105;16664.246
795.204;12169.044;  -11.995;16524.545
795.772;11561.629;  -12.615;17274.564
796.340;11124.575;  -12.425;17891.002
796.908;10899.324;  -11.455;17648.561
797.476;10291.236;  -12.165;17064.080
798.044; 9909.398;  -15.795;16672.777
798.612;10070.524;  -10.985;17023.996
799.180;10817.568;  -12.055;16561.615
799.747;11174.613;  -12.525;15962.773
800.315;10063.315;  -14.765;15296.992
800.883; 8865.537;  -12.435;14801.771
801.450; 8737.740;  -11.295;14534.430
802.018; 9131.695;  -11.185;14173.248
802.585; 9094.084;  -11.625;14029.547
803.153; 8163.689;  -10.665;13836.846
803.720; 7768.306;  -10.275;13567.324
804.287; 7660.257;  -12.865;13360.622
804.855; 7862.150;  -12.324;13681.981
805.422; 8156.830;  -11.574;13536.560
805.989; 7959.056;  -11.004;13355.958
806.556; 8161.616;  -12.214;13747.896
807.124; 8557.925;  -13.304;13987.376
807.691; 8229.220;  -12.034;14038.674
808.258; 7593.630;  -11.014;14120.152
808.825; 7466.467;  -11.804;13860.111
809.392; 7387.731;  -11.544;13268.790
809.959; 7308.854;  -14.954;12680.389
810.526; 7640.260;  -10.214;12427.308
811.093; 8056.624;  -10.754;12030.105
811.659; 7704.969;  -12.194;11653.664
812.226; 6609.496;   -9.194;11637.183
812.793; 6327.325;   -9.644;11611.521
813.360; 7124.123;  -11.544;11885.181
813.926; 7931.555;  -12.814;12770.539
814.493; 7867.168;  -11.524;12677.638
815.060; 7555.589;  -12.254;11974.336
815.626; 7113.047;  -12.114;11594.715
816.193; 6805.181;  -11.994;11579.474
816.759; 6715.294;  -11.464;11666.972
817.325; 6412.545;  -10.444;11325.530
817.892; 6086.758;  -11.124;11105.369
818.458; 5999.628;  -11.864;10843.928
819.024; 6329.961;  -10.634;10714.406
819.591; 6406.728;  -10.554;10469.165
820.157; 6583.181;  -13.334;10235.523
820.723; 6792.848;  -13.044;10847.563
821.289; 6894.992;   -9.664;11040.980
821.855; 7102.238;  -10.994;10357.100
822.421; 7200.216;  -11.784; 9978.918
822.987; 7230.443;  -12.554; 9754.177
823.553; 7546.945;  -12.554;10065.755
824.119; 7368.494;   -8.544;10036.294
824.685; 6444.187;  -12.144;10029.192
825.251; 5888.193;  -12.754;10199.230
825.816; 5445.829;  -11.354; 9820.189
826.382; 5132.820;  -11.004; 9297.248
826.948; 5119.509;  -11.004; 9381.347
827.513; 5034.107;  -12.474; 9450.726
828.079; 5026.133;  -13.084; 9472.444
828.645; 5211.829;  -10.813; 9292.643
829.210; 5056.313;  -11.593; 9065.341
829.776; 5030.179;  -12.633; 9132.620
830.341; 5063.552;  -10.473; 9092.878
830.906; 4858.095;   -8.763; 9078.557
831.472; 4563.133;  -13.453; 8534.535
832.037; 3984.157;  -12.173; 8677.874
832.602; 3775.596;  -14.093; 8628.692
833.167; 4043.200;  -13.593; 8879.031
833.733; 4544.551;  -10.793; 9189.790
834.298; 4880.588;  -14.783; 9052.608
834.863; 4486.447;  -11.023; 8895.087
835.428; 4259.646;  -11.113; 8824.266
835.993; 4695.439;   -9.983; 8845.385
836.558; 4936.216;  -13.003; 8888.563
837.123; 4748.790;  -10.733; 8966.582
837.688; 4362.367;   -9.683; 8617.860
838.253; 4206.073;  -12.253; 8590.699
838.817; 4245.099;  -11.643; 8443.797
839.382; 4240.435;  -11.953; 8799.356
839.947; 4305.836;  -11.443; 8810.595
840.511; 4590.903;  -10.843; 8796.394
841.076; 4811.158;  -13.533; 8347.231
841.641; 4624.249;  -11.743; 8224.330
842.205; 4115.508;  -10.013; 8223.349
842.770; 3840.207;  -11.023; 8622.107
843.334; 3939.972;  -14.273; 8410.386
843.898; 4317.533;  -11.323; 8337.465
844.463; 4685.702;  -10.263; 8506.283
845.027; 4850.669;  -10.353; 8280.962
845.591; 4788.764;  -12.163; 8231.141
846.156; 4629.129;  -12.263; 7969.179
846.720; 4614.468;  -11.553; 7768.278
847.284; 4410.311;  -12.393; 7630.957
847.848; 3653.139;  -12.623; 7472.395
848.412; 3092.921;  -11.863; 7437.394
848.976; 3033.183;  -10.203; 7674.592
849.540; 3225.644;  -10.603; 7836.011
850.104; 3415.022;  -12.423; 7913.669
850.668; 3424.644;  -14.613; 7694.508
851.232; 3412.926;  -12.873; 7756.887
851.796; 3621.828;  -14.192; 7926.545
852.359; 3804.800;  -13.652; 7827.844
852.923; 3740.071;  -11.402; 7641.163
853.487; 3456.504;  -12.022; 7342.501
854.050; 3301.152;  -15.202; 7042.820
854.614; 3318.997;  -14.592; 7151.338
855.177; 3305.552;  -12.572; 7105.077
855.741; 3328.084;   -9.932; 6989.675
856.304; 3289.101;  -12.192; 6596.634
856.868; 3181.371;  -13.462; 6356.272
857.431; 3174.860;  -11.542; 6468.571
857.995; 3248.020;  -12.062; 6373.210
858.558; 3063.807;  -11.142; 6324.448
859.121; 2918.534;  -11.742; 6408.327
859.684; 2951.596;  -10.332; 6347.886
860.247; 3041.627;  -11.962; 6321.264
860.810; 3106.317;  -12.332; 6301.903
861.374; 2992.068;  -10.292; 6607.881
861.937; 2819.976;  -12.062; 6408.200
862.500; 2846.469;  -11.702; 6572.639
863.062; 3007.601;  -13.852; 6387.297
863.625; 3082.600;  -12.972; 6190.836
864.188; 3025.293;  -10.292; 5807.254
864.751; 2943.948;  -12.382; 5682.413
865.314; 2729.163;  -13.232; 5547.492
865.876; 2439.807;  -12.772; 5500.150
866.439; 2219.239;  -11.952; 5415.909
867.002; 2282.753;   -9.332; 5501.567
867.564; 2615.510;  -11.712; 5413.946
868.127; 2781.904;  -12.012; 5160.325
868.689; 2450.604;  -11.882; 5133.183
869.252; 2085.809;  -11.572; 5252.382
869.814; 1981.730;  -10.692; 5297.141
870.377; 2049.563;  -12.392; 5390.919
870.939; 2138.363;  -10.582; 5599.898
871.501; 2185.269;  -12.782; 5248.336
872.063; 2204.460;  -15.612; 4854.235
872.626; 2250.277;  -13.922; 4817.074
873.188; 2214.260;  -13.832; 4987.732
873.750; 2151.615;  -10.962; 4868.651
874.312; 2207.975;  -11.022; 4779.330
874.874; 2267.214;  -13.152; 4866.348
875.436; 2201.618;  -13.401; 4718.887
875.998; 2086.882;   -8.891; 4660.005
876.560; 1989.960;  -12.591; 4462.964
877.122; 1927.780;  -14.531; 4145.042
877.683; 1885.372;  -10.781; 4056.481
878.245; 1792.743;  -14.281; 3950.740
878.807; 1730.946;  -10.311; 4058.958
879.369; 1685.777;  -13.201; 3954.677
879.930; 1657.778;  -12.061; 3941.495
880.492; 1654.314;   -9.181; 4067.014
881.053; 1664.258;  -12.051; 3859.633
881.615; 1619.047;  -11.501; 3776.071
882.176; 1519.337;  -12.221; 3734.750
882.738; 1412.938;   -8.931; 3678.489
883.299; 1344.980;  -13.571; 3405.407
883.860; 1359.989;  -12.331; 3351.106
884.422; 1305.646;  -10.201; 3394.044
884.983; 1173.321;  -12.521; 3166.443
885.544; 1055.825;  -12.291; 3189.802
886.105; 1003.924;  -12.991; 3160.360
886.666;  998.549;  -12.901; 3093.059
887.227;  989.557;  -12.061; 2941.957
887.788;  953.869;  -11.641; 2974.836
888.349;  900.837;  -14.691; 2721.214
888.910;  852.769;   -9.681; 2696.493
889.471;  848.930;   -9.971; 2560.172
890.032;  856.370;  -13.151; 2558.190
890.593;  835.903;  -12.051; 2567.669
891.153;  797.809;  -12.841; 2460.307
891.714;  771.978;  -13.561; 2372.046
892.275;  744.071;  -12.401; 2309.505
892.835;  707.951;  -13.191; 2382.543
893.396;  668.600;  -12.551; 2295.502
893.956;  648.140;  -11.981; 2162.420
894.517;  633.281;  -12.221; 2125.439
895.077;  597.562;  -12.021; 2086.978
895.638;  537.696;  -10.891; 2126.316
896.198;  480.510;  -13.171; 1838.275
896.758;  444.444;  -11.891; 1892.813
897.319;  418.191;  -12.491; 1792.232
897.879;  401.583;  -12.401; 1762.751
898.439;  375.871;  -13.431; 1661.149
898.999;  358.916;  -11.340; 1781.468
899.559;  350.771;  -13.930; 1703.347
900.119;  331.334;  -13.730; 1537.525
900.679;  313.485;   -9.210; 1638.384
901.239;  297.514;  -10.860; 1527.902
901.799;  279.677;  -11.450; 1456.441
902.359;  262.328;  -13.800; 1357.140
902.919;  255.706;  -12.130; 1331.118
903.479;  256.359;  -12.650; 1317.257
904.038;  249.550;  -16.110; 1262.595
904.598;  236.867;  -13.690; 1152.034
905.158;  224.853;  -10.290; 1240.893
905.717;  217.446;  -10.670; 1233.691
906.277;  216.280;  -14.040; 1217.330
906.836;  215.991;  -13.510; 1222.408
907.396;  211.531;  -11.530; 1193.047
907.955;  201.534;  -13.190; 1182.526
908.515;  189.098;  -12.950; 1099.364
909.074;  180.269;  -12.390; 1092.863
909.633;  175.819;  -10.340; 1069.121
910.192;  173.739;  -11.170; 1196.460
910.752;  169.669;  -14.200; 1029.960
911.311;  165.252;  -13.810; 1009.780
911.870;  162.081;  -12.750;  971.460
912.429;  161.068;  -12.380; 1094.080
912.988;  158.643;  -11.930; 1081.060
913.547;  153.353;  -10.990;  940.380
914.106;  149.909;  -11.200;  999.420
914.665;  148.736;  -13.150;  984.020
915.224;  146.037;  -13.310; 1035.760
915.782;  143.847;  -13.340;  922.560
916.341;  144.600;  -10.710; 1049.840
916.900;  141.639;  -12.980;  925.260
917.458;  139.244;  -13.060;  884.220
918.017;  138.811;  -10.900;  942.600
918.576;  137.060;  -11.630;  904.440
919.134;  136.613;  -12.860;  837.980
919.693;  137.439;  -15.160;  893.060
920.251;  136.034;  -13.470;  876.500
920.809;  135.856;  -13.700;  839.580
921.368;  136.573;  -13.420;  885.360
921.926;  136.734;  -14.710;  842.940
922.484;  136.837;  -12.560;  903.360
923.042;  136.542;  -11.930;  880.340
923.601;  137.415;  -10.270;  998.680
924.159;  135.878;  -12.960;  935.560
924.717;  133.935;  -13.040;  841.080
925.275;  137.091;  -12.560;  903.240
925.833;  136.964;  -13.040;  779.320
926.391;  139.863;  -13.360;  938.380
926.949;  137.567;  -13.940;  857.680
927.506;  139.132;   -9.400;  903.500
928.064;  138.846;  -10.940;  877.580
928.622;  138.112;  -13.180;  880.100
929.180;  138.226;  -12.730;  814.180
929.737;  139.217;  -12.840;  808.540
930.295;  142.997;  -11.810;  928.480
930.853;  145.867;  -13.650;  849.100
931.410;  146.895;  -13.580;  821.120
931.968;  149.676;  -12.020;  940.660
932.525;  150.408;  -13.320;  909.380
933.082;  151.215;  -13.800;  811.440
933.640;  156.810;  -11.380;  925.900
934.197;  158.168;  -11.480;  886.360
934.754;  161.799;  -13.220;  897.780
935.312;  161.131;  -14.950;  863.340
935.869;  158.255;  -10.940; 1012.980
936.426;  153.355;  -12.100;  872.800
936.983;  154.489;  -12.930;  889.020
937.540;  154.108;  -14.250;  838.280
938.097;  158.582;  -12.600;  940.120
938.654;  164.604;  -11.260;  898.860
939.211;  167.662;  -13.020;  952.480
939.768;  170.100;  -15.760;  915.420
940.324;  171.867;  -13.920;  904.200
940.881;  167.197;  -11.620;  878.500
941.438;  164.268;   -9.870; 1021.200
941.995;  161.897;  -13.920;  992.560
942.551;  159.833;  -12.830;  875.620
943.108;  162.883;  -11.980;  937.920
943.664;  165.154;  -13.740;  869.340
944.221;  172.005;  -12.670; 1088.140
944.777;  169.595;  -13.250;  869.680
945.334;  167.334;  -13.000;  884.840
945.890;  167.678;  -13.020;  946.480
946.446;  167.928;  -13.880;  947.020
947.003;  170.314;  -12.660;  964.940
947.559;  170.403;   -8.730; 1063.040
948.115;  167.511;  -11.960; 1026.540
948.671;  163.814;  -12.360;  967.300
949.227;  160.156;  -12.700;  859.560
949.783;  157.409;  -13.450;  858.900
950.339;  157.031;  -10.620;  991.000
950.895;  153.539;  -14.770; 1023.840
951.451;  150.710;  -13.650;  925.280
952.007;  150.698;  -11.180;  998.540
952.563;  149.969;  -11.680;  937.780
953.118;  149.993;  -13.280;  904.940
953.674;  151.398;  -12.510;  935.780
954.230;  151.798;  -12.220;  949.640
954.785;  147.464;  -12.190;  936.640
955.341;  142.079;  -12.270;  998.160
955.897;  136.617;  -14.900;  834.660
956.452;  137.190;  -12.520;  953.840
957.008;  137.470;   -9.410; 1083.640
957.563;  134.948;  -11.280; 1009.540
958.118;  131.889;  -13.470;  877.700
958.674;  134.261;  -12.190;  946.780
959.229;  137.652;  -12.760; 1013.980
959.784;  141.539;  -15.710;  832.400
960.339;  147.301;  -12.540; 1001.280
960.894;  147.314;  -11.680;  963.760
961.449;  143.231;  -11.410;  859.960
962.004;  143.076;  -10.430; 1212.840
962.559;  136.135;  -14.040;  860.140
963.114;  133.391;  -14.270;  742.480
963.669;  134.393;  -11.320;  915.500
964.224;  134.323;  -14.620;  874.340
964.779;  131.900;  -14.150;  828.420
965.334;  131.969;  -10.850; 1017.860
965.888;  130.906;  -14.530;  875.360
966.443;  132.167;  -13.520;  972.380
966.998;  128.317;  -13.370;  819.460
967.552;  125.629;   -9.960;  908.380
968.107;  121.667;  -12.360;  868.300
968.661;  121.770;  -12.270;  922.440
969.216;  120.955;  -12.140;  856.280
969.770;  120.689;  -11.860;  917.200
970.324;  121.371;  -12.170;  923.140
970.879;  119.633;  -14.160;  947.180
971.433;  117.592;  -12.940;  952.720
971.987;  113.848;  -10.180;  895.340
972.541;  113.344;  -12.130;  917.100
973.095;  114.350;  -14.980; 1009.460
973.649;  111.842;  -14.480;  809.480
974.203;  113.449;  -13.530;  829.040
974.757;  115.149;  -12.060;  855.220
975.311;  112.636;  -13.240;  872.600
975.865;  109.765;  -12.550;  881.820
976.419;  108.814;  -13.180;  857.400
976.973;  109.031;  -14.100;  849.620
977.526;  107.670;  -13.330;  949.920
978.080;  103.155;  -15.390;  796.780
978.634;  103.117;  -11.670;  921.320
979.187;  100.980;  -10.640;  905.400
979.741;  101.467;  -13.330; 1018.380
980.294;   97.508;  -14.480;  789.160
980.848;   95.193;  -13.420;  717.220
981.401;   94.308;  -12.360;  816.540
981.955;   91.498;  -12.480;  844.300
982.508;   88.363;  -14.000;  746.340
983.061;   88.576;  -10.440;  915.260
983.615;   85.037;  -14.340;  798.800
984.168;   82.341;  -14.950;  770.080
984.721;   82.005;  -13.270;  880.760
985.274;   80.358;  -12.240;  867.500
985.827;   78.046;  -12.720;  834.220
986.380;   74.765;  -14.920;  721.340
986.933;   75.013;  -12.860;  864.800
987.486;   72.648;  -10.440;  861.920
988.039;   72.984;  -11.820;  863.100
988.591;   71.299;  -13.760;  893.260
989.144;   69.673;  -14.080;  737.260
989.697;   70.091;  -13.440;  758.740
990.250;   70.751;  -12.050;  858.100
990.802;   69.142;  -14.550;  755.860
991.355;   69.690;  -10.770;  974.880
991.907;   67.249;  -11.710;  864.320
992.460;   64.809;  -12.650;  753.760
993.012;   63.777;  -13.860;  749.540
993.565;   60.841;  -14.310;  711.360
994.117;   62.500;   -9.920;  950.780
994.669;   58.950;  -13.420;  701.320
995.221;   58.602;  -14.200;  791.920
995.774;   57.133;  -13.400;  787.580
996.326;   57.008;  -11.850;  740.220
996.878;   56.047;  -12.230;  838.420
997.430;   54.133;  -14.260;  699.860
997.982;   53.679;  -11.430;  750.140
998.534;   53.508;  -11.590;  739.060
999.086;   52.951;  -11.960;  738.220
999.638;   52.782;  -13.640;  661.380
1000.190;   50.887;  -13.660;  699.320
1000.741;   50.388;   -9.980;  742.700
1001.293;   51.247;  -11.860;  686.020
1001.845;   48.655;  -14.280;  676.640
1002.396;   49.560;  -12.270;  743.400
1002.948;   48.827;  -13.670;  737.400
1003.500;   47.915;  -12.010;  723.780
1004.051;   49.045;  -11.890;  907.580
1004.603;   47.387;  -11.220;  791.820
1005.154;   43.885;  -13.210;  608.980
1005.705;   43.861;  -11.850;  723.960
1006.257;   42.949;  -13.670;  707.220
1006.808;   41.717;  -12.060;  685.460
1007.359;   41.711;  -10.250;  763.240
1007.910;   41.055;  -13.440;  646.640
1008.461;   40.818;  -13.170;  732.940
1009.013;   38.433;  -14.590;  588.340
1009.564;   40.336;  -12.100;  793.520
1010.115;   37.547;  -14.000;  597.040
1010.665;   37.861;  -15.020;  602.160
1011.216;   38.024;  -12.560;  667.920
1011.767;   37.249;  -11.330;  697.920
1012.318;   37.961;  -11.450;  736.980
1012.869;   36.989;  -11.000;  679.000
1013.419;   35.895;  -11.760;  603.120
1013.970;   36.564;  -11.800;  666.640
1014.521;   36.260;  -14.750;  620.620
1015.071;   35.998;  -14.430;  670.380
1015.622;   35.528;  -14.170;  635.460
1016.172;   34.461;  -11.700;  596.820
1016.723;   35.046;  -13.230;  614.380
1017.273;   34.538;  -16.120;  604.160
1017.823;   34.358;  -13.360;  650.340
1018.374;   34.566;  -13.710;  611.760
1018.924;   33.944;  -11.050;  716.880
1019.474;   34.486;  -14.120;  718.880
1020.024;   32.188;  -12.990;  657.580
1020.574;   34.121;  -12.010;  726.160
1021.124;   33.660;  -12.080;  673.580
1021.674;   32.171;  -15.860;  559.120
1022.224;   33.255;  -11.710;  708.940
1022.774;   32.612;  -13.030;  668.820
1023.324;   33.662;  -11.000;  753.520
1023.874;   34.236;  -13.270;  875.760
1024.423;   31.138;  -14.570;  613.700
1024.973;   30.431;  -12.620;  610.760
1025.523;   30.462;  -12.630;  620.960
1026.072;   29.933;  -14.110;  606.420
1026.622;   30.535;  -15.390;  675.740
1027.172;   30.663;   -9.090;  715.660
1027.721;   29.372;  -12.250;  601.220
1028.270;   29.799;  -15.590;  663.400
1028.820;   29.964;  -13.840;  638.080
1029.369;   29.600;  -13.170;  612.700
1029.918;   29.851;  -14.080;  649.840
1030.468;   29.324;  -13.860;  564.780
1031.017;   29.600;  -12.970;  634.800
1031.566;   28.330;  -12.320;  608.900
1032.115;   29.978;  -13.140;  694.500
1032.664;   27.851;  -14.560;  596.480
1033.213;   29.172;  -11.620;  735.420
1033.762;   27.847;  -13.190;  635.620
1034.311;   27.768;  -13.460;  677.220
1034.860;   28.172;  -15.770;  691.000
1035.408;   28.439;  -13.100;  722.720
1035.957;   28.225;  -12.880;  719.540
1036.506;   26.046;  -13.640;  530.800
1037.055;   29.869;  -12.420;  844.320
1037.603;   26.880;  -13.740;  664.000
1038.152;   25.709;  -13.840;  534.760
1038.700;   25.694;  -10.770;  585.740
1039.249;   25.923;  -13.520;  681.220
1039.797;   26.379;  -13.060;  633.360
1040.345;   25.760;  -11.760;  705.420
1040.894;   25.329;  -10.790;  625.300
1041.442;   25.684;  -15.420;  632.200
1041.990;   23.466;  -14.550;  559.160
1042.538;   23.896;  -15.620;  536.180
1043.087;   23.868;  -14.940;  570.860
1043.635;   25.789;  -12.100;  670.500
1044.183;   23.468;  -13.200;  586.400
1044.731;   23.989;  -11.630;  576.000
1045.279;   24.398;  -14.200;  674.920
1045.827;   26.533;  -12.510;  892.400
1046.374;   23.029;  -14.960;  515.420
1046.922;   22.456;  -11.850;  590.580
1047.470;   24.240;  -13.770;  691.300
1048.018;   24.121;  -15.380;  647.960
1048.565;   23.994;  -14.010;  708.600
1049.113;   22.272;  -14.620;  557.000
1049.660;   23.117;  -14.940;  629.660
1050.208;   23.201;  -14.540;  675.640
1050.755;   22.013;  -13.710;  606.580
1051.303;   22.155;  -11.880;  686.820
1051.850;   22.298;  -12.160;  635.120
1052.397;   19.676;  -15.110;  473.960
1052.945;   21.142;  -14.770;  617.760
1053.492;   22.505;  -12.320;  741.840
1054.039;   22.834;  -13.290;  720.180
1054.586;   21.377;  -15.210;  557.240
1055.133;   21.902;  -12.920;  693.140
1055.680;   21.447;  -12.610;  646.620
1056.227;   20.738;  -12.620;  542.780
1056.774;   23.617;  -13.010;  794.980
1057.321;   19.747;  -16.180;  523.260
1057.868;   20.073;  -11.230;  651.320
1058.415;   20.138;  -10.890;  651.980
1058.961;   20.896;  -12.530;  678.940
1059.508;   20.209;  -14.120;  643.820
1060.055;   19.346;  -13.340;  581.780
1060.601;   20.542;  -12.920;  624.300
1061.148;   19.852;  -14.430;  616.820
1061.694;   19.162;  -14.140;  592.580
1062.241;   19.393;  -12.550;  596.320
1062.787;   20.015;  -13.370;  663.140
1063.334;   22.090;  -12.260;  808.560
1063.880;   19.465;  -10.800;  668.360
1064.426;   19.561;   -9.920;  706.820
1064.972;   18.235;  -12.970;  601.340
1065.518;   17.611;  -14.440;  566.640
1066.065;   17.968;  -12.680;  624.460
1066.611;   17.489;  -13.520;  598.800
1067.157;   18.793;  -11.100;  641.860
1067.703;   18.355;  -14.100;  668.480
1068.249;   18.047;  -13.750;  605.220
1068.794;   17.809;  -11.070;  626.880
1069.340;   17.626;  -13.210;  578.960
1069.886;   17.877;  -14.850;  590.700
1070.432;   15.867;  -14.580;  541.720
1070.977;   16.535;  -12.930;  601.080
1071.523;   16.962;  -11.970;  573.060
1072.068;   17.522;  -13.730;  582.000
1072.614;   16.034;  -14.550;  527.760
1073.160;   17.193;  -13.690;  687.040
1073.705;   15.846;  -14.780;  572.520
1074.250;   16.053;  -15.430;  559.900
1074.796;   16.913;  -11.620;  655.160
1075.341;   16.736;  -11.580;  664.100
1075.886;   16.164;  -13.190;  594.240
1076.431;   16.530;  -13.630;  649.880
1076.976;   15.145;  -11.670;  639.220
1077.521;   14.908;  -11.600;  583.080
1078.067;   14.659;  -13.920;  579.400
1078.612;   16.022;  -12.910;  661.620
1079.156;   15.354;  -15.340;  601.540
1079.701;   14.917;  -12.560;  693.260
1080.246;   15.796;  -12.490;  696.300
1080.791;   15.358;  -14.550;  625.020
1081.336;   14.635;  -15.210;  659.320
1081.880;   15.036;  -11.280;  649.680
1082.425;   14.914;  -12.830;  573.480
1082.970;   16.369;  -11.680;  717.040
1083.514;   13.897;  -15.500;  597.000
1084.059;   13.011;  -11.770;  586.720
1084.603;   13.201;  -13.480;  565.840
1085.147;   14.533;  -13.940;  645.220
1085.692;   15.092;  -13.170;  716.800
1086.236;   11.717;  -15.740;  503.140
1086.780;   14.678;  -10.750;  751.440
1087.325;   14.346;  -14.900;  654.620
1087.869;   14.571;  -15.160;  610.700
1088.413;   14.165;  -11.030;  705.040
1088.957;   12.515;  -15.210;  543.400
1089.501;   14.690;  -12.310;  766.640
1090.045;   13.961;  -12.790;  726.480
1090.589;   11.731;  -14.040;  569.920
1091.133;   13.238;  -12.800;  673.340
1091.676;   13.172;  -13.600;  591.940
1092.220;   11.872;  -12.960;  600.920
1092.764;   13.286;  -10.830;  706.960
1093.307;   12.582;  -12.390;  673.780
1093.851;   11.562;  -15.850;  556.540
1094.395;   12.620;  -12.980;  683.140
1094.938;   11.692;  -13.670;  632.520
1095.482;   12.303;  -12.740;  559.800
1096.025;   12.529;  -13.340;  710.880
1096.568;   12.854;  -10.500;  779.280
1097.112;    8.840;  -13.500;  508.180
1097.655;   11.779;  -13.060;  603.000
1098.198;   10.154;  -13.240;  600.180
1098.741;    9.773;  -15.490;  612.860
1099.285;   11.700;  -13.410;  657.300
1099.828;    9.718;  -15.640;  439.400
1100.371;   11.113;  -13.980;  608.160
1100.914;   10.371;  -13.990;  682.660
1101.457;   10.687;  -15.030;  679.900
1101.999;    9.562;  -12.480;  584.680
1102.542;   10.488;  -12.410;  641.440
1103.085;   10.376;  -14.730;  658.500
1103.628;   10.743;  -12.190;  762.060
1104.170;    9.837;  -12.360;  588.280
1104.713;    9.710;  -13.350;  646.700
1105.256;    9.034;  -14.930;  557.440
1105.798;    8.190;  -15.150;  499.980
1106.341;   10.650;  -13.230;  728.900
1106.883;    9.276;  -14.680;  521.340
1107.425;    9.697;  -14.810;  668.180
1107.968;    9.015;  -12.940;  612.380
1108.510;    8.988;  -10.550;  684.960
1109.052;    8.725;  -15.640;  612.620
1109.594;    7.394;  -14.440;  554.440
1110.136;    9.214;  -11.380;  643.220
1110.679;    8.803;  -13.090;  633.080
1111.221;    8.669;  -14.230;  604.460
1111.763;    7.522;  -14.260;  559.220
1112.304;    7.174;  -14.510;  547.140
1112.846;    8.921;  -14.700;  666.240
1113.388;   12.203;  -12.270;  942.180
1113.930;    8.707;  -13.340;  694.200
1114.472;    7.455;  -12.560;  606.540
1115.013;    6.827;  -14.280;  551.280
1115.555;    6.895;  -14.010;  587.100
1116.097;    6.551;  -14.730;  579.480
1116.638;    7.236;  -12.160;  684.600
1117.180;    7.669;  -14.320;  667.740
1117.721;    7.181;  -15.730;  568.580
1118.262;    7.644;  -13.480;  677.960
1118.804;    6.946;  -11.530;  637.340
1119.345;    6.961;  -13.540;  578.400
1119.886;    8.271;  -14.470;  704.040
1120.427;    6.000;  -13.030;  589.020
1120.969;    5.450;  -13.150;  597.920
1121.510;    5.531;  -13.940;  563.060
1122.051;    7.012;  -12.310;  723.580
1122.592;    5.664;  -13.870;  655.420
1123.133;    4.027;  -12.890;  547.940
1123.673;    7.260;  -13.300;  706.480
1124.214;    6.411;  -14.000;  612.460
1124.755;    5.910;  -13.210;  639.460
1125.296;    5.991;  -13.450;  627.320
1125.836;    6.967;  -12.610;  691.500
1126.377;    5.780;  -15.840;  599.660
1126.918;    6.098;  -11.830;  614.980
1127.458;    4.462;  -11.830;  622.220
1127.999;    6.500;  -11.490;  656.980
1128.539;    6.665;  -12.900;  694.240
1129.079;    5.108;  -14.910;  632.720
1129.620;    3.690;  -12.920;  558.100
1130.160;    3.954;  -14.640;  539.480
1130.700;    5.589;  -13.270;  640.840
1131.240;    5.272;  -14.110;  643.700
1131.781;    4.835;  -13.130;  619.680
1132.321;    4.470;  -15.220;  599.120
1132.861;    3.775;  -15.670;  564.200
1133.401;    3.558;  -13.970;  593.940
1133.941;    4.454;  -13.740;  626.280
1134.481;    4.228;  -13.200;  597.580
1135.020;    4.060;  -14.830;  609.160
1135.560;    4.298;  -14.590;  674.940
1136.100;    2.181;  -13.730;  501.160
1136.640;    2.799;  -15.240;  510.480
1137.179;    2.965;  -14.710;  537.960
1137.719;    3.338;  -14.090;  605.400
1138.258;    3.084;  -12.470;  587.360
1138.798;    3.923;  -12.580;  663.780
1139.337;    2.449;  -16.480;  482.840
1139.877;    4.098;  -13.970;  642.360
1140.416;    5.905;   -9.870;  878.060
1140.955;    2.430;  -14.860;  535.380
1141.494;    3.628;  -14.530;  669.280
1142.034;    2.883;  -13.940;  583.520
1142.573;    4.125;  -11.160;  646.280
1143.112;    2.252;  -15.050;  553.480
1143.651;    3.275;  -15.390;  536.480
1144.190;    3.489;  -12.990;  691.640
1144.729;    2.593;  -12.220;  607.420
1145.267;    2.769;  -14.020;  584.900
1145.806;    3.838;  -12.740;  637.040
1146.345;    2.805;  -14.810;  635.020
1146.884;    1.930;  -12.920;  622.500
1147.422;    1.640;  -13.930;  533.060
1147.961;    4.103;  -11.830;  708.460
1148.500;    2.427;  -12.710;  669.720
1149.038;    2.725;  -14.420;  632.500
1149.577;    2.685;  -13.920;  698.640
1150.115;    0.731;  -17.050;  452.280
1150.653;    2.420;  -14.890;  607.340
1151.192;    1.693;  -15.270;  552.920
1151.730;    2.418;  -13.160;  652.560
1152.268;    1.592;  -15.430;  589.520
1152.806;    0.853;  -15.880;  571.180
1153.344;    0.664;  -13.240;  577.640
1153.882;    2.370;  -13.010;  600.060
1154.421;    0.101;  -16.180;  470.620
1154.958;    0.646;  -13.880;  595.240
1155.496;    2.064;  -13.590;  645.280
1156.034;    1.886;  -11.910;  721.880
1156.572;    2.289;  -12.010;  667.060
1157.110;   -0.230;  -16.250;  473.940
1157.647;    1.537;  -15.230;  676.960
1158.185;    0.522;  -13.770;  564.320
1158.723;   -0.461;  -15.300;  509.200
1159.260;    2.056;  -13.130;  701.700
1159.798;    1.346;  -11.300;  658.160
1160.335;    0.703;  -13.210;  631.820

