
Integration time [ms]:   3.882
Averaging Nr. [scans]: 1000
Smoothing Nr. [pixels]: 0
Data measured with spectrometer [name]: 7414430SP
Wave   ;Sample   ;Dark     ;Reference
[nm]   ;[counts] ;[counts] ;[counts] 

288.544;  139.208;    7.153;  793.890
289.143;  142.619;    8.402;  681.602
289.742;  143.494;    7.062;  828.814
290.341;  130.765;    0.191;  789.841
290.940;  121.266;    0.321;  730.702
291.538;  122.948;    3.811;  881.108
292.137;  122.377;   -3.438;  792.581
292.736;  124.586;   -2.809;  975.101
293.335;  121.180;   -5.239;  735.086
293.934;  121.713;   -4.939;  781.677
294.532;  122.321;   -2.199; 1031.958
295.131;  107.876;   -6.831;  834.394
295.730;  107.563;   -6.620;  809.588
296.328;  105.856;   -6.471;  783.442
296.927;  104.930;   -6.571;  779.652
297.525;  106.358;   -7.391;  781.236
298.124;   96.642;   -9.402;  654.009
298.722;  102.285;   -5.781;  761.933
299.321;  100.173;   -6.351;  708.597
299.919;   98.238;   -8.661;  751.918
300.518;   93.815;  -11.922;  689.338
301.116;   95.348;   -6.941;  691.381
301.715;   95.892;   -5.471;  730.222
302.313;   94.936;   -8.361;  704.943
302.911;   90.806;   -9.082;  733.830
303.509;   95.942;   -4.571;  925.627
304.108;   92.763;   -7.111;  760.383
304.706;   92.552;   -7.681;  801.664
305.304;   87.230;   -9.162;  796.707
305.902;   93.088;   -6.761;  784.484
306.500;   88.340;   -6.921;  728.200
307.098;   87.093;   -6.491;  746.560
307.696;   84.520;   -6.941;  780.432
308.294;   85.677;   -6.301;  731.359
308.892;   88.034;   -4.771;  759.769
309.490;   84.339;   -5.141;  712.161
310.088;   82.144;   -2.912;  788.444
310.686;   86.589;   -0.421;  821.749
311.284;   82.492;   -3.461;  766.040
311.882;   80.109;   -6.282;  731.225
312.480;   76.824;   -3.632;  697.167
313.078;   79.148;   -2.112;  808.331
313.675;   79.532;   -1.931;  691.600
314.273;   74.415;   -1.442;  797.837
314.871;   73.482;   -3.002;  589.829
315.468;   72.111;   -2.252;  652.090
316.066;   75.330;   -1.091;  694.427
316.664;   67.962;   -4.512;  656.351
317.261;   71.993;   -0.062;  910.128
317.859;   68.175;   -0.952;  768.735
318.456;   69.225;    0.719;  830.096
319.054;   64.648;   -4.002;  787.828
319.651;   63.498;   -4.972;  759.928
320.249;   63.194;   -1.162;  810.188
320.846;   61.419;   -2.651;  714.286
321.443;   58.996;   -3.832;  832.135
322.041;   55.420;   -4.312;  812.315
322.638;   53.760;   -3.872;  701.456
323.235;   55.184;   -4.361;  665.683
323.833;   53.637;   -4.821;  740.354
324.430;   48.852;   -6.971;  615.900
325.027;   50.040;   -4.361;  876.855
325.624;   50.351;   -5.581;  644.532
326.221;   47.420;   -6.601;  689.717
326.818;   47.468;   -7.301;  818.332
327.415;   49.628;   -6.180;  748.828
328.012;   48.757;   -5.920;  690.585
328.609;   46.620;   -8.390;  731.389
329.206;   44.737;   -6.121;  778.621
329.803;   45.038;   -5.241;  737.841
330.400;   47.462;   -7.420;  704.260
330.997;   48.765;   -5.931;  817.147
331.594;   45.453;   -5.641;  788.185
332.191;   51.387;   -6.451;  728.722
332.787;   54.353;   -4.651;  844.463
333.384;   52.119;   -5.472;  763.093
333.981;   49.711;   -6.303;  815.687
334.578;   54.334;   -5.892;  708.378
335.174;   55.123;   -4.102;  731.469
335.771;   54.495;   -8.053;  836.456
336.367;   50.667;   -7.363;  710.631
336.964;   55.949;   -6.243;  793.266
337.561;   54.399;   -5.653;  731.112
338.157;   50.305;   -7.074;  911.916
338.754;   47.843;   -5.474;  796.589
339.350;   46.054;   -5.624;  722.493
339.946;   48.269;   -5.054;  773.135
340.543;   41.231;   -6.695;  846.136
341.139;   34.965;   -6.215;  720.836
341.735;   33.331;   -5.746;  772.593
342.332;   32.455;   -7.335;  691.472
342.928;   33.603;   -4.835;  795.394
343.524;   26.966;   -4.586;  761.684
344.120;   24.536;   -3.946;  738.562
344.716;   27.274;   -4.835;  723.717
345.313;   25.226;   -5.325;  795.342
345.909;   19.434;   -6.535;  627.336
346.505;   22.136;   -4.725;  740.247
347.101;   23.014;   -4.164;  827.864
347.697;   24.053;   -5.274;  785.398
348.293;   17.396;   -7.145;  627.244
348.889;   17.993;   -4.364;  745.914
349.485;   18.317;   -6.404;  688.205
350.081;   19.323;   -7.534;  772.592
350.676;   13.973;   -6.995;  691.606
351.272;   18.248;   -3.544;  809.530
351.868;   18.851;   -5.324;  780.497
352.464;   15.850;   -7.204;  723.932
353.059;   11.459;   -6.894;  646.017
353.655;   15.450;   -3.754;  777.063
354.251;   17.035;   -6.143;  759.845
354.846;   11.444;   -9.464;  740.646
355.442;    8.896;   -7.555;  753.071
356.038;   10.893;   -5.474;  751.708
356.633;   11.803;   -5.914;  728.594
357.229;    9.837;   -8.944;  724.757
357.824;    7.310;   -6.794;  703.600
358.420;    6.278;   -5.754;  679.726
359.015;    7.835;   -5.664;  695.357
359.610;    8.614;   -8.004;  763.920
360.206;    2.340;   -8.815;  603.240
360.801;    5.624;   -8.834;  646.503
361.396;    7.851;   -6.274;  725.975
361.992;    3.741;   -8.574;  668.220
362.587;    0.510;   -9.265;  670.160
363.182;    2.035;   -5.484;  689.631
363.777;    3.821;   -5.164;  738.242
364.372;    2.847;   -6.954;  737.314
364.967;   -0.291;   -7.065;  680.744
365.563;    3.442;   -5.684;  815.567
366.158;    0.812;   -6.484;  685.161
366.753;    2.212;   -8.004;  649.263
367.348;   -0.765;  -10.114;  746.056
367.942;   -0.258;   -7.764;  697.298
368.537;   -1.107;   -4.554;  754.245
369.132;   -0.182;   -7.664;  703.428
369.727;   -4.884;   -8.905;  638.079
370.322;   -3.852;   -4.945;  580.186
370.917;   -3.782;   -7.095;  710.646
371.511;   -0.350;   -6.574;  861.834
372.106;   -3.874;   -6.515;  776.964
372.701;   -7.724;   -8.225;  585.988
373.296;   -1.285;   -4.494;  863.135
373.890;   -6.181;   -7.965;  647.840
374.485;   -7.718;   -9.745;  691.199
375.079;   -4.244;   -5.554;  738.685
375.674;   -3.296;   -4.724;  812.970
376.268;   -7.720;   -8.365;  691.759
376.863;  -13.848;   -8.126;  580.327
377.457;   -6.799;   -6.045;  662.490
378.052;   -8.283;   -6.835;  764.884
378.646;   -9.412;   -9.375;  741.167
379.240;   -9.759;   -6.185;  721.176
379.835;   -8.299;   -6.135;  636.978
380.429;  -11.066;   -8.365;  562.557
381.023;  -10.196;   -7.935;  779.205
381.617;  -13.346;   -8.325;  680.106
382.212;   -9.581;   -7.405;  685.303
382.806;   -8.656;   -4.155;  760.690
383.400;  -12.702;   -8.945;  672.281
383.994;  -13.978;   -8.365;  664.870
384.588;  -10.118;   -7.824;  697.701
385.182;   -7.976;   -7.984;  726.624
385.776;   -9.939;  -10.404;  706.875
386.370;  -12.953;   -7.335;  681.968
386.964;  -11.750;   -7.485;  684.155
387.558;   -9.969;   -8.174;  598.360
388.152;  -13.233;  -10.415;  681.959
388.745;  -11.934;   -9.595;  814.707
389.339;  -10.098;   -6.454;  747.642
389.933;   -8.423;   -5.804;  695.370
390.527;   -9.439;   -6.854;  859.029
391.120;  -16.584;   -7.665;  595.318
391.714;  -12.927;   -7.245;  711.633
392.308;  -10.292;   -4.514;  780.253
392.901;  -14.136;   -7.935;  642.460
393.495;  -16.411;   -8.585;  595.414
394.089;  -13.778;   -5.245;  760.452
394.682;  -14.182;   -6.305;  697.188
395.275;  -15.059;   -9.335;  719.927
395.869;  -15.568;   -7.375;  667.314
396.462;  -14.209;   -7.055;  616.609
397.056;  -10.583;   -5.434;  776.621
397.649;  -14.271;   -9.525;  731.575
398.242;  -12.234;   -7.574;  712.645
398.836;  -10.575;   -5.134;  766.408
399.429;  -12.266;   -6.544;  631.041
400.022;  -15.549;   -9.215;  665.902
400.615;  -13.455;   -8.105;  805.609
401.208;  -11.445;   -7.614;  691.451
401.802;  -13.208;   -8.085;  699.329
402.395;  -14.866;   -9.575;  683.502
402.988;  -16.314;   -9.285;  696.627
403.581;  -12.903;   -7.514;  646.878
404.174;  -10.080;   -6.404;  686.568
404.767;  -13.693;   -8.775;  638.583
405.360;  -16.786;   -7.415;  621.445
405.953;  -10.180;   -5.624;  759.034
406.545;   -8.766;   -6.474;  725.342
407.138;  -13.870;   -8.445;  618.350
407.731;  -12.881;  -10.044;  613.303
408.324;   -8.378;   -8.484;  660.554
408.917;   -9.326;   -7.624;  681.864
409.509;  -11.630;   -8.304;  740.396
410.102;  -13.545;   -8.495;  643.948
410.695;   -7.586;   -7.824;  665.758
411.287;   -8.749;   -7.754;  599.821
411.880;   -9.404;   -9.294;  585.421
412.472;  -12.830;   -8.814;  613.092
413.065;   -9.978;   -6.674;  629.408
413.657;   -7.674;   -9.664;  576.678
414.250;   -7.261;  -10.264;  646.681
414.842;   -9.156;   -8.664;  676.353
415.434;   -7.094;   -8.584;  570.463
416.027;   -3.229;   -9.423;  652.196
416.619;   -4.661;  -10.764;  713.400
417.211;   -5.368;   -7.404;  599.352
417.804;   -2.022;   -7.383;  628.499
418.396;   -5.447;   -8.334;  607.643
418.988;   -3.171;   -9.633;  659.238
419.580;   -7.014;  -10.554;  568.276
420.172;   -5.403;   -8.683;  536.196
420.764;    0.132;   -9.713;  672.482
421.356;   -1.521;  -11.303;  636.898
421.948;   -1.963;   -8.453;  677.661
422.540;    2.372;   -5.793;  680.027
423.132;    1.712;   -7.162;  600.641
423.724;   -1.145;   -7.933;  561.267
424.316;    0.475;   -9.083;  621.345
424.908;    4.168;   -8.392;  591.517
425.500;    4.833;   -8.062;  647.978
426.092;    6.019;   -9.692;  648.268
426.683;    4.357;   -8.223;  684.836
427.275;    7.532;   -8.602;  641.471
427.867;    8.853;   -8.382;  668.948
428.458;    9.513;  -10.472;  732.344
429.050;    7.751;   -9.112;  680.749
429.642;    9.623;   -7.752;  743.124
430.233;   10.793;   -8.832;  569.356
430.825;   12.679;   -8.292;  724.809
431.416;    9.628;   -7.522;  698.241
432.008;   12.648;   -9.262;  651.723
432.599;   13.415;   -6.441;  656.073
433.190;   11.282;   -9.222;  637.670
433.782;    9.651;  -11.832;  590.395
434.373;   18.076;   -7.121;  884.765
434.964;   15.696;   -9.141;  602.920
435.556;   13.908;   -9.332;  634.537
436.147;   17.308;   -8.892;  758.490
436.738;   16.857;   -8.151;  701.099
437.329;   21.739;   -8.281;  721.723
437.920;   14.494;   -9.062;  666.688
438.511;   14.784;  -11.182;  564.526
439.103;   20.745;   -7.461;  623.998
439.694;   23.798;   -8.541;  681.583
440.285;   24.339;   -7.351;  764.432
440.876;   22.583;   -8.201;  845.738
441.466;   21.631;  -10.381;  575.162
442.057;   26.936;   -7.620;  665.814
442.648;   26.764;   -8.461;  746.255
443.239;   23.456;   -8.991;  620.477
443.830;   28.547;   -7.910;  704.958
444.421;   31.204;   -7.340;  655.474
445.011;   27.299;   -8.981;  693.619
445.602;   26.624;   -9.341;  743.126
446.193;   28.185;  -11.390;  488.117
446.783;   32.753;  -11.240;  640.397
447.374;   28.579;   -8.471;  692.759
447.964;   28.891;   -8.471;  713.770
448.555;   38.620;   -6.590;  822.742
449.145;   33.809;   -8.200;  662.853
449.736;   34.712;  -11.040;  803.179
450.326;   34.747;   -9.640;  713.626
450.917;   39.903;   -9.480;  675.324
451.507;   39.798;   -8.020;  600.661
452.097;   40.107;  -10.210;  746.267
452.688;   41.215;   -7.810;  742.160
453.278;   40.282;   -9.360;  566.840
453.868;   45.379;   -8.669;  793.550
454.458;   43.262;  -10.950;  651.141
455.048;   43.485;  -10.200;  711.783
455.639;   45.004;   -9.369;  567.096
456.229;   48.642;   -7.739;  710.694
456.819;   51.395;   -8.939;  751.158
457.409;   50.739;   -7.169;  773.993
457.999;   53.563;   -7.779;  737.505
458.589;   53.521;   -7.039;  686.606
459.179;   53.465;   -9.019;  717.658
459.769;   50.959;   -8.909;  627.099
460.358;   56.709;   -8.659;  797.262
460.948;   56.387;   -8.209;  689.503
461.538;   57.574;   -9.879;  660.677
462.128;   55.826;   -9.379;  664.934
462.717;   62.299;   -9.158;  710.326
463.307;   65.622;   -8.638;  705.846
463.897;   61.525;   -8.869;  656.942
464.486;   61.166;   -7.409;  837.128
465.076;   65.468;   -9.618;  733.776
465.666;   68.659;   -7.578;  652.900
466.255;   66.949;   -9.369;  785.651
466.845;   64.795;  -10.049;  666.749
467.434;   68.846;   -8.168;  725.873
468.023;   70.158;   -9.188;  658.357
468.613;   67.955;   -9.849;  713.946
469.202;   71.062;  -12.958;  646.507
469.791;   75.713;   -9.488;  737.811
470.381;   78.176;   -6.468;  742.813
470.970;   77.819;  -10.248;  711.099
471.559;   77.290;  -11.428;  733.291
472.148;   80.753;   -9.738;  675.737
472.738;   83.274;   -7.877;  765.466
473.327;   82.772;  -11.868;  637.529
473.916;   82.346;   -8.578;  737.446
474.505;   86.164;  -11.137;  751.703
475.094;   88.807;   -9.407;  806.570
475.683;   88.842;   -9.977;  797.699
476.272;   88.906;  -10.807;  730.632
476.861;   92.472;  -11.017;  706.754
477.449;   99.116;  -10.316;  728.487
478.038;   94.022;  -10.187;  692.513
478.627;   94.254;  -12.458;  714.852
479.216;  101.687;  -10.127;  769.441
479.805;  105.792;   -6.256;  783.375
480.393;  104.500;   -8.737; 1008.945
480.982;  103.882;   -9.087;  874.501
481.571;  109.667;   -7.806;  858.333
482.159;  110.354;  -10.596;  705.386
482.748;  109.079;  -11.507;  821.385
483.336;  114.635;   -8.366;  858.209
483.925;  115.441;   -7.497;  774.373
484.513;  121.317;   -8.326;  758.962
485.102;  118.344;  -10.277;  810.965
485.690;  127.060;   -8.256; 1011.050
486.278;  129.003;   -7.146;  979.329
486.867;  128.768;   -7.986;  809.662
487.455;  131.041;   -9.926;  898.229
488.043;  132.829;  -10.026;  748.361
488.631;  141.779;   -7.226; 1005.079
489.220;  145.219;   -8.696;  908.626
489.808;  144.778;  -12.276;  741.415
490.396;  152.643;   -9.386;  914.645
490.984;  157.277;   -8.506;  830.161
491.572;  167.731;   -8.226;  940.315
492.160;  173.687;   -9.836;  919.081
492.748;  183.507;  -10.316;  884.341
493.336;  204.725;   -7.146; 1019.693
493.924;  226.982;   -7.965;  958.077
494.512;  252.435;  -10.316; 1066.638
495.100;  289.520;  -10.186; 1103.280
495.687;  344.370;   -7.805; 1206.373
496.275;  408.066;   -9.686; 1150.796
496.863;  485.763;  -11.566; 1281.171
497.451;  580.039;  -11.406; 1386.805
498.038;  708.782;   -8.235; 1556.729
498.626;  817.987;   -7.485; 1741.407
499.214;  982.659;   -8.646; 2016.609
499.801; 1238.840;   -9.936; 2220.633
500.389; 1426.001;   -8.056; 2312.494
500.976; 1596.703;   -6.166; 2744.849
501.564; 1791.970;   -9.126; 3148.565
502.151; 2077.826;  -12.456; 3515.999
502.738; 2487.483;  -10.056; 3971.274
503.326; 2949.295;  -10.605; 4403.796
503.913; 3329.218;  -10.576; 5161.749
504.500; 3835.157;   -9.056; 5986.420
505.088; 4323.336;  -10.136; 6381.201
505.675; 5078.657;   -9.075; 6925.547
506.262; 5671.625;  -11.346; 7619.060
506.849; 6405.505;   -9.376; 8733.969
507.436; 6997.909;   -7.365; 9790.121
508.023; 7339.943;   -8.686; 9985.472
508.610; 7791.587;   -8.846;10434.618
509.197; 8736.828;   -9.077;11198.435
509.784;10007.743;  -10.246;12391.194
510.371;10518.617;   -9.825;13603.713
510.958;11199.856;  -10.896;14426.586
511.545;12057.496;   -9.006;15243.775
512.132;12969.773;   -8.765;15945.876
512.719;13899.943;   -8.286;16340.369
513.305;15950.020;   -9.256;18011.766
513.892;18232.119;  -11.106;19754.971
514.479;20098.074;   -8.576;20967.805
515.066;21512.969;   -9.046;22299.793
515.652;21878.236;  -10.676;22908.660
516.239;23236.203;  -10.166;23798.875
516.825;23679.945;  -11.266;25567.275
517.412;23583.156;   -7.446;28154.959
517.998;24381.131;  -10.916;28344.111
518.585;23633.014;   -9.166;27134.219
519.171;23276.201;  -10.135;27268.576
519.758;25217.740;   -8.806;28964.129
520.344;28434.229;   -6.716;30664.494
520.930;29848.535;  -10.166;32550.605
521.516;29978.654;   -9.615;35422.895
522.103;31322.232;   -8.656;38280.004
522.689;34137.688;   -9.646;37835.117
523.275;34846.078;  -10.786;37288.613
523.861;35682.965;   -9.266;37281.395
524.447;35903.227;   -8.285;37846.949
525.033;35966.223;   -9.426;38321.949
525.619;34955.922;   -9.836;38579.285
526.205;35616.551;   -8.136;40622.875
526.791;37014.371;   -9.986;42258.836
527.377;38988.789;   -8.236;42966.902
527.963;37865.191;  -12.117;42018.949
528.549;36310.078;   -8.376;42476.828
529.135;37329.742;   -8.696;41854.852
529.721;39108.566;   -9.686;41237.711
530.306;41729.395;   -8.616;41259.445
530.892;44804.043;   -9.396;41506.047
531.478;45328.520;   -9.926;43559.613
532.063;47070.277;  -10.236;47695.563
532.649;49492.199;   -8.257;50808.324
533.235;50820.656;  -11.476;51787.500
533.820;49352.922;   -8.156;52145.035
534.406;47048.516;  -12.257;51133.488
534.991;44845.699;   -8.686;49996.805
535.576;43291.891;   -9.426;48882.852
536.162;43580.324;   -8.436;46942.285
536.747;42536.859;  -10.957;45711.746
537.333;41640.934;  -13.147;48510.180
537.918;44418.340;   -9.027;50439.891
538.503;45832.215;   -8.256;50863.711
539.088;49479.566;  -10.576;50906.922
539.673;51468.387;  -10.907;52621.965
540.259;51464.977;   -9.126;52368.094
540.844;48451.281;   -9.026;50879.109
541.429;49215.121;   -9.597;52077.777
542.014;53500.883;  -11.447;52716.695
542.599;54642.586;   -9.236;52363.281
543.184;52982.086;  -12.267;53187.137
543.769;54784.098;  -10.367;54697.605
544.354;54956.578;  -10.887;53913.914
544.938;48335.332;  -11.687;49680.164
545.523;43399.191;   -8.286;47386.277
546.108;44940.918;   -9.317;49151.949
546.693;47070.027;  -10.187;51384.637
547.278;46329.594;   -9.926;51853.254
547.862;45517.055;   -9.196;51173.750
548.447;44212.379;   -9.657;51691.395
549.031;43711.078;   -9.127;52456.703
549.616;47673.074;  -10.836;52714.516
550.201;51847.137;   -8.507;52414.598
550.785;52190.090;  -10.537;52355.059
551.370;51523.918;  -11.727;54589.453
551.954;52340.215;   -9.457;58267.348
552.538;52366.457;   -8.147;59062.176
553.123;50501.141;   -9.397;58115.285
553.707;47901.508;   -9.558;56556.285
554.291;49034.699;   -9.417;56201.668
554.876;49167.727;   -7.627;55335.762
555.460;46715.871;  -10.457;54155.703
556.044;44553.832;  -10.078;53721.484
556.628;45302.145;   -9.407;53731.016
557.212;45060.152;   -7.957;54312.531
557.796;44715.563;  -11.327;53797.773
558.380;49450.645;  -10.868;56145.984
558.964;50663.156;   -9.637;57277.930
559.548;48596.160;   -8.807;56459.641
560.132;49422.324;  -10.187;54434.543
560.716;48988.449;   -9.868;54800.617
561.300;49624.254;  -10.217;57606.945
561.884;49907.156;   -4.947;58972.445
562.467;49034.355;   -9.588;57327.570
563.051;47150.648;  -11.138;54962.434
563.635;45651.316;   -9.358;52594.473
564.219;45718.449;   -9.797;50610.410
564.802;46442.512;   -9.918;49551.180
565.386;43995.902;  -10.838;48370.953
565.969;43323.109;   -8.037;48178.871
566.553;42623.258;   -5.667;49957.305
567.136;40749.008;   -8.258;50369.594
567.720;40439.137;  -11.278;49492.004
568.303;43557.652;   -9.028;50616.352
568.887;43210.293;   -7.508;50727.148
569.470;41614.332;  -11.068;51698.379
570.053;41462.762;  -10.028;52122.078
570.637;39624.141;  -11.077;52536.438
571.220;39078.137;   -8.747;51186.098
571.803;40840.066;   -8.868;51032.762
572.386;43164.047;  -10.608;49609.887
572.969;43341.875;  -10.548;48285.926
573.552;40865.078;   -7.898;47624.285
574.135;41549.211;   -9.918;45498.641
574.718;37847.059;  -10.328;41970.434
575.301;34870.992;   -9.548;41447.137
575.884;31894.922;   -8.768;40923.836
576.467;35471.707;   -9.858;45267.723
577.050;35398.363;  -11.018;48175.543
577.633;36100.215;  -10.048;47729.328
578.216;35442.176;  -10.268;47579.793
578.799;32638.982;  -11.808;47820.996
579.381;32548.625;   -7.338;48115.551
579.964;35611.211;   -9.728;47333.766
580.547;37274.234;   -8.928;46668.969
581.129;38593.375;   -9.149;44466.141
581.712;38997.027;  -11.359;44164.922
582.294;36316.613;  -10.738;46477.855
582.877;34636.836;   -8.788;48244.254
583.459;34826.105;   -9.859;47437.895
584.042;37357.285;   -9.649;46943.219
584.624;37416.270;  -10.529;46792.227
585.206;35834.219;  -10.298;46557.250
585.789;35268.281;  -11.029;45793.773
586.371;33290.879;   -9.359;43836.391
586.953;32761.197;   -8.799;42972.492
587.536;32565.488;   -8.928;42487.211
588.118;32055.283;   -9.180;42086.414
588.700;31600.682;  -10.519;43389.930
589.282;30737.080;   -8.098;43646.039
589.864;30896.033;   -8.139;43438.109
590.446;32435.625;  -10.509;43151.926
591.028;33070.910;  -11.119;42781.867
591.610;34926.723;  -10.019;42839.098
592.192;34875.898;   -8.838;42820.402
592.774;31578.955;  -11.549;40724.277
593.356;28628.240;  -11.609;39874.789
593.937;27946.223;  -10.019;39980.648
594.519;30273.533;   -7.839;42069.633
595.101;32911.727;  -10.779;42976.031
595.683;34292.520;  -10.049;44084.441
596.264;34046.355;   -9.969;43478.797
596.846;33617.348;   -9.699;43803.672
597.427;32573.742;  -10.970;42986.934
598.009;32129.359;  -13.090;42832.219
598.591;31306.686;   -9.509;42580.086
599.172;31525.896;   -9.019;43061.805
599.753;31936.316;  -13.310;41691.469
600.335;32834.074;  -11.010;40692.520
600.916;32628.377;  -10.309;39982.422
601.498;31579.965;   -8.209;40318.617
602.079;31399.588;  -11.440;40670.609
602.660;33033.660;   -8.690;41450.898
603.241;33905.742;  -12.759;41137.738
603.823;32337.152;  -10.409;38868.797
604.404;31779.045;  -11.790;38182.785
604.985;33522.922;  -10.280;38078.047
605.566;35196.063;   -8.059;38056.633
606.147;32404.816;   -8.960;37020.418
606.728;29993.361;  -10.710;37883.359
607.309;29594.514;  -12.760;38748.273
607.890;28106.287;   -9.959;38850.230
608.471;27830.535;   -9.780;37457.918
609.051;29538.523;   -8.940;36066.457
609.632;30630.490;  -12.070;35991.074
610.213;30908.324;   -9.610;37402.641
610.794;31286.852;   -8.750;38383.363
611.374;31628.988;  -11.100;40562.387
611.955;32053.848;  -12.200;38533.727
612.536;32080.613;  -10.410;36951.789
613.116;31264.854;  -10.010;37197.891
613.697;29567.018;  -10.480;38411.125
614.277;29575.820;  -12.751;38673.938
614.858;28962.992;  -11.600;37075.863
615.438;28689.184;   -8.190;35092.906
616.019;27133.545;   -8.941;33666.301
616.599;29013.848;  -13.540;34189.023
617.179;32354.313;  -10.890;36952.047
617.760;31976.369;   -7.610;39582.574
618.340;29694.461;  -14.441;38943.977
618.920;29041.129;   -9.180;37594.156
619.500;31140.338;  -11.881;37866.938
620.080;32772.262;   -9.870;37869.043
620.660;31293.729;  -13.211;36868.617
621.241;29955.648;  -11.921;36352.309
621.821;29593.027;  -10.271;35459.520
622.401;30699.938;   -8.200;35207.414
622.980;32035.451;  -11.141;35980.422
623.560;31564.270;  -14.321;37351.328
624.140;29974.725;   -9.360;34388.582
624.720;25947.227;   -7.481;32368.764
625.300;23403.600;  -12.730;32638.629
625.880;27520.443;  -11.441;34599.035
626.459;31129.746;  -10.971;36831.738
627.039;34555.125;   -9.011;38299.098
627.619;35218.070;   -8.521;38289.574
628.198;33524.125;   -9.861;37220.695
628.778;32221.855;   -8.841;37632.563
629.357;32182.512;   -9.891;38003.012
629.937;32518.172;  -11.871;38402.039
630.516;32008.789;  -10.641;37868.801
631.096;33720.598;  -11.391;35760.410
631.675;35042.961;   -6.622;35225.219
632.254;32264.838;  -13.002;35130.289
632.834;31192.766;  -11.622;35794.570
633.413;32441.463;   -8.321;35788.922
633.992;30597.557;   -7.732;34532.863
634.571;30503.479;  -10.992;33590.113
635.151;30452.584;  -10.422;34943.863
635.730;31556.143;  -11.511;35352.523
636.309;31742.789;   -7.901;35366.605
636.888;30617.650;  -11.452;36165.637
637.467;29339.771;  -10.672;37515.902
638.046;29856.514;   -9.301;39288.695
638.625;31338.912;  -11.452;38279.699
639.204;32090.473;  -12.262;37741.598
639.782;32068.988;  -11.892;38364.551
640.361;30983.439;  -11.411;36740.621
640.940;26115.412;  -11.501;34950.082
641.519;28068.215;  -10.921;34137.398
642.097;31982.637;  -10.101;35654.258
642.676;30866.406;  -10.821;35637.957
643.255;31918.145;   -8.631;36567.074
643.833;34008.879;  -11.411;37809.434
644.412;36703.543;  -12.021;37337.293
644.990;37038.113;  -12.271;37018.531
645.569;35667.066;   -9.741;36518.469
646.147;33095.688;   -9.051;36186.430
646.726;32996.082;  -13.861;36267.688
647.304;33605.328;   -9.461;36647.625
647.882;33463.195;  -13.171;39286.742
648.461;33993.828;  -11.911;39157.703
649.039;32342.590;   -9.541;35412.883
649.617;31635.936;   -8.901;34744.918
650.195;29654.271;   -8.591;35403.098
650.773;29015.902;  -13.031;35053.797
651.352;27934.996;  -12.211;33756.816
651.930;25746.885;  -11.361;31868.773
652.508;22522.883;   -8.601;33121.551
653.086;24908.396;   -9.991;33564.793
653.663;29346.428;  -11.931;34054.668
654.241;31853.887;  -10.821;35693.309
654.819;33586.266;   -9.341;36422.906
655.397;31355.303;  -10.851;38213.484
655.975;29929.154;  -11.461;39507.625
656.553;30117.602;   -8.841;39498.223
657.130;29496.205;  -10.371;40395.480
657.708;30007.088;  -11.071;39242.020
658.286;29555.920;  -11.141;38920.020
658.863;30762.412;  -10.861;40202.898
659.441;35293.602;  -11.181;39677.938
660.018;35613.430;  -10.851;40413.355
660.596;34842.977;  -12.571;39931.414
661.173;34964.051;  -12.141;39604.531
661.750;34406.871;  -11.571;39700.070
662.328;31840.383;  -10.780;39292.809
662.905;29700.771;  -10.750;38235.648
663.482;26667.416;  -11.320;36212.305
664.060;25856.855;  -10.160;35944.945
664.637;30529.428;  -13.120;35170.785
665.214;32808.172;  -11.500;34197.523
665.791;31116.965;  -12.430;34549.520
666.368;28797.748;   -9.840;35118.578
666.945;28098.488;  -11.290;36019.418
667.522;28789.943;  -13.540;36048.438
668.099;29102.512;  -10.250;36243.914
668.676;27975.465;  -11.270;35958.875
669.253;27005.322;   -8.210;37384.730
669.830;26412.889;   -9.710;36779.629
670.407;25582.877;   -9.700;35231.289
670.984;26000.611;   -9.190;35544.270
671.560;25368.359;   -9.560;35466.867
672.137;25125.330;  -11.820;34280.863
672.714;28023.875;  -12.460;34632.863
673.290;32428.549;  -10.940;35135.422
673.867;33192.582;  -10.510;36114.480
674.443;30037.938;  -12.110;36152.859
675.020;31115.135;  -11.760;35327.238
675.596;31692.471;   -9.380;35795.176
676.173;30357.646;  -11.120;35430.355
676.749;29367.967;  -13.390;33549.516
677.326;28540.428;  -12.600;32210.012
677.902;27447.539;  -10.830;32068.871
678.478;27350.787;  -12.400;32583.891
679.054;29582.631;   -8.610;32088.928
679.631;30167.428;  -11.640;30978.848
680.207;29978.166;   -8.140;33160.887
680.783;30732.387;  -12.300;35570.363
681.359;29296.771;  -10.910;36125.184
681.935;29214.404;  -11.040;35240.922
682.511;30734.219;  -11.130;34429.961
683.087;31565.377;  -11.080;34463.680
683.663;33846.477;  -10.530;34648.898
684.239;33374.840;  -12.120;34546.457
684.815;30572.508;   -8.870;35586.375
685.390;29769.895;   -8.940;35821.895
685.966;29850.422;  -12.109;35085.871
686.542;28588.604;  -13.539;34198.230
687.118;28095.482;  -10.379;32847.707
687.693;28294.697;  -10.189;32794.027
688.269;27193.504;  -12.939;33072.367
688.844;26246.408;   -8.679;33141.664
689.420;27163.885;  -10.919;33965.742
689.995;27655.693;   -7.489;34655.523
690.571;27220.793;  -12.199;33576.742
691.146;27168.869;   -8.979;32657.219
691.722;28550.438;   -9.119;32526.979
692.297;27144.111;  -10.519;33014.617
692.872;26585.240;  -10.629;34012.254
693.448;27056.117;  -12.119;34237.434
694.023;27693.057;   -8.219;34142.672
694.598;25830.182;  -13.209;34132.031
695.173;24667.459;  -11.879;34205.250
695.748;25594.789;  -12.039;32882.488
696.323;25549.895;  -11.779;32864.906
696.898;26219.658;  -10.219;33170.004
697.473;27282.555;  -13.639;32432.984
698.048;27717.156;  -11.239;31649.303
698.623;29844.826;  -10.859;30778.141
699.198;31627.285;  -13.379;31140.119
699.773;32268.061;  -13.409;31764.299
700.348;32809.500;  -12.329;31780.816
700.922;33339.277;   -8.749;32046.375
701.497;33547.953;  -12.449;32603.574
702.072;32559.453;   -8.879;34799.871
702.646;30344.609;  -10.719;35793.172
703.221;28829.244;   -8.469;35201.590
703.795;28644.746;  -11.389;34764.527
704.370;28466.459;  -12.499;34307.367
704.944;28050.080;  -11.449;33509.887
705.519;27432.752;  -10.659;31388.584
706.093;26876.486;  -12.909;31340.104
706.668;26854.951;  -13.509;32630.281
707.242;26234.969;  -10.049;32728.779
707.816;24380.334;  -10.629;32947.238
708.390;23896.320;  -11.829;33277.855
708.965;24195.291;  -11.159;33834.336
709.539;25141.902;  -11.069;33709.273
710.113;24665.998;  -10.908;33044.313
710.687;23138.244;   -9.488;31953.992
711.261;23251.010;  -13.068;30505.949
711.835;26157.457;  -12.748;30262.369
712.409;27305.713;  -10.678;31254.447
712.983;26431.748;  -11.658;32754.986
713.557;27249.551;  -13.718;34018.824
714.131;28219.992;  -13.388;34579.625
714.704;28442.822;   -9.818;33890.262
715.278;28508.299;  -11.818;33531.102
715.852;29240.219;  -11.328;33601.660
716.425;29695.287;   -9.118;33515.117
716.999;29922.900;  -10.188;33185.555
717.573;30039.428;   -9.808;33905.996
718.146;32463.496;  -11.478;35199.293
718.720;32575.164;  -10.998;35060.551
719.293;30548.277;   -9.508;34973.230
719.867;29911.465;  -12.138;36394.449
720.440;28466.910;  -11.288;36663.008
721.013;30662.980;  -11.428;35102.426
721.587;32051.363;  -11.698;33985.266
722.160;33126.734;  -11.608;33524.965
722.733;32251.355;  -11.428;32987.043
723.306;31408.178;  -12.518;33066.301
723.880;31764.441;   -7.408;33399.500
724.453;30720.975;  -11.048;33468.297
725.026;29019.543;  -11.678;33816.637
725.599;27538.488;  -10.978;32797.996
726.172;26744.055;   -8.838;33187.434
726.745;27643.082;  -11.438;35136.613
727.318;28211.006;   -9.828;35751.730
727.891;26685.410;  -10.868;35890.430
728.463;25138.457;  -11.348;34822.090
729.036;24028.789;  -11.608;32895.086
729.609;24067.143;  -14.738;31823.225
730.182;24884.100;   -8.448;31445.283
730.754;25938.213;  -11.228;32373.223
731.327;26147.832;  -12.018;33676.820
731.900;28063.682;  -13.748;33417.000
732.472;28192.883;  -10.928;31978.498
733.045;26685.869;   -9.478;30368.777
733.617;25114.674;  -12.967;30574.215
734.190;24357.721;  -11.707;31280.975
734.762;23165.475;  -11.067;31674.412
735.334;22557.709;  -10.587;31247.291
735.907;21808.820;  -11.947;29876.211
736.479;22178.643;  -11.667;29808.488
737.051;24666.047;  -10.187;30233.547
737.623;27020.980;   -6.887;31469.086
738.195;29691.205;  -12.117;31784.225
738.768;31479.439;  -14.077;32120.523
739.340;30986.805;  -12.207;32094.342
739.912;28029.230;   -8.977;31312.680
740.484;25881.563;  -11.017;31946.238
741.056;26344.348;  -13.517;32984.059
741.628;28198.592;  -11.507;33897.715
742.199;28521.006;   -7.597;33213.016
742.771;29315.486;  -12.227;31369.113
743.343;28929.484;  -12.427;31865.473
743.915;27319.699;   -9.827;32388.631
744.487;26395.850;  -10.007;31079.568
745.058;24893.314;  -11.887;30570.107
745.630;24130.607;  -10.787;29970.127
746.201;23524.109;  -10.887;29186.766
746.773;23261.049;   -9.707;28805.723
747.344;23831.170;  -11.137;29591.223
747.916;23971.361;  -11.887;31412.201
748.487;23529.545;   -9.707;32194.898
749.059;23044.490;  -10.027;32533.719
749.630;22862.547;  -11.787;32158.518
750.201;21764.969;  -12.767;30855.395
750.773;21246.516;  -11.497;28622.555
751.344;21913.369;   -9.937;28405.732
751.915;22441.756;  -11.567;28461.551
752.486;21933.496;  -13.267;27842.850
753.057;19956.949;  -10.627;27845.008
753.628;18429.848;  -11.657;27728.107
754.199;20594.623;  -12.097;27381.086
754.770;22342.617;  -11.447;25882.203
755.341;22499.086;  -11.997;25886.184
755.912;20316.969;  -10.207;26050.861
756.483;18518.623;  -10.937;26798.779
757.054;18367.719;  -11.527;27048.238
757.625;18667.596;  -12.886;26294.838
758.195;19075.801;  -11.226;26142.076
758.766;19099.553;  -12.366;26392.234
759.337;17982.879;  -11.946;26334.594
759.907;18072.287;  -13.856;27579.652
760.478;19050.307;   -9.606;28352.770
761.048;18918.557;  -11.606;27325.088
761.619;19004.238;  -11.036;26460.428
762.189;18481.027;  -12.206;26029.826
762.760;19666.297;   -9.666;26430.145
763.330;20709.729;   -9.796;26670.902
763.900;19060.576;  -10.896;26603.021
764.471;17452.957;  -11.726;25542.740
765.041;17709.689;   -9.656;24358.459
765.611;18524.039;  -11.276;23991.297
766.181;18365.189;  -12.116;24470.236
766.751;17947.236;  -12.376;24845.975
767.321;17895.711;  -11.626;24533.633
767.891;18140.771;  -10.426;24916.492
768.461;17117.191;  -13.456;24776.771
769.031;15113.930;  -11.616;24757.988
769.601;14856.973;  -11.356;24181.088
770.171;15079.925;  -11.586;23670.387
770.741;15559.589;  -12.696;22960.045
771.311;15750.379;  -10.226;22917.523
771.880;15529.188;  -11.146;23562.941
772.450;16161.201;  -11.716;24216.500
773.020;16500.215;  -13.226;24140.398
773.589;16260.842;  -12.586;24414.857
774.159;16092.842;  -10.246;23858.717
774.729;15676.313;  -11.586;22942.135
775.298;14711.313;  -15.926;22324.033
775.867;14520.554;  -10.426;21140.313
776.437;14460.402;  -11.416;20838.092
777.006;13152.496;  -12.766;20599.510
777.576;13067.909;  -13.666;20508.809
778.145;13465.875;  -10.066;20732.947
778.714;13178.781;  -10.276;21062.465
779.283;13481.188;  -12.086;20949.664
779.853;14769.579;  -14.016;20508.623
780.422;15246.876;  -12.376;20649.082
780.991;14135.908;   -9.246;21527.520
781.560;13124.494;   -9.775;22632.658
782.129;12941.583;  -12.495;23048.277
782.698;12706.512;  -11.775;23438.555
783.267;12988.243;  -10.065;23267.734
783.836;13805.914;  -12.455;22415.133
784.404;14658.838;  -13.385;20443.152
784.973;15312.714;  -11.045;19699.150
785.542;14780.216;   -9.505;19763.828
786.111;13750.743;   -9.385;20341.408
786.679;13589.295;  -13.475;20207.967
787.248;13622.002;  -11.245;19516.465
787.817;11731.233;  -12.485;18900.363
788.385; 9948.437;  -11.165;17879.121
788.954;10607.720;  -11.755;17658.301
789.522;11572.558;   -9.625;17788.879
790.090;11326.468;   -9.665;18118.277
790.659;10831.241;   -9.295;18338.736
791.227;11666.527;  -12.175;18508.615
791.795;13085.530;  -12.145;17898.254
792.364;13117.016;  -11.575;17295.133
792.932;11848.839;  -11.085;16822.051
793.500;10674.293;  -11.345;17040.148
794.068;10437.797;  -12.565;17179.787
794.636;11411.409;  -12.105;16664.246
795.204;12036.896;  -11.995;16524.545
795.772;11505.648;  -12.615;17274.564
796.340;11105.814;  -12.425;17891.002
796.908;10900.024;  -11.455;17648.561
797.476;10300.077;  -12.165;17064.080
798.044; 9880.808;  -15.795;16672.777
798.612;10002.438;  -10.985;17023.996
799.180;10666.022;  -12.055;16561.615
799.747;11075.054;  -12.525;15962.773
800.315;10038.813;  -14.765;15296.992
800.883; 8798.942;  -12.435;14801.771
801.450; 8573.882;  -11.295;14534.430
802.018; 8989.576;  -11.185;14173.248
802.585; 8999.479;  -11.625;14029.547
803.153; 8072.917;  -10.665;13836.846
803.720; 7704.920;  -10.275;13567.324
804.287; 7618.261;  -12.865;13360.622
804.855; 7790.267;  -12.324;13681.981
805.422; 8052.487;  -11.574;13536.560
805.989; 7917.216;  -11.004;13355.958
806.556; 8141.944;  -12.214;13747.896
807.124; 8556.129;  -13.304;13987.376
807.691; 8370.783;  -12.034;14038.674
808.258; 7757.293;  -11.014;14120.152
808.825; 7644.449;  -11.804;13860.111
809.392; 7551.917;  -11.544;13268.790
809.959; 7350.033;  -14.954;12680.389
810.526; 7647.252;  -10.214;12427.308
811.093; 8116.127;  -10.754;12030.105
811.659; 7800.317;  -12.194;11653.664
812.226; 6681.885;   -9.194;11637.183
812.793; 6328.326;   -9.644;11611.521
813.360; 7098.901;  -11.544;11885.181
813.926; 7945.679;  -12.814;12770.539
814.493; 7939.494;  -11.524;12677.638
815.060; 7683.862;  -12.254;11974.336
815.626; 7271.036;  -12.114;11594.715
816.193; 6863.469;  -11.994;11579.474
816.759; 6698.381;  -11.464;11666.972
817.325; 6391.367;  -10.444;11325.530
817.892; 6078.046;  -11.124;11105.369
818.458; 5911.530;  -11.864;10843.928
819.024; 6139.555;  -10.634;10714.406
819.591; 6226.327;  -10.554;10469.165
820.157; 6546.942;  -13.334;10235.523
820.723; 6903.928;  -13.044;10847.563
821.289; 7045.708;   -9.664;11040.980
821.855; 7199.741;  -10.994;10357.100
822.421; 7177.491;  -11.784; 9978.918
822.987; 7091.512;  -12.554; 9754.177
823.553; 7469.955;  -12.554;10065.755
824.119; 7379.183;   -8.544;10036.294
824.685; 6477.998;  -12.144;10029.192
825.251; 5899.688;  -12.754;10199.230
825.816; 5481.949;  -11.354; 9820.189
826.382; 5253.909;  -11.004; 9297.248
826.948; 5339.334;  -11.004; 9381.347
827.513; 5308.848;  -12.474; 9450.726
828.079; 5250.142;  -13.084; 9472.444
828.645; 5384.686;  -10.813; 9292.643
829.210; 5139.958;  -11.593; 9065.341
829.776; 5002.877;  -12.633; 9132.620
830.341; 5025.851;  -10.473; 9092.878
830.906; 4853.565;   -8.763; 9078.557
831.472; 4569.120;  -13.453; 8534.535
832.037; 3982.971;  -12.173; 8677.874
832.602; 3745.988;  -14.093; 8628.692
833.167; 3986.159;  -13.593; 8879.031
833.733; 4497.264;  -10.793; 9189.790
834.298; 4912.139;  -14.783; 9052.608
834.863; 4594.099;  -11.023; 8895.087
835.428; 4353.841;  -11.113; 8824.266
835.993; 4777.308;   -9.983; 8845.385
836.558; 5018.904;  -13.003; 8888.563
837.123; 4839.798;  -10.733; 8966.582
837.688; 4445.881;   -9.683; 8617.860
838.253; 4251.202;  -12.253; 8590.699
838.817; 4238.951;  -11.643; 8443.797
839.382; 4176.275;  -11.953; 8799.356
839.947; 4241.879;  -11.443; 8810.595
840.511; 4569.051;  -10.843; 8796.394
841.076; 4832.027;  -13.533; 8347.231
841.641; 4683.800;  -11.743; 8224.330
842.205; 4173.870;  -10.013; 8223.349
842.770; 3843.710;  -11.023; 8622.107
843.334; 3898.472;  -14.273; 8410.386
843.898; 4269.065;  -11.323; 8337.465
844.463; 4671.806;  -10.263; 8506.283
845.027; 4857.099;  -10.353; 8280.962
845.591; 4806.601;  -12.163; 8231.141
846.156; 4657.275;  -12.263; 7969.179
846.720; 4622.967;  -11.553; 7768.278
847.284; 4440.753;  -12.393; 7630.957
847.848; 3704.750;  -12.623; 7472.395
848.412; 3114.171;  -11.863; 7437.394
848.976; 3043.710;  -10.203; 7674.592
849.540; 3235.007;  -10.603; 7836.011
850.104; 3451.497;  -12.423; 7913.669
850.668; 3487.404;  -14.613; 7694.508
851.232; 3527.375;  -12.873; 7756.887
851.796; 3760.149;  -14.192; 7926.545
852.359; 3935.696;  -13.652; 7827.844
852.923; 3836.563;  -11.402; 7641.163
853.487; 3521.491;  -12.022; 7342.501
854.050; 3334.766;  -15.202; 7042.820
854.614; 3330.646;  -14.592; 7151.338
855.177; 3281.328;  -12.572; 7105.077
855.741; 3288.389;   -9.932; 6989.675
856.304; 3229.442;  -12.192; 6596.634
856.868; 3097.679;  -13.462; 6356.272
857.431; 3085.420;  -11.542; 6468.571
857.995; 3192.779;  -12.062; 6373.210
858.558; 3049.488;  -11.142; 6324.448
859.121; 2905.365;  -11.742; 6408.327
859.684; 2919.626;  -10.332; 6347.886
860.247; 2994.495;  -11.962; 6321.264
860.810; 3050.227;  -12.332; 6301.903
861.374; 2955.396;  -10.292; 6607.881
861.937; 2804.985;  -12.062; 6408.200
862.500; 2839.093;  -11.702; 6572.639
863.062; 2970.064;  -13.852; 6387.297
863.625; 3058.689;  -12.972; 6190.836
864.188; 3036.892;  -10.292; 5807.254
864.751; 2999.992;  -12.382; 5682.413
865.314; 2815.812;  -13.232; 5547.492
865.876; 2481.063;  -12.772; 5500.150
866.439; 2199.539;  -11.952; 5415.909
867.002; 2224.322;   -9.332; 5501.567
867.564; 2524.964;  -11.712; 5413.946
868.127; 2700.834;  -12.012; 5160.325
868.689; 2423.935;  -11.882; 5133.183
869.252; 2084.140;  -11.572; 5252.382
869.814; 1982.338;  -10.692; 5297.141
870.377; 2032.250;  -12.392; 5390.919
870.939; 2086.920;  -10.582; 5599.898
871.501; 2117.048;  -12.782; 5248.336
872.063; 2136.312;  -15.612; 4854.235
872.626; 2189.318;  -13.922; 4817.074
873.188; 2175.284;  -13.832; 4987.732
873.750; 2119.472;  -10.962; 4868.651
874.312; 2158.683;  -11.022; 4779.330
874.874; 2201.262;  -13.152; 4866.348
875.436; 2135.234;  -13.401; 4718.887
875.998; 2041.742;   -8.891; 4660.005
876.560; 1965.549;  -12.591; 4462.964
877.122; 1906.254;  -14.531; 4145.042
877.683; 1858.703;  -10.781; 4056.481
878.245; 1764.057;  -14.281; 3950.740
878.807; 1711.547;  -10.311; 4058.958
879.369; 1663.440;  -13.201; 3954.677
879.930; 1615.411;  -12.061; 3941.495
880.492; 1606.527;   -9.181; 4067.014
881.053; 1630.233;  -12.051; 3859.633
881.615; 1608.654;  -11.501; 3776.071
882.176; 1529.762;  -12.221; 3734.750
882.738; 1427.839;   -8.931; 3678.489
883.299; 1359.830;  -13.571; 3405.407
883.860; 1365.076;  -12.331; 3351.106
884.422; 1313.234;  -10.201; 3394.044
884.983; 1185.318;  -12.521; 3166.443
885.544; 1068.523;  -12.291; 3189.802
886.105; 1004.479;  -12.991; 3160.360
886.666;  984.005;  -12.901; 3093.059
887.227;  972.320;  -12.061; 2941.957
887.788;  951.354;  -11.641; 2974.836
888.349;  907.982;  -14.691; 2721.214
888.910;  860.727;   -9.681; 2696.493
889.471;  849.920;   -9.971; 2560.172
890.032;  859.567;  -13.151; 2558.190
890.593;  842.770;  -12.051; 2567.669
891.153;  799.233;  -12.841; 2460.307
891.714;  764.123;  -13.561; 2372.046
892.275;  730.182;  -12.401; 2309.505
892.835;  693.768;  -13.191; 2382.543
893.396;  656.649;  -12.551; 2295.502
893.956;  636.103;  -11.981; 2162.420
894.517;  621.101;  -12.221; 2125.439
895.077;  590.034;  -12.021; 2086.978
895.638;  533.104;  -10.891; 2126.316
896.198;  477.562;  -13.171; 1838.275
896.758;  441.711;  -11.891; 1892.813
897.319;  418.924;  -12.491; 1792.232
897.879;  403.833;  -12.401; 1762.751
898.439;  377.468;  -13.431; 1661.149
898.999;  357.564;  -11.340; 1781.468
899.559;  348.896;  -13.930; 1703.347
900.119;  329.730;  -13.730; 1537.525
900.679;  311.982;   -9.210; 1638.384
901.239;  295.790;  -10.860; 1527.902
901.799;  278.155;  -11.450; 1456.441
902.359;  260.102;  -13.800; 1357.140
902.919;  252.658;  -12.130; 1331.118
903.479;  254.496;  -12.650; 1317.257
904.038;  248.759;  -16.110; 1262.595
904.598;  235.593;  -13.690; 1152.034
905.158;  223.012;  -10.290; 1240.893
905.717;  216.333;  -10.670; 1233.691
906.277;  216.662;  -14.040; 1217.330
906.836;  215.514;  -13.510; 1222.408
907.396;  211.372;  -11.530; 1193.047
907.955;  200.344;  -13.190; 1182.526
908.515;  188.028;  -12.950; 1099.364
909.074;  180.086;  -12.390; 1092.863
909.633;  175.955;  -10.340; 1069.121
910.192;  173.974;  -11.170; 1196.460
910.752;  169.607;  -14.200; 1029.960
911.311;  164.728;  -13.810; 1009.780
911.870;  160.971;  -12.750;  971.460
912.429;  160.927;  -12.380; 1094.080
912.988;  158.821;  -11.930; 1081.060
913.547;  153.003;  -10.990;  940.380
914.106;  150.110;  -11.200;  999.420
914.665;  148.591;  -13.150;  984.020
915.224;  145.733;  -13.310; 1035.760
915.782;  144.210;  -13.340;  922.560
916.341;  143.632;  -10.710; 1049.840
916.900;  141.662;  -12.980;  925.260
917.458;  139.577;  -13.060;  884.220
918.017;  138.081;  -10.900;  942.600
918.576;  136.686;  -11.630;  904.440
919.134;  137.085;  -12.860;  837.980
919.693;  136.930;  -15.160;  893.060
920.251;  136.777;  -13.470;  876.500
920.809;  135.699;  -13.700;  839.580
921.368;  137.029;  -13.420;  885.360
921.926;  136.838;  -14.710;  842.940
922.484;  136.711;  -12.560;  903.360
923.042;  136.308;  -11.930;  880.340
923.601;  137.566;  -10.270;  998.680
924.159;  136.328;  -12.960;  935.560
924.717;  134.777;  -13.040;  841.080
925.275;  136.994;  -12.560;  903.240
925.833;  137.943;  -13.040;  779.320
926.391;  139.716;  -13.360;  938.380
926.949;  138.251;  -13.940;  857.680
927.506;  139.409;   -9.400;  903.500
928.064;  139.953;  -10.940;  877.580
928.622;  138.274;  -13.180;  880.100
929.180;  138.632;  -12.730;  814.180
929.737;  139.194;  -12.840;  808.540
930.295;  142.470;  -11.810;  928.480
930.853;  145.937;  -13.650;  849.100
931.410;  148.517;  -13.580;  821.120
931.968;  150.126;  -12.020;  940.660
932.525;  149.898;  -13.320;  909.380
933.082;  151.899;  -13.800;  811.440
933.640;  156.224;  -11.380;  925.900
934.197;  158.532;  -11.480;  886.360
934.754;  162.703;  -13.220;  897.780
935.312;  161.836;  -14.950;  863.340
935.869;  158.295;  -10.940; 1012.980
936.426;  152.504;  -12.100;  872.800
936.983;  153.528;  -12.930;  889.020
937.540;  154.573;  -14.250;  838.280
938.097;  158.950;  -12.600;  940.120
938.654;  165.036;  -11.260;  898.860
939.211;  168.622;  -13.020;  952.480
939.768;  170.601;  -15.760;  915.420
940.324;  171.590;  -13.920;  904.200
940.881;  168.276;  -11.620;  878.500
941.438;  165.040;   -9.870; 1021.200
941.995;  163.432;  -13.920;  992.560
942.551;  160.525;  -12.830;  875.620
943.108;  162.120;  -11.980;  937.920
943.664;  164.588;  -13.740;  869.340
944.221;  170.379;  -12.670; 1088.140
944.777;  168.748;  -13.250;  869.680
945.334;  166.383;  -13.000;  884.840
945.890;  167.711;  -13.020;  946.480
946.446;  168.017;  -13.880;  947.020
947.003;  170.151;  -12.660;  964.940
947.559;  171.953;   -8.730; 1063.040
948.115;  168.518;  -11.960; 1026.540
948.671;  164.858;  -12.360;  967.300
949.227;  161.523;  -12.700;  859.560
949.783;  157.119;  -13.450;  858.900
950.339;  155.145;  -10.620;  991.000
950.895;  152.987;  -14.770; 1023.840
951.451;  149.874;  -13.650;  925.280
952.007;  150.510;  -11.180;  998.540
952.563;  149.559;  -11.680;  937.780
953.118;  148.905;  -13.280;  904.940
953.674;  151.740;  -12.510;  935.780
954.230;  152.225;  -12.220;  949.640
954.785;  148.288;  -12.190;  936.640
955.341;  141.733;  -12.270;  998.160
955.897;  136.659;  -14.900;  834.660
956.452;  136.343;  -12.520;  953.840
957.008;  138.007;   -9.410; 1083.640
957.563;  136.006;  -11.280; 1009.540
958.118;  133.295;  -13.470;  877.700
958.674;  135.590;  -12.190;  946.780
959.229;  136.191;  -12.760; 1013.980
959.784;  141.065;  -15.710;  832.400
960.339;  147.872;  -12.540; 1001.280
960.894;  148.418;  -11.680;  963.760
961.449;  143.757;  -11.410;  859.960
962.004;  142.702;  -10.430; 1212.840
962.559;  137.710;  -14.040;  860.140
963.114;  134.021;  -14.270;  742.480
963.669;  135.180;  -11.320;  915.500
964.224;  134.476;  -14.620;  874.340
964.779;  131.889;  -14.150;  828.420
965.334;  132.304;  -10.850; 1017.860
965.888;  131.449;  -14.530;  875.360
966.443;  133.115;  -13.520;  972.380
966.998;  128.852;  -13.370;  819.460
967.552;  125.876;   -9.960;  908.380
968.107;  121.533;  -12.360;  868.300
968.661;  122.276;  -12.270;  922.440
969.216;  121.633;  -12.140;  856.280
969.770;  121.954;  -11.860;  917.200
970.324;  121.963;  -12.170;  923.140
970.879;  120.606;  -14.160;  947.180
971.433;  117.912;  -12.940;  952.720
971.987;  113.941;  -10.180;  895.340
972.541;  112.641;  -12.130;  917.100
973.095;  113.232;  -14.980; 1009.460
973.649;  111.059;  -14.480;  809.480
974.203;  113.435;  -13.530;  829.040
974.757;  114.961;  -12.060;  855.220
975.311;  112.589;  -13.240;  872.600
975.865;  110.911;  -12.550;  881.820
976.419;  108.819;  -13.180;  857.400
976.973;  109.017;  -14.100;  849.620
977.526;  108.611;  -13.330;  949.920
978.080;  104.960;  -15.390;  796.780
978.634;  104.843;  -11.670;  921.320
979.187;  102.059;  -10.640;  905.400
979.741;  102.094;  -13.330; 1018.380
980.294;   97.699;  -14.480;  789.160
980.848;   96.025;  -13.420;  717.220
981.401;   94.290;  -12.360;  816.540
981.955;   92.568;  -12.480;  844.300
982.508;   89.214;  -14.000;  746.340
983.061;   89.396;  -10.440;  915.260
983.615;   85.051;  -14.340;  798.800
984.168;   82.419;  -14.950;  770.080
984.721;   83.068;  -13.270;  880.760
985.274;   80.377;  -12.240;  867.500
985.827;   77.861;  -12.720;  834.220
986.380;   74.161;  -14.920;  721.340
986.933;   74.096;  -12.860;  864.800
987.486;   72.697;  -10.440;  861.920
988.039;   72.063;  -11.820;  863.100
988.591;   70.545;  -13.760;  893.260
989.144;   68.825;  -14.080;  737.260
989.697;   69.529;  -13.440;  758.740
990.250;   70.974;  -12.050;  858.100
990.802;   69.429;  -14.550;  755.860
991.355;   69.903;  -10.770;  974.880
991.907;   67.606;  -11.710;  864.320
992.460;   65.309;  -12.650;  753.760
993.012;   64.427;  -13.860;  749.540
993.565;   61.661;  -14.310;  711.360
994.117;   62.346;   -9.920;  950.780
994.669;   58.762;  -13.420;  701.320
995.221;   58.171;  -14.200;  791.920
995.774;   57.748;  -13.400;  787.580
996.326;   56.484;  -11.850;  740.220
996.878;   55.627;  -12.230;  838.420
997.430;   53.529;  -14.260;  699.860
997.982;   53.695;  -11.430;  750.140
998.534;   53.942;  -11.590;  739.060
999.086;   52.188;  -11.960;  738.220
999.638;   51.361;  -13.640;  661.380
1000.190;   51.265;  -13.660;  699.320
1000.741;   50.732;   -9.980;  742.700
1001.293;   50.185;  -11.860;  686.020
1001.845;   49.293;  -14.280;  676.640
1002.396;   49.482;  -12.270;  743.400
1002.948;   48.963;  -13.670;  737.400
1003.500;   47.715;  -12.010;  723.780
1004.051;   48.618;  -11.890;  907.580
1004.603;   47.679;  -11.220;  791.820
1005.154;   43.935;  -13.210;  608.980
1005.705;   43.297;  -11.850;  723.960
1006.257;   43.276;  -13.670;  707.220
1006.808;   41.632;  -12.060;  685.460
1007.359;   41.217;  -10.250;  763.240
1007.910;   39.867;  -13.440;  646.640
1008.461;   40.605;  -13.170;  732.940
1009.013;   38.681;  -14.590;  588.340
1009.564;   39.902;  -12.100;  793.520
1010.115;   37.422;  -14.000;  597.040
1010.665;   37.354;  -15.020;  602.160
1011.216;   38.068;  -12.560;  667.920
1011.767;   37.257;  -11.330;  697.920
1012.318;   37.610;  -11.450;  736.980
1012.869;   36.799;  -11.000;  679.000
1013.419;   36.097;  -11.760;  603.120
1013.970;   35.823;  -11.800;  666.640
1014.521;   35.627;  -14.750;  620.620
1015.071;   35.889;  -14.430;  670.380
1015.622;   35.701;  -14.170;  635.460
1016.172;   34.357;  -11.700;  596.820
1016.723;   34.355;  -13.230;  614.380
1017.273;   34.635;  -16.120;  604.160
1017.823;   34.392;  -13.360;  650.340
1018.374;   33.250;  -13.710;  611.760
1018.924;   33.274;  -11.050;  716.880
1019.474;   34.017;  -14.120;  718.880
1020.024;   32.756;  -12.990;  657.580
1020.574;   32.826;  -12.010;  726.160
1021.124;   33.267;  -12.080;  673.580
1021.674;   32.176;  -15.860;  559.120
1022.224;   33.712;  -11.710;  708.940
1022.774;   32.268;  -13.030;  668.820
1023.324;   32.897;  -11.000;  753.520
1023.874;   34.496;  -13.270;  875.760
1024.423;   31.467;  -14.570;  613.700
1024.973;   30.848;  -12.620;  610.760
1025.523;   30.343;  -12.630;  620.960
1026.072;   30.108;  -14.110;  606.420
1026.622;   29.915;  -15.390;  675.740
1027.172;   31.021;   -9.090;  715.660
1027.721;   29.225;  -12.250;  601.220
1028.270;   30.069;  -15.590;  663.400
1028.820;   30.389;  -13.840;  638.080
1029.369;   29.745;  -13.170;  612.700
1029.918;   29.268;  -14.080;  649.840
1030.468;   28.592;  -13.860;  564.780
1031.017;   29.310;  -12.970;  634.800
1031.566;   28.042;  -12.320;  608.900
1032.115;   28.833;  -13.140;  694.500
1032.664;   27.519;  -14.560;  596.480
1033.213;   28.513;  -11.620;  735.420
1033.762;   27.273;  -13.190;  635.620
1034.311;   27.419;  -13.460;  677.220
1034.860;   27.798;  -15.770;  691.000
1035.408;   27.930;  -13.100;  722.720
1035.957;   27.851;  -12.880;  719.540
1036.506;   24.598;  -13.640;  530.800
1037.055;   29.298;  -12.420;  844.320
1037.603;   26.546;  -13.740;  664.000
1038.152;   25.224;  -13.840;  534.760
1038.700;   25.720;  -10.770;  585.740
1039.249;   25.801;  -13.520;  681.220
1039.797;   26.136;  -13.060;  633.360
1040.345;   25.711;  -11.760;  705.420
1040.894;   25.259;  -10.790;  625.300
1041.442;   25.207;  -15.420;  632.200
1041.990;   24.146;  -14.550;  559.160
1042.538;   23.524;  -15.620;  536.180
1043.087;   24.208;  -14.940;  570.860
1043.635;   25.273;  -12.100;  670.500
1044.183;   23.594;  -13.200;  586.400
1044.731;   23.502;  -11.630;  576.000
1045.279;   23.354;  -14.200;  674.920
1045.827;   25.799;  -12.510;  892.400
1046.374;   22.367;  -14.960;  515.420
1046.922;   22.132;  -11.850;  590.580
1047.470;   23.612;  -13.770;  691.300
1048.018;   22.995;  -15.380;  647.960
1048.565;   24.005;  -14.010;  708.600
1049.113;   22.279;  -14.620;  557.000
1049.660;   22.246;  -14.940;  629.660
1050.208;   22.979;  -14.540;  675.640
1050.755;   22.025;  -13.710;  606.580
1051.303;   22.778;  -11.880;  686.820
1051.850;   21.943;  -12.160;  635.120
1052.397;   20.122;  -15.110;  473.960
1052.945;   20.181;  -14.770;  617.760
1053.492;   22.442;  -12.320;  741.840
1054.039;   22.064;  -13.290;  720.180
1054.586;   20.298;  -15.210;  557.240
1055.133;   21.644;  -12.920;  693.140
1055.680;   21.482;  -12.610;  646.620
1056.227;   20.557;  -12.620;  542.780
1056.774;   23.231;  -13.010;  794.980
1057.321;   19.334;  -16.180;  523.260
1057.868;   20.572;  -11.230;  651.320
1058.415;   19.714;  -10.890;  651.980
1058.961;   20.623;  -12.530;  678.940
1059.508;   20.140;  -14.120;  643.820
1060.055;   19.527;  -13.340;  581.780
1060.601;   19.650;  -12.920;  624.300
1061.148;   19.314;  -14.430;  616.820
1061.694;   18.726;  -14.140;  592.580
1062.241;   19.325;  -12.550;  596.320
1062.787;   19.577;  -13.370;  663.140
1063.334;   21.113;  -12.260;  808.560
1063.880;   19.643;  -10.800;  668.360
1064.426;   19.064;   -9.920;  706.820
1064.972;   17.534;  -12.970;  601.340
1065.518;   17.230;  -14.440;  566.640
1066.065;   18.687;  -12.680;  624.460
1066.611;   16.920;  -13.520;  598.800
1067.157;   18.071;  -11.100;  641.860
1067.703;   17.635;  -14.100;  668.480
1068.249;   18.256;  -13.750;  605.220
1068.794;   18.140;  -11.070;  626.880
1069.340;   16.719;  -13.210;  578.960
1069.886;   16.590;  -14.850;  590.700
1070.432;   16.764;  -14.580;  541.720
1070.977;   16.294;  -12.930;  601.080
1071.523;   16.435;  -11.970;  573.060
1072.068;   16.952;  -13.730;  582.000
1072.614;   15.904;  -14.550;  527.760
1073.160;   17.491;  -13.690;  687.040
1073.705;   15.600;  -14.780;  572.520
1074.250;   15.138;  -15.430;  559.900
1074.796;   16.924;  -11.620;  655.160
1075.341;   17.220;  -11.580;  664.100
1075.886;   16.245;  -13.190;  594.240
1076.431;   15.512;  -13.630;  649.880
1076.976;   16.194;  -11.670;  639.220
1077.521;   14.994;  -11.600;  583.080
1078.067;   14.444;  -13.920;  579.400
1078.612;   15.435;  -12.910;  661.620
1079.156;   15.008;  -15.340;  601.540
1079.701;   15.213;  -12.560;  693.260
1080.246;   15.791;  -12.490;  696.300
1080.791;   15.086;  -14.550;  625.020
1081.336;   15.221;  -15.210;  659.320
1081.880;   14.821;  -11.280;  649.680
1082.425;   14.249;  -12.830;  573.480
1082.970;   16.012;  -11.680;  717.040
1083.514;   14.424;  -15.500;  597.000
1084.059;   13.431;  -11.770;  586.720
1084.603;   12.841;  -13.480;  565.840
1085.147;   13.507;  -13.940;  645.220
1085.692;   14.779;  -13.170;  716.800
1086.236;   12.527;  -15.740;  503.140
1086.780;   14.232;  -10.750;  751.440
1087.325;   14.343;  -14.900;  654.620
1087.869;   13.160;  -15.160;  610.700
1088.413;   14.031;  -11.030;  705.040
1088.957;   11.543;  -15.210;  543.400
1089.501;   13.694;  -12.310;  766.640
1090.045;   13.963;  -12.790;  726.480
1090.589;   10.766;  -14.040;  569.920
1091.133;   12.463;  -12.800;  673.340
1091.676;   12.268;  -13.600;  591.940
1092.220;   11.599;  -12.960;  600.920
1092.764;   13.149;  -10.830;  706.960
1093.307;   12.257;  -12.390;  673.780
1093.851;   11.035;  -15.850;  556.540
1094.395;   12.454;  -12.980;  683.140
1094.938;   11.668;  -13.670;  632.520
1095.482;   11.442;  -12.740;  559.800
1096.025;   12.429;  -13.340;  710.880
1096.568;   12.826;  -10.500;  779.280
1097.112;    8.884;  -13.500;  508.180
1097.655;   11.059;  -13.060;  603.000
1098.198;    9.939;  -13.240;  600.180
1098.741;   10.860;  -15.490;  612.860
1099.285;   10.875;  -13.410;  657.300
1099.828;    8.824;  -15.640;  439.400
1100.371;   10.642;  -13.980;  608.160
1100.914;   10.339;  -13.990;  682.660
1101.457;   10.005;  -15.030;  679.900
1101.999;    9.643;  -12.480;  584.680
1102.542;   11.214;  -12.410;  641.440
1103.085;    9.926;  -14.730;  658.500
1103.628;   10.654;  -12.190;  762.060
1104.170;    9.036;  -12.360;  588.280
1104.713;    9.999;  -13.350;  646.700
1105.256;    9.300;  -14.930;  557.440
1105.798;    7.397;  -15.150;  499.980
1106.341;   10.812;  -13.230;  728.900
1106.883;    8.354;  -14.680;  521.340
1107.425;    9.746;  -14.810;  668.180
1107.968;    8.830;  -12.940;  612.380
1108.510;    9.229;  -10.550;  684.960
1109.052;    8.079;  -15.640;  612.620
1109.594;    7.831;  -14.440;  554.440
1110.136;    8.610;  -11.380;  643.220
1110.679;    8.667;  -13.090;  633.080
1111.221;    8.591;  -14.230;  604.460
1111.763;    6.926;  -14.260;  559.220
1112.304;    7.287;  -14.510;  547.140
1112.846;    8.283;  -14.700;  666.240
1113.388;   11.424;  -12.270;  942.180
1113.930;    8.158;  -13.340;  694.200
1114.472;    7.768;  -12.560;  606.540
1115.013;    5.754;  -14.280;  551.280
1115.555;    6.932;  -14.010;  587.100
1116.097;    6.309;  -14.730;  579.480
1116.638;    7.732;  -12.160;  684.600
1117.180;    7.283;  -14.320;  667.740
1117.721;    6.954;  -15.730;  568.580
1118.262;    8.018;  -13.480;  677.960
1118.804;    7.211;  -11.530;  637.340
1119.345;    6.486;  -13.540;  578.400
1119.886;    7.051;  -14.470;  704.040
1120.427;    6.032;  -13.030;  589.020
1120.969;    5.876;  -13.150;  597.920
1121.510;    5.260;  -13.940;  563.060
1122.051;    5.894;  -12.310;  723.580
1122.592;    5.895;  -13.870;  655.420
1123.133;    4.649;  -12.890;  547.940
1123.673;    6.093;  -13.300;  706.480
1124.214;    5.207;  -14.000;  612.460
1124.755;    6.359;  -13.210;  639.460
1125.296;    5.873;  -13.450;  627.320
1125.836;    7.316;  -12.610;  691.500
1126.377;    4.724;  -15.840;  599.660
1126.918;    6.307;  -11.830;  614.980
1127.458;    4.753;  -11.830;  622.220
1127.999;    5.740;  -11.490;  656.980
1128.539;    5.891;  -12.900;  694.240
1129.079;    4.490;  -14.910;  632.720
1129.620;    4.088;  -12.920;  558.100
1130.160;    3.753;  -14.640;  539.480
1130.700;    5.123;  -13.270;  640.840
1131.240;    4.821;  -14.110;  643.700
1131.781;    4.430;  -13.130;  619.680
1132.321;    4.088;  -15.220;  599.120
1132.861;    3.403;  -15.670;  564.200
1133.401;    3.860;  -13.970;  593.940
1133.941;    4.699;  -13.740;  626.280
1134.481;    3.656;  -13.200;  597.580
1135.020;    3.044;  -14.830;  609.160
1135.560;    4.724;  -14.590;  674.940
1136.100;    2.251;  -13.730;  501.160
1136.640;    3.411;  -15.240;  510.480
1137.179;    2.719;  -14.710;  537.960
1137.719;    3.780;  -14.090;  605.400
1138.258;    2.712;  -12.470;  587.360
1138.798;    3.861;  -12.580;  663.780
1139.337;    1.810;  -16.480;  482.840
1139.877;    3.389;  -13.970;  642.360
1140.416;    5.841;   -9.870;  878.060
1140.955;    2.166;  -14.860;  535.380
1141.494;    3.333;  -14.530;  669.280
1142.034;    2.073;  -13.940;  583.520
1142.573;    3.470;  -11.160;  646.280
1143.112;    1.606;  -15.050;  553.480
1143.651;    2.624;  -15.390;  536.480
1144.190;    3.596;  -12.990;  691.640
1144.729;    3.227;  -12.220;  607.420
1145.267;    2.099;  -14.020;  584.900
1145.806;    2.714;  -12.740;  637.040
1146.345;    2.504;  -14.810;  635.020
1146.884;    1.801;  -12.920;  622.500
1147.422;    1.436;  -13.930;  533.060
1147.961;    3.714;  -11.830;  708.460
1148.500;    2.800;  -12.710;  669.720
1149.038;    2.378;  -14.420;  632.500
1149.577;    1.852;  -13.920;  698.640
1150.115;    0.094;  -17.050;  452.280
1150.653;    2.109;  -14.890;  607.340
1151.192;    1.795;  -15.270;  552.920
1151.730;    1.716;  -13.160;  652.560
1152.268;    1.389;  -15.430;  589.520
1152.806;    1.453;  -15.880;  571.180
1153.344;   -0.251;  -13.240;  577.640
1153.882;    0.999;  -13.010;  600.060
1154.421;   -0.387;  -16.180;  470.620
1154.958;    0.574;  -13.880;  595.240
1155.496;    1.628;  -13.590;  645.280
1156.034;    0.791;  -11.910;  721.880
1156.572;    1.594;  -12.010;  667.060
1157.110;   -0.454;  -16.250;  473.940
1157.647;    1.575;  -15.230;  676.960
1158.185;   -0.310;  -13.770;  564.320
1158.723;   -0.665;  -15.300;  509.200
1159.260;    1.323;  -13.130;  701.700
1159.798;    1.353;  -11.300;  658.160
1160.335;    0.214;  -13.210;  631.820

