
Integration time [ms]:   3.882
Averaging Nr. [scans]: 1000
Smoothing Nr. [pixels]: 0
Data measured with spectrometer [name]: 7414430SP
Wave   ;Sample   ;Dark     ;Reference
[nm]   ;[counts] ;[counts] ;[counts] 

288.544;  126.203;   10.292;  793.890
289.143;  129.348;    4.564;  681.602
289.742;  130.810;    6.144;  828.814
290.341;  118.046;    4.396;  789.841
290.940;  108.101;    0.938;  730.702
291.538;  108.916;   -0.684;  881.108
292.137;  107.546;   -2.845;  792.581
292.736;  112.008;   -0.144;  975.101
293.335;  109.008;   -6.352;  735.086
293.934;  110.451;   -7.642;  781.677
294.532;  110.067;   -4.992; 1031.958
295.131;   95.134;   -5.478;  834.394
295.730;   95.988;   -6.549;  809.588
296.328;   94.130;   -9.558;  783.442
296.927;   93.943;   -8.118;  779.652
297.525;   95.766;   -6.908;  781.236
298.124;   86.498;   -9.195;  654.009
298.722;   89.719;   -8.198;  761.933
299.321;   88.357;   -8.817;  708.597
299.919;   85.953;   -7.716;  751.918
300.518;   82.449;  -10.745;  689.338
301.116;   84.753;   -9.647;  691.381
301.715;   83.966;  -10.828;  730.222
302.313;   83.131;   -6.087;  704.943
302.911;   79.359;   -6.824;  733.830
303.509;   85.343;   -8.807;  925.627
304.108;   82.110;   -8.198;  760.383
304.706;   80.946;   -6.218;  801.664
305.304;   76.560;   -7.185;  796.707
305.902;   82.622;   -8.568;  784.484
306.500;   78.471;   -7.737;  728.200
307.098;   75.764;   -6.026;  746.560
307.696;   75.075;   -7.176;  780.432
308.294;   76.120;   -8.656;  731.359
308.892;   77.465;   -6.838;  759.769
309.490;   73.521;   -2.596;  712.161
310.088;   71.175;   -4.485;  788.444
310.686;   75.714;   -3.907;  821.749
311.284;   71.657;   -2.806;  766.040
311.882;   70.336;   -2.845;  731.225
312.480;   67.229;   -3.274;  697.167
313.078;   69.194;   -3.645;  808.331
313.675;   69.805;   -4.997;  691.600
314.273;   64.782;   -0.894;  797.837
314.871;   63.876;   -2.854;  589.829
315.468;   62.372;   -3.644;  652.090
316.066;   65.574;   -3.947;  694.427
316.664;   58.859;   -1.824;  656.351
317.261;   63.280;    1.565;  910.128
317.859;   58.931;   -3.955;  768.735
318.456;   60.080;   -2.886;  830.096
319.054;   55.944;   -0.995;  787.828
319.651;   55.110;   -1.765;  759.928
320.249;   54.152;   -3.685;  810.188
320.846;   52.472;   -3.736;  714.286
321.443;   50.088;   -2.065;  832.135
322.041;   47.605;   -5.635;  812.315
322.638;   46.302;   -5.985;  701.456
323.235;   47.837;   -6.677;  665.683
323.833;   45.427;   -3.497;  740.354
324.430;   41.413;   -6.756;  615.900
325.027;   42.819;   -7.647;  876.855
325.624;   43.321;   -7.598;  644.532
326.221;   40.312;   -5.848;  689.717
326.818;   40.056;   -5.777;  818.332
327.415;   42.905;   -8.769;  748.828
328.012;   41.686;   -6.299;  690.585
328.609;   40.701;   -6.639;  731.389
329.206;   38.329;   -6.358;  778.621
329.803;   37.878;   -8.698;  737.841
330.400;   39.259;   -8.379;  704.260
330.997;   40.582;   -6.178;  817.147
331.594;   37.177;   -5.646;  788.185
332.191;   43.313;   -6.928;  728.722
332.787;   45.092;   -6.057;  844.463
333.384;   42.968;   -6.445;  763.093
333.981;   39.478;   -8.002;  815.687
334.578;   42.403;   -8.443;  708.378
335.174;   43.144;   -6.053;  731.469
335.771;   43.716;   -5.791;  836.456
336.367;   40.488;   -6.570;  710.631
336.964;   43.064;   -6.741;  793.266
337.561;   44.081;   -5.710;  731.112
338.157;   40.097;   -3.928;  911.916
338.754;   35.730;   -5.577;  796.589
339.350;   35.557;   -9.667;  722.493
339.946;   39.317;   -5.269;  773.135
340.543;   31.041;   -4.485;  846.136
341.139;   24.909;   -7.584;  720.836
341.735;   22.787;   -8.553;  772.593
342.332;   22.334;   -4.984;  691.472
342.928;   24.439;   -3.475;  795.394
343.524;   17.506;   -6.653;  761.684
344.120;   15.036;   -7.173;  738.562
344.716;   17.994;   -4.385;  723.717
345.313;   15.892;   -3.565;  795.342
345.909;   11.622;   -7.495;  627.336
346.505;   13.788;   -8.276;  740.247
347.101;   14.639;   -5.697;  827.864
347.697;   15.270;   -4.767;  785.398
348.293;    8.875;   -7.226;  627.244
348.889;   10.965;   -7.547;  745.914
349.485;   10.227;   -9.147;  688.205
350.081;   10.732;   -6.568;  772.592
350.676;    6.396;   -6.516;  691.606
351.272;   11.380;   -7.378;  809.530
351.868;   10.956;   -6.759;  780.497
352.464;    8.598;   -4.798;  723.932
353.059;    4.778;   -7.977;  646.017
353.655;    8.883;   -8.769;  777.063
354.251;    9.192;   -5.920;  759.845
354.846;    4.142;   -7.647;  740.646
355.442;    1.644;   -6.956;  753.071
356.038;    3.620;   -9.928;  751.708
356.633;    3.883;   -7.698;  728.594
357.229;    1.805;   -6.307;  724.757
357.824;    0.922;   -7.647;  703.600
358.420;    0.485;  -10.047;  679.726
359.015;    0.397;   -7.458;  695.357
359.610;    1.588;   -5.748;  763.920
360.206;   -4.821;   -9.346;  603.240
360.801;   -1.244;  -11.268;  646.503
361.396;    0.564;   -8.789;  725.975
361.992;   -3.499;   -6.347;  668.220
362.587;   -6.288;   -6.476;  670.160
363.182;   -3.838;   -9.457;  689.631
363.777;   -3.020;   -7.147;  738.242
364.372;   -3.511;   -5.507;  737.314
364.967;   -7.453;   -6.386;  680.744
365.563;   -1.749;   -7.858;  815.567
366.158;   -5.172;   -8.517;  685.161
366.753;   -4.534;   -8.728;  649.263
367.348;   -5.870;   -7.677;  746.056
367.942;   -6.561;  -10.387;  697.298
368.537;   -7.228;   -7.187;  754.245
369.132;   -6.681;   -8.587;  703.428
369.727;  -11.469;   -8.606;  638.079
370.322;   -9.349;  -10.426;  580.186
370.917;   -9.858;   -5.776;  710.646
371.511;   -6.956;   -6.007;  861.834
372.106;   -9.748;   -6.686;  776.964
372.701;  -14.148;   -9.335;  585.988
373.296;   -7.678;   -6.777;  863.135
373.890;  -12.727;   -7.546;  647.840
374.485;  -14.763;   -8.755;  691.199
375.079;  -10.060;   -9.797;  738.685
375.674;   -9.235;   -6.327;  812.970
376.268;  -13.972;   -9.046;  691.759
376.863;  -18.657;   -7.993;  580.327
377.457;  -11.949;   -9.206;  662.490
378.052;  -14.783;   -5.345;  764.884
378.646;  -14.872;   -5.605;  741.167
379.240;  -15.286;   -6.825;  721.176
379.835;  -14.927;  -10.476;  636.978
380.429;  -16.277;   -8.676;  562.557
381.023;  -16.074;   -4.945;  779.205
381.617;  -18.135;   -8.094;  680.106
382.212;  -14.304;  -10.646;  685.303
382.806;  -14.317;   -8.136;  760.690
383.400;  -18.115;   -7.855;  672.281
383.994;  -18.735;   -8.125;  664.870
384.588;  -14.858;   -7.637;  697.701
385.182;  -13.905;   -7.458;  726.624
385.776;  -14.677;   -6.277;  706.875
386.370;  -18.108;   -7.485;  681.968
386.964;  -16.115;   -9.416;  684.155
387.558;  -14.400;   -8.518;  598.360
388.152;  -18.520;   -7.096;  681.959
388.745;  -16.434;   -7.656;  814.707
389.339;  -14.187;   -8.927;  747.642
389.933;  -14.022;   -9.538;  695.370
390.527;  -14.832;   -5.857;  859.029
391.120;  -21.222;   -9.455;  595.318
391.714;  -18.104;   -9.746;  711.633
392.308;  -14.732;   -7.857;  780.253
392.901;  -18.284;   -9.106;  642.460
393.495;  -19.946;  -10.365;  595.414
394.089;  -17.474;   -9.696;  760.452
394.682;  -18.661;   -7.016;  697.188
395.275;  -19.185;   -8.466;  719.927
395.869;  -19.916;   -8.985;  667.314
396.462;  -18.753;  -11.496;  616.609
397.056;  -14.618;   -7.838;  776.621
397.649;  -19.459;   -6.895;  731.575
398.242;  -16.585;   -5.017;  712.645
398.836;  -14.804;   -8.787;  766.408
399.429;  -17.061;   -8.967;  631.041
400.022;  -20.455;   -8.815;  665.902
400.615;  -16.813;   -6.276;  805.609
401.208;  -15.154;   -8.407;  691.451
401.802;  -18.482;   -7.296;  699.329
402.395;  -19.256;   -7.585;  683.502
402.988;  -19.385;   -8.015;  696.627
403.581;  -16.533;   -9.577;  646.878
404.174;  -14.425;   -7.588;  686.568
404.767;  -16.775;   -7.906;  638.583
405.360;  -19.435;   -7.875;  621.445
405.953;  -13.926;   -8.127;  759.034
406.545;  -12.882;   -7.198;  725.342
407.138;  -17.479;   -8.916;  618.350
407.731;  -15.984;   -9.767;  613.303
408.324;  -12.317;  -10.659;  660.554
408.917;  -12.915;   -8.068;  681.864
409.509;  -15.050;   -9.837;  740.396
410.102;  -16.543;   -8.146;  643.948
410.695;  -10.812;   -7.969;  665.758
411.287;  -11.652;   -8.579;  599.821
411.880;  -12.932;   -6.968;  585.421
412.472;  -15.518;   -9.487;  613.092
413.065;  -11.878;  -10.338;  629.408
413.657;  -10.567;   -9.169;  576.678
414.250;  -10.538;  -10.119;  646.681
414.842;  -12.122;   -9.938;  676.353
415.434;   -9.834;  -10.409;  570.463
416.027;   -6.048;   -9.591;  652.196
416.619;   -8.028;   -7.379;  713.400
417.211;   -7.823;   -9.159;  599.352
417.804;   -4.295;   -9.191;  628.499
418.396;   -8.371;   -8.159;  607.643
418.988;   -5.923;   -6.960;  659.238
419.580;  -10.485;  -11.389;  568.276
420.172;   -6.998;  -13.460;  536.196
420.764;   -3.376;  -10.701;  672.482
421.356;   -4.402;   -8.961;  636.898
421.948;   -5.064;   -9.770;  677.661
422.540;   -0.207;   -8.832;  680.027
423.132;   -0.398;   -8.153;  600.641
423.724;   -4.194;   -8.481;  561.267
424.316;   -1.511;   -9.261;  621.345
424.908;    2.280;   -9.643;  591.517
425.500;    2.782;   -8.663;  647.978
426.092;    3.332;   -8.503;  648.268
426.683;    2.050;  -10.522;  684.836
427.275;    5.116;  -11.734;  641.471
427.867;    6.396;  -10.264;  668.948
428.458;    6.774;   -7.644;  732.344
429.050;    5.782;   -7.853;  680.749
429.642;    7.958;   -8.904;  743.124
430.233;    8.094;  -10.795;  569.356
430.825;    9.299;   -7.665;  724.809
431.416;    7.258;   -8.843;  698.241
432.008;   11.281;   -9.885;  651.723
432.599;   11.981;   -9.966;  656.073
433.190;    8.769;   -9.164;  637.670
433.782;    8.276;   -8.584;  590.395
434.373;   16.158;   -8.296;  884.765
434.964;   14.249;   -9.896;  602.920
435.556;   10.631;   -8.255;  634.537
436.147;   14.563;   -8.075;  758.490
436.738;   14.383;   -9.716;  701.099
437.329;   19.893;   -7.318;  721.723
437.920;   13.434;   -6.694;  666.688
438.511;   13.097;   -9.644;  564.526
439.103;   19.636;   -9.427;  623.998
439.694;   21.563;  -10.748;  681.583
440.285;   22.130;   -7.997;  764.432
440.876;   20.505;  -10.046;  845.738
441.466;   19.902;  -13.467;  575.162
442.057;   24.716;   -9.329;  665.814
442.648;   23.481;   -7.707;  746.255
443.239;   22.623;   -9.017;  620.477
443.830;   27.108;  -10.279;  704.958
444.421;   29.332;  -12.630;  655.474
445.011;   25.661;   -8.697;  693.619
445.602;   25.298;   -7.787;  743.126
446.193;   27.828;  -13.329;  488.117
446.783;   32.170;   -9.171;  640.397
447.374;   26.622;   -7.457;  692.759
447.964;   28.162;   -9.277;  713.770
448.555;   36.963;   -9.041;  822.742
449.145;   32.614;   -8.969;  662.853
449.736;   34.312;   -6.809;  803.179
450.326;   33.978;   -7.229;  713.626
450.917;   38.479;  -11.391;  675.324
451.507;   37.495;   -9.501;  600.661
452.097;   38.736;   -8.460;  746.267
452.688;   40.400;  -10.080;  742.160
453.278;   39.363;  -12.861;  566.840
453.868;   44.131;   -8.372;  793.550
454.458;   41.711;   -8.131;  651.141
455.048;   42.387;   -8.520;  711.783
455.639;   43.948;  -13.632;  567.096
456.229;   47.453;  -10.143;  710.694
456.819;   48.930;   -9.163;  751.158
457.409;   50.118;   -8.652;  773.993
457.999;   53.178;   -9.933;  737.505
458.589;   51.867;  -10.363;  686.606
459.179;   51.995;  -10.633;  717.658
459.769;   50.690;  -12.442;  627.099
460.358;   55.239;   -9.844;  797.262
460.948;   54.734;   -9.924;  689.503
461.538;   56.651;  -10.484;  660.677
462.128;   55.008;  -10.703;  664.934
462.717;   61.963;  -11.486;  710.326
463.307;   64.363;  -10.767;  705.846
463.897;   60.254;   -8.814;  656.942
464.486;   59.920;   -8.182;  837.128
465.076;   64.187;   -9.985;  733.776
465.666;   67.426;  -10.447;  652.900
466.255;   65.196;   -7.754;  785.651
466.845;   65.084;  -10.884;  666.749
467.434;   68.655;  -12.525;  725.873
468.023;   68.871;  -11.456;  658.357
468.613;   66.433;   -9.173;  713.946
469.202;   70.593;   -9.306;  646.507
469.791;   75.710;   -8.917;  737.811
470.381;   76.791;   -9.657;  742.813
470.970;   75.983;   -9.947;  711.099
471.559;   76.715;   -9.256;  733.291
472.148;   79.403;  -13.397;  675.737
472.738;   82.076;   -9.928;  765.466
473.327;   81.997;  -10.897;  637.529
473.916;   80.875;   -8.526;  737.446
474.505;   86.163;  -11.078;  751.703
475.094;   88.639;   -9.559;  806.570
475.683;   88.762;   -8.838;  797.699
476.272;   88.691;  -10.198;  730.632
476.861;   91.533;  -11.489;  706.754
477.449;   98.281;  -10.721;  728.487
478.038;   92.766;   -9.818;  692.513
478.627;   94.277;   -9.887;  714.852
479.216;  100.474;  -10.030;  769.441
479.805;  103.280;   -9.401;  783.375
480.393;  104.051;   -5.739; 1008.945
480.982;  103.004;   -7.838;  874.501
481.571;  108.860;   -9.111;  858.333
482.159;  109.160;  -10.601;  705.386
482.748;  109.420;   -8.500;  821.385
483.336;  114.670;   -9.241;  858.209
483.925;  114.739;  -10.440;  774.373
484.513;  121.472;  -11.063;  758.962
485.102;  118.247;   -9.540;  810.965
485.690;  128.266;   -6.742; 1011.050
486.278;  129.873;   -8.442;  979.329
486.867;  130.100;  -10.472;  809.662
487.455;  132.355;   -8.811;  898.229
488.043;  134.373;  -10.721;  748.361
488.631;  144.030;  -10.393; 1005.079
489.220;  147.586;  -10.843;  908.626
489.808;  148.738;  -10.572;  741.415
490.396;  157.017;  -10.482;  914.645
490.984;  164.779;  -11.542;  830.161
491.572;  175.421;   -8.463;  940.315
492.160;  182.041;   -8.491;  919.081
492.748;  193.727;   -9.681;  884.341
493.336;  215.484;  -10.493; 1019.693
493.924;  245.445;   -9.354;  958.077
494.512;  284.580;   -9.132; 1066.638
495.100;  330.260;   -9.001; 1103.280
495.687;  389.194;  -11.924; 1206.373
496.275;  469.856;  -11.193; 1150.796
496.863;  584.243;   -9.241; 1281.171
497.451;  715.467;  -11.341; 1386.805
498.038;  826.396;  -11.364; 1556.729
498.626;  952.466;   -8.104; 1741.407
499.214; 1175.979;   -8.842; 2016.609
499.801; 1408.478;  -10.112; 2220.633
500.389; 1629.644;  -11.953; 2312.494
500.976; 1916.243;  -10.023; 2744.849
501.564; 2252.808;   -8.662; 3148.565
502.151; 2671.212;  -10.531; 3515.999
502.738; 3097.374;  -13.853; 3971.274
503.326; 3715.316;  -10.794; 4403.796
503.913; 4331.419;   -8.663; 5161.749
504.500; 4719.546;  -10.172; 5986.420
505.088; 5092.857;  -13.472; 6381.201
505.675; 5929.815;  -10.924; 6925.547
506.262; 6755.080;   -8.551; 7619.060
506.849; 7608.596;  -10.523; 8733.969
507.436; 8371.937;  -10.834; 9790.121
508.023; 8627.341;   -9.093; 9985.472
508.610; 9080.000;  -10.073;10434.618
509.197; 9608.094;   -9.500;11198.435
509.784;10948.927;  -13.242;12391.194
510.371;11722.262;  -10.964;13603.713
510.958;11488.270;   -9.772;14426.586
511.545;12564.951;   -7.842;15243.775
512.132;12901.448;  -12.184;15945.876
512.719;13030.261;   -9.733;16340.369
513.305;14961.467;   -9.172;18011.766
513.892;16771.398;   -9.581;19754.971
514.479;18816.240;  -10.253;20967.805
515.066;21123.971;   -8.183;22299.793
515.652;22372.801;   -9.253;22908.660
516.239;23234.912;   -9.412;23798.875
516.825;25363.391;  -11.153;25567.275
517.412;25308.314;  -10.263;28154.959
517.998;25858.084;   -8.802;28344.111
518.585;25677.891;  -10.401;27134.219
519.171;25230.873;  -12.744;27268.576
519.758;26990.455;  -11.793;28964.129
520.344;29394.111;   -8.912;30664.494
520.930;28839.592;  -10.901;32550.605
521.516;29269.227;  -12.034;35422.895
522.103;30146.711;  -10.473;38280.004
522.689;31760.980;   -8.311;37835.117
523.275;35162.938;  -10.691;37288.613
523.861;35975.219;  -11.193;37281.395
524.447;35854.375;  -11.484;37846.949
525.033;34543.973;   -7.702;38321.949
525.619;32631.758;  -11.241;38579.285
526.205;31999.578;  -12.152;40622.875
526.791;31268.072;  -11.423;42258.836
527.377;31032.807;   -7.981;42966.902
527.963;34349.152;   -9.450;42018.949
528.549;40123.145;  -11.351;42476.828
529.135;42468.270;  -10.202;41854.852
529.721;41065.574;   -8.672;41237.711
530.306;39309.133;   -9.111;41259.445
530.892;40741.141;  -11.252;41506.047
531.478;42619.203;  -10.432;43559.613
532.063;44750.863;  -10.721;47695.563
532.649;46478.590;   -7.450;50808.324
533.235;47001.254;  -11.811;51787.500
533.820;47326.551;   -9.383;52145.035
534.406;46535.184;   -9.400;51133.488
534.991;45344.957;   -8.861;49996.805
535.576;43348.230;  -10.612;48882.852
536.162;40959.527;   -7.322;46942.285
536.747;41420.328;   -9.360;45711.746
537.333;43398.926;  -10.450;48510.180
537.918;45105.020;  -12.610;50439.891
538.503;46474.832;  -12.132;50863.711
539.088;43572.605;  -10.831;50906.922
539.673;38881.285;  -11.220;52621.965
540.259;36152.867;  -11.481;52368.094
540.844;36187.145;  -11.462;50879.109
541.429;40430.316;   -7.869;52077.777
542.014;46184.992;  -11.859;52716.695
542.599;48754.148;  -11.061;52363.281
543.184;49639.035;  -12.300;53187.137
543.769;49173.023;   -9.369;54697.605
544.354;49344.023;  -12.020;53913.914
544.938;46136.637;  -10.350;49680.164
545.523;43224.695;  -10.841;47386.277
546.108;45115.688;   -8.579;49151.949
546.693;47644.434;   -8.818;51384.637
547.278;48803.555;  -11.331;51853.254
547.862;45048.109;  -10.292;51173.750
548.447;40851.004;   -8.349;51691.395
549.031;41980.504;  -10.838;52456.703
549.616;47484.285;  -11.681;52714.516
550.201;50667.223;  -11.140;52414.598
550.785;48914.938;   -8.649;52355.059
551.370;48978.949;  -11.889;54589.453
551.954;48656.844;  -11.239;58267.348
552.538;48257.707;   -8.850;59062.176
553.123;49187.301;  -10.829;58115.285
553.707;49798.617;   -8.887;56556.285
554.291;49022.051;  -10.430;56201.668
554.876;46941.688;   -9.799;55335.762
555.460;48071.086;  -10.018;54155.703
556.044;49194.188;   -7.307;53721.484
556.628;45786.684;  -12.229;53731.016
557.212;42726.914;   -9.820;54312.531
557.796;42134.926;   -9.109;53797.773
558.380;43917.797;   -9.707;56145.984
558.964;43048.309;  -10.980;57277.930
559.548;43668.441;  -12.010;56459.641
560.132;47076.063;   -7.928;54434.543
560.716;48695.527;  -10.247;54800.617
561.300;48778.570;  -11.250;57606.945
561.884;50362.805;  -10.568;58972.445
562.467;48794.359;   -9.727;57327.570
563.051;47652.652;  -11.847;54962.434
563.635;46561.293;  -10.747;52594.473
564.219;43115.016;  -13.108;50610.410
564.802;39983.598;  -11.417;49551.180
565.386;41055.109;  -10.457;48370.953
565.969;42575.551;   -8.959;48178.871
566.553;41957.848;  -10.328;49957.305
567.136;40888.648;  -10.257;50369.594
567.720;40666.707;  -10.186;49492.004
568.303;40830.719;  -10.027;50616.352
568.887;41851.277;  -10.397;50727.148
569.470;40243.086;   -8.185;51698.379
570.053;39324.199;  -11.596;52122.078
570.637;39290.508;  -11.378;52536.438
571.220;39011.422;   -9.138;51186.098
571.803;38077.465;   -7.675;51032.762
572.386;36609.242;   -8.976;49609.887
572.969;34362.039;  -12.477;48285.926
573.552;35389.824;   -9.767;47624.285
574.135;35822.391;   -8.175;45498.641
574.718;32574.148;  -11.096;41970.434
575.301;30828.297;  -11.966;41447.137
575.884;29082.445;  -12.836;40923.836
576.467;33076.402;   -9.116;45267.723
577.050;33921.152;  -10.536;48175.543
577.633;34838.883;  -11.027;47729.328
578.216;36050.348;   -9.946;47579.793
578.799;36465.438;   -9.645;47820.996
579.381;37455.496;   -9.446;48115.551
579.964;38885.957;  -12.217;47333.766
580.547;39598.227;  -10.586;46668.969
581.129;39726.457;   -8.374;44466.141
581.712;37634.586;  -10.434;44164.922
582.294;35175.047;  -10.896;46477.855
582.877;35420.863;   -8.906;48244.254
583.459;36634.582;   -9.994;47437.895
584.042;37403.438;  -10.084;46943.219
584.624;37317.871;  -13.534;46792.227
585.206;35442.730;  -12.716;46557.250
585.789;36208.902;  -11.614;45793.773
586.371;34450.387;  -10.203;43836.391
586.953;31698.008;  -10.314;42972.492
587.536;32149.846;   -9.776;42487.211
588.118;33455.938;   -9.821;42086.414
588.700;34683.160;  -10.073;43389.930
589.282;33197.605;  -12.395;43646.039
589.864;32764.174;  -11.514;43438.109
590.446;32919.875;  -10.803;43151.926
591.028;31894.098;  -11.043;42781.867
591.610;32095.438;  -13.244;42839.098
592.192;32020.086;  -11.095;42820.402
592.774;30528.006;  -10.823;40724.277
593.356;29747.781;  -11.052;39874.789
593.937;31095.898;  -11.664;39980.648
594.519;34772.051;  -10.454;42069.633
595.101;37716.461;  -10.322;42976.031
595.683;37026.441;  -10.042;44084.441
596.264;33167.250;  -14.334;43478.797
596.846;34159.898;  -10.863;43803.672
597.427;33328.879;   -9.901;42986.934
598.009;32012.848;  -10.911;42832.219
598.591;32696.674;  -10.483;42580.086
599.172;34182.016;   -9.663;43061.805
599.753;35066.211;  -10.631;41691.469
600.335;35462.699;   -9.371;40692.520
600.916;33370.289;  -13.992;39982.422
601.498;32976.992;   -8.352;40318.617
602.079;33659.625;   -8.411;40670.609
602.660;33200.375;  -10.841;41450.898
603.241;32801.965;  -12.963;41137.738
603.823;33272.605;  -11.523;38868.797
604.404;32893.934;  -11.881;38182.785
604.985;33873.836;  -11.721;38078.047
605.566;33636.707;   -9.293;38056.633
606.147;32342.732;  -10.940;37020.418
606.728;33981.328;  -11.840;37883.359
607.309;34718.570;  -11.781;38748.273
607.890;34887.340;  -11.262;38850.230
608.471;33393.965;  -10.111;37457.918
609.051;33269.801;   -7.709;36066.457
609.632;30661.037;  -12.409;35991.074
610.213;30792.168;  -10.811;37402.641
610.794;32109.377;  -11.630;38383.363
611.374;35756.305;   -8.030;40562.387
611.955;35903.340;  -10.809;38533.727
612.536;34651.137;  -10.531;36951.789
613.116;34655.797;  -12.820;37197.891
613.697;36270.664;  -11.419;38411.125
614.277;37330.168;   -9.768;38673.938
614.858;33793.258;  -10.251;37075.863
615.438;29972.117;  -11.981;35092.906
616.019;27553.781;   -8.978;33666.301
616.599;29848.760;  -12.219;34189.023
617.179;32347.301;  -14.170;36952.047
617.760;33351.363;   -9.211;39582.574
618.340;33344.938;   -9.018;38943.977
618.920;33715.191;   -9.249;37594.156
619.500;33852.242;  -12.728;37866.938
620.080;34445.566;  -12.939;37869.043
620.660;35594.148;  -11.586;36868.617
621.241;34983.145;  -11.538;36352.309
621.821;33551.613;  -11.398;35459.520
622.401;32093.434;  -10.179;35207.414
622.980;32001.168;  -11.587;35980.422
623.560;33384.168;  -12.888;37351.328
624.140;31772.998;  -13.149;34388.582
624.720;27560.826;   -9.928;32368.764
625.300;27194.641;  -10.869;32638.629
625.880;29959.684;   -8.617;34599.035
626.459;31087.008;  -12.138;36831.738
627.039;33670.234;  -12.267;38299.098
627.619;37113.980;   -7.476;38289.574
628.198;38418.164;  -11.347;37220.695
628.778;35534.234;  -11.678;37632.563
629.357;32952.641;  -12.438;38003.012
629.937;32419.832;   -9.576;38402.039
630.516;32175.957;  -11.096;37868.801
631.096;33196.840;  -11.828;35760.410
631.675;34620.188;  -11.565;35225.219
632.254;35128.023;  -11.845;35130.289
632.834;36581.457;  -11.545;35794.570
633.413;35993.336;  -10.887;35788.922
633.992;35894.395;  -10.175;34532.863
634.571;36493.648;   -9.704;33590.113
635.151;34592.777;  -10.815;34943.863
635.730;33049.047;  -11.617;35352.523
636.309;32961.676;  -10.836;35366.605
636.888;33758.438;   -9.755;36165.637
637.467;33804.012;  -11.684;37515.902
638.046;33948.820;  -11.987;39288.695
638.625;33682.402;  -10.455;38279.699
639.204;33521.332;  -11.234;37741.598
639.782;34358.766;  -12.023;38364.551
640.361;32518.205;  -11.506;36740.621
640.940;29141.537;  -12.316;34950.082
641.519;27044.605;  -11.616;34137.398
642.097;29540.936;   -9.266;35654.258
642.676;33337.723;  -12.936;35637.957
643.255;33877.324;   -9.966;36567.074
643.833;34277.980;   -8.916;37809.434
644.412;32323.178;  -10.936;37337.293
644.990;31734.529;  -12.176;37018.531
645.569;32667.035;  -12.246;36518.469
646.147;35783.996;  -12.107;36186.430
646.726;38656.027;  -12.937;36267.688
647.304;35459.855;  -12.547;36647.625
647.882;34163.070;  -12.597;39286.742
648.461;33437.574;   -9.427;39157.703
649.039;33439.371;   -8.937;35412.883
649.617;34220.785;  -11.067;34744.918
650.195;32850.668;  -10.657;35403.098
650.773;30171.479;  -10.097;35053.797
651.352;29461.047;  -11.887;33756.816
651.930;28382.969;  -13.557;31868.773
652.508;28276.463;  -11.767;33121.551
653.086;31117.848;  -10.777;33564.793
653.663;33836.891;  -12.067;34054.668
654.241;36632.848;  -14.918;35693.309
654.819;36182.297;  -11.788;36422.906
655.397;33866.734;  -11.268;38213.484
655.975;32408.396;  -11.738;39507.625
656.553;30929.223;  -11.018;39498.223
657.130;29546.719;  -12.848;40395.480
657.708;28129.943;  -10.098;39242.020
658.286;29193.213;  -11.678;38920.020
658.863;31814.027;  -11.498;40202.898
659.441;34708.621;  -11.008;39677.938
660.018;36488.047;  -11.048;40413.355
660.596;37226.492;  -12.058;39931.414
661.173;37703.328;  -14.158;39604.531
661.750;37013.309;  -12.298;39700.070
662.328;36443.949;  -10.699;39292.809
662.905;35924.551;  -12.119;38235.648
663.482;31947.578;  -11.829;36212.305
664.060;28125.945;  -11.009;35944.945
664.637;31422.588;  -10.369;35170.785
665.214;34071.941;  -10.459;34197.523
665.791;33340.434;  -12.599;34549.520
666.368;30791.803;  -12.919;35118.578
666.945;29048.510;  -10.699;36019.418
667.522;30130.127;  -11.359;36048.438
668.099;30543.027;  -13.529;36243.914
668.676;29522.977;  -10.229;35958.875
669.253;29202.422;   -9.279;37384.730
669.830;28597.250;  -11.370;36779.629
670.407;28112.006;  -10.950;35231.289
670.984;28953.773;  -12.850;35544.270
671.560;27968.182;   -8.440;35466.867
672.137;29059.785;  -13.520;34280.863
672.714;30887.459;  -13.620;34632.863
673.290;31595.654;  -10.450;35135.422
673.867;30514.420;  -10.960;36114.480
674.443;31428.449;  -13.300;36152.859
675.020;29733.525;  -12.370;35327.238
675.596;28968.404;  -11.250;35795.176
676.173;29220.166;  -11.080;35430.355
676.749;28788.541;  -13.220;33549.516
677.326;29837.424;  -13.000;32210.012
677.902;29764.502;  -12.701;32068.871
678.478;28430.336;  -12.801;32583.891
679.054;28888.660;   -8.601;32088.928
679.631;30194.717;  -12.631;30978.848
680.207;31297.389;   -9.451;33160.887
680.783;30433.775;  -11.701;35570.363
681.359;30621.139;  -12.701;36125.184
681.935;32443.959;  -13.271;35240.922
682.511;34525.176;  -10.791;34429.961
683.087;32557.570;  -10.791;34463.680
683.663;29263.941;   -8.121;34648.898
684.239;27209.555;  -13.261;34546.457
684.815;28146.779;  -10.581;35586.375
685.390;29807.490;   -9.961;35821.895
685.966;29167.131;  -11.182;35085.871
686.542;28360.605;  -13.512;34198.230
687.118;26443.781;  -11.472;32847.707
687.693;25449.410;  -10.152;32794.027
688.269;25712.365;  -14.442;33072.367
688.844;24638.303;  -11.852;33141.664
689.420;23611.535;  -13.942;33965.742
689.995;24942.258;   -9.702;34655.523
690.571;26780.303;  -11.312;33576.742
691.146;27006.580;  -14.332;32657.219
691.722;26647.549;  -11.192;32526.979
692.297;27453.607;  -10.962;33014.617
692.872;28939.092;  -11.082;34012.254
693.448;29726.938;  -14.732;34237.434
694.023;28991.881;  -12.363;34142.672
694.598;27199.795;  -12.393;34132.031
695.173;28022.289;  -11.023;34205.250
695.748;29456.404;  -12.743;32882.488
696.323;28795.281;  -11.103;32864.906
696.898;28201.105;   -8.123;33170.004
697.473;27890.023;  -12.603;32432.984
698.048;28156.803;  -12.553;31649.303
698.623;29513.170;  -12.573;30778.141
699.198;29152.693;  -12.743;31140.119
699.773;28346.869;  -12.843;31764.299
700.348;28774.879;  -16.683;31780.816
700.922;29840.736;  -11.403;32046.375
701.497;31461.127;  -11.253;32603.574
702.072;30869.096;  -10.044;34799.871
702.646;30333.717;  -13.054;35793.172
703.221;31113.809;  -11.414;35201.590
703.795;30079.721;  -10.644;34764.527
704.370;27722.139;  -13.484;34307.367
704.944;26875.510;  -12.144;33509.887
705.519;26615.955;  -12.024;31388.584
706.093;28299.699;  -11.234;31340.104
706.668;29402.285;   -9.874;32630.281
707.242;28724.389;  -12.404;32728.779
707.816;27071.762;  -10.644;32947.238
708.390;26442.201;  -11.174;33277.855
708.965;26407.049;  -10.324;33834.336
709.539;27220.561;  -12.014;33709.273
710.113;27501.836;  -12.295;33044.313
710.687;29097.625;  -10.965;31953.992
711.261;31198.516;  -13.685;30505.949
711.835;29644.889;  -15.335;30262.369
712.409;28205.119;  -13.785;31254.447
712.983;28102.307;  -10.525;32754.986
713.557;26227.215;  -13.175;34018.824
714.131;26151.830;  -13.245;34579.625
714.704;29265.553;  -13.175;33890.262
715.278;31700.846;  -11.545;33531.102
715.852;30467.340;  -10.975;33601.660
716.425;29096.535;  -10.075;33515.117
716.999;29703.287;  -12.185;33185.555
717.573;31836.076;   -9.685;33905.996
718.146;32319.932;  -10.516;35199.293
718.720;30987.961;  -12.106;35060.551
719.293;29399.508;  -12.386;34973.230
719.867;29355.707;  -12.456;36394.449
720.440;29240.041;  -10.686;36663.008
721.013;29236.094;  -12.596;35102.426
721.587;30611.990;  -13.956;33985.266
722.160;32575.404;   -9.806;33524.965
722.733;33305.656;  -11.676;32987.043
723.306;32923.438;  -14.276;33066.301
723.880;30961.900;  -12.126;33399.500
724.453;28601.121;  -10.156;33468.297
725.026;28339.281;  -12.956;33816.637
725.599;28410.736;  -11.676;32797.996
726.172;28684.285;  -12.337;33187.434
726.745;28812.285;  -11.277;35136.613
727.318;28804.496;  -11.927;35751.730
727.891;28063.404;  -13.607;35890.430
728.463;25860.455;  -11.327;34822.090
729.036;25756.664;  -11.917;32895.086
729.609;27386.910;  -12.697;31823.225
730.182;28210.578;  -11.787;31445.283
730.754;27952.596;  -12.957;32373.223
731.327;27704.877;  -11.017;33676.820
731.900;27383.516;  -12.797;33417.000
732.472;26651.258;  -10.677;31978.498
733.045;26116.359;  -12.797;30368.777
733.617;26220.287;  -13.908;30574.215
734.190;25073.314;  -12.258;31280.975
734.762;25301.254;  -13.438;31674.412
735.334;26708.039;  -11.758;31247.291
735.907;29398.131;  -11.158;29876.211
736.479;32606.551;  -11.258;29808.488
737.051;33008.891;  -10.918;30233.547
737.623;31878.484;  -11.038;31469.086
738.195;33269.164;  -12.188;31784.225
738.768;30749.320;  -11.378;32120.523
739.340;24825.115;  -12.598;32094.342
739.912;23382.418;  -11.568;31312.680
740.484;25339.279;   -9.348;31946.238
741.056;27921.533;  -12.628;32984.059
741.628;29638.090;  -13.349;33897.715
742.199;28505.348;  -11.309;33213.016
742.771;28790.117;  -12.699;31369.113
743.343;29644.563;  -11.919;31865.473
743.915;29315.895;  -11.679;32388.631
744.487;27693.766;  -12.249;31079.568
745.058;25547.404;  -11.119;30570.107
745.630;24512.131;   -9.439;29970.127
746.201;23940.941;  -11.949;29186.766
746.773;24036.107;  -12.639;28805.723
747.344;25233.830;  -11.039;29591.223
747.916;27319.502;  -12.549;31412.201
748.487;26205.297;  -12.659;32194.898
749.059;24599.322;  -13.059;32533.719
749.630;23849.459;  -12.080;32158.518
750.201;22276.266;  -13.100;30855.395
750.773;21621.859;  -15.310;28622.555
751.344;21511.684;  -12.240;28405.732
751.915;21777.635;  -11.960;28461.551
752.486;20869.482;  -13.200;27842.850
753.057;19429.129;  -15.230;27845.008
753.628;20395.363;  -13.130;27728.107
754.199;22607.355;  -12.720;27381.086
754.770;22649.801;  -10.680;25882.203
755.341;21122.033;  -11.010;25886.184
755.912;20511.611;  -12.990;26050.861
756.483;20049.605;  -11.110;26798.779
757.054;19897.740;  -12.190;27048.238
757.625;19878.967;  -13.981;26294.838
758.195;19981.156;  -11.041;26142.076
758.766;21134.840;  -11.861;26392.234
759.337;21551.498;  -11.461;26334.594
759.907;20859.625;  -15.001;27579.652
760.478;19716.977;   -9.681;28352.770
761.048;18638.621;  -12.421;27325.088
761.619;19326.311;  -11.761;26460.428
762.189;19750.902;  -12.391;26029.826
762.760;19265.150;  -10.201;26430.145
763.330;20112.322;  -10.811;26670.902
763.900;20752.189;  -10.261;26603.021
764.471;19600.666;  -13.061;25542.740
765.041;17997.813;  -11.051;24358.459
765.611;17909.760;  -11.032;23991.297
766.181;18054.561;  -10.532;24470.236
766.751;18449.199;  -13.502;24845.975
767.321;19759.148;  -11.392;24533.633
767.891;21591.932;  -11.522;24916.492
768.461;22703.299;  -13.672;24776.771
769.031;20212.109;  -14.652;24757.988
769.601;17387.256;  -10.182;24181.088
770.171;16100.983;  -11.752;23670.387
770.741;15108.925;  -12.272;22960.045
771.311;14960.208;  -13.112;22917.523
771.880;16023.193;  -14.122;23562.941
772.450;16812.854;  -11.782;24216.500
773.020;16968.963;  -12.642;24140.398
773.589;16112.938;  -13.043;24414.857
774.159;15556.217;  -11.783;23858.717
774.729;16339.375;  -13.473;22942.135
775.298;16955.379;  -14.523;22324.033
775.867;16445.889;  -12.013;21140.313
776.437;15777.341;  -12.113;20838.092
777.006;15539.162;  -13.543;20599.510
777.576;16177.551;  -12.523;20508.809
778.145;16359.998;  -12.173;20732.947
778.714;15660.880;  -12.153;21062.465
779.283;14803.859;  -11.833;20949.664
779.853;14735.005;  -13.483;20508.623
780.422;14761.178;  -12.933;20649.082
780.991;14378.473;  -13.173;21527.520
781.560;14259.333;  -10.224;22632.658
782.129;14697.303;  -12.684;23048.277
782.698;14665.965;  -11.284;23438.555
783.267;14584.620;  -11.684;23267.734
783.836;14408.314;  -10.974;22415.133
784.404;13928.981;  -13.534;20443.152
784.973;13035.581;  -16.734;19699.150
785.542;11907.766;  -12.594;19763.828
786.111;11643.999;  -11.644;20341.408
786.679;12711.053;  -11.384;20207.967
787.248;13005.958;  -12.014;19516.465
787.817;11792.757;  -12.804;18900.363
788.385;10526.089;  -11.994;17879.121
788.954;10838.042;  -12.564;17658.301
789.522;11755.988;  -12.225;17788.879
790.090;11732.475;  -13.775;18118.277
790.659;11599.451;  -12.485;18338.736
791.227;12310.218;  -12.295;18508.615
791.795;12924.130;  -13.415;17898.254
792.364;13306.121;  -12.995;17295.133
792.932;12961.883;   -8.365;16822.051
793.500;11813.103;  -11.925;17040.148
794.068;11919.601;  -13.245;17179.787
794.636;12631.313;  -13.815;16664.246
795.204;12593.170;  -13.375;16524.545
795.772;12388.809;  -12.125;17274.564
796.340;11642.221;  -13.855;17891.002
796.908;10110.817;  -13.456;17648.561
797.476; 9332.879;  -13.116;17064.080
798.044; 9542.434;  -13.226;16672.777
798.612; 9844.317;  -11.236;17023.996
799.180; 9749.537;  -10.476;16561.615
799.747; 9378.151;  -11.746;15962.773
800.315; 8927.174;  -12.366;15296.992
800.883; 8282.387;  -14.616;14801.771
801.450; 8332.511;  -11.996;14534.430
802.018; 9134.361;  -11.206;14173.248
802.585; 9582.139;  -12.466;14029.547
803.153; 9173.896;  -12.846;13836.846
803.720; 8619.816;  -12.136;13567.324
804.287; 8726.605;  -10.966;13360.622
804.855; 8806.414;   -9.797;13681.981
805.422; 8056.107;  -13.037;13536.560
805.989; 7416.180;  -12.697;13355.958
806.556; 7636.154;  -11.737;13747.896
807.124; 8329.887;  -11.997;13987.376
807.691; 8140.539;  -13.997;14038.674
808.258; 7537.094;  -10.927;14120.152
808.825; 7698.816;  -13.727;13860.111
809.392; 7724.737;  -11.847;13268.790
809.959; 7725.258;  -14.217;12680.389
810.526; 7701.218;   -8.277;12427.308
811.093; 7866.816;   -9.647;12030.105
811.659; 7929.157;  -10.987;11653.664
812.226; 7309.455;  -13.447;11637.183
812.793; 6861.861;  -14.418;11611.521
813.360; 7069.958;  -13.908;11885.181
813.926; 7567.866;  -12.918;12770.539
814.493; 7794.804;  -14.888;12677.638
815.060; 7406.489;  -12.758;11974.336
815.626; 7092.813;  -13.478;11594.715
816.193; 7033.769;  -13.898;11579.474
816.759; 7152.310;  -13.588;11666.972
817.325; 7138.452;  -12.018;11325.530
817.892; 6842.545;  -14.068;11105.369
818.458; 6941.215;  -13.458;10843.928
819.024; 6871.092;  -11.968;10714.406
819.591; 6660.845;  -11.028;10469.165
820.157; 6774.944;  -12.088;10235.523
820.723; 6927.632;  -12.599;10847.563
821.289; 6682.706;  -10.419;11040.980
821.855; 6510.872;  -10.939;10357.100
822.421; 6520.928;  -12.539; 9978.918
822.987; 6521.271;  -13.259; 9754.177
823.553; 6337.400;  -15.369;10065.755
824.119; 6221.145;  -10.779;10036.294
824.685; 6218.238;   -9.999;10029.192
825.251; 6047.231;  -11.819;10199.230
825.816; 5979.361;  -13.369; 9820.189
826.382; 5835.644;  -12.679; 9297.248
826.948; 5386.792;  -11.199; 9381.347
827.513; 5225.322;  -11.179; 9450.726
828.079; 5357.267;  -13.489; 9472.444
828.645; 5503.923;  -12.500; 9292.643
829.210; 5518.073;  -15.120; 9065.341
829.776; 5490.329;  -12.590; 9132.620
830.341; 5631.298;  -11.540; 9092.878
830.906; 6035.701;  -12.400; 9078.557
831.472; 6017.212;  -12.720; 8534.535
832.037; 5287.678;  -11.490; 8677.874
832.602; 4613.814;  -14.380; 8628.692
833.167; 4364.526;  -12.780; 8879.031
833.733; 4636.253;  -11.100; 9189.790
834.298; 5017.053;  -12.080; 9052.608
834.863; 4880.805;  -13.910; 8895.087
835.428; 4595.304;  -13.470; 8824.266
835.993; 4443.697;  -11.760; 8845.385
836.558; 4634.981;  -12.731; 8888.563
837.123; 4791.771;  -12.431; 8966.582
837.688; 4628.431;  -11.241; 8617.860
838.253; 4449.488;  -13.681; 8590.699
838.817; 4578.301;  -12.531; 8443.797
839.382; 4700.137;  -12.671; 8799.356
839.947; 4733.163;  -11.541; 8810.595
840.511; 4848.957;  -12.021; 8796.394
841.076; 4920.491;  -13.071; 8347.231
841.641; 5168.473;  -11.411; 8224.330
842.205; 5477.789;  -13.671; 8223.349
842.770; 5399.974;  -11.291; 8622.107
843.334; 5087.072;  -12.951; 8410.386
843.898; 4796.792;  -11.221; 8337.465
844.463; 4863.254;  -11.322; 8506.283
845.027; 4840.644;  -11.412; 8280.962
845.591; 4563.920;  -11.512; 8231.141
846.156; 4431.635;  -14.042; 7969.179
846.720; 4473.699;  -12.152; 7768.278
847.284; 4264.451;  -10.922; 7630.957
847.848; 4048.431;  -10.962; 7472.395
848.412; 3799.861;  -14.612; 7437.394
848.976; 3806.542;  -11.492; 7674.592
849.540; 4098.559;   -9.172; 7836.011
850.104; 4301.681;  -11.232; 7913.669
850.668; 4214.354;  -15.182; 7694.508
851.232; 4093.345;  -15.332; 7756.887
851.796; 4035.071;  -13.703; 7926.545
852.359; 4104.228;  -11.113; 7827.844
852.923; 4207.559;  -11.843; 7641.163
853.487; 4166.211;  -11.173; 7342.501
854.050; 4020.038;  -13.443; 7042.820
854.614; 3950.215;  -13.823; 7151.338
855.177; 3856.322;  -16.393; 7105.077
855.741; 3799.985;  -11.693; 6989.675
856.304; 3771.052;  -10.843; 6596.634
856.868; 3649.758;  -13.783; 6356.272
857.431; 3414.686;  -11.953; 6468.571
857.995; 3137.951;  -13.683; 6373.210
858.558; 3098.503;  -11.433; 6324.448
859.121; 3207.693;  -12.493; 6408.327
859.684; 3114.558;  -12.384; 6347.886
860.247; 2783.682;  -14.774; 6321.264
860.810; 2527.989;  -13.154; 6301.903
861.374; 2512.208;  -11.264; 6607.881
861.937; 2556.378;  -15.424; 6408.200
862.500; 2527.656;  -12.854; 6572.639
863.062; 2506.615;  -12.344; 6387.297
863.625; 2512.848;  -13.314; 6190.836
864.188; 2599.809;  -14.724; 5807.254
864.751; 2790.737;  -13.464; 5682.413
865.314; 3135.262;  -11.684; 5547.492
865.876; 3344.721;  -11.104; 5500.150
866.439; 3281.120;  -12.344; 5415.909
867.002; 3100.924;  -13.494; 5501.567
867.564; 2838.290;  -10.935; 5413.946
868.127; 2645.879;  -12.665; 5160.325
868.689; 2602.464;  -14.515; 5133.183
869.252; 2652.189;  -13.425; 5252.382
869.814; 2828.323;  -11.595; 5297.141
870.377; 2940.005;  -12.175; 5390.919
870.939; 2827.293;  -10.265; 5599.898
871.501; 2681.143;  -12.375; 5248.336
872.063; 2581.788;  -14.355; 4854.235
872.626; 2494.486;  -14.435; 4817.074
873.188; 2406.784;  -12.415; 4987.732
873.750; 2441.975;  -14.555; 4868.651
874.312; 2382.503;  -11.185; 4779.330
874.874; 2195.847;  -12.715; 4866.348
875.436; 2117.690;  -13.196; 4718.887
875.998; 2122.269;  -11.426; 4660.005
876.560; 2052.026;   -9.786; 4462.964
877.122; 2003.017;  -12.796; 4145.042
877.683; 1997.370;  -13.226; 4056.481
878.245; 1981.772;  -12.036; 3950.740
878.807; 1946.996;  -11.536; 4058.958
879.369; 1819.662;  -10.806; 3954.677
879.930; 1512.610;  -13.946; 3941.495
880.492; 1170.139;  -11.876; 4067.014
881.053;  993.726;  -13.216; 3859.633
881.615;  989.480;  -12.226; 3776.071
882.176; 1047.871;  -12.946; 3734.750
882.738; 1088.499;  -10.736; 3678.489
883.299; 1133.425;  -12.057; 3405.407
883.860; 1201.713;  -12.677; 3351.106
884.422; 1232.934;  -14.097; 3394.044
884.983; 1182.650;  -13.667; 3166.443
885.544; 1083.659;  -10.717; 3189.802
886.105; 1010.317;  -14.357; 3160.360
886.666; 1005.198;  -14.287; 3093.059
887.227; 1022.907;  -14.297; 2941.957
887.788; 1024.515;  -13.137; 2974.836
888.349;  953.003;  -14.637; 2721.214
888.910;  880.979;  -12.247; 2696.493
889.471;  876.068;  -10.577; 2560.172
890.032;  875.083;  -12.937; 2558.190
890.593;  832.998;  -12.487; 2567.669
891.153;  772.762;  -11.898; 2460.307
891.714;  765.732;  -14.278; 2372.046
892.275;  774.723;  -13.308; 2309.505
892.835;  727.152;  -12.058; 2382.543
893.396;  654.242;  -15.268; 2295.502
893.956;  601.346;  -13.278; 2162.420
894.517;  567.497;  -11.968; 2125.439
895.077;  554.807;  -12.798; 2086.978
895.638;  536.301;  -11.908; 2126.316
896.198;  514.257;  -13.288; 1838.275
896.758;  491.887;  -12.198; 1892.813
897.319;  467.270;  -13.048; 1792.232
897.879;  427.828;  -13.718; 1762.751
898.439;  389.027;  -14.138; 1661.149
898.999;  377.137;  -13.659; 1781.468
899.559;  366.099;  -14.699; 1703.347
900.119;  343.334;  -14.339; 1537.525
900.679;  320.776;  -11.789; 1638.384
901.239;  296.140;  -13.629; 1527.902
901.799;  281.810;  -13.679; 1456.441
902.359;  268.845;  -13.679; 1357.140
902.919;  258.445;  -14.159; 1331.118
903.479;  247.786;  -13.419; 1317.257
904.038;  238.223;  -14.899; 1262.595
904.598;  226.575;  -14.339; 1152.034
905.158;  220.323;  -13.959; 1240.893
905.717;  216.661;  -12.749; 1233.691
906.277;  209.165;  -11.889; 1217.330
906.836;  201.808;  -12.870; 1222.408
907.396;  198.890;  -11.790; 1193.047
907.955;  195.845;  -13.750; 1182.526
908.515;  189.837;  -14.760; 1099.364
909.074;  183.184;  -12.540; 1092.863
909.633;  176.906;  -12.120; 1069.121
910.192;  174.454;  -12.550; 1196.460
910.752;  173.655;  -12.760; 1029.960
911.311;  171.688;  -14.750; 1009.780
911.870;  168.030;  -13.860;  971.460
912.429;  165.570;  -13.480; 1094.080
912.988;  160.794;  -12.370; 1081.060
913.547;  153.485;  -14.670;  940.380
914.106;  149.325;  -12.800;  999.420
914.665;  145.478;  -11.370;  984.020
915.224;  144.620;  -11.430; 1035.760
915.782;  144.703;  -12.260;  922.560
916.341;  146.549;  -12.540; 1049.840
916.900;  143.575;  -12.540;  925.260
917.458;  142.867;  -13.480;  884.220
918.017;  142.049;  -12.470;  942.600
918.576;  141.123;  -13.450;  904.440
919.134;  139.710;  -12.890;  837.980
919.693;  137.934;  -15.480;  893.060
920.251;  136.489;  -14.420;  876.500
920.809;  135.952;  -12.170;  839.580
921.368;  136.918;  -13.650;  885.360
921.926;  135.804;  -12.750;  842.940
922.484;  137.268;  -14.150;  903.360
923.042;  138.297;  -15.100;  880.340
923.601;  141.150;  -10.990;  998.680
924.159;  141.079;  -12.470;  935.560
924.717;  140.210;  -15.640;  841.080
925.275;  141.211;  -12.380;  903.240
925.833;  138.804;  -12.710;  779.320
926.391;  141.532;  -11.200;  938.380
926.949;  142.939;  -16.000;  857.680
927.506;  144.330;  -12.260;  903.500
928.064;  144.183;  -11.300;  877.580
928.622;  144.504;  -13.750;  880.100
929.180;  144.782;  -15.290;  814.180
929.737;  143.255;  -14.500;  808.540
930.295;  145.139;  -10.630;  928.480
930.853;  148.029;  -14.590;  849.100
931.410;  150.646;  -14.450;  821.120
931.968;  152.190;  -14.390;  940.660
932.525;  152.139;  -13.050;  909.380
933.082;  152.489;  -15.620;  811.440
933.640;  154.771;  -15.650;  925.900
934.197;  157.090;  -13.610;  886.360
934.754;  160.885;  -13.320;  897.780
935.312;  164.528;  -13.370;  863.340
935.869;  167.551;  -12.780; 1012.980
936.426;  166.652;  -14.480;  872.800
936.983;  166.616;  -13.180;  889.020
937.540;  167.482;  -15.710;  838.280
938.097;  169.066;  -14.980;  940.120
938.654;  171.005;  -13.060;  898.860
939.211;  171.923;  -12.760;  952.480
939.768;  171.745;  -16.230;  915.420
940.324;  173.030;  -10.940;  904.200
940.881;  171.752;  -12.570;  878.500
941.438;  170.605;  -13.650; 1021.200
941.995;  170.325;  -13.300;  992.560
942.551;  171.538;  -15.800;  875.620
943.108;  171.128;  -14.180;  937.920
943.664;  170.058;  -13.890;  869.340
944.221;  174.218;  -12.640; 1088.140
944.777;  171.281;  -14.700;  869.680
945.334;  169.192;  -13.010;  884.840
945.890;  170.892;  -13.480;  946.480
946.446;  169.962;  -14.920;  947.020
947.003;  169.901;  -13.860;  964.940
947.559;  169.342;  -12.000; 1063.040
948.115;  168.894;  -10.510; 1026.540
948.671;  169.004;  -12.760;  967.300
949.227;  164.733;  -15.390;  859.560
949.783;  161.212;  -15.570;  858.900
950.339;  160.609;  -12.800;  991.000
950.895;  157.706;  -13.780; 1023.840
951.451;  158.798;  -13.810;  925.280
952.007;  160.816;  -12.390;  998.540
952.563;  160.710;  -11.980;  937.780
953.118;  158.598;  -14.070;  904.940
953.674;  160.143;  -14.140;  935.780
954.230;  164.966;  -12.680;  949.640
954.785;  165.585;  -12.770;  936.640
955.341;  162.760;  -11.450;  998.160
955.897;  154.554;  -15.350;  834.660
956.452;  150.489;  -14.200;  953.840
957.008;  146.032;  -10.820; 1083.640
957.563;  144.737;  -13.200; 1009.540
958.118;  144.699;  -14.460;  877.700
958.674;  145.164;  -13.840;  946.780
959.229;  144.920;  -10.670; 1013.980
959.784;  144.697;  -17.040;  832.400
960.339;  148.093;  -12.970; 1001.280
960.894;  150.730;  -12.700;  963.760
961.449;  153.998;  -13.790;  859.960
962.004;  160.983;  -11.760; 1212.840
962.559;  157.912;  -14.840;  860.140
963.114;  151.776;  -14.530;  742.480
963.669;  149.433;  -12.780;  915.500
964.224;  146.064;  -14.330;  874.340
964.779;  140.539;  -14.380;  828.420
965.334;  136.663;  -12.460; 1017.860
965.888;  131.794;  -13.490;  875.360
966.443;  132.317;  -14.140;  972.380
966.998;  129.352;  -16.240;  819.460
967.552;  128.776;  -12.730;  908.380
968.107;  125.763;  -14.510;  868.300
968.661;  127.213;  -11.850;  922.440
969.216;  125.321;  -14.370;  856.280
969.770;  123.444;  -13.010;  917.200
970.324;  122.513;  -12.460;  923.140
970.879;  122.425;  -11.580;  947.180
971.433;  124.034;  -13.130;  952.720
971.987;  121.843;  -12.360;  895.340
972.541;  117.962;  -14.330;  917.100
973.095;  115.729;  -13.310; 1009.460
973.649;  112.238;  -15.830;  809.480
974.203;  111.829;  -15.830;  829.040
974.757;  114.073;  -13.480;  855.220
975.311;  117.151;  -13.720;  872.600
975.865;  117.911;  -15.780;  881.820
976.419;  116.915;  -14.290;  857.400
976.973;  114.656;  -13.210;  849.620
977.526;  111.927;  -12.300;  949.920
978.080;  107.487;  -14.840;  796.780
978.634;  105.763;  -13.100;  921.320
979.187;  101.434;  -12.300;  905.400
979.741;  101.997;  -12.020; 1018.380
980.294;   99.307;  -14.590;  789.160
980.848;   97.520;  -14.390;  717.220
981.401;   97.822;  -14.280;  816.540
981.955;   97.382;  -11.920;  844.300
982.508;   94.135;  -15.790;  746.340
983.061;   94.443;  -12.070;  915.260
983.615;   89.757;  -13.260;  798.800
984.168;   88.345;  -15.540;  770.080
984.721;   88.230;  -13.230;  880.760
985.274;   85.400;  -11.820;  867.500
985.827;   82.950;  -13.510;  834.220
986.380;   81.812;  -14.840;  721.340
986.933;   82.691;  -13.970;  864.800
987.486;   82.160;  -12.450;  861.920
988.039;   79.647;  -11.170;  863.100
988.591;   77.105;  -13.070;  893.260
989.144;   74.138;  -15.530;  737.260
989.697;   72.221;  -14.300;  758.740
990.250;   71.635;  -13.310;  858.100
990.802;   70.020;  -14.490;  755.860
991.355;   71.022;  -12.980;  974.880
991.907;   68.415;  -13.715;  864.320
992.460;   65.809;  -14.450;  753.760
993.012;   64.271;  -12.590;  749.540
993.565;   62.538;  -15.180;  711.360
994.117;   63.952;  -11.630;  950.780
994.669;   60.632;  -13.760;  701.320
995.221;   61.070;  -12.710;  791.920
995.774;   59.850;  -14.620;  787.580
996.326;   59.073;  -13.150;  740.220
996.878;   59.390;  -12.880;  838.420
997.430;   57.284;  -14.580;  699.860
997.982;   56.868;  -14.030;  750.140
998.534;   56.127;  -12.190;  739.060
999.086;   54.214;  -12.990;  738.220
999.638;   53.331;  -13.180;  661.380
1000.190;   52.414;  -14.970;  699.320
1000.741;   52.053;  -12.200;  742.700
1001.293;   50.727;  -13.400;  686.020
1001.845;   50.467;  -14.490;  676.640
1002.396;   51.767;  -15.280;  743.400
1002.948;   51.869;  -12.380;  737.400
1003.500;   49.010;  -13.260;  723.780
1004.051;   51.481;  -13.730;  907.580
1004.603;   49.490;  -12.300;  791.820
1005.154;   46.184;  -15.330;  608.980
1005.705;   45.360;  -12.800;  723.960
1006.257;   44.974;  -13.900;  707.220
1006.808;   43.598;  -14.430;  685.460
1007.359;   43.491;  -12.010;  763.240
1007.910;   41.519;  -12.690;  646.640
1008.461;   41.126;  -13.610;  732.940
1009.013;   39.735;  -14.990;  588.340
1009.564;   40.819;  -11.860;  793.520
1010.115;   38.556;  -12.640;  597.040
1010.665;   38.694;  -14.570;  602.160
1011.216;   39.417;  -15.190;  667.920
1011.767;   38.772;  -13.470;  697.920
1012.318;   38.428;  -13.760;  736.980
1012.869;   37.332;  -15.950;  679.000
1013.419;   37.659;  -15.880;  603.120
1013.970;   38.352;  -14.540;  666.640
1014.521;   36.015;  -13.220;  620.620
1015.071;   37.043;  -15.020;  670.380
1015.622;   36.200;  -17.510;  635.460
1016.172;   35.247;  -14.130;  596.820
1016.723;   35.398;  -14.220;  614.380
1017.273;   35.779;  -15.370;  604.160
1017.823;   35.916;  -15.290;  650.340
1018.374;   35.729;  -13.420;  611.760
1018.924;   34.181;  -11.740;  716.880
1019.474;   35.690;  -12.250;  718.880
1020.024;   34.194;  -15.850;  657.580
1020.574;   34.617;  -13.280;  726.160
1021.124;   34.307;  -13.560;  673.580
1021.674;   32.695;  -13.790;  559.120
1022.224;   34.283;  -14.610;  708.940
1022.774;   33.418;  -13.100;  668.820
1023.324;   33.831;  -11.470;  753.520
1023.874;   35.647;  -11.990;  875.760
1024.423;   32.745;  -14.550;  613.700
1024.973;   32.212;  -14.440;  610.760
1025.523;   31.088;  -13.250;  620.960
1026.072;   31.029;  -15.200;  606.420
1026.622;   31.208;  -14.590;  675.740
1027.172;   31.749;  -11.080;  715.660
1027.721;   30.749;  -14.010;  601.220
1028.270;   30.693;  -13.690;  663.400
1028.820;   30.842;  -15.380;  638.080
1029.369;   30.284;  -14.980;  612.700
1029.918;   30.888;  -13.100;  649.840
1030.468;   30.134;  -13.680;  564.780
1031.017;   30.619;  -13.770;  634.800
1031.566;   28.755;  -14.100;  608.900
1032.115;   30.634;  -11.770;  694.500
1032.664;   28.301;  -14.940;  596.480
1033.213;   29.438;  -13.370;  735.420
1033.762;   28.982;  -13.660;  635.620
1034.311;   28.075;  -13.650;  677.220
1034.860;   29.186;  -13.820;  691.000
1035.408;   28.941;  -12.860;  722.720
1035.957;   29.415;  -13.060;  719.540
1036.506;   26.566;  -14.510;  530.800
1037.055;   29.830;  -13.470;  844.320
1037.603;   27.880;  -14.800;  664.000
1038.152;   25.671;  -14.190;  534.760
1038.700;   26.281;  -11.810;  585.740
1039.249;   26.414;  -12.850;  681.220
1039.797;   27.165;  -14.610;  633.360
1040.345;   26.716;  -15.220;  705.420
1040.894;   25.836;  -13.480;  625.300
1041.442;   25.654;  -13.310;  632.200
1041.990;   25.308;  -14.510;  559.160
1042.538;   24.147;  -15.700;  536.180
1043.087;   24.426;  -13.910;  570.860
1043.635;   26.358;  -13.620;  670.500
1044.183;   25.403;  -14.230;  586.400
1044.731;   25.185;  -13.730;  576.000
1045.279;   24.854;  -13.970;  674.920
1045.827;   26.873;  -10.750;  892.400
1046.374;   24.095;  -15.230;  515.420
1046.922;   22.927;  -15.390;  590.580
1047.470;   24.142;  -12.320;  691.300
1048.018;   24.063;  -13.230;  647.960
1048.565;   25.125;  -13.390;  708.600
1049.113;   22.962;  -15.030;  557.000
1049.660;   22.952;  -12.540;  629.660
1050.208;   23.382;  -15.040;  675.640
1050.755;   22.534;  -14.680;  606.580
1051.303;   24.215;  -13.610;  686.820
1051.850;   23.263;  -14.340;  635.120
1052.397;   21.058;  -16.330;  473.960
1052.945;   21.859;  -15.710;  617.760
1053.492;   24.052;  -12.320;  741.840
1054.039;   23.003;  -13.730;  720.180
1054.586;   21.684;  -16.140;  557.240
1055.133;   22.701;  -14.020;  693.140
1055.680;   22.493;  -13.430;  646.620
1056.227;   20.589;  -14.570;  542.780
1056.774;   23.126;  -14.400;  794.980
1057.321;   21.141;  -14.230;  523.260
1057.868;   20.989;  -14.220;  651.320
1058.415;   20.669;  -14.060;  651.980
1058.961;   21.270;  -14.640;  678.940
1059.508;   20.488;  -13.970;  643.820
1060.055;   21.145;  -15.100;  581.780
1060.601;   21.275;  -12.180;  624.300
1061.148;   19.949;  -15.010;  616.820
1061.694;   20.564;  -14.750;  592.580
1062.241;   20.294;  -14.130;  596.320
1062.787;   20.203;  -14.770;  663.140
1063.334;   22.320;  -13.130;  808.560
1063.880;   20.456;  -14.420;  668.360
1064.426;   19.833;  -13.130;  706.820
1064.972;   18.693;  -13.960;  601.340
1065.518;   17.870;  -13.680;  566.640
1066.065;   19.628;  -15.720;  624.460
1066.611;   18.182;  -13.970;  598.800
1067.157;   19.160;  -13.920;  641.860
1067.703;   18.869;  -14.760;  668.480
1068.249;   18.592;  -14.490;  605.220
1068.794;   18.666;  -14.740;  626.880
1069.340;   17.345;  -13.220;  578.960
1069.886;   18.449;  -14.930;  590.700
1070.432;   16.842;  -14.700;  541.720
1070.977;   17.296;  -14.470;  601.080
1071.523;   17.020;  -14.330;  573.060
1072.068;   17.143;  -14.960;  582.000
1072.614;   17.580;  -16.220;  527.760
1073.160;   18.136;  -11.280;  687.040
1073.705;   16.478;  -15.990;  572.520
1074.250;   16.022;  -16.550;  559.900
1074.796;   17.365;  -14.600;  655.160
1075.341;   17.919;  -13.440;  664.100
1075.886;   16.811;  -14.450;  594.240
1076.431;   16.523;  -13.160;  649.880
1076.976;   17.266;  -14.710;  639.220
1077.521;   16.111;  -14.000;  583.080
1078.067;   14.924;  -14.470;  579.400
1078.612;   15.858;  -14.530;  661.620
1079.156;   16.155;  -15.660;  601.540
1079.701;   15.972;  -16.120;  693.260
1080.246;   15.789;  -12.960;  696.300
1080.791;   16.005;  -13.700;  625.020
1081.336;   15.939;  -15.540;  659.320
1081.880;   15.366;  -14.640;  649.680
1082.425;   14.019;  -14.220;  573.480
1082.970;   16.914;  -11.890;  717.040
1083.514;   15.108;  -13.820;  597.000
1084.059;   14.396;  -14.280;  586.720
1084.603;   13.387;  -12.890;  565.840
1085.147;   14.589;  -13.590;  645.220
1085.692;   14.972;  -14.050;  716.800
1086.236;   13.433;  -14.990;  503.140
1086.780;   15.390;  -12.640;  751.440
1087.325;   14.526;  -15.550;  654.620
1087.869;   13.812;  -14.980;  610.700
1088.413;   14.903;  -13.440;  705.040
1088.957;   12.658;  -12.170;  543.400
1089.501;   14.439;  -12.730;  766.640
1090.045;   14.476;  -14.650;  726.480
1090.589;   12.143;  -14.500;  569.920
1091.133;   12.929;  -12.320;  673.340
1091.676;   13.109;  -16.130;  591.940
1092.220;   12.900;  -13.930;  600.920
1092.764;   13.937;  -12.820;  706.960
1093.307;   12.794;  -11.700;  673.780
1093.851;   11.780;  -15.600;  556.540
1094.395;   13.105;  -13.920;  683.140
1094.938;   12.238;  -16.090;  632.520
1095.482;   12.109;  -13.820;  559.800
1096.025;   13.186;  -12.720;  710.880
1096.568;   13.486;  -12.100;  779.280
1097.112;   10.106;  -15.450;  508.180
1097.655;   10.699;  -14.310;  603.000
1098.198;   10.013;  -14.740;  600.180
1098.741;   11.220;  -15.550;  612.860
1099.285;   11.953;  -12.600;  657.300
1099.828;    8.900;  -15.050;  439.400
1100.371;   11.010;  -14.800;  608.160
1100.914;   11.825;  -16.480;  682.660
1101.457;   11.536;  -12.990;  679.900
1101.999;   10.180;  -14.110;  584.680
1102.542;   11.574;  -11.450;  641.440
1103.085;   10.865;  -13.350;  658.500
1103.628;   11.276;  -13.200;  762.060
1104.170;    9.984;  -12.310;  588.280
1104.713;   10.103;  -14.320;  646.700
1105.256;    9.780;  -16.110;  557.440
1105.798;    9.019;  -15.910;  499.980
1106.341;   10.589;  -12.200;  728.900
1106.883;    9.153;  -14.910;  521.340
1107.425;   10.798;  -14.960;  668.180
1107.968;    9.570;  -13.440;  612.380
1108.510;    9.939;  -14.010;  684.960
1109.052;    7.898;  -15.430;  612.620
1109.594;    9.164;  -15.290;  554.440
1110.136;    9.194;  -13.360;  643.220
1110.679;    8.287;  -13.820;  633.080
1111.221;    9.295;  -13.690;  604.460
1111.763;    8.028;  -14.890;  559.220
1112.304;    8.107;  -14.550;  547.140
1112.846;    8.781;  -12.760;  666.240
1113.388;   12.051;  -10.780;  942.180
1113.930;    9.151;  -12.690;  694.200
1114.472;    8.450;  -15.730;  606.540
1115.013;    6.542;  -14.620;  551.280
1115.555;    7.749;  -14.950;  587.100
1116.097;    7.669;  -16.460;  579.480
1116.638;    8.205;  -13.730;  684.600
1117.180;    7.621;  -13.810;  667.740
1117.721;    7.346;  -13.280;  568.580
1118.262;    7.877;  -15.080;  677.960
1118.804;    8.342;  -14.040;  637.340
1119.345;    6.760;  -15.430;  578.400
1119.886;    8.044;  -15.240;  704.040
1120.427;    6.667;  -15.820;  589.020
1120.969;    6.799;  -14.550;  597.920
1121.510;    5.643;  -14.030;  563.060
1122.051;    7.792;  -11.990;  723.580
1122.592;    6.324;  -16.490;  655.420
1123.133;    5.670;  -15.580;  547.940
1123.673;    7.001;  -12.850;  706.480
1124.214;    6.087;  -13.630;  612.460
1124.755;    7.115;  -14.830;  639.460
1125.296;    6.548;  -13.110;  627.320
1125.836;    6.831;  -11.320;  691.500
1126.377;    5.256;  -14.330;  599.660
1126.918;    6.686;  -12.800;  614.980
1127.458;    5.325;  -13.580;  622.220
1127.999;    6.032;  -10.330;  656.980
1128.539;    6.244;  -13.390;  694.240
1129.079;    5.819;  -16.420;  632.720
1129.620;    5.274;  -15.700;  558.100
1130.160;    4.249;  -14.790;  539.480
1130.700;    5.600;  -12.910;  640.840
1131.240;    5.823;  -15.610;  643.700
1131.781;    5.190;  -12.920;  619.680
1132.321;    4.124;  -15.300;  599.120
1132.861;    3.782;  -14.760;  564.200
1133.401;    4.244;  -15.470;  593.940
1133.941;    5.798;  -13.710;  626.280
1134.481;    4.678;  -11.820;  597.580
1135.020;    4.212;  -14.810;  609.160
1135.560;    4.548;  -13.660;  674.940
1136.100;    3.462;  -13.940;  501.160
1136.640;    3.194;  -15.410;  510.480
1137.179;    3.564;  -16.920;  537.960
1137.719;    4.471;  -16.430;  605.400
1138.258;    4.258;  -16.300;  587.360
1138.798;    4.317;  -13.710;  663.780
1139.337;    2.845;  -13.840;  482.840
1139.877;    4.257;  -16.140;  642.360
1140.416;    6.653;  -11.410;  878.060
1140.955;    2.983;  -12.820;  535.380
1141.494;    3.377;  -12.310;  669.280
1142.034;    3.394;  -16.280;  583.520
1142.573;    3.880;  -13.090;  646.280
1143.112;    2.040;  -13.770;  553.480
1143.651;    2.728;  -15.830;  536.480
1144.190;    4.111;  -15.010;  691.640
1144.729;    3.014;  -13.650;  607.420
1145.267;    3.101;  -13.670;  584.900
1145.806;    4.167;  -13.630;  637.040
1146.345;    3.463;  -14.160;  635.020
1146.884;    3.061;  -11.180;  622.500
1147.422;    1.923;  -15.890;  533.060
1147.961;    3.725;  -12.760;  708.460
1148.500;    3.781;  -15.220;  669.720
1149.038;    3.335;  -13.720;  632.500
1149.577;    3.164;  -13.250;  698.640
1150.115;   -0.003;  -16.790;  452.280
1150.653;    2.692;  -15.810;  607.340
1151.192;    2.765;  -14.730;  552.920
1151.730;    2.288;  -13.660;  652.560
1152.268;    1.989;  -15.120;  589.520
1152.806;    2.131;  -15.580;  571.180
1153.344;    0.839;  -16.210;  577.640
1153.882;    2.398;  -12.810;  600.060
1154.421;   -0.172;  -14.150;  470.620
1154.958;    1.512;  -15.360;  595.240
1155.496;    2.385;  -14.710;  645.280
1156.034;    1.654;  -13.640;  721.880
1156.572;    2.641;  -13.740;  667.060
1157.110;    0.340;  -16.960;  473.940
1157.647;    1.999;  -11.940;  676.960
1158.185;    0.240;  -14.090;  564.320
1158.723;    0.167;  -13.610;  509.200
1159.260;    1.771;  -14.760;  701.700
1159.798;    2.473;  -13.700;  658.160
1160.335;    1.107;  -13.820;  631.820

