
Integration time [ms]:   3.882
Averaging Nr. [scans]: 1000
Smoothing Nr. [pixels]: 0
Data measured with spectrometer [name]: 7414430SP
Wave   ;Sample   ;Dark     ;Reference
[nm]   ;[counts] ;[counts] ;[counts] 

288.544;  126.543;   10.292;  793.890
289.143;  128.679;    4.564;  681.602
289.742;  130.968;    6.144;  828.814
290.341;  118.124;    4.396;  789.841
290.940;  108.765;    0.938;  730.702
291.538;  108.362;   -0.684;  881.108
292.137;  107.912;   -2.845;  792.581
292.736;  113.323;   -0.144;  975.101
293.335;  108.597;   -6.352;  735.086
293.934;  109.281;   -7.642;  781.677
294.532;  110.114;   -4.992; 1031.958
295.131;   96.336;   -5.478;  834.394
295.730;   96.522;   -6.549;  809.588
296.328;   93.382;   -9.558;  783.442
296.927;   94.942;   -8.118;  779.652
297.525;   96.089;   -6.908;  781.236
298.124;   86.370;   -9.195;  654.009
298.722;   90.381;   -8.198;  761.933
299.321;   88.168;   -8.817;  708.597
299.919;   86.976;   -7.716;  751.918
300.518;   83.458;  -10.745;  689.338
301.116;   84.270;   -9.647;  691.381
301.715;   84.820;  -10.828;  730.222
302.313;   83.984;   -6.087;  704.943
302.911;   79.781;   -6.824;  733.830
303.509;   84.700;   -8.807;  925.627
304.108;   82.636;   -8.198;  760.383
304.706;   81.844;   -6.218;  801.664
305.304;   77.020;   -7.185;  796.707
305.902;   83.091;   -8.568;  784.484
306.500;   78.546;   -7.737;  728.200
307.098;   77.897;   -6.026;  746.560
307.696;   75.951;   -7.176;  780.432
308.294;   75.978;   -8.656;  731.359
308.892;   77.675;   -6.838;  759.769
309.490;   73.907;   -2.596;  712.161
310.088;   71.980;   -4.485;  788.444
310.686;   75.858;   -3.907;  821.749
311.284;   73.122;   -2.806;  766.040
311.882;   70.851;   -2.845;  731.225
312.480;   67.843;   -3.274;  697.167
313.078;   69.222;   -3.645;  808.331
313.675;   70.609;   -4.997;  691.600
314.273;   66.059;   -0.894;  797.837
314.871;   64.433;   -2.854;  589.829
315.468;   62.793;   -3.644;  652.090
316.066;   66.271;   -3.947;  694.427
316.664;   59.524;   -1.824;  656.351
317.261;   64.018;    1.565;  910.128
317.859;   58.569;   -3.955;  768.735
318.456;   60.976;   -2.886;  830.096
319.054;   57.048;   -0.995;  787.828
319.651;   56.388;   -1.765;  759.928
320.249;   54.868;   -3.685;  810.188
320.846;   53.252;   -3.736;  714.286
321.443;   51.448;   -2.065;  832.135
322.041;   49.007;   -5.635;  812.315
322.638;   47.000;   -5.985;  701.456
323.235;   48.776;   -6.677;  665.683
323.833;   46.712;   -3.497;  740.354
324.430;   42.572;   -6.756;  615.900
325.027;   44.136;   -7.647;  876.855
325.624;   44.122;   -7.598;  644.532
326.221;   42.112;   -5.848;  689.717
326.818;   41.498;   -5.777;  818.332
327.415;   43.162;   -8.769;  748.828
328.012;   42.870;   -6.299;  690.585
328.609;   42.312;   -6.639;  731.389
329.206;   39.209;   -6.358;  778.621
329.803;   39.355;   -8.698;  737.841
330.400;   40.593;   -8.379;  704.260
330.997;   42.007;   -6.178;  817.147
331.594;   39.949;   -5.646;  788.185
332.191;   43.980;   -6.928;  728.722
332.787;   46.719;   -6.057;  844.463
333.384;   43.987;   -6.445;  763.093
333.981;   40.994;   -8.002;  815.687
334.578;   42.323;   -8.443;  708.378
335.174;   45.437;   -6.053;  731.469
335.771;   46.072;   -5.791;  836.456
336.367;   41.458;   -6.570;  710.631
336.964;   44.059;   -6.741;  793.266
337.561;   45.134;   -5.710;  731.112
338.157;   40.995;   -3.928;  911.916
338.754;   36.563;   -5.577;  796.589
339.350;   35.650;   -9.667;  722.493
339.946;   39.741;   -5.269;  773.135
340.543;   31.938;   -4.485;  846.136
341.139;   26.240;   -7.584;  720.836
341.735;   24.664;   -8.553;  772.593
342.332;   24.018;   -4.984;  691.472
342.928;   25.510;   -3.475;  795.394
343.524;   19.430;   -6.653;  761.684
344.120;   15.997;   -7.173;  738.562
344.716;   20.174;   -4.385;  723.717
345.313;   17.691;   -3.565;  795.342
345.909;   12.912;   -7.495;  627.336
346.505;   15.294;   -8.276;  740.247
347.101;   16.270;   -5.697;  827.864
347.697;   17.355;   -4.767;  785.398
348.293;   11.003;   -7.226;  627.244
348.889;   11.880;   -7.547;  745.914
349.485;   12.132;   -9.147;  688.205
350.081;   12.800;   -6.568;  772.592
350.676;    8.114;   -6.516;  691.606
351.272;   12.256;   -7.378;  809.530
351.868;   12.651;   -6.759;  780.497
352.464;   10.411;   -4.798;  723.932
353.059;    6.627;   -7.977;  646.017
353.655;    9.607;   -8.769;  777.063
354.251;   10.673;   -5.920;  759.845
354.846;    5.987;   -7.647;  740.646
355.442;    3.453;   -6.956;  753.071
356.038;    5.442;   -9.928;  751.708
356.633;    6.062;   -7.698;  728.594
357.229;    4.035;   -6.307;  724.757
357.824;    2.146;   -7.647;  703.600
358.420;    0.824;  -10.047;  679.726
359.015;    2.156;   -7.458;  695.357
359.610;    3.583;   -5.748;  763.920
360.206;   -2.326;   -9.346;  603.240
360.801;    0.736;  -11.268;  646.503
361.396;    2.540;   -8.789;  725.975
361.992;   -1.697;   -6.347;  668.220
362.587;   -4.690;   -6.476;  670.160
363.182;   -2.495;   -9.457;  689.631
363.777;   -0.756;   -7.147;  738.242
364.372;   -1.315;   -5.507;  737.314
364.967;   -4.125;   -6.386;  680.744
365.563;   -0.446;   -7.858;  815.567
366.158;   -3.685;   -8.517;  685.161
366.753;   -2.213;   -8.728;  649.263
367.348;   -4.316;   -7.677;  746.056
367.942;   -4.838;  -10.387;  697.298
368.537;   -5.134;   -7.187;  754.245
369.132;   -4.917;   -8.587;  703.428
369.727;   -8.940;   -8.606;  638.079
370.322;   -8.122;  -10.426;  580.186
370.917;   -7.269;   -5.776;  710.646
371.511;   -3.792;   -6.007;  861.834
372.106;   -9.122;   -6.686;  776.964
372.701;  -11.132;   -9.335;  585.988
373.296;   -5.202;   -6.777;  863.135
373.890;  -10.220;   -7.546;  647.840
374.485;  -12.050;   -8.755;  691.199
375.079;   -8.286;   -9.797;  738.685
375.674;   -6.508;   -6.327;  812.970
376.268;  -10.357;   -9.046;  691.759
376.863;  -16.442;   -7.993;  580.327
377.457;  -10.279;   -9.206;  662.490
378.052;  -11.656;   -5.345;  764.884
378.646;  -12.071;   -5.605;  741.167
379.240;  -12.528;   -6.825;  721.176
379.835;  -11.731;  -10.476;  636.978
380.429;  -14.355;   -8.676;  562.557
381.023;  -13.062;   -4.945;  779.205
381.617;  -15.610;   -8.094;  680.106
382.212;  -13.054;  -10.646;  685.303
382.806;  -11.575;   -8.136;  760.690
383.400;  -14.731;   -7.855;  672.281
383.994;  -15.569;   -8.125;  664.870
384.588;  -12.037;   -7.637;  697.701
385.182;  -10.741;   -7.458;  726.624
385.776;  -12.367;   -6.277;  706.875
386.370;  -14.946;   -7.485;  681.968
386.964;  -14.305;   -9.416;  684.155
387.558;  -12.017;   -8.518;  598.360
388.152;  -15.484;   -7.096;  681.959
388.745;  -13.640;   -7.656;  814.707
389.339;  -11.938;   -8.927;  747.642
389.933;  -10.607;   -9.538;  695.370
390.527;  -11.314;   -5.857;  859.029
391.120;  -18.513;   -9.455;  595.318
391.714;  -14.817;   -9.746;  711.633
392.308;  -12.349;   -7.857;  780.253
392.901;  -15.058;   -9.106;  642.460
393.495;  -18.032;  -10.365;  595.414
394.089;  -15.583;   -9.696;  760.452
394.682;  -15.467;   -7.016;  697.188
395.275;  -15.829;   -8.466;  719.927
395.869;  -16.745;   -8.985;  667.314
396.462;  -15.725;  -11.496;  616.609
397.056;  -11.070;   -7.838;  776.621
397.649;  -15.760;   -6.895;  731.575
398.242;  -13.339;   -5.017;  712.645
398.836;  -12.191;   -8.787;  766.408
399.429;  -14.178;   -8.967;  631.041
400.022;  -17.080;   -8.815;  665.902
400.615;  -13.864;   -6.276;  805.609
401.208;  -12.746;   -8.407;  691.451
401.802;  -14.671;   -7.296;  699.329
402.395;  -15.928;   -7.585;  683.502
402.988;  -16.289;   -8.015;  696.627
403.581;  -13.320;   -9.577;  646.878
404.174;  -11.651;   -7.588;  686.568
404.767;  -13.512;   -7.906;  638.583
405.360;  -16.919;   -7.875;  621.445
405.953;  -10.893;   -8.127;  759.034
406.545;   -9.757;   -7.198;  725.342
407.138;  -14.689;   -8.916;  618.350
407.731;  -12.731;   -9.767;  613.303
408.324;   -8.871;  -10.659;  660.554
408.917;  -10.638;   -8.068;  681.864
409.509;  -11.463;   -9.837;  740.396
410.102;  -13.365;   -8.146;  643.948
410.695;   -7.859;   -7.969;  665.758
411.287;   -8.475;   -8.579;  599.821
411.880;   -9.218;   -6.968;  585.421
412.472;  -11.868;   -9.487;  613.092
413.065;   -9.418;  -10.338;  629.408
413.657;   -7.586;   -9.169;  576.678
414.250;   -6.990;  -10.119;  646.681
414.842;   -8.597;   -9.938;  676.353
415.434;   -6.711;  -10.409;  570.463
416.027;   -2.919;   -9.591;  652.196
416.619;   -3.848;   -7.379;  713.400
417.211;   -4.394;   -9.159;  599.352
417.804;   -1.443;   -9.191;  628.499
418.396;   -4.653;   -8.159;  607.643
418.988;   -2.468;   -6.960;  659.238
419.580;   -5.730;  -11.389;  568.276
420.172;   -3.924;  -13.460;  536.196
420.764;    1.233;  -10.701;  672.482
421.356;   -0.467;   -8.961;  636.898
421.948;   -0.952;   -9.770;  677.661
422.540;    4.049;   -8.832;  680.027
423.132;    3.048;   -8.153;  600.641
423.724;    0.321;   -8.481;  561.267
424.316;    2.080;   -9.261;  621.345
424.908;    5.241;   -9.643;  591.517
425.500;    6.215;   -8.663;  647.978
426.092;    8.229;   -8.503;  648.268
426.683;    5.918;  -10.522;  684.836
427.275;    9.302;  -11.734;  641.471
427.867;   10.424;  -10.264;  668.948
428.458;   11.555;   -7.644;  732.344
429.050;    9.343;   -7.853;  680.749
429.642;   10.970;   -8.904;  743.124
430.233;   11.953;  -10.795;  569.356
430.825;   14.014;   -7.665;  724.809
431.416;   12.077;   -8.843;  698.241
432.008;   14.911;   -9.885;  651.723
432.599;   15.824;   -9.966;  656.073
433.190;   12.850;   -9.164;  637.670
433.782;   12.323;   -8.584;  590.395
434.373;   19.959;   -8.296;  884.765
434.964;   17.672;   -9.896;  602.920
435.556;   15.742;   -8.255;  634.537
436.147;   18.949;   -8.075;  758.490
436.738;   19.074;   -9.716;  701.099
437.329;   24.389;   -7.318;  721.723
437.920;   17.495;   -6.694;  666.688
438.511;   17.490;   -9.644;  564.526
439.103;   23.547;   -9.427;  623.998
439.694;   26.030;  -10.748;  681.583
440.285;   27.990;   -7.997;  764.432
440.876;   25.654;  -10.046;  845.738
441.466;   24.083;  -13.467;  575.162
442.057;   29.608;   -9.329;  665.814
442.648;   28.809;   -7.707;  746.255
443.239;   26.284;   -9.017;  620.477
443.830;   30.460;  -10.279;  704.958
444.421;   33.271;  -12.630;  655.474
445.011;   30.352;   -8.697;  693.619
445.602;   30.058;   -7.787;  743.126
446.193;   32.152;  -13.329;  488.117
446.783;   37.263;   -9.171;  640.397
447.374;   32.391;   -7.457;  692.759
447.964;   32.652;   -9.277;  713.770
448.555;   41.479;   -9.041;  822.742
449.145;   37.913;   -8.969;  662.853
449.736;   38.819;   -6.809;  803.179
450.326;   39.310;   -7.229;  713.626
450.917;   43.231;  -11.391;  675.324
451.507;   43.179;   -9.501;  600.661
452.097;   43.633;   -8.460;  746.267
452.688;   45.328;  -10.080;  742.160
453.278;   44.059;  -12.861;  566.840
453.868;   49.373;   -8.372;  793.550
454.458;   47.693;   -8.131;  651.141
455.048;   47.894;   -8.520;  711.783
455.639;   48.839;  -13.632;  567.096
456.229;   53.000;  -10.143;  710.694
456.819;   54.341;   -9.163;  751.158
457.409;   55.387;   -8.652;  773.993
457.999;   57.979;   -9.933;  737.505
458.589;   58.016;  -10.363;  686.606
459.179;   57.871;  -10.633;  717.658
459.769;   56.170;  -12.442;  627.099
460.358;   61.136;   -9.844;  797.262
460.948;   60.093;   -9.924;  689.503
461.538;   63.677;  -10.484;  660.677
462.128;   60.584;  -10.703;  664.934
462.717;   67.281;  -11.486;  710.326
463.307;   70.759;  -10.767;  705.846
463.897;   66.219;   -8.814;  656.942
464.486;   65.449;   -8.182;  837.128
465.076;   69.058;   -9.985;  733.776
465.666;   73.062;  -10.447;  652.900
466.255;   72.329;   -7.754;  785.651
466.845;   70.817;  -10.884;  666.749
467.434;   74.411;  -12.525;  725.873
468.023;   75.355;  -11.456;  658.357
468.613;   73.450;   -9.173;  713.946
469.202;   76.898;   -9.306;  646.507
469.791;   81.223;   -8.917;  737.811
470.381;   83.389;   -9.657;  742.813
470.970;   83.567;   -9.947;  711.099
471.559;   82.750;   -9.256;  733.291
472.148;   85.895;  -13.397;  675.737
472.738;   89.310;   -9.928;  765.466
473.327;   88.965;  -10.897;  637.529
473.916;   88.368;   -8.526;  737.446
474.505;   93.240;  -11.078;  751.703
475.094;   95.489;   -9.559;  806.570
475.683;   95.680;   -8.838;  797.699
476.272;   96.567;  -10.198;  730.632
476.861;   98.993;  -11.489;  706.754
477.449;  105.751;  -10.721;  728.487
478.038;  100.156;   -9.818;  692.513
478.627;  101.148;   -9.887;  714.852
479.216;  108.103;  -10.030;  769.441
479.805;  111.116;   -9.401;  783.375
480.393;  110.624;   -5.739; 1008.945
480.982;  110.183;   -7.838;  874.501
481.571;  117.068;   -9.111;  858.333
482.159;  117.604;  -10.601;  705.386
482.748;  117.521;   -8.500;  821.385
483.336;  122.447;   -9.241;  858.209
483.925;  123.107;  -10.440;  774.373
484.513;  130.890;  -11.063;  758.962
485.102;  127.335;   -9.540;  810.965
485.690;  137.326;   -6.742; 1011.050
486.278;  138.474;   -8.442;  979.329
486.867;  139.732;  -10.472;  809.662
487.455;  141.826;   -8.811;  898.229
488.043;  144.408;  -10.721;  748.361
488.631;  153.521;  -10.393; 1005.079
489.220;  157.211;  -10.843;  908.626
489.808;  159.553;  -10.572;  741.415
490.396;  167.874;  -10.482;  914.645
490.984;  176.179;  -11.542;  830.161
491.572;  189.222;   -8.463;  940.315
492.160;  196.340;   -8.491;  919.081
492.748;  208.167;   -9.681;  884.341
493.336;  231.160;  -10.493; 1019.693
493.924;  266.375;   -9.354;  958.077
494.512;  307.833;   -9.132; 1066.638
495.100;  359.142;   -9.001; 1103.280
495.687;  420.975;  -11.924; 1206.373
496.275;  508.955;  -11.193; 1150.796
496.863;  633.224;   -9.241; 1281.171
497.451;  777.156;  -11.341; 1386.805
498.038;  895.861;  -11.364; 1556.729
498.626; 1033.469;   -8.104; 1741.407
499.214; 1277.849;   -8.842; 2016.609
499.801; 1531.199;  -10.112; 2220.633
500.389; 1767.804;  -11.953; 2312.494
500.976; 2072.265;  -10.023; 2744.849
501.564; 2439.946;   -8.662; 3148.565
502.151; 2896.884;  -10.531; 3515.999
502.738; 3361.709;  -13.853; 3971.274
503.326; 4033.094;  -10.794; 4403.796
503.913; 4705.335;   -8.663; 5161.749
504.500; 5118.996;  -10.172; 5986.420
505.088; 5519.433;  -13.472; 6381.201
505.675; 6420.926;  -10.924; 6925.547
506.262; 7326.934;   -8.551; 7619.060
506.849; 8249.547;  -10.523; 8733.969
507.436; 9077.239;  -10.834; 9790.121
508.023; 9362.713;   -9.093; 9985.472
508.610; 9838.257;  -10.073;10434.618
509.197;10411.864;   -9.500;11198.435
509.784;11869.722;  -13.242;12391.194
510.371;12721.365;  -10.964;13603.713
510.958;12465.376;   -9.772;14426.586
511.545;13628.669;   -7.842;15243.775
512.132;14007.513;  -12.184;15945.876
512.719;14146.492;   -9.733;16340.369
513.305;16242.792;   -9.172;18011.766
513.892;18210.518;   -9.581;19754.971
514.479;20413.527;  -10.253;20967.805
515.066;22885.611;   -8.183;22299.793
515.652;24261.604;   -9.253;22908.660
516.239;25219.465;   -9.412;23798.875
516.825;27560.838;  -11.153;25567.275
517.412;27539.113;  -10.263;28154.959
517.998;28154.930;   -8.802;28344.111
518.585;27925.709;  -10.401;27134.219
519.171;27458.199;  -12.744;27268.576
519.758;29409.967;  -11.793;28964.129
520.344;32047.887;   -8.912;30664.494
520.930;31517.104;  -10.901;32550.605
521.516;32093.000;  -12.034;35422.895
522.103;33169.473;  -10.473;38280.004
522.689;34987.094;   -8.311;37835.117
523.275;38834.281;  -10.691;37288.613
523.861;40083.625;  -11.193;37281.395
524.447;40547.672;  -11.484;37846.949
525.033;40068.953;   -7.702;38321.949
525.619;39728.246;  -11.241;38579.285
526.205;41408.508;  -12.152;40622.875
526.791;40988.891;  -11.423;42258.836
527.377;38170.520;   -7.981;42966.902
527.963;38567.789;   -9.450;42018.949
528.549;42614.059;  -11.351;42476.828
529.135;44318.965;  -10.202;41854.852
529.721;42926.742;   -8.672;41237.711
530.306;41265.262;   -9.111;41259.445
530.892;42814.496;  -11.252;41506.047
531.478;44791.750;  -10.432;43559.613
532.063;47230.449;  -10.721;47695.563
532.649;49244.070;   -7.450;50808.324
533.235;49914.055;  -11.811;51787.500
533.820;50250.156;   -9.383;52145.035
534.406;49473.414;   -9.400;51133.488
534.991;48393.809;   -8.861;49996.805
535.576;46449.078;  -10.612;48882.852
536.162;43999.250;   -7.322;46942.285
536.747;44649.438;   -9.360;45711.746
537.333;46950.902;  -10.450;48510.180
537.918;49095.523;  -12.610;50439.891
538.503;51004.117;  -12.132;50863.711
539.088;48601.320;  -10.831;50906.922
539.673;45482.398;  -11.220;52621.965
540.259;46815.188;  -11.481;52368.094
540.844;50053.680;  -11.462;50879.109
541.429;51890.148;   -7.869;52077.777
542.014;52592.000;  -11.859;52716.695
542.599;51753.969;  -11.061;52363.281
543.184;51230.512;  -12.300;53187.137
543.769;50285.801;   -9.369;54697.605
544.354;50279.617;  -12.020;53913.914
544.938;47070.785;  -10.350;49680.164
545.523;44189.449;  -10.841;47386.277
546.108;46204.891;   -8.579;49151.949
546.693;48840.816;   -8.818;51384.637
547.278;50084.934;  -11.331;51853.254
547.862;46307.313;  -10.292;51173.750
548.447;42028.738;   -8.349;51691.395
549.031;43191.383;  -10.838;52456.703
549.616;48987.844;  -11.681;52714.516
550.201;52342.867;  -11.140;52414.598
550.785;50474.082;   -8.649;52355.059
551.370;50429.828;  -11.889;54589.453
551.954;50078.281;  -11.239;58267.348
552.538;49663.930;   -8.850;59062.176
553.123;50633.148;  -10.829;58115.285
553.707;51223.895;   -8.887;56556.285
554.291;50479.477;  -10.430;56201.668
554.876;48368.066;   -9.799;55335.762
555.460;49559.293;  -10.018;54155.703
556.044;50792.891;   -7.307;53721.484
556.628;47335.680;  -12.229;53731.016
557.212;44168.031;   -9.820;54312.531
557.796;43546.980;   -9.109;53797.773
558.380;45365.949;   -9.707;56145.984
558.964;44400.828;  -10.980;57277.930
559.548;44918.223;  -12.010;56459.641
560.132;48495.543;   -7.928;54434.543
560.716;50114.219;  -10.247;54800.617
561.300;50143.383;  -11.250;57606.945
561.884;51937.500;  -10.568;58972.445
562.467;50396.457;   -9.727;57327.570
563.051;49082.594;  -11.847;54962.434
563.635;47840.348;  -10.747;52594.473
564.219;44333.250;  -13.108;50610.410
564.802;41148.148;  -11.417;49551.180
565.386;42306.094;  -10.457;48370.953
565.969;43889.098;   -8.959;48178.871
566.553;43181.180;  -10.328;49957.305
567.136;42059.484;  -10.257;50369.594
567.720;41857.949;  -10.186;49492.004
568.303;42132.238;  -10.027;50616.352
568.887;43240.352;  -10.397;50727.148
569.470;41545.840;   -8.185;51698.379
570.053;40593.000;  -11.596;52122.078
570.637;40498.766;  -11.378;52536.438
571.220;40224.715;   -9.138;51186.098
571.803;39316.031;   -7.675;51032.762
572.386;37840.172;   -8.976;49609.887
572.969;35494.207;  -12.477;48285.926
573.552;36499.570;   -9.767;47624.285
574.135;36902.176;   -8.175;45498.641
574.718;33570.336;  -11.096;41970.434
575.301;31760.018;  -11.966;41447.137
575.884;29949.699;  -12.836;40923.836
576.467;34132.164;   -9.116;45267.723
577.050;35001.180;  -10.536;48175.543
577.633;35944.039;  -11.027;47729.328
578.216;37202.727;   -9.946;47579.793
578.799;37630.500;   -9.645;47820.996
579.381;38694.125;   -9.446;48115.551
579.964;40155.105;  -12.217;47333.766
580.547;40879.527;  -10.586;46668.969
581.129;41070.426;   -8.374;44466.141
581.712;38881.523;  -10.434;44164.922
582.294;36285.125;  -10.896;46477.855
582.877;36476.090;   -8.906;48244.254
583.459;37697.617;   -9.994;47437.895
584.042;38500.090;  -10.084;46943.219
584.624;38462.152;  -13.534;46792.227
585.206;36485.480;  -12.716;46557.250
585.789;37275.816;  -11.614;45793.773
586.371;35548.031;  -10.203;43836.391
586.953;32722.016;  -10.314;42972.492
587.536;33149.996;   -9.776;42487.211
588.118;34460.684;   -9.821;42086.414
588.700;35746.574;  -10.073;43389.930
589.282;34256.199;  -12.395;43646.039
589.864;33841.996;  -11.514;43438.109
590.446;34067.375;  -10.803;43151.926
591.028;32990.703;  -11.043;42781.867
591.610;33126.457;  -13.244;42839.098
592.192;33032.422;  -11.095;42820.402
592.774;31538.365;  -10.823;40724.277
593.356;30762.287;  -11.052;39874.789
593.937;32176.279;  -11.664;39980.648
594.519;35904.797;  -10.454;42069.633
595.101;38842.348;  -10.322;42976.031
595.683;38100.355;  -10.042;44084.441
596.264;34107.184;  -14.334;43478.797
596.846;35176.711;  -10.863;43803.672
597.427;34304.699;   -9.901;42986.934
598.009;32905.383;  -10.911;42832.219
598.591;33581.754;  -10.483;42580.086
599.172;35185.867;   -9.663;43061.805
599.753;36181.930;  -10.631;41691.469
600.335;36578.820;   -9.371;40692.520
600.916;34378.461;  -13.992;39982.422
601.498;33922.176;   -8.352;40318.617
602.079;34536.637;   -8.411;40670.609
602.660;34084.504;  -10.841;41450.898
603.241;33657.926;  -12.963;41137.738
603.823;34077.570;  -11.523;38868.797
604.404;33707.145;  -11.881;38182.785
604.985;34783.535;  -11.721;38078.047
605.566;34623.953;   -9.293;38056.633
606.147;33196.188;  -10.940;37020.418
606.728;34824.418;  -11.840;37883.359
607.309;35634.863;  -11.781;38748.273
607.890;35812.340;  -11.262;38850.230
608.471;34183.492;  -10.111;37457.918
609.051;34030.512;   -7.709;36066.457
609.632;31368.424;  -12.409;35991.074
610.213;31482.602;  -10.811;37402.641
610.794;32803.305;  -11.630;38383.363
611.374;36512.672;   -8.030;40562.387
611.955;36681.781;  -10.809;38533.727
612.536;35475.543;  -10.531;36951.789
613.116;35482.926;  -12.820;37197.891
613.697;37081.898;  -11.419;38411.125
614.277;38218.621;   -9.768;38673.938
614.858;34625.168;  -10.251;37075.863
615.438;30661.246;  -11.981;35092.906
616.019;28178.064;   -8.978;33666.301
616.599;30509.094;  -12.219;34189.023
617.179;32992.859;  -14.170;36952.047
617.760;34041.109;   -9.211;39582.574
618.340;34058.441;   -9.018;38943.977
618.920;34362.633;   -9.249;37594.156
619.500;34455.066;  -12.728;37866.938
620.080;35041.223;  -12.939;37869.043
620.660;36181.430;  -11.586;36868.617
621.241;35535.113;  -11.538;36352.309
621.821;34039.988;  -11.398;35459.520
622.401;32557.072;  -10.179;35207.414
622.980;32459.807;  -11.587;35980.422
623.560;33846.461;  -12.888;37351.328
624.140;32211.205;  -13.149;34388.582
624.720;27926.535;   -9.928;32368.764
625.300;27550.418;  -10.869;32638.629
625.880;30406.037;   -8.617;34599.035
626.459;31580.434;  -12.138;36831.738
627.039;34140.379;  -12.267;38299.098
627.619;37590.480;   -7.476;38289.574
628.198;38922.090;  -11.347;37220.695
628.778;36046.875;  -11.678;37632.563
629.357;33457.605;  -12.438;38003.012
629.937;32811.992;   -9.576;38402.039
630.516;32453.650;  -11.096;37868.801
631.096;33509.602;  -11.828;35760.410
631.675;34965.746;  -11.565;35225.219
632.254;35522.551;  -11.845;35130.289
632.834;36943.355;  -11.545;35794.570
633.413;36304.160;  -10.887;35788.922
633.992;36154.391;  -10.175;34532.863
634.571;36744.570;   -9.704;33590.113
635.151;34839.434;  -10.815;34943.863
635.730;33263.621;  -11.617;35352.523
636.309;33128.945;  -10.836;35366.605
636.888;33886.410;   -9.755;36165.637
637.467;33923.055;  -11.684;37515.902
638.046;34145.223;  -11.987;39288.695
638.625;33893.266;  -10.455;38279.699
639.204;33691.703;  -11.234;37741.598
639.782;34514.551;  -12.023;38364.551
640.361;32696.027;  -11.506;36740.621
640.940;29288.035;  -12.316;34950.082
641.519;27157.387;  -11.616;34137.398
642.097;29643.730;   -9.266;35654.258
642.676;33465.598;  -12.936;35637.957
643.255;33913.496;   -9.966;36567.074
643.833;34296.988;   -8.916;37809.434
644.412;32426.984;  -10.936;37337.293
644.990;31846.248;  -12.176;37018.531
645.569;32757.680;  -12.246;36518.469
646.147;35867.855;  -12.107;36186.430
646.726;38766.008;  -12.937;36267.688
647.304;35569.023;  -12.547;36647.625
647.882;34235.070;  -12.597;39286.742
648.461;33519.211;   -9.427;39157.703
649.039;33545.242;   -8.937;35412.883
649.617;34300.000;  -11.067;34744.918
650.195;32807.602;  -10.657;35403.098
650.773;30160.252;  -10.097;35053.797
651.352;29495.879;  -11.887;33756.816
651.930;28446.193;  -13.557;31868.773
652.508;28344.494;  -11.767;33121.551
653.086;31199.105;  -10.777;33564.793
653.663;33939.371;  -12.067;34054.668
654.241;36712.789;  -14.918;35693.309
654.819;36289.051;  -11.788;36422.906
655.397;33976.695;  -11.268;38213.484
655.975;32442.840;  -11.738;39507.625
656.553;30889.988;  -11.018;39498.223
657.130;29524.346;  -12.848;40395.480
657.708;28101.338;  -10.098;39242.020
658.286;29108.064;  -11.678;38920.020
658.863;31691.297;  -11.498;40202.898
659.441;34592.410;  -11.008;39677.938
660.018;36420.195;  -11.048;40413.355
660.596;37178.473;  -12.058;39931.414
661.173;37598.980;  -14.158;39604.531
661.750;36887.227;  -12.298;39700.070
662.328;36305.199;  -10.699;39292.809
662.905;35812.770;  -12.119;38235.648
663.482;31833.463;  -11.829;36212.305
664.060;28006.523;  -11.009;35944.945
664.637;31283.998;  -10.369;35170.785
665.214;33940.195;  -10.459;34197.523
665.791;33234.492;  -12.599;34549.520
666.368;30746.279;  -12.919;35118.578
666.945;28991.301;  -10.699;36019.418
667.522;30100.152;  -11.359;36048.438
668.099;30566.570;  -13.529;36243.914
668.676;29534.434;  -10.229;35958.875
669.253;29230.156;   -9.279;37384.730
669.830;28610.393;  -11.370;36779.629
670.407;28090.734;  -10.950;35231.289
670.984;28911.854;  -12.850;35544.270
671.560;27937.498;   -8.440;35466.867
672.137;28973.998;  -13.520;34280.863
672.714;30815.795;  -13.620;34632.863
673.290;31592.320;  -10.450;35135.422
673.867;30535.213;  -10.960;36114.480
674.443;31394.957;  -13.300;36152.859
675.020;29702.336;  -12.370;35327.238
675.596;28957.375;  -11.250;35795.176
676.173;29252.336;  -11.080;35430.355
676.749;28826.736;  -13.220;33549.516
677.326;29863.660;  -13.000;32210.012
677.902;29776.930;  -12.701;32068.871
678.478;28439.539;  -12.801;32583.891
679.054;28881.215;   -8.601;32088.928
679.631;30132.951;  -12.631;30978.848
680.207;31241.287;   -9.451;33160.887
680.783;30425.184;  -11.701;35570.363
681.359;30609.053;  -12.701;36125.184
681.935;32395.871;  -13.271;35240.922
682.511;34460.449;  -10.791;34429.961
683.087;32470.186;  -10.791;34463.680
683.663;29194.201;   -8.121;34648.898
684.239;27151.662;  -13.261;34546.457
684.815;28108.750;  -10.581;35586.375
685.390;29762.178;   -9.961;35821.895
685.966;29067.451;  -11.182;35085.871
686.542;28243.918;  -13.512;34198.230
687.118;26363.656;  -11.472;32847.707
687.693;25335.166;  -10.152;32794.027
688.269;25547.975;  -14.442;33072.367
688.844;24503.283;  -11.852;33141.664
689.420;23477.020;  -13.942;33965.742
689.995;24774.863;   -9.702;34655.523
690.571;26635.502;  -11.312;33576.742
691.146;26880.873;  -14.332;32657.219
691.722;26548.818;  -11.192;32526.979
692.297;27360.852;  -10.962;33014.617
692.872;28777.621;  -11.082;34012.254
693.448;29506.801;  -14.732;34237.434
694.023;28801.080;  -12.363;34142.672
694.598;27068.648;  -12.393;34132.031
695.173;27828.682;  -11.023;34205.250
695.748;29211.686;  -12.743;32882.488
696.323;28588.434;  -11.103;32864.906
696.898;28020.150;   -8.123;33170.004
697.473;27750.781;  -12.603;32432.984
698.048;27994.816;  -12.553;31649.303
698.623;29317.582;  -12.573;30778.141
699.198;28955.279;  -12.743;31140.119
699.773;28173.424;  -12.843;31764.299
700.348;28550.477;  -16.683;31780.816
700.922;29599.367;  -11.403;32046.375
701.497;31214.070;  -11.253;32603.574
702.072;30718.754;  -10.044;34799.871
702.646;30191.941;  -13.054;35793.172
703.221;30898.619;  -11.414;35201.590
703.795;29839.887;  -10.644;34764.527
704.370;27507.752;  -13.484;34307.367
704.944;26665.387;  -12.144;33509.887
705.519;26373.203;  -12.024;31388.584
706.093;28021.006;  -11.234;31340.104
706.668;29086.350;   -9.874;32630.281
707.242;28453.615;  -12.404;32728.779
707.816;26859.914;  -10.644;32947.238
708.390;26301.934;  -11.174;33277.855
708.965;26277.750;  -10.324;33834.336
709.539;27032.992;  -12.014;33709.273
710.113;27273.469;  -12.295;33044.313
710.687;28808.107;  -10.965;31953.992
711.261;30866.027;  -13.685;30505.949
711.835;29372.652;  -15.335;30262.369
712.409;27960.031;  -13.785;31254.447
712.983;27898.795;  -10.525;32754.986
713.557;26065.045;  -13.175;34018.824
714.131;25972.627;  -13.245;34579.625
714.704;29096.314;  -13.175;33890.262
715.278;31515.375;  -11.545;33531.102
715.852;30239.338;  -10.975;33601.660
716.425;28778.816;  -10.075;33515.117
716.999;29326.066;  -12.185;33185.555
717.573;31464.652;   -9.685;33905.996
718.146;31972.555;  -10.516;35199.293
718.720;30647.018;  -12.106;35060.551
719.293;29106.186;  -12.386;34973.230
719.867;29138.711;  -12.456;36394.449
720.440;29114.867;  -10.686;36663.008
721.013;29253.029;  -12.596;35102.426
721.587;30677.066;  -13.956;33985.266
722.160;32524.086;   -9.806;33524.965
722.733;33089.289;  -11.676;32987.043
723.306;32615.145;  -14.276;33066.301
723.880;30621.729;  -12.126;33399.500
724.453;28281.988;  -10.156;33468.297
725.026;27971.107;  -12.956;33816.637
725.599;27982.570;  -11.676;32797.996
726.172;28243.742;  -12.337;33187.434
726.745;28392.537;  -11.277;35136.613
727.318;28395.645;  -11.927;35751.730
727.891;27650.043;  -13.607;35890.430
728.463;25447.678;  -11.327;34822.090
729.036;25298.742;  -11.917;32895.086
729.609;26903.754;  -12.697;31823.225
730.182;27719.496;  -11.787;31445.283
730.754;27454.721;  -12.957;32373.223
731.327;27209.338;  -11.017;33676.820
731.900;26926.004;  -12.797;33417.000
732.472;26237.797;  -10.677;31978.498
733.045;25702.150;  -12.797;30368.777
733.617;25763.969;  -13.908;30574.215
734.190;24605.795;  -12.258;31280.975
734.762;24793.508;  -13.438;31674.412
735.334;26196.098;  -11.758;31247.291
735.907;28927.230;  -11.158;29876.211
736.479;32115.586;  -11.258;29808.488
737.051;32516.184;  -10.918;30233.547
737.623;31408.652;  -11.038;31469.086
738.195;32794.738;  -12.188;31784.225
738.768;30381.314;  -11.378;32120.523
739.340;24515.668;  -12.598;32094.342
739.912;23017.471;  -11.568;31312.680
740.484;24939.150;   -9.348;31946.238
741.056;27456.395;  -12.628;32984.059
741.628;29161.689;  -13.349;33897.715
742.199;28067.129;  -11.309;33213.016
742.771;28373.080;  -12.699;31369.113
743.343;29256.285;  -11.919;31865.473
743.915;28942.574;  -11.679;32388.631
744.487;27320.352;  -12.249;31079.568
745.058;25196.137;  -11.119;30570.107
745.630;24170.527;   -9.439;29970.127
746.201;23566.869;  -11.949;29186.766
746.773;23645.650;  -12.639;28805.723
747.344;24820.543;  -11.039;29591.223
747.916;26871.174;  -12.549;31412.201
748.487;25754.943;  -12.659;32194.898
749.059;24127.434;  -13.059;32533.719
749.630;23430.598;  -12.080;32158.518
750.201;21949.748;  -13.100;30855.395
750.773;21305.766;  -15.310;28622.555
751.344;21144.541;  -12.240;28405.732
751.915;21348.432;  -11.960;28461.551
752.486;20418.723;  -13.200;27842.850
753.057;19072.160;  -15.230;27845.008
753.628;20157.367;  -13.130;27728.107
754.199;22522.488;  -12.720;27381.086
754.770;22693.898;  -10.680;25882.203
755.341;21210.545;  -11.010;25886.184
755.912;20546.469;  -12.990;26050.861
756.483;19955.074;  -11.110;26798.779
757.054;19665.563;  -12.190;27048.238
757.625;19606.078;  -13.981;26294.838
758.195;19704.221;  -11.041;26142.076
758.766;20843.178;  -11.861;26392.234
759.337;21242.420;  -11.461;26334.594
759.907;20487.895;  -15.001;27579.652
760.478;19331.219;   -9.681;28352.770
761.048;18250.762;  -12.421;27325.088
761.619;18949.014;  -11.761;26460.428
762.189;19403.754;  -12.391;26029.826
762.760;18955.029;  -10.201;26430.145
763.330;19757.420;  -10.811;26670.902
763.900;20355.746;  -10.261;26603.021
764.471;19199.736;  -13.061;25542.740
765.041;17618.975;  -11.051;24358.459
765.611;17542.316;  -11.032;23991.297
766.181;17686.332;  -10.532;24470.236
766.751;18073.078;  -13.502;24845.975
767.321;19351.273;  -11.392;24533.633
767.891;21140.459;  -11.522;24916.492
768.461;22218.355;  -13.672;24776.771
769.031;19778.502;  -14.652;24757.988
769.601;17002.084;  -10.182;24181.088
770.171;15747.211;  -11.752;23670.387
770.741;14783.452;  -12.272;22960.045
771.311;14626.479;  -13.112;22917.523
771.880;15645.081;  -14.122;23562.941
772.450;16385.268;  -11.782;24216.500
773.020;16544.172;  -12.642;24140.398
773.589;15728.408;  -13.043;24414.857
774.159;15192.930;  -11.783;23858.717
774.729;15967.450;  -13.473;22942.135
775.298;16566.182;  -14.523;22324.033
775.867;16042.064;  -12.013;21140.313
776.437;15385.249;  -12.113;20838.092
777.006;15148.906;  -13.543;20599.510
777.576;15784.986;  -12.523;20508.809
778.145;15961.544;  -12.173;20732.947
778.714;15255.521;  -12.153;21062.465
779.283;14412.652;  -11.833;20949.664
779.853;14389.056;  -13.483;20508.623
780.422;14433.422;  -12.933;20649.082
780.991;14064.966;  -13.173;21527.520
781.560;13910.166;  -10.224;22632.658
782.129;14297.909;  -12.684;23048.277
782.698;14255.564;  -11.284;23438.555
783.267;14157.811;  -11.684;23267.734
783.836;13977.035;  -10.974;22415.133
784.404;13526.674;  -13.534;20443.152
784.973;12695.136;  -16.734;19699.150
785.542;11605.079;  -12.594;19763.828
786.111;11313.945;  -11.644;20341.408
786.679;12332.120;  -11.384;20207.967
787.248;12618.807;  -12.014;19516.465
787.817;11452.947;  -12.804;18900.363
788.385;10221.339;  -11.994;17879.121
788.954;10522.970;  -12.564;17658.301
789.522;11414.719;  -12.225;17788.879
790.090;11400.663;  -13.775;18118.277
790.659;11264.507;  -12.485;18338.736
791.227;11946.829;  -12.295;18508.615
791.795;12547.458;  -13.415;17898.254
792.364;12918.128;  -12.995;17295.133
792.932;12598.801;   -8.365;16822.051
793.500;11502.151;  -11.925;17040.148
794.068;11597.052;  -13.245;17179.787
794.636;12273.521;  -13.815;16664.246
795.204;12209.560;  -13.375;16524.545
795.772;12011.276;  -12.125;17274.564
796.340;11286.802;  -13.855;17891.002
796.908; 9810.015;  -13.456;17648.561
797.476; 9049.491;  -13.116;17064.080
798.044; 9229.651;  -13.226;16672.777
798.612; 9516.571;  -11.236;17023.996
799.180; 9416.877;  -10.476;16561.615
799.747; 9044.192;  -11.746;15962.773
800.315; 8598.608;  -12.366;15296.992
800.883; 7971.713;  -14.616;14801.771
801.450; 8017.526;  -11.996;14534.430
802.018; 8781.030;  -11.206;14173.248
802.585; 9210.264;  -12.466;14029.547
803.153; 8827.756;  -12.846;13836.846
803.720; 8282.699;  -12.136;13567.324
804.287; 8375.297;  -10.966;13360.622
804.855; 8455.966;   -9.797;13681.981
805.422; 7738.823;  -13.037;13536.560
805.989; 7120.486;  -12.697;13355.958
806.556; 7309.515;  -11.737;13747.896
807.124; 7967.603;  -11.997;13987.376
807.691; 7785.686;  -13.997;14038.674
808.258; 7216.810;  -10.927;14120.152
808.825; 7381.867;  -13.727;13860.111
809.392; 7398.086;  -11.847;13268.790
809.959; 7389.733;  -14.217;12680.389
810.526; 7366.178;   -8.277;12427.308
811.093; 7522.944;   -9.647;12030.105
811.659; 7571.596;  -10.987;11653.664
812.226; 6986.230;  -13.447;11637.183
812.793; 6563.449;  -14.418;11611.521
813.360; 6752.807;  -13.908;11885.181
813.926; 7214.547;  -12.918;12770.539
814.493; 7431.940;  -14.888;12677.638
815.060; 7067.182;  -12.758;11974.336
815.626; 6776.156;  -13.478;11594.715
816.193; 6717.052;  -13.898;11579.474
816.759; 6824.539;  -13.588;11666.972
817.325; 6819.055;  -12.018;11325.530
817.892; 6543.019;  -14.068;11105.369
818.458; 6634.445;  -13.458;10843.928
819.024; 6572.091;  -11.968;10714.406
819.591; 6380.393;  -11.028;10469.165
820.157; 6494.021;  -12.088;10235.523
820.723; 6635.335;  -12.599;10847.563
821.289; 6397.646;  -10.419;11040.980
821.855; 6227.014;  -10.939;10357.100
822.421; 6239.183;  -12.539; 9978.918
822.987; 6232.348;  -13.259; 9754.177
823.553; 6061.407;  -15.369;10065.755
824.119; 5952.145;  -10.779;10036.294
824.685; 5958.268;   -9.999;10029.192
825.251; 5801.144;  -11.819;10199.230
825.816; 5739.430;  -13.369; 9820.189
826.382; 5618.076;  -12.679; 9297.248
826.948; 5186.119;  -11.199; 9381.347
827.513; 5033.394;  -11.179; 9450.726
828.079; 5150.645;  -13.489; 9472.444
828.645; 5288.623;  -12.500; 9292.643
829.210; 5306.335;  -15.120; 9065.341
829.776; 5286.870;  -12.590; 9132.620
830.341; 5424.610;  -11.540; 9092.878
830.906; 5812.266;  -12.400; 9078.557
831.472; 5804.177;  -12.720; 8534.535
832.037; 5108.624;  -11.490; 8677.874
832.602; 4459.111;  -14.380; 8628.692
833.167; 4215.907;  -12.780; 8879.031
833.733; 4487.441;  -11.100; 9189.790
834.298; 4868.337;  -12.080; 9052.608
834.863; 4743.070;  -13.910; 8895.087
835.428; 4463.858;  -13.470; 8824.266
835.993; 4311.419;  -11.760; 8845.385
836.558; 4497.209;  -12.731; 8888.563
837.123; 4653.966;  -12.431; 8966.582
837.688; 4500.256;  -11.241; 8617.860
838.253; 4324.696;  -13.681; 8590.699
838.817; 4447.826;  -12.531; 8443.797
839.382; 4565.156;  -12.671; 8799.356
839.947; 4603.205;  -11.541; 8810.595
840.511; 4711.928;  -12.021; 8796.394
841.076; 4779.635;  -13.071; 8347.231
841.641; 5014.209;  -11.411; 8224.330
842.205; 5304.910;  -13.671; 8223.349
842.770; 5227.912;  -11.291; 8622.107
843.334; 4928.979;  -12.951; 8410.386
843.898; 4646.652;  -11.221; 8337.465
844.463; 4713.590;  -11.322; 8506.283
845.027; 4688.918;  -11.412; 8280.962
845.591; 4419.479;  -11.512; 8231.141
846.156; 4288.726;  -14.042; 7969.179
846.720; 4329.783;  -12.152; 7768.278
847.284; 4127.851;  -10.922; 7630.957
847.848; 3913.171;  -10.962; 7472.395
848.412; 3673.337;  -14.612; 7437.394
848.976; 3674.107;  -11.492; 7674.592
849.540; 3952.871;   -9.172; 7836.011
850.104; 4141.143;  -11.232; 7913.669
850.668; 4053.017;  -15.182; 7694.508
851.232; 3931.203;  -15.332; 7756.887
851.796; 3876.877;  -13.703; 7926.545
852.359; 3939.337;  -11.113; 7827.844
852.923; 4030.414;  -11.843; 7641.163
853.487; 3986.910;  -11.173; 7342.501
854.050; 3847.890;  -13.443; 7042.820
854.614; 3776.634;  -13.823; 7151.338
855.177; 3685.197;  -16.393; 7105.077
855.741; 3626.767;  -11.693; 6989.675
856.304; 3594.091;  -10.843; 6596.634
856.868; 3477.688;  -13.783; 6356.272
857.431; 3260.044;  -11.953; 6468.571
857.995; 2991.676;  -13.683; 6373.210
858.558; 2947.839;  -11.433; 6324.448
859.121; 3048.034;  -12.493; 6408.327
859.684; 2952.394;  -12.384; 6347.886
860.247; 2633.860;  -14.774; 6321.264
860.810; 2391.958;  -13.154; 6301.903
861.374; 2374.022;  -11.264; 6607.881
861.937; 2412.685;  -15.424; 6408.200
862.500; 2385.598;  -12.854; 6572.639
863.062; 2361.912;  -12.344; 6387.297
863.625; 2370.475;  -13.314; 6190.836
864.188; 2449.764;  -14.724; 5807.254
864.751; 2624.879;  -13.464; 5682.413
865.314; 2942.517;  -11.684; 5547.492
865.876; 3137.201;  -11.104; 5500.150
866.439; 3079.086;  -12.344; 5415.909
867.002; 2905.347;  -13.494; 5501.567
867.564; 2658.750;  -10.935; 5413.946
868.127; 2478.243;  -12.665; 5160.325
868.689; 2431.406;  -14.515; 5133.183
869.252; 2474.242;  -13.425; 5252.382
869.814; 2626.913;  -11.595; 5297.141
870.377; 2723.415;  -12.175; 5390.919
870.939; 2619.507;  -10.265; 5599.898
871.501; 2487.759;  -12.375; 5248.336
872.063; 2399.074;  -14.355; 4854.235
872.626; 2319.881;  -14.435; 4817.074
873.188; 2241.881;  -12.415; 4987.732
873.750; 2275.678;  -14.555; 4868.651
874.312; 2221.614;  -11.185; 4779.330
874.874; 2043.833;  -12.715; 4866.348
875.436; 1950.916;  -13.196; 4718.887
875.998; 1932.522;  -11.426; 4660.005
876.560; 1852.408;   -9.786; 4462.964
877.122; 1806.662;  -12.796; 4145.042
877.683; 1799.908;  -13.226; 4056.481
878.245; 1789.275;  -12.036; 3950.740
878.807; 1783.378;  -11.536; 4058.958
879.369; 1768.076;  -10.806; 3954.677
879.930; 1674.936;  -13.946; 3941.495
880.492; 1546.729;  -11.876; 4067.014
881.053; 1515.659;  -13.216; 3859.633
881.615; 1578.147;  -12.226; 3776.071
882.176; 1614.831;  -12.946; 3734.750
882.738; 1554.222;  -10.736; 3678.489
883.299; 1488.735;  -12.057; 3405.407
883.860; 1461.075;  -12.677; 3351.106
884.422; 1423.846;  -14.097; 3394.044
884.983; 1321.373;  -13.667; 3166.443
885.544; 1184.325;  -10.717; 3189.802
886.105; 1086.774;  -14.357; 3160.360
886.666; 1069.344;  -14.287; 3093.059
887.227; 1076.683;  -14.297; 2941.957
887.788; 1071.306;  -13.137; 2974.836
888.349;  990.897;  -14.637; 2721.214
888.910;  912.367;  -12.247; 2696.493
889.471;  903.531;  -10.577; 2560.172
890.032;  900.477;  -12.937; 2558.190
890.593;  854.837;  -12.487; 2567.669
891.153;  789.724;  -11.898; 2460.307
891.714;  780.068;  -14.278; 2372.046
892.275;  788.762;  -13.308; 2309.505
892.835;  739.249;  -12.058; 2382.543
893.396;  662.155;  -15.268; 2295.502
893.956;  606.027;  -13.278; 2162.420
894.517;  570.302;  -11.968; 2125.439
895.077;  557.200;  -12.798; 2086.978
895.638;  537.482;  -11.908; 2126.316
896.198;  513.176;  -13.288; 1838.275
896.758;  489.927;  -12.198; 1892.813
897.319;  464.622;  -13.048; 1792.232
897.879;  425.757;  -13.718; 1762.751
898.439;  387.100;  -14.138; 1661.149
898.999;  375.683;  -13.659; 1781.468
899.559;  364.243;  -14.699; 1703.347
900.119;  340.835;  -14.339; 1537.525
900.679;  317.106;  -11.789; 1638.384
901.239;  294.426;  -13.629; 1527.902
901.799;  278.662;  -13.679; 1456.441
902.359;  264.845;  -13.679; 1357.140
902.919;  254.497;  -14.159; 1331.118
903.479;  245.226;  -13.419; 1317.257
904.038;  235.111;  -14.899; 1262.595
904.598;  222.306;  -14.339; 1152.034
905.158;  215.554;  -13.959; 1240.893
905.717;  213.367;  -12.749; 1233.691
906.277;  205.612;  -11.889; 1217.330
906.836;  198.803;  -12.870; 1222.408
907.396;  195.078;  -11.790; 1193.047
907.955;  192.658;  -13.750; 1182.526
908.515;  186.258;  -14.760; 1099.364
909.074;  179.429;  -12.540; 1092.863
909.633;  172.178;  -12.120; 1069.121
910.192;  171.310;  -12.550; 1196.460
910.752;  168.824;  -12.760; 1029.960
911.311;  165.259;  -14.750; 1009.780
911.870;  160.872;  -13.860;  971.460
912.429;  159.804;  -13.480; 1094.080
912.988;  156.276;  -12.370; 1081.060
913.547;  150.728;  -14.670;  940.380
914.106;  147.801;  -12.800;  999.420
914.665;  147.013;  -11.370;  984.020
915.224;  144.690;  -11.430; 1035.760
915.782;  143.929;  -12.260;  922.560
916.341;  144.735;  -12.540; 1049.840
916.900;  142.143;  -12.540;  925.260
917.458;  141.040;  -13.480;  884.220
918.017;  140.334;  -12.470;  942.600
918.576;  139.073;  -13.450;  904.440
919.134;  137.828;  -12.890;  837.980
919.693;  136.626;  -15.480;  893.060
920.251;  134.282;  -14.420;  876.500
920.809;  133.933;  -12.170;  839.580
921.368;  133.334;  -13.650;  885.360
921.926;  133.771;  -12.750;  842.940
922.484;  133.917;  -14.150;  903.360
923.042;  134.904;  -15.100;  880.340
923.601;  138.415;  -10.990;  998.680
924.159;  138.027;  -12.470;  935.560
924.717;  136.749;  -15.640;  841.080
925.275;  137.372;  -12.380;  903.240
925.833;  137.551;  -12.710;  779.320
926.391;  139.846;  -11.200;  938.380
926.949;  139.374;  -16.000;  857.680
927.506;  141.589;  -12.260;  903.500
928.064;  141.939;  -11.300;  877.580
928.622;  142.205;  -13.750;  880.100
929.180;  141.006;  -15.290;  814.180
929.737;  139.176;  -14.500;  808.540
930.295;  142.734;  -10.630;  928.480
930.853;  144.783;  -14.590;  849.100
931.410;  146.451;  -14.450;  821.120
931.968;  149.387;  -14.390;  940.660
932.525;  149.754;  -13.050;  909.380
933.082;  149.288;  -15.620;  811.440
933.640;  151.463;  -15.650;  925.900
934.197;  153.200;  -13.610;  886.360
934.754;  157.363;  -13.320;  897.780
935.312;  161.829;  -13.370;  863.340
935.869;  164.375;  -12.780; 1012.980
936.426;  162.089;  -14.480;  872.800
936.983;  164.122;  -13.180;  889.020
937.540;  164.336;  -15.710;  838.280
938.097;  165.155;  -14.980;  940.120
938.654;  168.194;  -13.060;  898.860
939.211;  169.033;  -12.760;  952.480
939.768;  168.655;  -16.230;  915.420
940.324;  169.108;  -10.940;  904.200
940.881;  167.708;  -12.570;  878.500
941.438;  166.712;  -13.650; 1021.200
941.995;  167.400;  -13.300;  992.560
942.551;  168.896;  -15.800;  875.620
943.108;  167.396;  -14.180;  937.920
943.664;  166.770;  -13.890;  869.340
944.221;  171.018;  -12.640; 1088.140
944.777;  167.524;  -14.700;  869.680
945.334;  165.426;  -13.010;  884.840
945.890;  167.771;  -13.480;  946.480
946.446;  166.953;  -14.920;  947.020
947.003;  165.094;  -13.860;  964.940
947.559;  165.609;  -12.000; 1063.040
948.115;  165.920;  -10.510; 1026.540
948.671;  165.425;  -12.760;  967.300
949.227;  161.548;  -15.390;  859.560
949.783;  156.680;  -15.570;  858.900
950.339;  157.591;  -12.800;  991.000
950.895;  154.989;  -13.780; 1023.840
951.451;  154.210;  -13.810;  925.280
952.007;  156.273;  -12.390;  998.540
952.563;  156.037;  -11.980;  937.780
953.118;  155.712;  -14.070;  904.940
953.674;  155.722;  -14.140;  935.780
954.230;  159.639;  -12.680;  949.640
954.785;  162.153;  -12.770;  936.640
955.341;  158.995;  -11.450;  998.160
955.897;  150.487;  -15.350;  834.660
956.452;  146.705;  -14.200;  953.840
957.008;  143.143;  -10.820; 1083.640
957.563;  141.415;  -13.200; 1009.540
958.118;  140.718;  -14.460;  877.700
958.674;  141.804;  -13.840;  946.780
959.229;  141.795;  -10.670; 1013.980
959.784;  141.441;  -17.040;  832.400
960.339;  144.660;  -12.970; 1001.280
960.894;  147.156;  -12.700;  963.760
961.449;  150.548;  -13.790;  859.960
962.004;  157.979;  -11.760; 1212.840
962.559;  153.069;  -14.840;  860.140
963.114;  148.326;  -14.530;  742.480
963.669;  146.755;  -12.780;  915.500
964.224;  142.093;  -14.330;  874.340
964.779;  136.803;  -14.380;  828.420
965.334;  133.081;  -12.460; 1017.860
965.888;  129.336;  -13.490;  875.360
966.443;  128.775;  -14.140;  972.380
966.998;  125.850;  -16.240;  819.460
967.552;  125.304;  -12.730;  908.380
968.107;  122.933;  -14.510;  868.300
968.661;  124.583;  -11.850;  922.440
969.216;  120.989;  -14.370;  856.280
969.770;  119.201;  -13.010;  917.200
970.324;  118.464;  -12.460;  923.140
970.879;  119.882;  -11.580;  947.180
971.433;  120.011;  -13.130;  952.720
971.987;  117.962;  -12.360;  895.340
972.541;  115.405;  -14.330;  917.100
973.095;  113.306;  -13.310; 1009.460
973.649;  108.540;  -15.830;  809.480
974.203;  108.860;  -15.830;  829.040
974.757;  111.522;  -13.480;  855.220
975.311;  113.453;  -13.720;  872.600
975.865;  114.549;  -15.780;  881.820
976.419;  113.509;  -14.290;  857.400
976.973;  112.336;  -13.210;  849.620
977.526;  109.365;  -12.300;  949.920
978.080;  103.048;  -14.840;  796.780
978.634;  101.891;  -13.100;  921.320
979.187;   98.908;  -12.300;  905.400
979.741;   98.959;  -12.020; 1018.380
980.294;   95.959;  -14.590;  789.160
980.848;   94.250;  -14.390;  717.220
981.401;   95.264;  -14.280;  816.540
981.955;   94.823;  -11.920;  844.300
982.508;   92.332;  -15.790;  746.340
983.061;   90.664;  -12.070;  915.260
983.615;   88.009;  -13.260;  798.800
984.168;   86.441;  -15.540;  770.080
984.721;   85.572;  -13.230;  880.760
985.274;   82.280;  -11.820;  867.500
985.827;   79.931;  -13.510;  834.220
986.380;   78.856;  -14.840;  721.340
986.933;   80.203;  -13.970;  864.800
987.486;   79.246;  -12.450;  861.920
988.039;   77.720;  -11.170;  863.100
988.591;   75.414;  -13.070;  893.260
989.144;   71.808;  -15.530;  737.260
989.697;   71.109;  -14.300;  758.740
990.250;   69.424;  -13.310;  858.100
990.802;   67.752;  -14.490;  755.860
991.355;   68.858;  -12.980;  974.880
991.907;   66.434;  -13.715;  864.320
992.460;   64.009;  -14.450;  753.760
993.012;   62.647;  -12.590;  749.540
993.565;   61.282;  -15.180;  711.360
994.117;   62.901;  -11.630;  950.780
994.669;   59.261;  -13.760;  701.320
995.221;   59.527;  -12.710;  791.920
995.774;   58.449;  -14.620;  787.580
996.326;   57.050;  -13.150;  740.220
996.878;   57.903;  -12.880;  838.420
997.430;   56.220;  -14.580;  699.860
997.982;   54.839;  -14.030;  750.140
998.534;   54.721;  -12.190;  739.060
999.086;   53.252;  -12.990;  738.220
999.638;   51.546;  -13.180;  661.380
1000.190;   50.663;  -14.970;  699.320
1000.741;   50.426;  -12.200;  742.700
1001.293;   50.655;  -13.400;  686.020
1001.845;   48.952;  -14.490;  676.640
1002.396;   49.557;  -15.280;  743.400
1002.948;   49.601;  -12.380;  737.400
1003.500;   47.892;  -13.260;  723.780
1004.051;   49.835;  -13.730;  907.580
1004.603;   48.268;  -12.300;  791.820
1005.154;   44.130;  -15.330;  608.980
1005.705;   44.495;  -12.800;  723.960
1006.257;   43.719;  -13.900;  707.220
1006.808;   42.423;  -14.430;  685.460
1007.359;   41.892;  -12.010;  763.240
1007.910;   40.037;  -12.690;  646.640
1008.461;   40.630;  -13.610;  732.940
1009.013;   38.823;  -14.990;  588.340
1009.564;   40.274;  -11.860;  793.520
1010.115;   38.316;  -12.640;  597.040
1010.665;   37.743;  -14.570;  602.160
1011.216;   38.325;  -15.190;  667.920
1011.767;   37.180;  -13.470;  697.920
1012.318;   38.193;  -13.760;  736.980
1012.869;   37.043;  -15.950;  679.000
1013.419;   36.296;  -15.880;  603.120
1013.970;   36.150;  -14.540;  666.640
1014.521;   35.794;  -13.220;  620.620
1015.071;   36.099;  -15.020;  670.380
1015.622;   35.251;  -17.510;  635.460
1016.172;   34.481;  -14.130;  596.820
1016.723;   34.910;  -14.220;  614.380
1017.273;   34.193;  -15.370;  604.160
1017.823;   34.595;  -15.290;  650.340
1018.374;   33.708;  -13.420;  611.760
1018.924;   33.430;  -11.740;  716.880
1019.474;   35.450;  -12.250;  718.880
1020.024;   32.547;  -15.850;  657.580
1020.574;   34.100;  -13.280;  726.160
1021.124;   34.214;  -13.560;  673.580
1021.674;   32.260;  -13.790;  559.120
1022.224;   33.085;  -14.610;  708.940
1022.774;   31.849;  -13.100;  668.820
1023.324;   33.320;  -11.470;  753.520
1023.874;   34.881;  -11.990;  875.760
1024.423;   30.929;  -14.550;  613.700
1024.973;   30.829;  -14.440;  610.760
1025.523;   30.927;  -13.250;  620.960
1026.072;   30.222;  -15.200;  606.420
1026.622;   30.740;  -14.590;  675.740
1027.172;   31.042;  -11.080;  715.660
1027.721;   29.838;  -14.010;  601.220
1028.270;   30.820;  -13.690;  663.400
1028.820;   29.656;  -15.380;  638.080
1029.369;   29.355;  -14.980;  612.700
1029.918;   29.749;  -13.100;  649.840
1030.468;   28.949;  -13.680;  564.780
1031.017;   29.990;  -13.770;  634.800
1031.566;   27.864;  -14.100;  608.900
1032.115;   29.140;  -11.770;  694.500
1032.664;   27.973;  -14.940;  596.480
1033.213;   29.193;  -13.370;  735.420
1033.762;   27.684;  -13.660;  635.620
1034.311;   27.664;  -13.650;  677.220
1034.860;   28.158;  -13.820;  691.000
1035.408;   27.975;  -12.860;  722.720
1035.957;   27.551;  -13.060;  719.540
1036.506;   25.507;  -14.510;  530.800
1037.055;   28.936;  -13.470;  844.320
1037.603;   27.107;  -14.800;  664.000
1038.152;   24.822;  -14.190;  534.760
1038.700;   26.000;  -11.810;  585.740
1039.249;   25.798;  -12.850;  681.220
1039.797;   26.159;  -14.610;  633.360
1040.345;   26.051;  -15.220;  705.420
1040.894;   25.441;  -13.480;  625.300
1041.442;   25.544;  -13.310;  632.200
1041.990;   24.194;  -14.510;  559.160
1042.538;   24.074;  -15.700;  536.180
1043.087;   24.352;  -13.910;  570.860
1043.635;   25.526;  -13.620;  670.500
1044.183;   24.374;  -14.230;  586.400
1044.731;   24.102;  -13.730;  576.000
1045.279;   24.154;  -13.970;  674.920
1045.827;   26.531;  -10.750;  892.400
1046.374;   23.110;  -15.230;  515.420
1046.922;   22.490;  -15.390;  590.580
1047.470;   23.906;  -12.320;  691.300
1048.018;   23.396;  -13.230;  647.960
1048.565;   24.584;  -13.390;  708.600
1049.113;   22.250;  -15.030;  557.000
1049.660;   22.065;  -12.540;  629.660
1050.208;   23.160;  -15.040;  675.640
1050.755;   22.009;  -14.680;  606.580
1051.303;   22.328;  -13.610;  686.820
1051.850;   22.694;  -14.340;  635.120
1052.397;   20.304;  -16.330;  473.960
1052.945;   20.840;  -15.710;  617.760
1053.492;   21.858;  -12.320;  741.840
1054.039;   22.336;  -13.730;  720.180
1054.586;   20.312;  -16.140;  557.240
1055.133;   22.045;  -14.020;  693.140
1055.680;   21.871;  -13.430;  646.620
1056.227;   21.015;  -14.570;  542.780
1056.774;   23.407;  -14.400;  794.980
1057.321;   20.511;  -14.230;  523.260
1057.868;   20.196;  -14.220;  651.320
1058.415;   20.585;  -14.060;  651.980
1058.961;   21.409;  -14.640;  678.940
1059.508;   20.026;  -13.970;  643.820
1060.055;   19.175;  -15.100;  581.780
1060.601;   20.315;  -12.180;  624.300
1061.148;   19.903;  -15.010;  616.820
1061.694;   19.546;  -14.750;  592.580
1062.241;   18.901;  -14.130;  596.320
1062.787;   20.074;  -14.770;  663.140
1063.334;   21.154;  -13.130;  808.560
1063.880;   19.719;  -14.420;  668.360
1064.426;   19.614;  -13.130;  706.820
1064.972;   18.255;  -13.960;  601.340
1065.518;   17.437;  -13.680;  566.640
1066.065;   18.947;  -15.720;  624.460
1066.611;   17.261;  -13.970;  598.800
1067.157;   18.188;  -13.920;  641.860
1067.703;   18.236;  -14.760;  668.480
1068.249;   18.272;  -14.490;  605.220
1068.794;   17.353;  -14.740;  626.880
1069.340;   16.745;  -13.220;  578.960
1069.886;   17.490;  -14.930;  590.700
1070.432;   16.529;  -14.700;  541.720
1070.977;   15.749;  -14.470;  601.080
1071.523;   16.515;  -14.330;  573.060
1072.068;   16.897;  -14.960;  582.000
1072.614;   15.953;  -16.220;  527.760
1073.160;   17.172;  -11.280;  687.040
1073.705;   15.276;  -15.990;  572.520
1074.250;   15.881;  -16.550;  559.900
1074.796;   16.744;  -14.600;  655.160
1075.341;   17.071;  -13.440;  664.100
1075.886;   16.185;  -14.450;  594.240
1076.431;   15.843;  -13.160;  649.880
1076.976;   16.594;  -14.710;  639.220
1077.521;   14.899;  -14.000;  583.080
1078.067;   14.534;  -14.470;  579.400
1078.612;   15.203;  -14.530;  661.620
1079.156;   15.120;  -15.660;  601.540
1079.701;   15.022;  -16.120;  693.260
1080.246;   16.022;  -12.960;  696.300
1080.791;   15.662;  -13.700;  625.020
1081.336;   15.714;  -15.540;  659.320
1081.880;   14.555;  -14.640;  649.680
1082.425;   13.641;  -14.220;  573.480
1082.970;   16.031;  -11.890;  717.040
1083.514;   14.260;  -13.820;  597.000
1084.059;   13.229;  -14.280;  586.720
1084.603;   13.289;  -12.890;  565.840
1085.147;   14.020;  -13.590;  645.220
1085.692;   14.792;  -14.050;  716.800
1086.236;   12.515;  -14.990;  503.140
1086.780;   14.787;  -12.640;  751.440
1087.325;   14.330;  -15.550;  654.620
1087.869;   13.383;  -14.980;  610.700
1088.413;   13.926;  -13.440;  705.040
1088.957;   11.948;  -12.170;  543.400
1089.501;   14.471;  -12.730;  766.640
1090.045;   13.748;  -14.650;  726.480
1090.589;   11.114;  -14.500;  569.920
1091.133;   12.444;  -12.320;  673.340
1091.676;   13.209;  -16.130;  591.940
1092.220;   11.986;  -13.930;  600.920
1092.764;   13.339;  -12.820;  706.960
1093.307;   12.359;  -11.700;  673.780
1093.851;   11.166;  -15.600;  556.540
1094.395;   12.952;  -13.920;  683.140
1094.938;   11.116;  -16.090;  632.520
1095.482;   11.352;  -13.820;  559.800
1096.025;   13.035;  -12.720;  710.880
1096.568;   13.293;  -12.100;  779.280
1097.112;    9.811;  -15.450;  508.180
1097.655;   11.690;  -14.310;  603.000
1098.198;   10.225;  -14.740;  600.180
1098.741;   10.676;  -15.550;  612.860
1099.285;   11.485;  -12.600;  657.300
1099.828;    8.939;  -15.050;  439.400
1100.371;   10.272;  -14.800;  608.160
1100.914;   11.573;  -16.480;  682.660
1101.457;   10.403;  -12.990;  679.900
1101.999;    9.185;  -14.110;  584.680
1102.542;   10.753;  -11.450;  641.440
1103.085;   10.074;  -13.350;  658.500
1103.628;   10.718;  -13.200;  762.060
1104.170;    9.137;  -12.310;  588.280
1104.713;   10.284;  -14.320;  646.700
1105.256;    9.427;  -16.110;  557.440
1105.798;    7.361;  -15.910;  499.980
1106.341;   10.536;  -12.200;  728.900
1106.883;    8.874;  -14.910;  521.340
1107.425;    9.685;  -14.960;  668.180
1107.968;    8.168;  -13.440;  612.380
1108.510;    9.764;  -14.010;  684.960
1109.052;    8.336;  -15.430;  612.620
1109.594;    8.242;  -15.290;  554.440
1110.136;    8.667;  -13.360;  643.220
1110.679;    8.084;  -13.820;  633.080
1111.221;    9.076;  -13.690;  604.460
1111.763;    8.119;  -14.890;  559.220
1112.304;    7.123;  -14.550;  547.140
1112.846;    8.595;  -12.760;  666.240
1113.388;   11.713;  -10.780;  942.180
1113.930;    8.242;  -12.690;  694.200
1114.472;    6.681;  -15.730;  606.540
1115.013;    6.598;  -14.620;  551.280
1115.555;    7.456;  -14.950;  587.100
1116.097;    6.735;  -16.460;  579.480
1116.638;    7.083;  -13.730;  684.600
1117.180;    7.768;  -13.810;  667.740
1117.721;    6.691;  -13.280;  568.580
1118.262;    7.639;  -15.080;  677.960
1118.804;    7.752;  -14.040;  637.340
1119.345;    6.169;  -15.430;  578.400
1119.886;    8.301;  -15.240;  704.040
1120.427;    6.285;  -15.820;  589.020
1120.969;    6.128;  -14.550;  597.920
1121.510;    5.443;  -14.030;  563.060
1122.051;    7.274;  -11.990;  723.580
1122.592;    6.535;  -16.490;  655.420
1123.133;    5.261;  -15.580;  547.940
1123.673;    6.801;  -12.850;  706.480
1124.214;    5.904;  -13.630;  612.460
1124.755;    6.742;  -14.830;  639.460
1125.296;    5.601;  -13.110;  627.320
1125.836;    6.212;  -11.320;  691.500
1126.377;    5.535;  -14.330;  599.660
1126.918;    6.052;  -12.800;  614.980
1127.458;    4.701;  -13.580;  622.220
1127.999;    5.817;  -10.330;  656.980
1128.539;    6.278;  -13.390;  694.240
1129.079;    5.331;  -16.420;  632.720
1129.620;    4.685;  -15.700;  558.100
1130.160;    4.335;  -14.790;  539.480
1130.700;    5.391;  -12.910;  640.840
1131.240;    5.953;  -15.610;  643.700
1131.781;    4.125;  -12.920;  619.680
1132.321;    3.960;  -15.300;  599.120
1132.861;    3.844;  -14.760;  564.200
1133.401;    4.157;  -15.470;  593.940
1133.941;    4.790;  -13.710;  626.280
1134.481;    3.894;  -11.820;  597.580
1135.020;    4.333;  -14.810;  609.160
1135.560;    4.882;  -13.660;  674.940
1136.100;    3.040;  -13.940;  501.160
1136.640;    2.972;  -15.410;  510.480
1137.179;    3.571;  -16.920;  537.960
1137.719;    3.827;  -16.430;  605.400
1138.258;    3.254;  -16.300;  587.360
1138.798;    4.422;  -13.710;  663.780
1139.337;    2.864;  -13.840;  482.840
1139.877;    4.291;  -16.140;  642.360
1140.416;    5.101;  -11.410;  878.060
1140.955;    2.809;  -12.820;  535.380
1141.494;    3.693;  -12.310;  669.280
1142.034;    2.664;  -16.280;  583.520
1142.573;    3.357;  -13.090;  646.280
1143.112;    2.251;  -13.770;  553.480
1143.651;    3.021;  -15.830;  536.480
1144.190;    3.780;  -15.010;  691.640
1144.729;    2.432;  -13.650;  607.420
1145.267;    2.961;  -13.670;  584.900
1145.806;    3.881;  -13.630;  637.040
1146.345;    2.955;  -14.160;  635.020
1146.884;    2.081;  -11.180;  622.500
1147.422;    1.149;  -15.890;  533.060
1147.961;    3.679;  -12.760;  708.460
1148.500;    3.178;  -15.220;  669.720
1149.038;    2.896;  -13.720;  632.500
1149.577;    2.760;  -13.250;  698.640
1150.115;    1.103;  -16.790;  452.280
1150.653;    1.908;  -15.810;  607.340
1151.192;    1.644;  -14.730;  552.920
1151.730;    2.148;  -13.660;  652.560
1152.268;    1.632;  -15.120;  589.520
1152.806;    2.030;  -15.580;  571.180
1153.344;    0.839;  -16.210;  577.640
1153.882;    1.552;  -12.810;  600.060
1154.421;   -0.063;  -14.150;  470.620
1154.958;    0.773;  -15.360;  595.240
1155.496;    1.776;  -14.710;  645.280
1156.034;    1.188;  -13.640;  721.880
1156.572;    2.978;  -13.740;  667.060
1157.110;    0.049;  -16.960;  473.940
1157.647;    1.338;  -11.940;  676.960
1158.185;    0.568;  -14.090;  564.320
1158.723;    0.423;  -13.610;  509.200
1159.260;    1.725;  -14.760;  701.700
1159.798;    1.193;  -13.700;  658.160
1160.335;    0.502;  -13.820;  631.820

