
Integration time [ms]:   3.276
Averaging Nr. [scans]: 1000
Smoothing Nr. [pixels]: 0
Data measured with spectrometer [name]: 7414430SP
Wave   ;Sample   ;Dark     ;Reference
[nm]   ;[counts] ;[counts] ;[counts] 

288.544;  150.721;    7.793;  793.890
289.143;  155.255;    7.462;  681.602
289.742;  155.896;    8.602;  828.814
290.341;  141.157;    1.321;  789.841
290.940;  129.923;   -0.709;  730.702
291.538;  131.824;    0.881;  881.108
292.137;  131.159;    0.122;  792.581
292.736;  135.789;   -1.929;  975.101
293.335;  132.772;   -8.229;  735.086
293.934;  132.646;   -5.279;  781.677
294.532;  131.325;   -1.369; 1031.958
295.131;  116.716;   -7.641;  834.394
295.730;  117.337;   -8.420;  809.588
296.328;  116.618;   -5.611;  783.442
296.927;  117.107;   -5.781;  779.652
297.525;  117.848;   -6.361;  781.236
298.124;  109.176;  -11.382;  654.009
298.722;  112.570;   -7.641;  761.933
299.321;  109.661;   -6.811;  708.597
299.919;  107.347;   -6.991;  751.918
300.518;  105.066;  -10.362;  689.338
301.116;  107.652;   -9.581;  691.381
301.715;  106.328;   -4.891;  730.222
302.313;  105.357;   -8.801;  704.943
302.911;  100.742;   -8.522;  733.830
303.509;  105.879;   -6.171;  925.627
304.108;  103.776;   -7.311;  760.383
304.706;  103.484;   -8.321;  801.664
305.304;   97.383;  -10.222;  796.707
305.902;  102.738;   -6.021;  784.484
306.500;   98.851;   -4.971;  728.200
307.098;   97.687;   -7.061;  746.560
307.696;   95.336;   -8.801;  780.432
308.294;   96.098;   -6.411;  731.359
308.892;   97.776;   -2.901;  759.769
309.490;   93.699;   -5.041;  712.161
310.088;   92.129;   -5.002;  788.444
310.686;   96.218;   -2.041;  821.749
311.284;   92.103;   -2.351;  766.040
311.882;   89.419;   -4.422;  731.225
312.480;   87.356;   -4.192;  697.167
313.078;   87.344;   -1.172;  808.331
313.675;   89.772;   -2.601;  691.600
314.273;   83.866;   -1.312;  797.837
314.871;   83.839;   -3.942;  589.829
315.468;   81.947;   -2.802;  652.090
316.066;   84.352;   -0.701;  694.427
316.664;   76.114;   -4.362;  656.351
317.261;   80.965;   -2.872;  910.128
317.859;   76.731;   -2.022;  768.735
318.456;   77.505;   -0.531;  830.096
319.054;   72.585;   -3.912;  787.828
319.651;   72.283;   -4.752;  759.928
320.249;   71.198;   -2.602;  810.188
320.846;   69.190;   -0.821;  714.286
321.443;   66.150;   -4.642;  832.135
322.041;   63.351;   -5.002;  812.315
322.638;   61.448;   -3.982;  701.456
323.235;   62.104;   -3.411;  665.683
323.833;   59.210;   -7.361;  740.354
324.430;   54.771;   -8.611;  615.900
325.027;   55.559;   -4.061;  876.855
325.624;   55.288;   -4.031;  644.532
326.221;   52.681;   -7.481;  689.717
326.818;   52.739;   -5.281;  818.332
327.415;   55.618;   -7.460;  748.828
328.012;   54.764;   -5.510;  690.585
328.609;   52.878;   -7.880;  731.389
329.206;   52.183;   -8.331;  778.621
329.803;   52.289;   -5.121;  737.841
330.400;   54.137;   -4.510;  704.260
330.997;   56.107;   -6.441;  817.147
331.594;   54.544;   -8.831;  788.185
332.191;   59.690;   -7.621;  728.722
332.787;   62.350;   -4.591;  844.463
333.384;   61.865;   -7.412;  763.093
333.981;   59.960;   -8.293;  815.687
334.578;   62.523;   -7.052;  708.378
335.174;   66.097;   -3.102;  731.469
335.771;   65.013;   -5.943;  836.456
336.367;   61.837;   -7.393;  710.631
336.964;   65.375;   -4.063;  793.266
337.561;   64.585;   -3.813;  731.112
338.157;   60.301;   -4.654;  911.916
338.754;   56.641;   -7.934;  796.589
339.350;   55.182;   -4.414;  722.493
339.946;   57.147;   -4.664;  773.135
340.543;   48.886;   -6.375;  846.136
341.139;   43.790;   -9.815;  720.836
341.735;   41.869;   -4.526;  772.593
342.332;   40.142;   -4.895;  691.472
342.928;   39.868;   -4.295;  795.394
343.524;   35.342;   -5.476;  761.684
344.120;   31.057;   -5.856;  738.562
344.716;   33.953;   -2.155;  723.717
345.313;   31.957;   -6.275;  795.342
345.909;   26.782;   -8.815;  627.336
346.505;   28.199;   -5.305;  740.247
347.101;   29.171;   -2.674;  827.864
347.697;   29.370;   -4.344;  785.398
348.293;   23.839;   -9.975;  627.244
348.889;   24.598;   -5.774;  745.914
349.485;   24.364;   -5.004;  688.205
350.081;   24.609;   -4.704;  772.592
350.676;   20.241;   -6.635;  691.606
351.272;   24.415;   -4.504;  809.530
351.868;   24.257;   -3.914;  780.497
352.464;   21.339;   -9.044;  723.932
353.059;   17.836;   -8.314;  646.017
353.655;   20.969;   -7.024;  777.063
354.251;   22.176;   -5.343;  759.845
354.846;   16.734;   -8.604;  740.646
355.442;   14.883;   -6.945;  753.071
356.038;   15.765;   -7.564;  751.708
356.633;   16.670;   -5.814;  728.594
357.229;   14.665;   -7.364;  724.757
357.824;   12.834;   -8.024;  703.600
358.420;   12.179;   -9.384;  679.726
359.015;   12.957;   -5.104;  695.357
359.610;   13.341;   -6.854;  763.920
360.206;    7.286;  -10.185;  603.240
360.801;    9.784;   -7.054;  646.503
361.396;   12.211;   -5.034;  725.975
361.992;    7.983;   -8.284;  668.220
362.587;    5.191;   -8.625;  670.160
363.182;    7.257;   -7.674;  689.631
363.777;    7.862;   -5.164;  738.242
364.372;    7.424;   -8.604;  737.314
364.967;    3.682;   -9.055;  680.744
365.563;    7.966;   -6.114;  815.567
366.158;    4.531;   -5.814;  685.161
366.753;    5.324;   -7.854;  649.263
367.348;    4.297;   -7.804;  746.056
367.942;    4.161;   -7.954;  697.298
368.537;    2.983;   -4.984;  754.245
369.132;    3.120;   -8.564;  703.428
369.727;   -0.915;   -8.855;  638.079
370.322;    0.959;   -6.245;  580.186
370.917;    0.739;   -6.425;  710.646
371.511;    2.465;   -6.294;  861.834
372.106;   -0.961;   -7.685;  776.964
372.701;   -3.418;   -7.335;  585.988
373.296;    1.982;   -4.564;  863.135
373.890;   -2.744;  -10.235;  647.840
374.485;   -4.446;   -7.885;  691.199
375.079;   -1.288;   -7.324;  738.685
375.674;    0.913;   -3.494;  812.970
376.268;   -4.207;   -8.525;  691.759
376.863;   -9.476;  -10.086;  580.327
377.457;   -3.727;   -7.025;  662.490
378.052;   -5.330;   -3.585;  764.884
378.646;   -6.610;   -7.595;  741.167
379.240;   -5.630;   -8.335;  721.176
379.835;   -5.706;   -5.785;  636.978
380.429;   -7.565;   -4.335;  562.557
381.023;   -7.623;   -6.805;  779.205
381.617;  -10.524;   -9.195;  680.106
382.212;   -6.127;   -6.905;  685.303
382.806;   -5.776;   -3.745;  760.690
383.400;   -9.831;   -7.745;  672.281
383.994;  -10.840;   -9.765;  664.870
384.588;   -6.889;   -6.564;  697.701
385.182;   -5.801;   -5.344;  726.624
385.776;   -6.921;   -8.514;  706.875
386.370;  -10.107;   -9.555;  681.968
386.964;   -8.753;   -8.715;  684.155
387.558;   -7.670;   -6.174;  598.360
388.152;  -11.026;   -8.725;  681.959
388.745;   -9.445;   -7.965;  814.707
389.339;   -7.786;   -5.924;  747.642
389.933;   -6.244;   -5.524;  695.370
390.527;   -7.998;   -7.114;  859.029
391.120;  -13.825;  -10.725;  595.318
391.714;  -10.148;   -8.035;  711.633
392.308;   -7.760;   -3.574;  780.253
392.901;  -11.704;   -7.245;  642.460
393.495;  -13.434;   -9.285;  595.414
394.089;  -10.988;   -5.895;  760.452
394.682;  -11.566;   -4.295;  697.188
395.275;  -12.211;   -9.875;  719.927
395.869;  -12.735;   -8.485;  667.314
396.462;  -11.211;   -7.455;  616.609
397.056;   -7.380;   -5.424;  776.621
397.649;  -12.595;   -6.605;  731.575
398.242;   -9.574;   -8.224;  712.645
398.836;   -8.613;   -7.474;  766.408
399.429;  -10.557;   -7.094;  631.041
400.022;  -14.047;   -9.475;  665.902
400.615;  -10.996;   -7.145;  805.609
401.208;   -9.367;   -7.174;  691.451
401.802;  -10.884;   -5.515;  699.329
402.395;  -12.411;   -9.875;  683.502
402.988;  -13.903;   -8.845;  696.627
403.581;  -10.770;   -8.874;  646.878
404.174;   -7.953;   -5.324;  686.568
404.767;  -10.877;   -9.575;  638.583
405.360;  -13.717;  -10.965;  621.445
405.953;   -7.335;   -8.764;  759.034
406.545;   -7.728;   -7.514;  725.342
407.138;  -11.965;  -10.025;  618.350
407.731;  -10.308;  -10.034;  613.303
408.324;   -6.377;   -9.374;  660.554
408.917;   -7.276;   -6.534;  681.864
409.509;   -8.861;   -8.004;  740.396
410.102;  -10.951;   -9.875;  643.948
410.695;   -5.142;   -8.604;  665.758
411.287;   -6.385;   -6.794;  599.821
411.880;   -7.401;   -9.334;  585.421
412.472;   -9.493;  -10.254;  613.092
413.065;   -7.861;   -6.714;  629.408
413.657;   -5.402;   -7.234;  576.678
414.250;   -5.072;  -10.544;  646.681
414.842;   -7.081;   -9.744;  676.353
415.434;   -4.993;   -6.994;  570.463
416.027;   -0.389;   -5.893;  652.196
416.619;   -2.852;   -7.264;  713.400
417.211;   -3.953;  -10.374;  599.352
417.804;    0.777;   -7.993;  628.499
418.396;   -3.193;   -7.234;  607.643
418.988;   -1.887;   -9.443;  659.238
419.580;   -4.890;  -10.724;  568.276
420.172;   -3.204;  -10.323;  536.196
420.764;    2.165;   -8.793;  672.482
421.356;    0.925;  -11.143;  636.898
421.948;   -0.106;   -8.293;  677.661
422.540;    5.024;   -7.893;  680.027
423.132;    4.119;   -7.082;  600.641
423.724;    1.076;   -8.653;  561.267
424.316;    2.664;  -10.213;  621.345
424.908;    6.459;   -9.762;  591.517
425.500;    7.923;   -5.572;  647.978
426.092;    7.887;   -8.422;  648.268
426.683;    6.090;   -9.283;  684.836
427.275;   10.289;   -7.852;  641.471
427.867;   10.802;   -5.272;  668.948
428.458;   10.889;   -7.682;  732.344
429.050;   10.312;  -10.612;  680.749
429.642;   12.221;   -9.882;  743.124
430.233;   13.813;   -6.962;  569.356
430.825;   14.173;   -6.842;  724.809
431.416;   11.339;   -9.672;  698.241
432.008;   16.256;   -6.552;  651.723
432.599;   16.328;   -6.891;  656.073
433.190;   12.411;  -10.912;  637.670
433.782;   12.604;  -11.172;  590.395
434.373;   19.806;   -6.061;  884.765
434.964;   18.213;   -8.251;  602.920
435.556;   15.076;   -9.722;  634.537
436.147;   18.525;   -9.082;  758.490
436.738;   19.076;   -8.041;  701.099
437.329;   24.382;   -7.341;  721.723
437.920;   17.069;   -8.162;  666.688
438.511;   17.498;  -11.802;  564.526
439.103;   23.882;  -10.191;  623.998
439.694;   25.446;   -7.601;  681.583
440.285;   25.885;   -8.541;  764.432
440.876;   24.545;   -9.751;  845.738
441.466;   25.038;   -9.401;  575.162
442.057;   29.240;   -7.760;  665.814
442.648;   28.743;   -9.971;  746.255
443.239;   26.024;  -11.001;  620.477
443.830;   31.683;   -7.990;  704.958
444.421;   33.482;   -7.910;  655.474
445.011;   29.457;   -8.131;  693.619
445.602;   29.091;   -7.111;  743.126
446.193;   31.763;  -10.920;  488.117
446.783;   35.481;   -6.500;  640.397
447.374;   31.853;   -8.671;  692.759
447.964;   31.876;  -10.781;  713.770
448.555;   40.746;   -9.650;  822.742
449.145;   37.653;   -8.660;  662.853
449.736;   37.959;   -8.990;  803.179
450.326;   38.115;   -9.500;  713.626
450.917;   42.932;   -8.680;  675.324
451.507;   42.745;   -7.520;  600.661
452.097;   42.941;   -8.590;  746.267
452.688;   43.955;  -11.340;  742.160
453.278;   43.514;  -10.100;  566.840
453.868;   48.152;   -6.019;  793.550
454.458;   46.461;   -9.440;  651.141
455.048;   47.021;  -10.560;  711.783
455.639;   49.047;  -11.799;  567.096
456.229;   51.539;   -6.899;  710.694
456.819;   53.221;   -7.389;  751.158
457.409;   53.692;  -11.119;  773.993
457.999;   56.670;   -9.289;  737.505
458.589;   56.803;   -6.139;  686.606
459.179;   56.267;   -8.729;  717.658
459.769;   54.574;   -9.789;  627.099
460.358;   60.290;  -10.259;  797.262
460.948;   60.104;   -7.299;  689.503
461.538;   60.731;  -10.289;  660.677
462.128;   58.773;  -11.269;  664.934
462.717;   66.320;   -9.368;  710.326
463.307;   69.463;   -7.908;  705.846
463.897;   64.950;   -9.599;  656.942
464.486;   63.774;   -9.769;  837.128
465.076;   69.060;   -8.048;  733.776
465.666;   72.221;   -9.358;  652.900
466.255;   69.926;   -7.919;  785.651
466.845;   69.032;  -11.689;  666.749
467.434;   72.661;   -7.818;  725.873
468.023;   73.621;   -7.678;  658.357
468.613;   70.919;  -10.939;  713.946
469.202;   75.479;  -10.118;  646.507
469.791;   80.354;   -9.108;  737.811
470.381;   81.823;   -6.058;  742.813
470.970;   81.426;  -10.428;  711.099
471.559;   80.681;  -10.268;  733.291
472.148;   85.562;   -8.448;  675.737
472.738;   86.982;   -6.917;  765.466
473.327;   86.811;  -11.978;  637.529
473.916;   86.895;  -11.888;  737.446
474.505;   90.768;   -9.437;  751.703
475.094;   94.544;   -6.747;  806.570
475.683;   93.949;   -9.367;  797.699
476.272;   94.279;  -12.637;  730.632
476.861;   96.993;  -10.027;  706.754
477.449;  103.483;   -8.716;  728.487
478.038;   97.839;   -9.577;  692.513
478.627;   99.516;   -9.718;  714.852
479.216;  105.993;   -8.947;  769.441
479.805;  109.401;   -6.256;  783.375
480.393;  108.109;   -7.937; 1008.945
480.982;  108.054;   -7.717;  874.501
481.571;  114.119;   -9.266;  858.333
482.159;  115.776;   -7.636;  705.386
482.748;  114.823;   -9.667;  821.385
483.336;  119.818;  -10.376;  858.209
483.925;  120.897;   -7.147;  774.373
484.513;  127.508;   -7.996;  758.962
485.102;  124.794;  -10.027;  810.965
485.690;  132.694;  -10.446; 1011.050
486.278;  134.911;   -8.446;  979.329
486.867;  136.598;   -6.356;  809.662
487.455;  137.735;   -9.136;  898.229
488.043;  139.678;  -10.646;  748.361
488.631;  148.315;   -7.456; 1005.079
489.220;  152.235;   -6.636;  908.626
489.808;  152.496;  -11.036;  741.415
490.396;  161.188;  -10.246;  914.645
490.984;  168.090;   -8.556;  830.161
491.572;  178.447;   -5.886;  940.315
492.160;  185.387;   -9.486;  919.081
492.748;  198.284;  -10.976;  884.341
493.336;  223.370;   -8.776; 1019.693
493.924;  251.551;   -5.465;  958.077
494.512;  282.514;   -9.986; 1066.638
495.100;  323.261;  -10.636; 1103.280
495.687;  380.000;  -10.885; 1206.373
496.275;  448.615;   -8.126; 1150.796
496.863;  518.846;  -10.586; 1281.171
497.451;  625.383;  -11.926; 1386.805
498.038;  772.500;  -10.885; 1556.729
498.626;  889.816;   -6.315; 1741.407
499.214; 1043.215;   -7.326; 2016.609
499.801; 1250.844;  -11.906; 2220.633
500.389; 1521.332;  -10.466; 2312.494
500.976; 1862.611;   -5.236; 2744.849
501.564; 2313.801;   -8.936; 3148.565
502.151; 2702.697;  -13.176; 3515.999
502.738; 3194.196;  -10.646; 3971.274
503.326; 3621.573;   -9.525; 4403.796
503.913; 4023.161;  -10.856; 5161.749
504.500; 4364.758;  -11.586; 5986.420
505.088; 4853.706;  -10.336; 6381.201
505.675; 5427.906;   -6.355; 6925.547
506.262; 6107.877;   -9.046; 7619.060
506.849; 6898.846;  -10.416; 8733.969
507.436; 7418.279;  -10.305; 9790.121
508.023; 8006.754;   -5.496; 9985.472
508.610; 8278.854;   -7.856;10434.618
509.197; 8972.654;  -10.097;11198.435
509.784;10478.438;  -10.886;12391.194
510.371;11603.158;   -9.315;13603.713
510.958;12399.719;   -9.936;14426.586
511.545;13207.184;   -9.326;15243.775
512.132;14098.135;  -10.075;15945.876
512.719;14654.671;   -7.796;16340.369
513.305;15631.195;  -10.606;18011.766
513.892;16419.744;  -11.486;19754.971
514.479;17948.617;   -9.126;20967.805
515.066;19647.025;   -6.026;22299.793
515.652;20937.025;   -8.466;22908.660
516.239;22124.082;  -10.886;23798.875
516.825;23253.762;  -11.496;25567.275
517.412;24347.705;   -5.796;28154.959
517.998;25252.916;  -10.506;28344.111
518.585;25371.396;  -10.076;27134.219
519.171;25576.441;   -8.315;27268.576
519.758;26679.992;   -8.596;28964.129
520.344;28721.652;   -8.466;30664.494
520.930;29202.836;  -11.006;32550.605
521.516;30923.029;  -10.495;35422.895
522.103;33649.320;   -5.526;38280.004
522.689;34493.613;   -8.746;37835.117
523.275;34122.016;  -11.376;37288.613
523.861;35001.211;  -11.156;37281.395
524.447;36176.469;   -8.135;37846.949
525.033;35613.707;   -7.896;38321.949
525.619;35875.051;  -12.476;38579.285
526.205;37700.145;   -9.516;40622.875
526.791;40789.180;   -6.926;42258.836
527.377;40850.879;   -8.346;42966.902
527.963;42707.328;   -8.717;42018.949
528.549;41427.730;  -11.016;42476.828
529.135;39694.488;   -8.536;41854.852
529.721;39061.605;   -9.666;41237.711
530.306;38497.559;  -10.066;41259.445
530.892;38517.324;  -11.356;41506.047
531.478;40008.855;   -6.596;43559.613
532.063;42544.234;   -8.836;47695.563
532.649;42809.844;  -10.047;50808.324
533.235;44136.035;   -9.746;51787.500
533.820;45548.586;   -6.566;52145.035
534.406;46531.773;  -10.817;51133.488
534.991;45985.688;   -9.416;49996.805
535.576;44594.660;   -9.036;48882.852
536.162;45039.305;   -6.156;46942.285
536.747;46141.926;  -11.607;45711.746
537.333;49724.660;  -11.787;48510.180
537.918;53256.977;  -12.437;50439.891
538.503;51886.578;   -7.196;50863.711
539.088;48366.023;  -10.556;50906.922
539.673;48272.074;   -8.767;52621.965
540.259;48036.621;  -10.026;52368.094
540.844;45208.828;   -7.416;50879.109
541.429;45909.762;   -9.467;52077.777
542.014;49440.828;   -9.527;52716.695
542.599;49590.824;   -9.946;52363.281
543.184;46569.039;   -7.927;53187.137
543.769;47468.281;   -9.297;54697.605
544.354;47069.324;  -10.127;53913.914
544.938;46218.211;   -9.267;49680.164
545.523;48460.785;   -6.506;47386.277
546.108;50716.422;   -9.787;49151.949
546.693;53059.879;  -11.587;51384.637
547.278;52963.051;  -10.986;51853.254
547.862;49697.313;   -8.206;51173.750
548.447;45122.590;  -10.067;51691.395
549.031;44301.895;   -9.637;52456.703
549.616;48940.203;   -9.926;52714.516
550.201;48217.949;   -6.347;52414.598
550.785;49073.113;   -7.917;52355.059
551.370;48423.777;  -10.867;54589.453
551.954;48312.793;   -9.047;58267.348
552.538;49900.676;   -7.827;59062.176
553.123;48331.969;  -10.287;58115.285
553.707;45653.508;  -12.178;56556.285
554.291;46109.672;   -8.717;56201.668
554.876;47887.781;   -7.457;55335.762
555.460;48692.602;  -10.387;54155.703
556.044;50831.754;   -9.618;53721.484
556.628;48985.930;  -11.567;53731.016
557.212;47422.551;   -8.097;54312.531
557.796;45337.508;  -11.077;53797.773
558.380;45668.250;  -11.108;56145.984
558.964;46929.410;   -9.057;57277.930
559.548;48091.367;   -6.977;56459.641
560.132;45786.094;  -11.457;54434.543
560.716;44488.035;  -11.378;54800.617
561.300;45258.602;   -9.577;57606.945
561.884;46349.719;   -7.127;58972.445
562.467;45178.047;   -7.118;57327.570
563.051;44699.238;  -13.358;54962.434
563.635;45229.387;  -10.178;52594.473
564.219;45458.488;   -7.837;50610.410
564.802;46200.406;  -11.398;49551.180
565.386;46499.992;  -12.788;48370.953
565.969;46290.953;   -9.077;48178.871
566.553;45084.219;   -6.207;49957.305
567.136;45208.258;   -8.568;50369.594
567.720;41432.137;  -11.868;49492.004
568.303;39570.652;   -8.268;50616.352
568.887;39565.902;   -8.698;50727.148
569.470;39808.926;   -6.808;51698.379
570.053;38782.906;  -13.188;52122.078
570.637;37278.402;  -12.037;52536.438
571.220;36803.246;   -8.577;51186.098
571.803;37002.141;   -8.498;51032.762
572.386;39011.977;  -10.498;49609.887
572.969;41884.828;   -9.388;48285.926
573.552;40473.715;   -8.338;47624.285
574.135;39282.754;   -8.518;45498.641
574.718;36690.773;  -13.628;41970.434
575.301;35445.078;  -10.893;41447.137
575.884;34199.383;   -8.158;40923.836
576.467;35337.523;  -10.328;45267.723
577.050;37578.137;  -13.058;48175.543
577.633;39336.613;   -9.458;47729.328
578.216;38247.902;   -8.928;47579.793
578.799;37171.184;   -9.358;47820.996
579.381;35789.184;  -11.388;48115.551
579.964;34076.824;  -11.718;47333.766
580.547;35516.566;   -8.588;46668.969
581.129;36244.754;   -8.859;44466.141
581.712;36651.559;  -10.729;44164.922
582.294;37411.949;  -11.118;46477.855
582.877;37799.715;   -5.218;48244.254
583.459;35732.246;   -8.679;47437.895
584.042;33919.453;  -10.709;46943.219
584.624;34350.992;  -11.669;46792.227
585.206;33755.379;   -8.218;46557.250
585.789;33778.410;  -10.569;45793.773
586.371;36893.617;  -11.859;43836.391
586.953;37752.566;  -10.719;42972.492
587.536;38605.066;   -7.198;42487.211
588.118;38718.324;   -8.720;42086.414
588.700;34921.770;  -10.439;43389.930
589.282;33862.254;   -9.198;43646.039
589.864;34605.742;   -9.199;43438.109
590.446;36030.742;  -11.319;43151.926
591.028;36058.645;  -11.159;42781.867
591.610;34985.898;  -11.779;42839.098
592.192;31859.225;   -7.668;42820.402
592.774;30119.553;  -11.949;40724.277
593.356;28951.848;  -12.129;39874.789
593.937;28379.598;  -10.669;39980.648
594.519;30432.387;   -6.509;42069.633
595.101;32835.242;  -10.849;42976.031
595.683;33106.109;  -11.679;44084.441
596.264;34108.805;   -9.049;43478.797
596.846;33087.762;   -8.849;43803.672
597.427;32477.711;   -9.570;42986.934
598.009;34357.336;  -12.620;42832.219
598.591;34785.105;  -10.039;42580.086
599.172;33919.906;  -10.369;43061.805
599.753;34009.688;   -9.140;41691.469
600.335;35731.457;  -11.430;40692.520
600.916;34289.367;   -9.939;39982.422
601.498;31645.955;   -8.479;40318.617
602.079;30130.398;  -10.920;40670.609
602.660;29878.090;  -11.480;41450.898
603.241;31154.770;  -11.699;41137.738
603.823;30121.711;   -9.579;38868.797
604.404;29843.762;  -10.620;38182.785
604.985;31316.410;  -10.450;38078.047
605.566;30737.674;   -9.129;38056.633
606.147;30586.635;   -7.510;37020.418
606.728;32744.033;  -10.660;37883.359
607.309;31782.664;  -11.740;38748.273
607.890;30955.578;   -9.759;38850.230
608.471;30624.189;   -8.250;37457.918
609.051;29997.518;   -9.240;36066.457
609.632;28926.756;  -12.120;35991.074
610.213;29658.539;   -9.110;37402.641
610.794;30247.857;   -8.030;38383.363
611.374;29473.078;   -8.110;40562.387
611.955;29928.115;  -13.560;38533.727
612.536;31598.547;  -11.400;36951.789
613.116;31221.559;   -8.070;37197.891
613.697;31560.887;  -10.830;38411.125
614.277;29881.402;  -11.641;38673.938
614.858;30778.523;  -13.310;37075.863
615.438;30268.498;   -7.460;35092.906
616.019;27512.662;   -7.601;33666.301
616.599;28205.318;  -12.020;34189.023
617.179;30238.674;  -11.780;36952.047
617.760;30941.141;   -8.570;39582.574
618.340;32109.996;  -11.471;38943.977
618.920;33759.871;  -11.170;37594.156
619.500;33385.441;  -11.071;37866.938
620.080;32429.982;   -7.750;37869.043
620.660;33256.379;  -12.711;36868.617
621.241;34189.047;  -10.211;36352.309
621.821;34371.004;  -10.961;35459.520
622.401;34002.586;   -7.720;35207.414
622.980;33042.879;   -8.981;35980.422
623.560;31431.512;   -9.331;37351.328
624.140;30482.389;   -9.850;34388.582
624.720;25683.967;   -7.451;32368.764
625.300;21950.691;   -9.070;32638.629
625.880;25204.434;  -12.601;34599.035
626.459;29009.863;  -11.751;36831.738
627.039;32088.064;   -9.281;38299.098
627.619;32174.086;   -8.801;38289.574
628.198;30453.004;  -12.071;37220.695
628.778;29632.697;   -9.461;37632.563
629.357;30411.369;   -8.491;38003.012
629.937;30359.900;   -9.721;38402.039
630.516;29691.305;   -9.951;37868.801
631.096;29575.064;  -11.731;35760.410
631.675;32400.279;   -8.572;35225.219
632.254;37708.047;  -11.282;35130.289
632.834;37042.625;  -13.322;35794.570
633.413;35188.645;  -10.301;35788.922
633.992;32240.088;   -8.582;34532.863
634.571;33217.973;   -8.352;33590.113
635.151;36147.750;  -11.912;34943.863
635.730;34670.340;  -10.511;35352.523
636.309;31223.076;   -7.731;35366.605
636.888;28435.957;   -9.952;36165.637
637.467;29003.949;  -11.672;37515.902
638.046;30965.814;   -8.901;39288.695
638.625;34186.898;   -7.912;38279.699
639.204;33982.152;  -10.022;37741.598
639.782;32079.371;  -12.252;38364.551
640.361;28438.447;  -10.041;36740.621
640.940;25633.908;  -11.161;34950.082
641.519;25971.982;   -9.701;34137.398
642.097;28471.240;  -11.271;35654.258
642.676;31566.211;   -8.651;35637.957
643.255;32796.059;   -8.711;36567.074
643.833;31822.846;   -9.581;37809.434
644.412;32046.908;  -13.711;37337.293
644.990;31347.357;  -11.811;37018.531
645.569;31106.094;   -9.411;36518.469
646.147;30000.695;  -10.291;36186.430
646.726;29285.318;  -12.401;36267.688
647.304;30558.537;  -10.411;36647.625
647.882;32578.688;   -9.651;39286.742
648.461;34268.914;   -9.631;39157.703
649.039;32835.547;  -11.881;35412.883
649.617;32199.502;   -9.661;34744.918
650.195;31854.467;   -9.301;35403.098
650.773;30727.727;  -10.511;35053.797
651.352;28013.682;  -11.521;33756.816
651.930;25539.922;  -12.211;31868.773
652.508;23898.297;   -9.171;33121.551
653.086;27804.279;   -9.371;33564.793
653.663;30991.568;  -13.161;34054.668
654.241;29594.898;  -13.031;35693.309
654.819;31133.938;   -9.371;36422.906
655.397;31178.055;  -10.511;38213.484
655.975;30920.277;  -10.371;39507.625
656.553;31024.787;  -10.051;39498.223
657.130;29397.457;  -10.061;40395.480
657.708;28647.510;   -9.561;39242.020
658.286;28642.053;  -11.511;38920.020
658.863;29820.773;  -10.261;40202.898
659.441;32597.492;   -7.531;39677.938
660.018;31812.586;   -9.501;40413.355
660.596;30717.125;  -13.301;39931.414
661.173;32774.297;  -11.211;39604.531
661.750;33012.348;   -9.951;39700.070
662.328;31903.154;   -9.390;39292.809
662.905;31050.395;  -11.330;38235.648
663.482;26759.480;   -9.050;36212.305
664.060;24720.422;   -8.240;35944.945
664.637;27315.973;  -10.050;35170.785
665.214;29218.344;  -11.760;34197.523
665.791;31081.807;  -10.530;34549.520
666.368;29660.377;   -9.690;35118.578
666.945;30098.811;   -9.320;36019.418
667.522;31806.305;  -11.860;36048.438
668.099;32090.047;  -10.770;36243.914
668.676;31456.174;   -6.260;35958.875
669.253;29805.730;   -7.000;37384.730
669.830;30135.461;  -10.190;36779.629
670.407;29812.070;   -9.550;35231.289
670.984;29997.713;   -9.260;35544.270
671.560;30365.723;   -9.280;35466.867
672.137;29045.424;  -11.810;34280.863
672.714;29749.730;  -11.490;34632.863
673.290;30164.574;   -7.740;35135.422
673.867;30180.336;  -10.660;36114.480
674.443;30718.861;  -12.230;36152.859
675.020;29245.691;  -10.450;35327.238
675.596;30115.109;   -9.260;35795.176
676.173;30474.971;  -10.780;35430.355
676.749;30088.541;  -13.690;33549.516
677.326;30255.754;  -11.980;32210.012
677.902;30480.559;   -8.630;32068.871
678.478;29649.932;  -10.730;32583.891
679.054;29279.893;  -10.520;32088.928
679.631;30154.762;  -11.920;30978.848
680.207;31126.818;   -7.490;33160.887
680.783;32376.447;   -9.860;35570.363
681.359;31522.930;  -13.380;36125.184
681.935;30664.072;  -12.480;35240.922
682.511;29561.777;   -7.900;34429.961
683.087;29431.969;   -7.710;34463.680
683.663;29191.475;  -11.480;34648.898
684.239;28442.131;  -14.090;34546.457
684.815;28209.645;   -7.560;35586.375
685.390;28630.699;   -9.910;35821.895
685.966;29155.314;  -11.159;35085.871
686.542;31832.182;  -11.169;34198.230
687.118;33924.281;   -5.959;32847.707
687.693;33964.535;  -10.329;32794.027
688.269;33171.320;  -12.059;33072.367
688.844;31135.559;  -10.909;33141.664
689.420;29209.518;   -8.019;33965.742
689.995;26963.488;   -8.399;34655.523
690.571;25688.955;  -10.949;33576.742
691.146;26216.422;   -9.619;32657.219
691.722;25518.594;   -8.999;32526.979
692.297;25111.342;  -11.589;33014.617
692.872;27047.557;  -11.739;34012.254
693.448;26635.578;  -11.059;34237.434
694.023;25820.059;  -10.139;34142.672
694.598;28065.422;   -9.029;34132.031
695.173;28433.582;  -13.319;34205.250
695.748;27991.814;  -10.169;32882.488
696.323;27928.736;   -8.339;32864.906
696.898;27827.316;   -8.169;33170.004
697.473;27470.193;  -12.309;32432.984
698.048;27118.301;  -10.989;31649.303
698.623;27419.408;   -9.329;30778.141
699.198;29217.844;   -9.849;31140.119
699.773;30133.592;  -12.329;31764.299
700.348;28653.717;  -10.389;31780.816
700.922;28841.432;   -9.269;32046.375
701.497;29398.125;   -9.329;32603.574
702.072;29479.496;  -10.789;34799.871
702.646;28556.182;  -10.839;35793.172
703.221;26489.805;   -9.099;35201.590
703.795;28502.217;  -10.939;34764.527
704.370;28948.367;  -12.859;34307.367
704.944;29199.371;  -11.559;33509.887
705.519;30289.348;   -7.939;31388.584
706.093;31481.248;  -10.499;31340.104
706.668;31752.787;  -11.289;32630.281
707.242;30363.637;  -11.509;32728.779
707.816;28694.383;   -9.639;32947.238
708.390;27324.596;  -11.429;33277.855
708.965;28189.641;  -11.869;33834.336
709.539;28680.416;  -11.689;33709.273
710.113;29247.676;  -10.478;33044.313
710.687;28685.066;  -10.228;31953.992
711.261;26460.908;  -13.698;30505.949
711.835;26080.791;  -13.378;30262.369
712.409;26920.635;   -9.698;31254.447
712.983;28527.105;  -11.898;32754.986
713.557;29508.771;  -15.138;34018.824
714.131;29261.941;  -14.098;34579.625
714.704;28330.576;   -9.958;33890.262
715.278;25897.674;  -10.028;33531.102
715.852;25240.527;  -11.148;33601.660
716.425;26179.090;   -9.068;33515.117
716.999;26726.922;  -10.038;33185.555
717.573;27700.188;   -9.798;33905.996
718.146;28978.859;  -12.378;35199.293
718.720;28560.695;  -11.918;35060.551
719.293;27833.666;   -8.088;34973.230
719.867;30725.521;  -10.888;36394.449
720.440;30863.068;  -11.938;36663.008
721.013;29470.707;  -12.818;35102.426
721.587;28102.078;  -10.298;33985.266
722.160;26456.531;  -10.048;33524.965
722.733;25444.986;  -12.108;32987.043
723.306;26204.414;  -10.818;33066.301
723.880;28416.049;   -8.908;33399.500
724.453;30231.354;   -9.878;33468.297
725.026;29122.918;  -11.188;33816.637
725.599;26377.768;  -11.678;32797.996
726.172;26722.240;   -9.618;33187.434
726.745;28088.760;   -8.258;35136.613
727.318;29708.332;  -12.978;35751.730
727.891;30402.631;  -12.148;35890.430
728.463;30261.697;   -8.968;34822.090
729.036;29109.518;  -10.188;32895.086
729.609;29193.201;  -11.788;31823.225
730.182;25907.242;  -11.788;31445.283
730.754;23457.191;  -10.268;32373.223
731.327;23562.498;   -9.998;33676.820
731.900;23603.061;  -12.228;33417.000
732.472;24972.930;  -13.848;31978.498
733.045;27220.328;   -8.698;30368.777
733.617;27188.637;  -10.607;30574.215
734.190;26622.791;  -11.507;31280.975
734.762;23835.119;  -13.647;31674.412
735.334;22232.502;   -9.767;31247.291
735.907;22583.082;   -9.897;29876.211
736.479;22363.324;  -11.637;29808.488
737.051;22105.859;   -9.567;30233.547
737.623;23575.988;   -8.187;31469.086
738.195;24667.303;  -11.187;31784.225
738.768;26437.033;  -12.337;32120.523
739.340;26345.637;  -12.227;32094.342
739.912;25052.422;  -11.057;31312.680
740.484;23891.430;  -10.207;31946.238
741.056;22812.602;  -10.047;32984.059
741.628;24476.738;  -13.627;33897.715
742.199;26820.430;   -7.177;33213.016
742.771;25166.592;  -10.797;31369.113
743.343;22800.598;  -11.997;31865.473
743.915;21613.061;  -12.867;32388.631
744.487;21729.332;   -7.617;31079.568
745.058;22020.068;   -9.557;30570.107
745.630;22807.400;   -9.877;29970.127
746.201;23744.822;  -14.177;29186.766
746.773;24030.750;   -9.237;28805.723
747.344;23856.672;   -9.847;29591.223
747.916;22346.490;  -11.657;31412.201
748.487;22151.260;  -10.587;32194.898
749.059;23375.561;   -8.707;32533.719
749.630;24515.834;  -10.537;32158.518
750.201;23620.920;  -11.687;30855.395
750.773;21905.137;  -11.647;28622.555
751.344;22010.566;   -7.147;28405.732
751.915;23016.635;   -9.757;28461.551
752.486;22261.105;  -12.427;27842.850
753.057;19919.207;  -12.227;27845.008
753.628;18809.582;  -10.417;27728.107
754.199;20038.328;  -11.767;27381.086
754.770;21274.303;  -11.187;25882.203
755.341;21283.783;  -10.507;25886.184
755.912;21457.924;   -9.387;26050.861
756.483;20705.348;  -10.647;26798.779
757.054;18787.826;  -11.837;27048.238
757.625;17523.768;  -12.716;26294.838
758.195;17323.377;   -9.666;26142.076
758.766;16997.848;   -8.656;26392.234
759.337;17870.980;  -12.856;26334.594
759.907;19818.432;  -13.366;27579.652
760.478;20679.221;   -8.576;28352.770
761.048;20120.850;  -10.526;27325.088
761.619;19365.893;  -11.116;26460.428
762.189;19225.504;  -12.136;26029.826
762.760;20173.260;   -9.456;26430.145
763.330;21385.844;   -7.136;26670.902
763.900;20789.988;  -11.786;26603.021
764.471;18050.770;  -11.546;25542.740
765.041;16808.279;   -8.096;24358.459
765.611;17090.471;   -8.876;23991.297
766.181;17579.551;  -12.196;24470.236
766.751;18310.467;  -11.636;24845.975
767.321;18228.041;  -10.156;24533.633
767.891;16335.910;  -11.766;24916.492
768.461;15722.945;  -14.936;24776.771
769.031;16183.540;  -12.356;24757.988
769.601;17860.740;   -7.526;24181.088
770.171;17800.834;  -10.766;23670.387
770.741;16814.514;  -13.176;22960.045
771.311;16944.051;  -10.616;22917.523
771.880;17299.416;   -9.576;23562.941
772.450;16772.254;  -10.336;24216.500
773.020;16678.395;  -13.516;24140.398
773.589;16365.898;  -13.466;24414.857
774.159;15919.256;   -8.686;23858.717
774.729;15496.646;   -9.476;22942.135
775.298;14995.641;  -13.666;22324.033
775.867;14638.352;  -11.716;21140.313
776.437;14734.866;   -9.906;20838.092
777.006;14409.577;  -12.166;20599.510
777.576;14357.745;  -12.356;20508.809
778.145;14580.560;  -11.646;20732.947
778.714;14476.796;   -8.226;21062.465
779.283;13636.303;   -9.556;20949.664
779.853;13167.418;  -14.116;20508.623
780.422;13601.986;  -11.506;20649.082
780.991;13190.667;   -9.556;21527.520
781.560;12174.017;   -9.095;22632.658
782.129;11974.472;  -12.135;23048.277
782.698;11947.952;  -10.865;23438.555
783.267;11600.985;   -9.335;23267.734
783.836;11549.971;  -11.045;22415.133
784.404;12536.928;  -13.865;20443.152
784.973;12958.679;  -13.095;19699.150
785.542;12788.681;  -11.575;19763.828
786.111;12625.873;   -9.705;20341.408
786.679;12252.989;  -12.105;20207.967
787.248;12076.899;  -12.455;19516.465
787.817;11877.809;  -11.535;18900.363
788.385;11446.866;   -9.765;17879.121
788.954;10818.835;  -14.005;17658.301
789.522;10366.822;  -11.955;17788.879
790.090;10946.363;  -10.135;18118.277
790.659;11355.953;  -10.975;18338.736
791.227;10768.721;  -13.375;18508.615
791.795;11180.516;  -12.375;17898.254
792.364;11610.725;  -10.725;17295.133
792.932;11927.013;   -9.715;16822.051
793.500;12114.473;  -12.675;17040.148
794.068;12377.640;  -13.495;17179.787
794.636;12511.343;  -10.885;16664.246
795.204;11957.477;  -11.045;16524.545
795.772;11960.588;  -13.175;17274.564
796.340;11461.402;  -12.445;17891.002
796.908;11259.978;   -9.735;17648.561
797.476;11247.584;   -9.815;17064.080
798.044;10836.271;  -13.985;16672.777
798.612;10022.021;  -13.115;17023.996
799.180; 9694.457;  -10.185;16561.615
799.747; 9596.613;   -9.055;15962.773
800.315; 9303.043;  -12.385;15296.992
800.883; 8972.396;  -15.035;14801.771
801.450; 8915.712;  -10.365;14534.430
802.018; 8938.321;   -9.855;14173.248
802.585; 8988.396;  -11.905;14029.547
803.153; 9037.376;  -11.585;13836.846
803.720; 8975.322;   -9.095;13567.324
804.287; 8650.638;   -9.135;13360.622
804.855; 8209.512;  -11.604;13681.981
805.422; 8062.299;  -11.794;13536.560
805.989; 8022.782;  -10.734;13355.958
806.556; 8149.979;  -10.444;13747.896
807.124; 8424.024;  -12.764;13987.376
807.691; 8368.788;  -12.964;14038.674
808.258; 8187.388;  -11.134;14120.152
808.825; 7874.924;   -9.854;13860.111
809.392; 7931.954;  -10.504;13268.790
809.959; 7460.557;  -13.054;12680.389
810.526; 7044.185;   -8.294;12427.308
811.093; 7108.184;   -8.394;12030.105
811.659; 7733.053;  -12.304;11653.664
812.226; 8188.471;  -13.944;11637.183
812.793; 7854.610;  -10.484;11611.521
813.360; 7200.173;  -10.144;11885.181
813.926; 6793.577;  -11.684;12770.539
814.493; 6519.153;  -13.644;12677.638
815.060; 6156.274;   -9.724;11974.336
815.626; 6211.322;   -9.854;11594.715
816.193; 6634.266;  -13.254;11579.474
816.759; 6691.592;  -13.204;11666.972
817.325; 6812.123;   -9.434;11325.530
817.892; 7134.581;  -10.134;11105.369
818.458; 7522.747;  -13.474;10843.928
819.024; 7203.276;  -11.854;10714.406
819.591; 6845.644;  -10.244;10469.165
820.157; 6567.284;  -10.704;10235.523
820.723; 6050.841;  -12.324;10847.563
821.289; 5768.448;   -9.444;11040.980
821.855; 5712.182;   -8.374;10357.100
822.421; 5760.742;  -10.234; 9978.918
822.987; 5736.781;  -13.294; 9754.177
823.553; 5415.938;  -10.884;10065.755
824.119; 5251.639;   -8.884;10036.294
824.685; 5349.216;   -6.784;10029.192
825.251; 5430.382;  -12.004;10199.230
825.816; 5370.324;  -11.474; 9820.189
826.382; 5147.826;   -9.174; 9297.248
826.948; 5341.934;   -9.214; 9381.347
827.513; 5750.582;  -10.774; 9450.726
828.079; 5589.434;  -11.924; 9472.444
828.645; 5026.821;  -10.543; 9292.643
829.210; 4925.903;  -10.533; 9065.341
829.776; 4892.574;  -10.753; 9132.620
830.341; 4753.562;  -10.173; 9092.878
830.906; 4909.227;  -10.743; 9078.557
831.472; 5271.118;  -11.113; 8534.535
832.037; 5056.786;  -10.603; 8677.874
832.602; 4514.434;  -13.323; 8628.692
833.167; 4203.917;  -10.823; 8879.031
833.733; 4146.878;  -10.113; 9189.790
834.298; 4256.667;  -13.583; 9052.608
834.863; 4276.617;  -12.703; 8895.087
835.428; 4240.665;  -10.523; 8824.266
835.993; 4157.727;   -6.963; 8845.385
836.558; 4039.181;  -10.763; 8888.563
837.123; 4143.233;   -9.903; 8966.582
837.688; 4335.868;   -9.913; 8617.860
838.253; 4526.345;  -10.283; 8590.699
838.817; 4718.863;  -12.963; 8443.797
839.382; 4658.651;  -14.243; 8799.356
839.947; 4356.751;  -10.733; 8810.595
840.511; 4053.875;   -9.383; 8796.394
841.076; 3702.108;  -12.563; 8347.231
841.641; 3743.436;  -12.953; 8224.330
842.205; 3830.966;   -7.043; 8223.349
842.770; 3937.394;   -8.163; 8622.107
843.334; 4158.217;  -12.503; 8410.386
843.898; 4157.726;  -11.693; 8337.465
844.463; 4196.989;  -10.203; 8506.283
845.027; 3970.870;   -9.533; 8280.962
845.591; 3777.134;  -13.443; 8231.141
846.156; 3786.762;  -13.143; 7969.179
846.720; 3662.859;   -9.433; 7768.278
847.284; 3538.403;  -11.033; 7630.957
847.848; 3372.752;  -10.403; 7472.395
848.412; 3276.802;  -11.553; 7437.394
848.976; 3324.895;   -8.393; 7674.592
849.540; 3271.454;   -8.713; 7836.011
850.104; 3358.754;  -12.463; 7913.669
850.668; 3697.566;  -12.973; 7694.508
851.232; 3821.021;  -10.793; 7756.887
851.796; 3647.705;  -10.662; 7926.545
852.359; 3340.771;  -13.082; 7827.844
852.923; 3187.523;  -12.192; 7641.163
853.487; 3019.013;  -11.912; 7342.501
854.050; 2941.573;  -10.892; 7042.820
854.614; 3074.482;  -13.992; 7151.338
855.177; 3194.006;  -11.732; 7105.077
855.741; 3246.945;   -8.962; 6989.675
856.304; 3146.625;   -9.442; 6596.634
856.868; 3075.913;  -14.192; 6356.272
857.431; 3187.602;  -12.702; 6468.571
857.995; 3301.781;   -9.942; 6373.210
858.558; 3312.102;   -9.112; 6324.448
859.121; 3064.112;  -12.932; 6408.327
859.684; 2951.989;  -13.442; 6347.886
860.247; 3073.627;  -10.632; 6321.264
860.810; 3063.278;  -11.272; 6301.903
861.374; 2826.166;   -9.832; 6607.881
861.937; 2573.525;  -11.762; 6408.200
862.500; 2544.501;   -9.722; 6572.639
863.062; 2690.234;  -10.512; 6387.297
863.625; 2865.375;  -11.232; 6190.836
864.188; 3028.977;  -14.112; 5807.254
864.751; 3078.963;  -11.302; 5682.413
865.314; 2970.514;  -10.112; 5547.492
865.876; 2797.527;  -12.182; 5500.150
866.439; 2796.362;  -10.722; 5415.909
867.002; 2752.603;   -9.252; 5501.567
867.564; 2539.790;   -9.572; 5413.946
868.127; 2326.802;  -13.142; 5160.325
868.689; 2240.891;  -12.902; 5133.183
869.252; 2177.986;   -9.732; 5252.382
869.814; 2091.869;   -9.432; 5297.141
870.377; 2108.907;  -11.552; 5390.919
870.939; 2181.532;   -9.052; 5599.898
871.501; 2234.146;  -10.982; 5248.336
872.063; 2231.824;  -12.292; 4854.235
872.626; 2193.937;  -14.912; 4817.074
873.188; 2200.544;  -13.112; 4987.732
873.750; 2156.546;  -13.442; 4868.651
874.312; 2063.288;   -9.402; 4779.330
874.874; 1976.732;  -11.062; 4866.348
875.436; 1900.009;  -13.931; 4718.887
875.998; 1894.313;   -9.561; 4660.005
876.560; 1905.178;  -11.321; 4462.964
877.122; 1849.137;  -12.221; 4145.042
877.683; 1756.406;  -12.191; 4056.481
878.245; 1683.002;  -12.101; 3950.740
878.807; 1713.664;   -8.971; 4058.958
879.369; 1730.402;  -12.071; 3954.677
879.930; 1640.419;  -14.621; 3941.495
880.492; 1584.215;  -10.311; 4067.014
881.053; 1556.600;  -10.901; 3859.633
881.615; 1443.162;  -14.411; 3776.071
882.176; 1354.010;  -13.761; 3734.750
882.738; 1324.288;   -9.181; 3678.489
883.299; 1300.977;  -11.791; 3405.407
883.860; 1299.438;  -13.121; 3351.106
884.422; 1310.078;  -11.211; 3394.044
884.983; 1268.702;  -10.091; 3166.443
885.544; 1174.414;   -8.461; 3189.802
886.105; 1095.025;  -12.361; 3160.360
886.666; 1029.462;  -14.141; 3093.059
887.227;  970.462;  -11.361; 2941.957
887.788;  907.146;  -11.401; 2974.836
888.349;  846.426;  -13.791; 2721.214
888.910;  846.615;  -13.191; 2696.493
889.471;  857.871;   -9.881; 2560.172
890.032;  843.655;   -9.881; 2558.190
890.593;  817.645;  -10.371; 2567.669
891.153;  789.009;  -13.301; 2460.307
891.714;  742.322;  -11.431; 2372.046
892.275;  706.276;  -11.291; 2309.505
892.835;  669.701;  -11.471; 2382.543
893.396;  612.817;  -11.541; 2295.502
893.956;  557.695;  -11.181; 2162.420
894.517;  522.453;  -11.741; 2125.439
895.077;  515.983;  -11.671; 2086.978
895.638;  515.871;  -11.311; 2126.316
896.198;  487.755;   -9.831; 1838.275
896.758;  445.039;   -8.421; 1892.813
897.319;  412.927;  -12.351; 1792.232
897.879;  396.275;  -13.511; 1762.751
898.439;  370.887;  -12.001; 1661.149
898.999;  345.222;  -10.180; 1781.468
899.559;  336.123;  -12.030; 1703.347
900.119;  331.607;  -15.710; 1537.525
900.679;  328.707;   -8.900; 1638.384
901.239;  316.930;   -8.340; 1527.902
901.799;  305.645;  -13.910; 1456.441
902.359;  298.816;  -13.460; 1357.140
902.919;  292.976;  -11.490; 1331.118
903.479;  278.418;  -12.110; 1317.257
904.038;  256.616;  -11.720; 1262.595
904.598;  241.079;  -13.610; 1152.034
905.158;  237.389;  -11.040; 1240.893
905.717;  230.338;  -10.900; 1233.691
906.277;  220.476;  -15.080; 1217.330
906.836;  210.733;  -13.380; 1222.408
907.396;  203.988;  -10.780; 1193.047
907.955;  197.321;   -8.500; 1182.526
908.515;  191.258;  -12.760; 1099.364
909.074;  184.794;  -11.900; 1092.863
909.633;  179.043;   -8.950; 1069.121
910.192;  173.920;   -8.770; 1196.460
910.752;  169.459;  -12.390; 1029.960
911.311;  165.526;  -13.680; 1009.780
911.870;  164.385;  -12.370;  971.460
912.429;  163.824;  -10.900; 1094.080
912.988;  162.010;  -11.690; 1081.060
913.547;  157.190;  -13.240;  940.380
914.106;  152.953;  -11.990;  999.420
914.665;  149.013;   -9.990;  984.020
915.224;  148.475;  -12.880; 1035.760
915.782;  149.212;  -12.350;  922.560
916.341;  149.005;   -9.110; 1049.840
916.900;  144.153;   -9.270;  925.260
917.458;  142.820;  -13.240;  884.220
918.017;  141.331;  -13.550;  942.600
918.576;  140.558;  -12.320;  904.440
919.134;  138.896;  -11.490;  837.980
919.693;  137.697;  -13.670;  893.060
920.251;  135.360;  -15.470;  876.500
920.809;  134.160;  -11.290;  839.580
921.368;  134.442;  -10.210;  885.360
921.926;  132.557;  -12.140;  842.940
922.484;  131.895;  -13.080;  903.360
923.042;  131.204;  -11.720;  880.340
923.601;  134.579;   -7.480;  998.680
924.159;  132.927;  -11.570;  935.560
924.717;  128.921;  -13.840;  841.080
925.275;  129.412;  -10.640;  903.240
925.833;  129.683;  -11.540;  779.320
926.391;  130.005;  -12.960;  938.380
926.949;  128.219;  -14.130;  857.680
927.506;  128.535;  -11.750;  903.500
928.064;  128.867;  -10.250;  877.580
928.622;  127.804;  -13.030;  880.100
929.180;  127.214;  -13.400;  814.180
929.737;  128.828;  -10.700;  808.540
930.295;  131.944;  -10.070;  928.480
930.853;  133.315;  -11.960;  849.100
931.410;  134.360;  -13.120;  821.120
931.968;  134.228;  -10.770;  940.660
932.525;  133.600;  -10.680;  909.380
933.082;  133.276;  -13.130;  811.440
933.640;  134.933;  -13.210;  925.900
934.197;  132.715;  -11.060;  886.360
934.754;  133.399;   -9.580;  897.780
935.312;  136.050;  -14.000;  863.340
935.869;  139.704;  -10.710; 1012.980
936.426;  140.448;   -9.860;  872.800
936.983;  141.523;   -9.710;  889.020
937.540;  141.171;  -13.990;  838.280
938.097;  140.086;  -14.040;  940.120
938.654;  140.298;  -10.310;  898.860
939.211;  142.749;  -10.560;  952.480
939.768;  146.136;  -13.900;  915.420
940.324;  149.320;  -14.760;  904.200
940.881;  149.489;  -10.370;  878.500
941.438;  150.707;   -8.260; 1021.200
941.995;  146.301;  -12.540;  992.560
942.551;  144.446;  -14.670;  875.620
943.108;  143.905;  -10.450;  937.920
943.664;  147.226;  -10.750;  869.340
944.221;  149.064;  -11.550; 1088.140
944.777;  147.399;  -14.770;  869.680
945.334;  149.686;  -12.820;  884.840
945.890;  150.979;  -10.130;  946.480
946.446;  151.755;  -13.470;  947.020
947.003;  152.957;  -12.120;  964.940
947.559;  155.435;   -9.980; 1063.040
948.115;  154.327;   -9.080; 1026.540
948.671;  151.323;  -10.830;  967.300
949.227;  148.913;  -12.440;  859.560
949.783;  146.311;  -12.910;  858.900
950.339;  147.992;  -10.270;  991.000
950.895;  147.875;  -13.630; 1023.840
951.451;  147.624;  -15.100;  925.280
952.007;  149.036;  -11.330;  998.540
952.563;  150.446;  -10.580;  937.780
953.118;  148.890;  -13.440;  904.940
953.674;  148.617;  -12.710;  935.780
954.230;  148.017;  -10.350;  949.640
954.785;  146.075;   -9.190;  936.640
955.341;  144.260;  -11.200;  998.160
955.897;  141.915;  -16.560;  834.660
956.452;  143.096;  -12.570;  953.840
957.008;  141.870;   -7.970; 1083.640
957.563;  140.124;  -11.940; 1009.540
958.118;  135.027;  -13.450;  877.700
958.674;  135.614;  -12.030;  946.780
959.229;  136.381;   -9.410; 1013.980
959.784;  134.384;  -12.000;  832.400
960.339;  132.356;  -14.780; 1001.280
960.894;  129.956;   -9.860;  963.760
961.449;  126.518;   -9.970;  859.960
962.004;  126.978;  -10.900; 1212.840
962.559;  121.281;  -13.150;  860.140
963.114;  119.622;  -13.740;  742.480
963.669;  119.335;   -9.820;  915.500
964.224;  117.556;  -13.890;  874.340
964.779;  117.119;  -12.600;  828.420
965.334;  117.930;  -10.950; 1017.860
965.888;  117.451;  -11.170;  875.360
966.443;  119.569;  -12.540;  972.380
966.998;  118.751;  -15.780;  819.460
967.552;  118.015;   -9.760;  908.380
968.107;  113.962;   -9.060;  868.300
968.661;  115.493;  -11.950;  922.440
969.216;  115.758;  -12.800;  856.280
969.770;  116.679;  -11.210;  917.200
970.324;  115.069;  -11.610;  923.140
970.879;  111.950;  -11.370;  947.180
971.433;  108.915;  -12.540;  952.720
971.987;  103.887;  -11.320;  895.340
972.541;  100.722;  -10.720;  917.100
973.095;  100.991;   -9.680; 1009.460
973.649;   99.576;  -11.440;  809.480
974.203;   99.066;  -11.210;  829.040
974.757;   98.713;  -10.240;  855.220
975.311;   99.508;  -13.720;  872.600
975.865;   98.499;  -13.770;  881.820
976.419;   96.953;  -11.690;  857.400
976.973;   96.639;   -9.510;  849.620
977.526;   99.223;  -12.620;  949.920
978.080;   97.793;  -12.010;  796.780
978.634;   98.778;  -10.170;  921.320
979.187;   96.697;   -9.020;  905.400
979.741;   94.450;   -9.820; 1018.380
980.294;   89.321;  -14.870;  789.160
980.848;   86.990;  -12.380;  717.220
981.401;   90.249;  -10.350;  816.540
981.955;   91.603;  -13.720;  844.300
982.508;   89.870;  -11.490;  746.340
983.061;   90.660;  -10.000;  915.260
983.615;   86.246;  -11.480;  798.800
984.168;   83.930;  -13.220;  770.080
984.721;   83.538;  -13.960;  880.760
985.274;   83.088;  -10.870;  867.500
985.827;   81.391;   -9.790;  834.220
986.380;   79.294;  -13.120;  721.340
986.933;   77.628;  -12.450;  864.800
987.486;   76.786;  -10.210;  861.920
988.039;   75.159;   -8.430;  863.100
988.591;   74.486;  -10.520;  893.260
989.144;   71.233;  -14.860;  737.260
989.697;   70.118;  -13.080;  758.740
990.250;   71.250;  -10.150;  858.100
990.802;   70.921;  -13.430;  755.860
991.355;   70.792;  -12.750;  974.880
991.907;   68.881;  -12.040;  864.320
992.460;   66.969;  -11.330;  753.760
993.012;   66.369;  -13.610;  749.540
993.565;   64.725;  -13.460;  711.360
994.117;   66.586;   -9.360;  950.780
994.669;   63.298;  -11.300;  701.320
995.221;   61.031;  -13.540;  791.920
995.774;   58.843;  -13.430;  787.580
996.326;   57.820;  -12.520;  740.220
996.878;   57.440;  -10.950;  838.420
997.430;   54.908;  -14.300;  699.860
997.982;   54.075;  -13.760;  750.140
998.534;   54.236;  -11.530;  739.060
999.086;   52.052;  -10.310;  738.220
999.638;   51.427;  -12.530;  661.380
1000.190;   50.787;  -11.840;  699.320
1000.741;   50.260;  -10.260;  742.700
1001.293;   50.139;   -8.860;  686.020
1001.845;   48.945;  -13.700;  676.640
1002.396;   48.904;  -12.100;  743.400
1002.948;   48.186;  -12.760;  737.400
1003.500;   46.528;  -10.380;  723.780
1004.051;   47.187;  -11.900;  907.580
1004.603;   46.160;  -12.250;  791.820
1005.154;   42.549;  -13.210;  608.980
1005.705;   41.198;  -10.950;  723.960
1006.257;   40.313;  -13.880;  707.220
1006.808;   40.451;  -12.840;  685.460
1007.359;   39.888;  -10.570;  763.240
1007.910;   38.519;   -9.620;  646.640
1008.461;   39.206;  -13.630;  732.940
1009.013;   37.431;  -17.200;  588.340
1009.564;   38.851;  -10.200;  793.520
1010.115;   36.625;  -12.570;  597.040
1010.665;   36.328;  -15.150;  602.160
1011.216;   36.494;  -14.480;  667.920
1011.767;   35.922;  -11.340;  697.920
1012.318;   35.977;   -9.780;  736.980
1012.869;   34.942;  -12.380;  679.000
1013.419;   34.048;  -15.560;  603.120
1013.970;   35.514;  -11.010;  666.640
1014.521;   33.694;  -11.610;  620.620
1015.071;   33.977;  -13.450;  670.380
1015.622;   33.853;  -13.870;  635.460
1016.172;   32.701;  -11.610;  596.820
1016.723;   32.834;  -12.120;  614.380
1017.273;   32.529;  -13.620;  604.160
1017.823;   32.583;  -14.140;  650.340
1018.374;   32.023;  -12.800;  611.760
1018.924;   32.628;  -12.340;  716.880
1019.474;   32.070;  -11.410;  718.880
1020.024;   30.832;  -14.770;  657.580
1020.574;   32.495;   -9.780;  726.160
1021.124;   31.745;   -8.560;  673.580
1021.674;   30.256;  -15.190;  559.120
1022.224;   32.129;  -13.530;  708.940
1022.774;   31.697;  -13.280;  668.820
1023.324;   31.405;  -10.690;  753.520
1023.874;   32.623;  -10.240;  875.760
1024.423;   29.387;  -12.540;  613.700
1024.973;   29.800;  -10.010;  610.760
1025.523;   29.132;  -10.550;  620.960
1026.072;   28.859;  -13.560;  606.420
1026.622;   28.612;  -15.120;  675.740
1027.172;   30.425;  -11.260;  715.660
1027.721;   28.295;  -11.410;  601.220
1028.270;   29.091;  -13.530;  663.400
1028.820;   28.747;  -13.680;  638.080
1029.369;   27.944;  -13.520;  612.700
1029.918;   27.814;  -10.980;  649.840
1030.468;   27.271;  -13.530;  564.780
1031.017;   28.297;  -13.170;  634.800
1031.566;   27.441;  -12.200;  608.900
1032.115;   27.481;   -9.960;  694.500
1032.664;   26.669;  -13.210;  596.480
1033.213;   27.421;  -12.500;  735.420
1033.762;   26.476;  -11.910;  635.620
1034.311;   26.416;   -9.640;  677.220
1034.860;   26.712;  -13.310;  691.000
1035.408;   26.521;  -11.830;  722.720
1035.957;   26.584;  -12.000;  719.540
1036.506;   24.758;  -11.690;  530.800
1037.055;   26.785;  -10.990;  844.320
1037.603;   25.805;  -15.120;  664.000
1038.152;   23.596;  -12.450;  534.760
1038.700;   24.738;  -10.560;  585.740
1039.249;   24.765;  -11.080;  681.220
1039.797;   24.152;  -12.540;  633.360
1040.345;   24.981;  -11.920;  705.420
1040.894;   24.000;  -11.410;  625.300
1041.442;   23.333;  -14.320;  632.200
1041.990;   23.313;  -16.240;  559.160
1042.538;   22.672;  -11.680;  536.180
1043.087;   23.107;  -10.760;  570.860
1043.635;   24.105;  -11.850;  670.500
1044.183;   22.812;  -15.480;  586.400
1044.731;   22.818;  -11.770;  576.000
1045.279;   22.952;  -13.090;  674.920
1045.827;   24.059;  -12.440;  892.400
1046.374;   21.241;  -13.840;  515.420
1046.922;   22.201;  -13.220;  590.580
1047.470;   22.745;  -10.230;  691.300
1048.018;   22.664;  -14.590;  647.960
1048.565;   22.766;  -12.050;  708.600
1049.113;   21.534;  -11.650;  557.000
1049.660;   20.831;  -10.510;  629.660
1050.208;   21.948;  -13.310;  675.640
1050.755;   20.675;  -15.900;  606.580
1051.303;   22.234;  -11.430;  686.820
1051.850;   21.112;   -8.480;  635.120
1052.397;   19.325;  -15.010;  473.960
1052.945;   19.967;  -13.960;  617.760
1053.492;   21.569;  -13.150;  741.840
1054.039;   21.424;   -9.630;  720.180
1054.586;   19.736;  -13.680;  557.240
1055.133;   20.856;  -14.570;  693.140
1055.680;   20.880;  -13.820;  646.620
1056.227;   19.936;  -11.730;  542.780
1056.774;   21.117;  -12.480;  794.980
1057.321;   19.131;  -13.930;  523.260
1057.868;   19.117;  -11.690;  651.320
1058.415;   19.447;   -9.520;  651.980
1058.961;   19.753;  -13.160;  678.940
1059.508;   19.576;  -12.920;  643.820
1060.055;   19.323;  -11.920;  581.780
1060.601;   19.329;  -11.500;  624.300
1061.148;   19.035;  -14.330;  616.820
1061.694;   17.601;  -16.870;  592.580
1062.241;   18.670;  -10.330;  596.320
1062.787;   18.439;  -10.620;  663.140
1063.334;   19.621;  -10.110;  808.560
1063.880;   18.538;  -13.400;  668.360
1064.426;   18.526;  -10.680;  706.820
1064.972;   17.097;   -9.920;  601.340
1065.518;   16.873;  -10.980;  566.640
1066.065;   17.553;  -14.890;  624.460
1066.611;   17.341;  -12.870;  598.800
1067.157;   18.067;  -12.950;  641.860
1067.703;   16.842;  -13.540;  668.480
1068.249;   17.362;  -13.540;  605.220
1068.794;   16.535;  -12.600;  626.880
1069.340;   15.861;  -10.620;  578.960
1069.886;   17.009;  -12.830;  590.700
1070.432;   15.868;  -14.870;  541.720
1070.977;   16.048;  -11.980;  601.080
1071.523;   15.803;   -8.200;  573.060
1072.068;   16.374;  -12.330;  582.000
1072.614;   15.654;  -16.370;  527.760
1073.160;   16.791;  -11.100;  687.040
1073.705;   15.428;  -10.480;  572.520
1074.250;   15.555;  -14.520;  559.900
1074.796;   15.432;  -11.460;  655.160
1075.341;   15.956;  -11.950;  664.100
1075.886;   15.590;  -11.460;  594.240
1076.431;   15.015;  -13.770;  649.880
1076.976;   14.176;  -12.680;  639.220
1077.521;   13.823;  -13.170;  583.080
1078.067;   13.983;  -10.860;  579.400
1078.612;   15.040;  -13.920;  661.620
1079.156;   14.506;  -13.880;  601.540
1079.701;   15.609;  -13.120;  693.260
1080.246;   15.061;   -9.940;  696.300
1080.791;   14.192;  -14.740;  625.020
1081.336;   14.001;  -13.750;  659.320
1081.880;   13.747;  -13.400;  649.680
1082.425;   13.015;  -12.220;  573.480
1082.970;   15.213;  -11.610;  717.040
1083.514;   13.872;  -13.580;  597.000
1084.059;   12.666;  -12.810;  586.720
1084.603;   12.750;  -12.320;  565.840
1085.147;   12.610;  -13.190;  645.220
1085.692;   13.686;  -12.480;  716.800
1086.236;   11.513;  -13.020;  503.140
1086.780;   15.031;   -9.190;  751.440
1087.325;   13.050;  -12.480;  654.620
1087.869;   12.327;  -12.450;  610.700
1088.413;   13.245;  -12.240;  705.040
1088.957;   11.100;   -9.020;  543.400
1089.501;   13.361;  -10.320;  766.640
1090.045;   12.816;  -12.720;  726.480
1090.589;   10.510;  -13.690;  569.920
1091.133;   11.691;  -10.020;  673.340
1091.676;   12.114;  -12.330;  591.940
1092.220;   11.601;  -14.970;  600.920
1092.764;   12.456;  -12.430;  706.960
1093.307;   11.560;   -9.800;  673.780
1093.851;   10.992;  -14.970;  556.540
1094.395;   11.519;  -15.310;  683.140
1094.938;   10.384;  -10.370;  632.520
1095.482;   10.549;  -11.050;  559.800
1096.025;   11.655;  -11.840;  710.880
1096.568;   12.199;  -12.840;  779.280
1097.112;    9.670;  -14.700;  508.180
1097.655;   11.436;   -8.720;  603.000
1098.198;   10.079;  -13.610;  600.180
1098.741;    9.693;  -13.350;  612.860
1099.285;   10.842;  -11.230;  657.300
1099.828;    8.776;  -11.840;  439.400
1100.371;   10.376;  -10.840;  608.160
1100.914;    9.596;  -14.190;  682.660
1101.457;    9.760;  -11.240;  679.900
1101.999;    9.021;  -11.270;  584.680
1102.542;    9.774;  -11.480;  641.440
1103.085;    8.828;  -11.750;  658.500
1103.628;   10.232;  -11.400;  762.060
1104.170;    9.303;  -10.490;  588.280
1104.713;    9.421;  -10.600;  646.700
1105.256;    8.632;  -14.360;  557.440
1105.798;    7.979;  -13.210;  499.980
1106.341;    9.419;  -10.270;  728.900
1106.883;    8.714;  -12.200;  521.340
1107.425;    8.491;  -13.110;  668.180
1107.968;    8.078;  -12.840;  612.380
1108.510;    9.501;   -6.480;  684.960
1109.052;    6.541;  -13.940;  612.620
1109.594;    6.907;  -13.690;  554.440
1110.136;    8.258;  -11.880;  643.220
1110.679;    7.835;   -9.500;  633.080
1111.221;    8.728;  -14.160;  604.460
1111.763;    7.345;  -13.980;  559.220
1112.304;    7.449;  -13.880;  547.140
1112.846;    7.458;  -12.210;  666.240
1113.388;   10.136;  -11.390;  942.180
1113.930;    7.627;  -14.540;  694.200
1114.472;    6.786;  -12.640;  606.540
1115.013;    5.904;  -11.620;  551.280
1115.555;    6.745;  -13.640;  587.100
1116.097;    5.787;  -15.380;  579.480
1116.638;    6.945;  -12.640;  684.600
1117.180;    7.294;   -9.850;  667.740
1117.721;    7.148;  -13.690;  568.580
1118.262;    6.448;  -12.680;  677.960
1118.804;    6.904;  -12.530;  637.340
1119.345;    5.598;  -11.690;  578.400
1119.886;    6.759;  -13.380;  704.040
1120.427;    5.867;  -14.070;  589.020
1120.969;    5.230;  -13.500;  597.920
1121.510;    5.151;  -11.480;  563.060
1122.051;    5.975;  -12.830;  723.580
1122.592;    5.126;  -14.290;  655.420
1123.133;    4.589;  -12.400;  547.940
1123.673;    6.527;  -10.130;  706.480
1124.214;    5.430;  -12.930;  612.460
1124.755;    6.134;  -14.380;  639.460
1125.296;    5.675;  -14.000;  627.320
1125.836;    5.890;  -10.070;  691.500
1126.377;    4.902;  -12.640;  599.660
1126.918;    5.324;  -12.960;  614.980
1127.458;    4.678;  -13.350;  622.220
1127.999;    5.255;  -10.750;  656.980
1128.539;    5.605;  -12.350;  694.240
1129.079;    5.335;  -14.860;  632.720
1129.620;    4.239;  -13.840;  558.100
1130.160;    4.581;  -12.330;  539.480
1130.700;    5.242;  -14.530;  640.840
1131.240;    4.548;  -12.530;  643.700
1131.781;    4.165;  -14.450;  619.680
1132.321;    4.553;   -9.790;  599.120
1132.861;    3.688;  -14.860;  564.200
1133.401;    2.992;  -14.290;  593.940
1133.941;    3.866;  -11.750;  626.280
1134.481;    3.298;   -9.920;  597.580
1135.020;    3.266;  -12.290;  609.160
1135.560;    3.842;  -11.650;  674.940
1136.100;    2.980;  -16.270;  501.160
1136.640;    2.853;  -10.890;  510.480
1137.179;    2.854;  -14.180;  537.960
1137.719;    2.940;  -16.250;  605.400
1138.258;    2.930;  -14.230;  587.360
1138.798;    3.683;   -9.090;  663.780
1139.337;    1.668;  -15.130;  482.840
1139.877;    2.961;  -13.680;  642.360
1140.416;    4.739;  -11.320;  878.060
1140.955;    2.397;  -10.860;  535.380
1141.494;    2.960;  -12.920;  669.280
1142.034;    1.706;  -13.930;  583.520
1142.573;    3.321;  -11.440;  646.280
1143.112;    1.871;  -12.000;  553.480
1143.651;    1.576;  -13.670;  536.480
1144.190;    2.515;  -12.730;  691.640
1144.729;    1.822;  -14.560;  607.420
1145.267;    2.743;  -11.830;  584.900
1145.806;    2.689;  -12.230;  637.040
1146.345;    1.468;  -14.130;  635.020
1146.884;    1.390;  -11.590;  622.500
1147.422;    1.418;  -12.550;  533.060
1147.961;    2.792;  -11.180;  708.460
1148.500;    2.333;  -11.510;  669.720
1149.038;    2.640;  -11.640;  632.500
1149.577;    1.848;  -10.130;  698.640
1150.115;   -0.127;  -13.970;  452.280
1150.653;    1.341;  -14.520;  607.340
1151.192;    1.352;  -12.810;  552.920
1151.730;    1.465;   -9.100;  652.560
1152.268;    0.622;  -12.220;  589.520
1152.806;    0.739;  -14.140;  571.180
1153.344;   -0.189;  -12.350;  577.640
1153.882;    1.315;   -8.980;  600.060
1154.421;   -0.824;  -15.190;  470.620
1154.958;    0.029;  -15.210;  595.240
1155.496;    1.814;  -12.850;  645.280
1156.034;    0.822;   -9.940;  721.880
1156.572;    1.999;  -13.570;  667.060
1157.110;   -0.657;  -14.590;  473.940
1157.647;    0.916;  -13.030;  676.960
1158.185;   -0.236;  -12.140;  564.320
1158.723;   -0.595;  -14.390;  509.200
1159.260;    0.677;  -14.090;  701.700
1159.798;    0.850;  -11.920;  658.160
1160.335;    0.171;  -11.110;  631.820

