
Integration time [ms]:   3.276
Averaging Nr. [scans]: 1000
Smoothing Nr. [pixels]: 0
Data measured with spectrometer [name]: 7414430SP
Wave   ;Sample   ;Dark     ;Reference
[nm]   ;[counts] ;[counts] ;[counts] 

288.544;  158.322;    7.793;  793.890
289.143;  161.502;    7.462;  681.602
289.742;  161.769;    8.602;  828.814
290.341;  148.784;    1.321;  789.841
290.940;  139.445;   -0.709;  730.702
291.538;  141.004;    0.881;  881.108
292.137;  140.168;    0.122;  792.581
292.736;  142.085;   -1.929;  975.101
293.335;  139.198;   -8.229;  735.086
293.934;  140.121;   -5.279;  781.677
294.532;  141.486;   -1.369; 1031.958
295.131;  126.904;   -7.641;  834.394
295.730;  126.774;   -8.420;  809.588
296.328;  124.783;   -5.611;  783.442
296.927;  122.863;   -5.781;  779.652
297.525;  125.428;   -6.361;  781.236
298.124;  115.690;  -11.382;  654.009
298.722;  121.783;   -7.641;  761.933
299.321;  118.307;   -6.811;  708.597
299.919;  113.886;   -6.991;  751.918
300.518;  109.937;  -10.362;  689.338
301.116;  113.358;   -9.581;  691.381
301.715;  113.950;   -4.891;  730.222
302.313;  111.349;   -8.801;  704.943
302.911;  106.858;   -8.522;  733.830
303.509;  112.378;   -6.171;  925.627
304.108;  110.482;   -7.311;  760.383
304.706;  110.088;   -8.321;  801.664
305.304;  104.414;  -10.222;  796.707
305.902;  108.681;   -6.021;  784.484
306.500;  104.705;   -4.971;  728.200
307.098;  103.098;   -7.061;  746.560
307.696;  102.431;   -8.801;  780.432
308.294;  101.866;   -6.411;  731.359
308.892;  104.361;   -2.901;  759.769
309.490;   99.761;   -5.041;  712.161
310.088;   97.856;   -5.002;  788.444
310.686;  102.702;   -2.041;  821.749
311.284;   98.526;   -2.351;  766.040
311.882;   95.306;   -4.422;  731.225
312.480;   92.393;   -4.192;  697.167
313.078;   93.790;   -1.172;  808.331
313.675;   94.312;   -2.601;  691.600
314.273;   89.660;   -1.312;  797.837
314.871;   88.706;   -3.942;  589.829
315.468;   86.348;   -2.802;  652.090
316.066;   89.984;   -0.701;  694.427
316.664;   82.102;   -4.362;  656.351
317.261;   87.124;   -2.872;  910.128
317.859;   82.263;   -2.022;  768.735
318.456;   82.784;   -0.531;  830.096
319.054;   77.680;   -3.912;  787.828
319.651;   77.575;   -4.752;  759.928
320.249;   75.930;   -2.602;  810.188
320.846;   74.098;   -0.821;  714.286
321.443;   71.112;   -4.642;  832.135
322.041;   68.554;   -5.002;  812.315
322.638;   65.695;   -3.982;  701.456
323.235;   66.886;   -3.411;  665.683
323.833;   63.640;   -7.361;  740.354
324.430;   59.220;   -8.611;  615.900
325.027;   60.983;   -4.061;  876.855
325.624;   60.903;   -4.031;  644.532
326.221;   56.714;   -7.481;  689.717
326.818;   56.615;   -5.281;  818.332
327.415;   59.708;   -7.460;  748.828
328.012;   58.578;   -5.510;  690.585
328.609;   57.260;   -7.880;  731.389
329.206;   56.052;   -8.331;  778.621
329.803;   56.106;   -5.121;  737.841
330.400;   58.258;   -4.510;  704.260
330.997;   59.644;   -6.441;  817.147
331.594;   57.602;   -8.831;  788.185
332.191;   63.271;   -7.621;  728.722
332.787;   66.876;   -4.591;  844.463
333.384;   66.234;   -7.412;  763.093
333.981;   65.234;   -8.293;  815.687
334.578;   67.766;   -7.052;  708.378
335.174;   70.840;   -3.102;  731.469
335.771;   68.949;   -5.943;  836.456
336.367;   67.294;   -7.393;  710.631
336.964;   72.677;   -4.063;  793.266
337.561;   69.056;   -3.813;  731.112
338.157;   63.710;   -4.654;  911.916
338.754;   62.573;   -7.934;  796.589
339.350;   61.632;   -4.414;  722.493
339.946;   63.158;   -4.664;  773.135
340.543;   55.485;   -6.375;  846.136
341.139;   49.118;   -9.815;  720.836
341.735;   47.321;   -4.526;  772.593
342.332;   45.921;   -4.895;  691.472
342.928;   46.156;   -4.295;  795.394
343.524;   38.311;   -5.476;  761.684
344.120;   35.376;   -5.856;  738.562
344.716;   38.664;   -2.155;  723.717
345.313;   35.320;   -6.275;  795.342
345.909;   30.608;   -8.815;  627.336
346.505;   31.975;   -5.305;  740.247
347.101;   33.218;   -2.674;  827.864
347.697;   32.808;   -4.344;  785.398
348.293;   27.506;   -9.975;  627.244
348.889;   29.092;   -5.774;  745.914
349.485;   27.886;   -5.004;  688.205
350.081;   28.373;   -4.704;  772.592
350.676;   23.816;   -6.635;  691.606
351.272;   27.512;   -4.504;  809.530
351.868;   27.282;   -3.914;  780.497
352.464;   25.068;   -9.044;  723.932
353.059;   20.858;   -8.314;  646.017
353.655;   24.490;   -7.024;  777.063
354.251;   25.433;   -5.343;  759.845
354.846;   19.748;   -8.604;  740.646
355.442;   17.902;   -6.945;  753.071
356.038;   19.656;   -7.564;  751.708
356.633;   19.693;   -5.814;  728.594
357.229;   17.352;   -7.364;  724.757
357.824;   16.060;   -8.024;  703.600
358.420;   15.141;   -9.384;  679.726
359.015;   15.468;   -5.104;  695.357
359.610;   15.455;   -6.854;  763.920
360.206;   10.107;  -10.185;  603.240
360.801;   13.594;   -7.054;  646.503
361.396;   15.181;   -5.034;  725.975
361.992;   10.621;   -8.284;  668.220
362.587;    8.104;   -8.625;  670.160
363.182;   10.261;   -7.674;  689.631
363.777;   10.993;   -5.164;  738.242
364.372;   10.902;   -8.604;  737.314
364.967;    6.551;   -9.055;  680.744
365.563;   11.303;   -6.114;  815.567
366.158;    8.094;   -5.814;  685.161
366.753;    7.792;   -7.854;  649.263
367.348;    6.087;   -7.804;  746.056
367.942;    7.276;   -7.954;  697.298
368.537;    5.155;   -4.984;  754.245
369.132;    6.325;   -8.564;  703.428
369.727;    1.349;   -8.855;  638.079
370.322;    3.373;   -6.245;  580.186
370.917;    2.548;   -6.425;  710.646
371.511;    5.616;   -6.294;  861.834
372.106;    2.451;   -7.685;  776.964
372.701;   -0.621;   -7.335;  585.988
373.296;    4.770;   -4.564;  863.135
373.890;   -0.842;  -10.235;  647.840
374.485;   -2.206;   -7.885;  691.199
375.079;    1.023;   -7.324;  738.685
375.674;    3.006;   -3.494;  812.970
376.268;   -1.940;   -8.525;  691.759
376.863;   -8.061;  -10.086;  580.327
377.457;   -0.603;   -7.025;  662.490
378.052;   -2.581;   -3.585;  764.884
378.646;   -4.260;   -7.595;  741.167
379.240;   -4.336;   -8.335;  721.176
379.835;   -3.031;   -5.785;  636.978
380.429;   -5.859;   -4.335;  562.557
381.023;   -5.686;   -6.805;  779.205
381.617;   -8.050;   -9.195;  680.106
382.212;   -5.284;   -6.905;  685.303
382.806;   -3.633;   -3.745;  760.690
383.400;   -8.191;   -7.745;  672.281
383.994;   -9.108;   -9.765;  664.870
384.588;   -5.363;   -6.564;  697.701
385.182;   -3.853;   -5.344;  726.624
385.776;   -6.065;   -8.514;  706.875
386.370;   -8.788;   -9.555;  681.968
386.964;   -7.160;   -8.715;  684.155
387.558;   -5.452;   -6.174;  598.360
388.152;  -10.122;   -8.725;  681.959
388.745;   -7.797;   -7.965;  814.707
389.339;   -5.414;   -5.924;  747.642
389.933;   -5.177;   -5.524;  695.370
390.527;   -5.517;   -7.114;  859.029
391.120;  -11.957;  -10.725;  595.318
391.714;   -8.352;   -8.035;  711.633
392.308;   -5.873;   -3.574;  780.253
392.901;  -10.623;   -7.245;  642.460
393.495;  -11.984;   -9.285;  595.414
394.089;   -9.330;   -5.895;  760.452
394.682;  -10.672;   -4.295;  697.188
395.275;  -10.978;   -9.875;  719.927
395.869;  -11.892;   -8.485;  667.314
396.462;  -10.049;   -7.455;  616.609
397.056;   -5.753;   -5.424;  776.621
397.649;  -10.836;   -6.605;  731.575
398.242;   -8.709;   -8.224;  712.645
398.836;   -7.863;   -7.474;  766.408
399.429;   -8.438;   -7.094;  631.041
400.022;  -13.129;   -9.475;  665.902
400.615;  -10.121;   -7.145;  805.609
401.208;   -7.923;   -7.174;  691.451
401.802;   -9.872;   -5.515;  699.329
402.395;  -11.798;   -9.875;  683.502
402.988;  -12.463;   -8.845;  696.627
403.581;   -8.638;   -8.874;  646.878
404.174;   -6.015;   -5.324;  686.568
404.767;   -9.795;   -9.575;  638.583
405.360;  -12.102;  -10.965;  621.445
405.953;   -6.903;   -8.764;  759.034
406.545;   -6.335;   -7.514;  725.342
407.138;  -10.557;  -10.025;  618.350
407.731;   -9.300;  -10.034;  613.303
408.324;   -5.700;   -9.374;  660.554
408.917;   -6.048;   -6.534;  681.864
409.509;   -8.345;   -8.004;  740.396
410.102;   -9.364;   -9.875;  643.948
410.695;   -3.757;   -8.604;  665.758
411.287;   -4.244;   -6.794;  599.821
411.880;   -6.554;   -9.334;  585.421
412.472;   -9.113;  -10.254;  613.092
413.065;   -5.608;   -6.714;  629.408
413.657;   -4.550;   -7.234;  576.678
414.250;   -4.103;  -10.544;  646.681
414.842;   -5.400;   -9.744;  676.353
415.434;   -3.329;   -6.994;  570.463
416.027;    0.565;   -5.893;  652.196
416.619;   -0.840;   -7.264;  713.400
417.211;   -1.906;  -10.374;  599.352
417.804;    2.431;   -7.993;  628.499
418.396;   -2.194;   -7.234;  607.643
418.988;    0.232;   -9.443;  659.238
419.580;   -3.382;  -10.724;  568.276
420.172;   -0.455;  -10.323;  536.196
420.764;    3.711;   -8.793;  672.482
421.356;    1.353;  -11.143;  636.898
421.948;    1.886;   -8.293;  677.661
422.540;    6.490;   -7.893;  680.027
423.132;    5.000;   -7.082;  600.641
423.724;    2.849;   -8.653;  561.267
424.316;    4.713;  -10.213;  621.345
424.908;    8.495;   -9.762;  591.517
425.500;    8.949;   -5.572;  647.978
426.092;    8.501;   -8.422;  648.268
426.683;    7.407;   -9.283;  684.836
427.275;   11.259;   -7.852;  641.471
427.867;   12.372;   -5.272;  668.948
428.458;   12.656;   -7.682;  732.344
429.050;   10.880;  -10.612;  680.749
429.642;   13.667;   -9.882;  743.124
430.233;   14.520;   -6.962;  569.356
430.825;   14.862;   -6.842;  724.809
431.416;   13.317;   -9.672;  698.241
432.008;   16.520;   -6.552;  651.723
432.599;   17.545;   -6.891;  656.073
433.190;   13.990;  -10.912;  637.670
433.782;   13.522;  -11.172;  590.395
434.373;   20.797;   -6.061;  884.765
434.964;   19.501;   -8.251;  602.920
435.556;   16.818;   -9.722;  634.537
436.147;   20.470;   -9.082;  758.490
436.738;   20.696;   -8.041;  701.099
437.329;   26.629;   -7.341;  721.723
437.920;   18.658;   -8.162;  666.688
438.511;   17.840;  -11.802;  564.526
439.103;   24.883;  -10.191;  623.998
439.694;   26.958;   -7.601;  681.583
440.285;   26.929;   -8.541;  764.432
440.876;   25.675;   -9.751;  845.738
441.466;   25.464;   -9.401;  575.162
442.057;   30.795;   -7.760;  665.814
442.648;   29.580;   -9.971;  746.255
443.239;   27.849;  -11.001;  620.477
443.830;   33.147;   -7.990;  704.958
444.421;   35.202;   -7.910;  655.474
445.011;   31.004;   -8.131;  693.619
445.602;   30.795;   -7.111;  743.126
446.193;   33.372;  -10.920;  488.117
446.783;   37.368;   -6.500;  640.397
447.374;   31.958;   -8.671;  692.759
447.964;   33.038;  -10.781;  713.770
448.555;   42.202;   -9.650;  822.742
449.145;   38.890;   -8.660;  662.853
449.736;   38.811;   -8.990;  803.179
450.326;   39.443;   -9.500;  713.626
450.917;   44.664;   -8.680;  675.324
451.507;   43.517;   -7.520;  600.661
452.097;   44.278;   -8.590;  746.267
452.688;   45.368;  -11.340;  742.160
453.278;   45.465;  -10.100;  566.840
453.868;   49.611;   -6.019;  793.550
454.458;   46.995;   -9.440;  651.141
455.048;   47.183;  -10.560;  711.783
455.639;   49.721;  -11.799;  567.096
456.229;   53.445;   -6.899;  710.694
456.819;   55.295;   -7.389;  751.158
457.409;   55.264;  -11.119;  773.993
457.999;   58.880;   -9.289;  737.505
458.589;   58.067;   -6.139;  686.606
459.179;   58.224;   -8.729;  717.658
459.769;   56.722;   -9.789;  627.099
460.358;   61.259;  -10.259;  797.262
460.948;   61.668;   -7.299;  689.503
461.538;   63.103;  -10.289;  660.677
462.128;   60.663;  -11.269;  664.934
462.717;   67.764;   -9.368;  710.326
463.307;   70.922;   -7.908;  705.846
463.897;   66.448;   -9.599;  656.942
464.486;   66.367;   -9.769;  837.128
465.076;   70.766;   -8.048;  733.776
465.666;   73.900;   -9.358;  652.900
466.255;   71.330;   -7.919;  785.651
466.845;   70.433;  -11.689;  666.749
467.434;   74.354;   -7.818;  725.873
468.023;   75.843;   -7.678;  658.357
468.613;   72.809;  -10.939;  713.946
469.202;   77.072;  -10.118;  646.507
469.791;   81.953;   -9.108;  737.811
470.381;   83.318;   -6.058;  742.813
470.970;   82.439;  -10.428;  711.099
471.559;   82.684;  -10.268;  733.291
472.148;   86.595;   -8.448;  675.737
472.738;   89.084;   -6.917;  765.466
473.327;   88.489;  -11.978;  637.529
473.916;   88.203;  -11.888;  737.446
474.505;   93.361;   -9.437;  751.703
475.094;   96.470;   -6.747;  806.570
475.683;   95.119;   -9.367;  797.699
476.272;   96.216;  -12.637;  730.632
476.861;   98.408;  -10.027;  706.754
477.449;  105.412;   -8.716;  728.487
478.038;  100.275;   -9.577;  692.513
478.627;  101.883;   -9.718;  714.852
479.216;  108.503;   -8.947;  769.441
479.805;  111.119;   -6.256;  783.375
480.393;  110.904;   -7.937; 1008.945
480.982;  110.771;   -7.717;  874.501
481.571;  117.650;   -9.266;  858.333
482.159;  117.418;   -7.636;  705.386
482.748;  117.140;   -9.667;  821.385
483.336;  122.295;  -10.376;  858.209
483.925;  123.018;   -7.147;  774.373
484.513;  129.991;   -7.996;  758.962
485.102;  127.214;  -10.027;  810.965
485.690;  136.280;  -10.446; 1011.050
486.278;  138.251;   -8.446;  979.329
486.867;  138.825;   -6.356;  809.662
487.455;  141.380;   -9.136;  898.229
488.043;  143.433;  -10.646;  748.361
488.631;  152.545;   -7.456; 1005.079
489.220;  156.464;   -6.636;  908.626
489.808;  156.611;  -11.036;  741.415
490.396;  166.190;  -10.246;  914.645
490.984;  174.504;   -8.556;  830.161
491.572;  185.869;   -5.886;  940.315
492.160;  194.543;   -9.486;  919.081
492.748;  209.026;  -10.976;  884.341
493.336;  234.242;   -8.776; 1019.693
493.924;  265.188;   -5.465;  958.077
494.512;  303.846;   -9.986; 1066.638
495.100;  357.373;  -10.636; 1103.280
495.687;  423.961;  -10.885; 1206.373
496.275;  485.352;   -8.126; 1150.796
496.863;  560.444;  -10.586; 1281.171
497.451;  685.909;  -11.926; 1386.805
498.038;  806.159;  -10.885; 1556.729
498.626;  915.914;   -6.315; 1741.407
499.214; 1087.504;   -7.326; 2016.609
499.801; 1328.253;  -11.906; 2220.633
500.389; 1606.709;  -10.466; 2312.494
500.976; 1880.914;   -5.236; 2744.849
501.564; 2341.036;   -8.936; 3148.565
502.151; 2851.000;  -13.176; 3515.999
502.738; 3414.092;  -10.646; 3971.274
503.326; 3839.036;   -9.525; 4403.796
503.913; 4173.265;  -10.856; 5161.749
504.500; 4726.924;  -11.586; 5986.420
505.088; 5067.663;  -10.336; 6381.201
505.675; 5558.698;   -6.355; 6925.547
506.262; 6079.132;   -9.046; 7619.060
506.849; 6636.594;  -10.416; 8733.969
507.436; 7169.739;  -10.305; 9790.121
508.023; 7651.777;   -5.496; 9985.472
508.610; 8555.780;   -7.856;10434.618
509.197;10000.217;  -10.097;11198.435
509.784;11617.834;  -10.886;12391.194
510.371;13150.629;   -9.315;13603.713
510.958;14077.371;   -9.936;14426.586
511.545;14660.294;   -9.326;15243.775
512.132;15259.089;  -10.075;15945.876
512.719;15496.273;   -7.796;16340.369
513.305;16478.430;  -10.606;18011.766
513.892;17929.355;  -11.486;19754.971
514.479;19859.549;   -9.126;20967.805
515.066;21634.516;   -6.026;22299.793
515.652;21901.396;   -8.466;22908.660
516.239;23031.387;  -10.886;23798.875
516.825;25209.160;  -11.496;25567.275
517.412;27265.021;   -5.796;28154.959
517.998;29399.686;  -10.506;28344.111
518.585;29080.678;  -10.076;27134.219
519.171;27651.701;   -8.315;27268.576
519.758;28678.893;   -8.596;28964.129
520.344;30032.254;   -8.466;30664.494
520.930;32893.438;  -11.006;32550.605
521.516;33457.137;  -10.495;35422.895
522.103;31831.129;   -5.526;38280.004
522.689;32521.963;   -8.746;37835.117
523.275;34225.758;  -11.376;37288.613
523.861;36059.574;  -11.156;37281.395
524.447;39426.059;   -8.135;37846.949
525.033;40469.121;   -7.896;38321.949
525.619;40201.895;  -12.476;38579.285
526.205;40402.277;   -9.516;40622.875
526.791;39888.883;   -6.926;42258.836
527.377;41222.004;   -8.346;42966.902
527.963;43052.898;   -8.717;42018.949
528.549;41763.773;  -11.016;42476.828
529.135;41886.809;   -8.536;41854.852
529.721;41457.918;   -9.666;41237.711
530.306;39813.555;  -10.066;41259.445
530.892;39841.383;  -11.356;41506.047
531.478;39347.645;   -6.596;43559.613
532.063;39932.137;   -8.836;47695.563
532.649;43974.176;  -10.047;50808.324
533.235;45391.289;   -9.746;51787.500
533.820;44476.695;   -6.566;52145.035
534.406;43352.332;  -10.817;51133.488
534.991;46186.742;   -9.416;49996.805
535.576;47495.660;   -9.036;48882.852
536.162;47732.945;   -6.156;46942.285
536.747;49075.574;  -11.607;45711.746
537.333;49643.086;  -11.787;48510.180
537.918;49720.262;  -12.437;50439.891
538.503;50837.918;   -7.196;50863.711
539.088;47981.484;  -10.556;50906.922
539.673;46355.000;   -8.767;52621.965
540.259;47728.152;  -10.026;52368.094
540.844;49741.848;   -7.416;50879.109
541.429;48651.953;   -9.467;52077.777
542.014;48372.199;   -9.527;52716.695
542.599;50779.762;   -9.946;52363.281
543.184;53616.090;   -7.927;53187.137
543.769;52096.730;   -9.297;54697.605
544.354;48581.848;  -10.127;53913.914
544.938;46732.957;   -9.267;49680.164
545.523;49164.676;   -6.506;47386.277
546.108;53320.367;   -9.787;49151.949
546.693;52420.105;  -11.587;51384.637
547.278;51785.211;  -10.986;51853.254
547.862;48361.195;   -8.206;51173.750
548.447;45686.355;  -10.067;51691.395
549.031;46663.742;   -9.637;52456.703
549.616;47819.961;   -9.926;52714.516
550.201;46692.605;   -6.347;52414.598
550.785;46159.496;   -7.917;52355.059
551.370;46960.078;  -10.867;54589.453
551.954;47524.602;   -9.047;58267.348
552.538;48886.164;   -7.827;59062.176
553.123;48898.539;  -10.287;58115.285
553.707;44559.039;  -12.178;56556.285
554.291;45320.426;   -8.717;56201.668
554.876;48726.570;   -7.457;55335.762
555.460;49861.438;  -10.387;54155.703
556.044;50877.727;   -9.618;53721.484
556.628;49986.785;  -11.567;53731.016
557.212;48083.551;   -8.097;54312.531
557.796;49024.117;  -11.077;53797.773
558.380;46686.992;  -11.108;56145.984
558.964;45302.129;   -9.057;57277.930
559.548;45357.160;   -6.977;56459.641
560.132;44610.266;  -11.457;54434.543
560.716;43658.996;  -11.378;54800.617
561.300;44612.621;   -9.577;57606.945
561.884;46405.207;   -7.127;58972.445
562.467;47186.730;   -7.118;57327.570
563.051;46780.535;  -13.358;54962.434
563.635;44583.461;  -10.178;52594.473
564.219;43857.496;   -7.837;50610.410
564.802;43546.199;  -11.398;49551.180
565.386;44820.004;  -12.788;48370.953
565.969;45290.051;   -9.077;48178.871
566.553;45585.672;   -6.207;49957.305
567.136;42811.719;   -8.568;50369.594
567.720;41786.902;  -11.868;49492.004
568.303;41709.848;   -8.268;50616.352
568.887;40434.563;   -8.698;50727.148
569.470;40671.242;   -6.808;51698.379
570.053;39438.301;  -13.188;52122.078
570.637;38042.543;  -12.037;52536.438
571.220;37329.098;   -8.577;51186.098
571.803;37795.969;   -8.498;51032.762
572.386;40327.105;  -10.498;49609.887
572.969;41885.508;   -9.388;48285.926
573.552;38040.750;   -8.338;47624.285
574.135;35864.234;   -8.518;45498.641
574.718;32724.803;  -13.628;41970.434
575.301;32305.535;  -10.893;41447.137
575.884;31886.268;   -8.158;40923.836
576.467;36838.016;  -10.328;45267.723
577.050;35515.000;  -13.058;48175.543
577.633;34415.070;   -9.458;47729.328
578.216;35755.590;   -8.928;47579.793
578.799;36657.523;   -9.358;47820.996
579.381;36185.523;  -11.388;48115.551
579.964;33262.871;  -11.718;47333.766
580.547;33285.316;   -8.588;46668.969
581.129;34906.609;   -8.859;44466.141
581.712;35399.375;  -10.729;44164.922
582.294;36616.688;  -11.118;46477.855
582.877;34375.242;   -5.218;48244.254
583.459;34303.938;   -8.679;47437.895
584.042;36099.074;  -10.709;46943.219
584.624;38397.898;  -11.669;46792.227
585.206;37569.922;   -8.218;46557.250
585.789;36162.395;  -10.569;45793.773
586.371;36149.207;  -11.859;43836.391
586.953;34751.102;  -10.719;42972.492
587.536;36243.262;   -7.198;42487.211
588.118;37573.789;   -8.720;42086.414
588.700;37112.227;  -10.439;43389.930
589.282;37454.336;   -9.198;43646.039
589.864;36348.305;   -9.199;43438.109
590.446;33591.418;  -11.319;43151.926
591.028;33193.242;  -11.159;42781.867
591.610;33219.879;  -11.779;42839.098
592.192;30315.936;   -7.668;42820.402
592.774;31224.506;  -11.949;40724.277
593.356;32382.080;  -12.129;39874.789
593.937;30340.949;  -10.669;39980.648
594.519;31522.459;   -6.509;42069.633
595.101;33399.152;  -10.849;42976.031
595.683;32214.852;  -11.679;44084.441
596.264;31847.311;   -9.049;43478.797
596.846;33632.492;   -8.849;43803.672
597.427;33843.512;   -9.570;42986.934
598.009;34913.660;  -12.620;42832.219
598.591;34024.418;  -10.039;42580.086
599.172;32940.648;  -10.369;43061.805
599.753;31333.029;   -9.140;41691.469
600.335;31281.256;  -11.430;40692.520
600.916;31898.520;   -9.939;39982.422
601.498;30765.104;   -8.479;40318.617
602.079;29359.299;  -10.920;40670.609
602.660;31184.859;  -11.480;41450.898
603.241;32841.375;  -11.699;41137.738
603.823;33525.672;   -9.579;38868.797
604.404;33267.879;  -10.620;38182.785
604.985;31706.617;  -10.450;38078.047
605.566;31097.961;   -9.129;38056.633
606.147;31005.785;   -7.510;37020.418
606.728;32136.531;  -10.660;37883.359
607.309;33208.930;  -11.740;38748.273
607.890;32864.508;   -9.759;38850.230
608.471;31264.883;   -8.250;37457.918
609.051;31336.934;   -9.240;36066.457
609.632;29498.387;  -12.120;35991.074
610.213;28476.439;   -9.110;37402.641
610.794;30247.654;   -8.030;38383.363
611.374;32669.342;   -8.110;40562.387
611.955;32553.637;  -13.560;38533.727
612.536;29961.572;  -11.400;36951.789
613.116;28641.227;   -8.070;37197.891
613.697;30736.969;  -10.830;38411.125
614.277;32351.998;  -11.641;38673.938
614.858;31839.535;  -13.310;37075.863
615.438;29957.357;   -7.460;35092.906
616.019;28103.234;   -7.601;33666.301
616.599;29009.045;  -12.020;34189.023
617.179;30917.701;  -11.780;36952.047
617.760;33577.883;   -8.570;39582.574
618.340;33552.301;  -11.471;38943.977
618.920;31988.041;  -11.170;37594.156
619.500;33849.293;  -11.071;37866.938
620.080;34034.500;   -7.750;37869.043
620.660;32339.428;  -12.711;36868.617
621.241;30923.367;  -10.211;36352.309
621.821;29947.916;  -10.961;35459.520
622.401;28951.949;   -7.720;35207.414
622.980;30012.963;   -8.981;35980.422
623.560;30517.537;   -9.331;37351.328
624.140;29430.029;   -9.850;34388.582
624.720;26850.889;   -7.451;32368.764
625.300;25113.594;   -9.070;32638.629
625.880;28651.328;  -12.601;34599.035
626.459;30556.736;  -11.751;36831.738
627.039;30952.203;   -9.281;38299.098
627.619;32822.262;   -8.801;38289.574
628.198;32401.533;  -12.071;37220.695
628.778;31163.004;   -9.461;37632.563
629.357;32164.545;   -8.491;38003.012
629.937;32487.008;   -9.721;38402.039
630.516;32595.305;   -9.951;37868.801
631.096;32861.277;  -11.731;35760.410
631.675;34124.945;   -8.572;35225.219
632.254;33625.016;  -11.282;35130.289
632.834;33196.238;  -13.322;35794.570
633.413;32999.086;  -10.301;35788.922
633.992;32238.313;   -8.582;34532.863
634.571;33852.516;   -8.352;33590.113
635.151;33920.328;  -11.912;34943.863
635.730;32966.813;  -10.511;35352.523
636.309;35260.273;   -7.731;35366.605
636.888;33279.547;   -9.952;36165.637
637.467;31076.094;  -11.672;37515.902
638.046;30876.174;   -8.901;39288.695
638.625;31684.379;   -7.912;38279.699
639.204;32297.846;  -10.022;37741.598
639.782;30400.764;  -12.252;38364.551
640.361;28509.984;  -10.041;36740.621
640.940;27620.043;  -11.161;34950.082
641.519;28776.037;   -9.701;34137.398
642.097;30618.258;  -11.271;35654.258
642.676;32133.412;   -8.651;35637.957
643.255;33282.609;   -8.711;36567.074
643.833;31025.326;   -9.581;37809.434
644.412;28691.561;  -13.711;37337.293
644.990;30439.057;  -11.811;37018.531
645.569;33047.977;   -9.411;36518.469
646.147;32495.932;  -10.291;36186.430
646.726;31504.711;  -12.401;36267.688
647.304;31598.670;  -10.411;36647.625
647.882;30744.934;   -9.651;39286.742
648.461;32002.875;   -9.631;39157.703
649.039;35260.270;  -11.881;35412.883
649.617;35703.012;   -9.661;34744.918
650.195;33500.215;   -9.301;35403.098
650.773;32143.033;  -10.511;35053.797
651.352;31368.531;  -11.521;33756.816
651.930;28893.479;  -12.211;31868.773
652.508;25690.492;   -9.171;33121.551
653.086;26805.361;   -9.371;33564.793
653.663;32566.398;  -13.161;34054.668
654.241;36314.789;  -13.031;35693.309
654.819;37219.066;   -9.371;36422.906
655.397;37235.785;  -10.511;38213.484
655.975;33707.160;  -10.371;39507.625
656.553;30612.332;  -10.051;39498.223
657.130;29077.127;  -10.061;40395.480
657.708;27068.467;   -9.561;39242.020
658.286;24436.619;  -11.511;38920.020
658.863;26308.654;  -10.261;40202.898
659.441;30103.900;   -7.531;39677.938
660.018;32108.100;   -9.501;40413.355
660.596;31255.600;  -13.301;39931.414
661.173;30666.105;  -11.211;39604.531
661.750;32351.076;   -9.951;39700.070
662.328;31538.336;   -9.390;39292.809
662.905;30548.494;  -11.330;38235.648
663.482;28129.955;   -9.050;36212.305
664.060;25523.145;   -8.240;35944.945
664.637;26266.902;  -10.050;35170.785
665.214;29609.861;  -11.760;34197.523
665.791;30111.557;  -10.530;34549.520
666.368;28917.969;   -9.690;35118.578
666.945;30111.959;   -9.320;36019.418
667.522;30578.514;  -11.860;36048.438
668.099;31942.143;  -10.770;36243.914
668.676;32085.146;   -6.260;35958.875
669.253;34687.289;   -7.000;37384.730
669.830;35985.723;  -10.190;36779.629
670.407;32807.559;   -9.550;35231.289
670.984;33022.910;   -9.260;35544.270
671.560;30300.479;   -9.280;35466.867
672.137;26153.033;  -11.810;34280.863
672.714;27884.830;  -11.490;34632.863
673.290;31810.107;   -7.740;35135.422
673.867;31601.289;  -10.660;36114.480
674.443;31721.584;  -12.230;36152.859
675.020;31422.709;  -10.450;35327.238
675.596;29989.357;   -9.260;35795.176
676.173;28798.922;  -10.780;35430.355
676.749;28293.578;  -13.690;33549.516
677.326;28227.775;  -11.980;32210.012
677.902;27610.570;   -8.630;32068.871
678.478;29423.816;  -10.730;32583.891
679.054;30259.025;  -10.520;32088.928
679.631;29634.820;  -11.920;30978.848
680.207;29756.328;   -7.490;33160.887
680.783;31526.010;   -9.860;35570.363
681.359;32848.117;  -13.380;36125.184
681.935;33294.922;  -12.480;35240.922
682.511;32542.926;   -7.900;34429.961
683.087;31398.270;   -7.710;34463.680
683.663;31096.807;  -11.480;34648.898
684.239;30141.029;  -14.090;34546.457
684.815;29058.412;   -7.560;35586.375
685.390;29340.967;   -9.910;35821.895
685.966;30508.545;  -11.159;35085.871
686.542;31983.715;  -11.169;34198.230
687.118;33315.504;   -5.959;32847.707
687.693;32189.701;  -10.329;32794.027
688.269;33034.074;  -12.059;33072.367
688.844;33351.914;  -10.909;33141.664
689.420;30737.410;   -8.019;33965.742
689.995;29246.215;   -8.399;34655.523
690.571;30653.828;  -10.949;33576.742
691.146;30307.354;   -9.619;32657.219
691.722;28865.297;   -8.999;32526.979
692.297;28251.174;  -11.589;33014.617
692.872;28304.447;  -11.739;34012.254
693.448;31067.422;  -11.059;34237.434
694.023;31598.545;  -10.139;34142.672
694.598;29493.646;   -9.029;34132.031
695.173;30642.082;  -13.319;34205.250
695.748;31323.912;  -10.169;32882.488
696.323;29008.975;   -8.339;32864.906
696.898;27148.287;   -8.169;33170.004
697.473;27487.141;  -12.309;32432.984
698.048;27607.703;  -10.989;31649.303
698.623;26369.602;   -9.329;30778.141
699.198;27272.367;   -9.849;31140.119
699.773;28344.439;  -12.329;31764.299
700.348;29655.590;  -10.389;31780.816
700.922;29995.758;   -9.269;32046.375
701.497;30844.861;   -9.329;32603.574
702.072;31909.605;  -10.789;34799.871
702.646;31005.441;  -10.839;35793.172
703.221;30339.607;   -9.099;35201.590
703.795;32252.881;  -10.939;34764.527
704.370;29768.557;  -12.859;34307.367
704.944;28119.398;  -11.559;33509.887
705.519;28992.637;   -7.939;31388.584
706.093;31290.027;  -10.499;31340.104
706.668;33736.184;  -11.289;32630.281
707.242;33341.117;  -11.509;32728.779
707.816;31315.889;   -9.639;32947.238
708.390;29849.711;  -11.429;33277.855
708.965;29159.609;  -11.869;33834.336
709.539;30737.385;  -11.689;33709.273
710.113;30990.021;  -10.478;33044.313
710.687;30138.885;  -10.228;31953.992
711.261;29221.520;  -13.698;30505.949
711.835;29695.576;  -13.378;30262.369
712.409;28915.020;   -9.698;31254.447
712.983;28462.551;  -11.898;32754.986
713.557;30853.041;  -15.138;34018.824
714.131;28978.725;  -14.098;34579.625
714.704;28400.176;   -9.958;33890.262
715.278;30341.604;  -10.028;33531.102
715.852;28969.232;  -11.148;33601.660
716.425;27843.238;   -9.068;33515.117
716.999;26604.168;  -10.038;33185.555
717.573;26247.967;   -9.798;33905.996
718.146;25639.965;  -12.378;35199.293
718.720;26124.863;  -11.918;35060.551
719.293;26507.275;   -8.088;34973.230
719.867;28671.590;  -10.888;36394.449
720.440;30259.875;  -11.938;36663.008
721.013;30800.645;  -12.818;35102.426
721.587;28532.418;  -10.298;33985.266
722.160;26732.133;  -10.048;33524.965
722.733;26187.309;  -12.108;32987.043
723.306;26525.197;  -10.818;33066.301
723.880;28175.209;   -8.908;33399.500
724.453;27848.881;   -9.878;33468.297
725.026;28047.803;  -11.188;33816.637
725.599;30948.404;  -11.678;32797.996
726.172;30447.949;   -9.618;33187.434
726.745;27769.947;   -8.258;35136.613
727.318;27336.480;  -12.978;35751.730
727.891;26620.043;  -12.148;35890.430
728.463;25602.234;   -8.968;34822.090
729.036;25529.752;  -10.188;32895.086
729.609;25602.078;  -11.788;31823.225
730.182;23803.545;  -11.788;31445.283
730.754;22436.518;  -10.268;32373.223
731.327;22425.412;   -9.998;33676.820
731.900;23678.211;  -12.228;33417.000
732.472;23730.369;  -13.848;31978.498
733.045;23006.537;   -8.698;30368.777
733.617;22477.676;  -10.607;30574.215
734.190;24200.775;  -11.507;31280.975
734.762;25134.332;  -13.647;31674.412
735.334;26417.150;   -9.767;31247.291
735.907;26941.240;   -9.897;29876.211
736.479;26758.385;  -11.637;29808.488
737.051;27823.355;   -9.567;30233.547
737.623;27292.168;   -8.187;31469.086
738.195;26002.279;  -11.187;31784.225
738.768;24755.344;  -12.337;32120.523
739.340;23056.291;  -12.227;32094.342
739.912;22186.209;  -11.057;31312.680
740.484;22178.391;  -10.207;31946.238
741.056;21917.043;  -10.047;32984.059
741.628;22939.758;  -13.627;33897.715
742.199;23885.098;   -7.177;33213.016
742.771;26112.324;  -10.797;31369.113
743.343;26893.646;  -11.997;31865.473
743.915;26620.848;  -12.867;32388.631
744.487;24107.975;   -7.617;31079.568
745.058;21189.703;   -9.557;30570.107
745.630;22185.926;   -9.877;29970.127
746.201;23891.865;  -14.177;29186.766
746.773;24523.861;   -9.237;28805.723
747.344;22722.541;   -9.847;29591.223
747.916;20927.977;  -11.657;31412.201
748.487;21842.361;  -10.587;32194.898
749.059;23566.986;   -8.707;32533.719
749.630;23779.102;  -10.537;32158.518
750.201;23175.436;  -11.687;30855.395
750.773;22005.242;  -11.647;28622.555
751.344;21809.221;   -7.147;28405.732
751.915;23820.551;   -9.757;28461.551
752.486;24908.139;  -12.427;27842.850
753.057;23809.744;  -12.227;27845.008
753.628;23904.357;  -10.417;27728.107
754.199;23459.637;  -11.767;27381.086
754.770;22889.178;  -11.187;25882.203
755.341;21769.760;  -10.507;25886.184
755.912;20231.043;   -9.387;26050.861
756.483;18779.535;  -10.647;26798.779
757.054;19270.322;  -11.837;27048.238
757.625;19298.449;  -12.716;26294.838
758.195;19075.727;   -9.666;26142.076
758.766;19413.451;   -8.656;26392.234
759.337;18944.795;  -12.856;26334.594
759.907;18744.365;  -13.366;27579.652
760.478;18430.711;   -8.576;28352.770
761.048;19360.377;  -10.526;27325.088
761.619;19445.004;  -11.116;26460.428
762.189;18077.924;  -12.136;26029.826
762.760;17744.209;   -9.456;26430.145
763.330;18189.457;   -7.136;26670.902
763.900;18372.709;  -11.786;26603.021
764.471;17925.561;  -11.546;25542.740
765.041;16984.359;   -8.096;24358.459
765.611;16249.664;   -8.876;23991.297
766.181;16286.850;  -12.196;24470.236
766.751;16146.470;  -11.636;24845.975
767.321;17072.365;  -10.156;24533.633
767.891;16518.898;  -11.766;24916.492
768.461;16726.926;  -14.936;24776.771
769.031;17748.379;  -12.356;24757.988
769.601;18363.594;   -7.526;24181.088
770.171;18146.158;  -10.766;23670.387
770.741;17372.320;  -13.176;22960.045
771.311;16947.383;  -10.616;22917.523
771.880;17175.186;   -9.576;23562.941
772.450;16768.078;  -10.336;24216.500
773.020;16355.663;  -13.516;24140.398
773.589;16971.033;  -13.466;24414.857
774.159;16884.455;   -8.686;23858.717
774.729;15563.674;   -9.476;22942.135
775.298;13822.653;  -13.666;22324.033
775.867;13584.524;  -11.716;21140.313
776.437;13736.013;   -9.906;20838.092
777.006;12993.199;  -12.166;20599.510
777.576;12503.408;  -12.356;20508.809
778.145;12390.895;  -11.646;20732.947
778.714;12811.761;   -8.226;21062.465
779.283;13835.048;   -9.556;20949.664
779.853;14492.732;  -14.116;20508.623
780.422;13968.633;  -11.506;20649.082
780.991;13559.771;   -9.556;21527.520
781.560;13245.452;   -9.095;22632.658
782.129;13044.710;  -12.135;23048.277
782.698;12935.717;  -10.865;23438.555
783.267;12653.139;   -9.335;23267.734
783.836;12691.671;  -11.045;22415.133
784.404;13325.676;  -13.865;20443.152
784.973;12635.326;  -13.095;19699.150
785.542;11335.316;  -11.575;19763.828
786.111;10704.199;   -9.705;20341.408
786.679;11329.623;  -12.105;20207.967
787.248;11595.246;  -12.455;19516.465
787.817;11342.471;  -11.535;18900.363
788.385;11476.126;   -9.765;17879.121
788.954;11435.832;  -14.005;17658.301
789.522;10889.434;  -11.955;17788.879
790.090;11147.534;  -10.135;18118.277
790.659;12121.739;  -10.975;18338.736
791.227;12080.715;  -13.375;18508.615
791.795;11480.009;  -12.375;17898.254
792.364;10932.602;  -10.725;17295.133
792.932;11075.448;   -9.715;16822.051
793.500;11147.027;  -12.675;17040.148
794.068;10864.390;  -13.495;17179.787
794.636; 9772.476;  -10.885;16664.246
795.204; 8795.106;  -11.045;16524.545
795.772; 9399.014;  -13.175;17274.564
796.340;10506.835;  -12.445;17891.002
796.908;10361.325;   -9.735;17648.561
797.476;10723.711;   -9.815;17064.080
798.044;11516.685;  -13.985;16672.777
798.612;11362.226;  -13.115;17023.996
799.180;10142.925;  -10.185;16561.615
799.747; 9169.691;   -9.055;15962.773
800.315; 8559.311;  -12.385;15296.992
800.883; 8805.752;  -15.035;14801.771
801.450; 9083.882;  -10.365;14534.430
802.018; 9188.453;   -9.855;14173.248
802.585; 9382.038;  -11.905;14029.547
803.153; 8971.715;  -11.585;13836.846
803.720; 8355.455;   -9.095;13567.324
804.287; 8437.967;   -9.135;13360.622
804.855; 8751.936;  -11.604;13681.981
805.422; 8807.861;  -11.794;13536.560
805.989; 8632.384;  -10.734;13355.958
806.556; 8210.024;  -10.444;13747.896
807.124; 8090.488;  -12.764;13987.376
807.691; 8659.550;  -12.964;14038.674
808.258; 9087.619;  -11.134;14120.152
808.825; 9275.743;   -9.854;13860.111
809.392; 8965.286;  -10.504;13268.790
809.959; 8503.341;  -13.054;12680.389
810.526; 8311.040;   -8.294;12427.308
811.093; 7979.629;   -8.394;12030.105
811.659; 7240.961;  -12.304;11653.664
812.226; 7033.653;  -13.944;11637.183
812.793; 7548.060;  -10.484;11611.521
813.360; 7698.836;  -10.144;11885.181
813.926; 7014.212;  -11.684;12770.539
814.493; 6391.636;  -13.644;12677.638
815.060; 6256.007;   -9.724;11974.336
815.626; 6565.363;   -9.854;11594.715
816.193; 6583.079;  -13.254;11579.474
816.759; 6579.414;  -13.204;11666.972
817.325; 6369.305;   -9.434;11325.530
817.892; 6079.841;  -10.134;11105.369
818.458; 6008.930;  -13.474;10843.928
819.024; 5991.871;  -11.854;10714.406
819.591; 6257.556;  -10.244;10469.165
820.157; 6356.887;  -10.704;10235.523
820.723; 6614.135;  -12.324;10847.563
821.289; 7018.908;   -9.444;11040.980
821.855; 7082.691;   -8.374;10357.100
822.421; 6727.989;  -10.234; 9978.918
822.987; 6477.512;  -13.294; 9754.177
823.553; 6339.094;  -10.884;10065.755
824.119; 5913.207;   -8.884;10036.294
824.685; 5739.509;   -6.784;10029.192
825.251; 5699.792;  -12.004;10199.230
825.816; 5809.413;  -11.474; 9820.189
826.382; 5574.273;   -9.174; 9297.248
826.948; 5283.715;   -9.214; 9381.347
827.513; 5046.255;  -10.774; 9450.726
828.079; 4994.146;  -11.924; 9472.444
828.645; 5093.694;  -10.543; 9292.643
829.210; 5303.789;  -10.533; 9065.341
829.776; 5318.893;  -10.753; 9132.620
830.341; 5204.089;  -10.173; 9092.878
830.906; 5278.335;  -10.743; 9078.557
831.472; 5178.130;  -11.113; 8534.535
832.037; 4710.696;  -10.603; 8677.874
832.602; 4615.586;  -13.323; 8628.692
833.167; 4954.930;  -10.823; 8879.031
833.733; 4931.721;  -10.113; 9189.790
834.298; 4686.278;  -13.583; 9052.608
834.863; 4553.130;  -12.703; 8895.087
835.428; 4430.559;  -10.523; 8824.266
835.993; 4373.393;   -6.963; 8845.385
836.558; 4469.788;  -10.763; 8888.563
837.123; 4573.893;   -9.903; 8966.582
837.688; 4408.994;   -9.913; 8617.860
838.253; 4268.874;  -10.283; 8590.699
838.817; 4425.515;  -12.963; 8443.797
839.382; 4603.626;  -14.243; 8799.356
839.947; 4484.536;  -10.733; 8810.595
840.511; 4546.409;   -9.383; 8796.394
841.076; 4575.508;  -12.563; 8347.231
841.641; 4397.848;  -12.953; 8224.330
842.205; 4127.002;   -7.043; 8223.349
842.770; 4071.552;   -8.163; 8622.107
843.334; 4110.309;  -12.503; 8410.386
843.898; 4080.419;  -11.693; 8337.465
844.463; 3971.890;  -10.203; 8506.283
845.027; 3883.223;   -9.533; 8280.962
845.591; 3926.439;  -13.443; 8231.141
846.156; 3853.152;  -13.143; 7969.179
846.720; 3676.671;   -9.433; 7768.278
847.284; 3385.985;  -11.033; 7630.957
847.848; 3219.639;  -10.403; 7472.395
848.412; 3245.139;  -11.553; 7437.394
848.976; 3443.673;   -8.393; 7674.592
849.540; 3498.981;   -8.713; 7836.011
850.104; 3478.143;  -12.463; 7913.669
850.668; 3595.519;  -12.973; 7694.508
851.232; 3622.697;  -10.793; 7756.887
851.796; 3545.873;  -10.662; 7926.545
852.359; 3584.869;  -13.082; 7827.844
852.923; 3351.009;  -12.192; 7641.163
853.487; 3263.172;  -11.912; 7342.501
854.050; 3415.480;  -10.892; 7042.820
854.614; 3393.610;  -13.992; 7151.338
855.177; 3262.388;  -11.732; 7105.077
855.741; 3184.879;   -8.962; 6989.675
856.304; 3089.686;   -9.442; 6596.634
856.868; 2857.938;  -14.192; 6356.272
857.431; 2648.792;  -12.702; 6468.571
857.995; 2681.375;   -9.942; 6373.210
858.558; 2711.572;   -9.112; 6324.448
859.121; 2535.284;  -12.932; 6408.327
859.684; 2472.771;  -13.442; 6347.886
860.247; 2872.615;  -10.632; 6321.264
860.810; 3203.650;  -11.272; 6301.903
861.374; 3226.843;   -9.832; 6607.881
861.937; 3208.442;  -11.762; 6408.200
862.500; 3075.400;   -9.722; 6572.639
863.062; 2769.759;  -10.512; 6387.297
863.625; 2639.052;  -11.232; 6190.836
864.188; 2623.588;  -14.112; 5807.254
864.751; 2615.639;  -11.302; 5682.413
865.314; 2725.458;  -10.112; 5547.492
865.876; 2765.611;  -12.182; 5500.150
866.439; 2691.411;  -10.722; 5415.909
867.002; 2542.455;   -9.252; 5501.567
867.564; 2440.294;   -9.572; 5413.946
868.127; 2316.296;  -13.142; 5160.325
868.689; 2038.218;  -12.902; 5133.183
869.252; 1903.602;   -9.732; 5252.382
869.814; 1921.996;   -9.432; 5297.141
870.377; 2025.519;  -11.552; 5390.919
870.939; 2012.846;   -9.052; 5599.898
871.501; 1943.013;  -10.982; 5248.336
872.063; 1966.859;  -12.292; 4854.235
872.626; 1963.661;  -14.912; 4817.074
873.188; 1963.461;  -13.112; 4987.732
873.750; 1920.689;  -13.442; 4868.651
874.312; 1976.061;   -9.402; 4779.330
874.874; 2110.331;  -11.062; 4866.348
875.436; 2007.397;  -13.931; 4718.887
875.998; 1732.000;   -9.561; 4660.005
876.560; 1577.015;  -11.321; 4462.964
877.122; 1569.531;  -12.221; 4145.042
877.683; 1552.588;  -12.191; 4056.481
878.245; 1640.296;  -12.101; 3950.740
878.807; 1787.699;   -8.971; 4058.958
879.369; 1818.457;  -12.071; 3954.677
879.930; 1744.128;  -14.621; 3941.495
880.492; 1574.744;  -10.311; 4067.014
881.053; 1419.245;  -10.901; 3859.633
881.615; 1399.841;  -14.411; 3776.071
882.176; 1430.481;  -13.761; 3734.750
882.738; 1448.223;   -9.181; 3678.489
883.299; 1411.081;  -11.791; 3405.407
883.860; 1336.368;  -13.121; 3351.106
884.422; 1232.775;  -11.211; 3394.044
884.983; 1152.484;  -10.091; 3166.443
885.544; 1128.017;   -8.461; 3189.802
886.105; 1075.016;  -12.361; 3160.360
886.666; 1002.930;  -14.141; 3093.059
887.227;  976.291;  -11.361; 2941.957
887.788;  988.590;  -11.401; 2974.836
888.349;  943.767;  -13.791; 2721.214
888.910;  851.835;  -13.191; 2696.493
889.471;  751.484;   -9.881; 2560.172
890.032;  680.230;   -9.881; 2558.190
890.593;  679.874;  -10.371; 2567.669
891.153;  682.878;  -13.301; 2460.307
891.714;  625.099;  -11.431; 2372.046
892.275;  576.063;  -11.291; 2309.505
892.835;  561.067;  -11.471; 2382.543
893.396;  547.818;  -11.541; 2295.502
893.956;  541.014;  -11.181; 2162.420
894.517;  528.081;  -11.741; 2125.439
895.077;  482.822;  -11.671; 2086.978
895.638;  435.237;  -11.311; 2126.316
896.198;  416.637;   -9.831; 1838.275
896.758;  415.410;   -8.421; 1892.813
897.319;  409.510;  -12.351; 1792.232
897.879;  390.897;  -13.511; 1762.751
898.439;  366.397;  -12.001; 1661.149
898.999;  346.954;  -10.180; 1781.468
899.559;  334.376;  -12.030; 1703.347
900.119;  326.172;  -15.710; 1537.525
900.679;  306.708;   -8.900; 1638.384
901.239;  279.936;   -8.340; 1527.902
901.799;  265.730;  -13.910; 1456.441
902.359;  256.080;  -13.460; 1357.140
902.919;  251.028;  -11.490; 1331.118
903.479;  247.264;  -12.110; 1317.257
904.038;  240.218;  -11.720; 1262.595
904.598;  226.622;  -13.610; 1152.034
905.158;  216.123;  -11.040; 1240.893
905.717;  209.638;  -10.900; 1233.691
906.277;  205.064;  -15.080; 1217.330
906.836;  202.018;  -13.380; 1222.408
907.396;  199.557;  -10.780; 1193.047
907.955;  193.294;   -8.500; 1182.526
908.515;  186.856;  -12.760; 1099.364
909.074;  183.281;  -11.900; 1092.863
909.633;  179.978;   -8.950; 1069.121
910.192;  176.736;   -8.770; 1196.460
910.752;  171.741;  -12.390; 1029.960
911.311;  169.052;  -13.680; 1009.780
911.870;  164.387;  -12.370;  971.460
912.429;  160.291;  -10.900; 1094.080
912.988;  158.536;  -11.690; 1081.060
913.547;  155.090;  -13.240;  940.380
914.106;  153.836;  -11.990;  999.420
914.665;  153.468;   -9.990;  984.020
915.224;  152.595;  -12.880; 1035.760
915.782;  152.126;  -12.350;  922.560
916.341;  151.866;   -9.110; 1049.840
916.900;  149.758;   -9.270;  925.260
917.458;  146.713;  -13.240;  884.220
918.017;  144.648;  -13.550;  942.600
918.576;  145.262;  -12.320;  904.440
919.134;  144.927;  -11.490;  837.980
919.693;  142.615;  -13.670;  893.060
920.251;  141.208;  -15.470;  876.500
920.809;  140.500;  -11.290;  839.580
921.368;  140.380;  -10.210;  885.360
921.926;  140.432;  -12.140;  842.940
922.484;  139.728;  -13.080;  903.360
923.042;  137.927;  -11.720;  880.340
923.601;  140.225;   -7.480;  998.680
924.159;  138.321;  -11.570;  935.560
924.717;  137.996;  -13.840;  841.080
925.275;  139.538;  -10.640;  903.240
925.833;  137.801;  -11.540;  779.320
926.391;  138.423;  -12.960;  938.380
926.949;  138.152;  -14.130;  857.680
927.506;  139.161;  -11.750;  903.500
928.064;  138.436;  -10.250;  877.580
928.622;  136.502;  -13.030;  880.100
929.180;  138.163;  -13.400;  814.180
929.737;  138.541;  -10.700;  808.540
930.295;  140.700;  -10.070;  928.480
930.853;  140.644;  -11.960;  849.100
931.410;  139.624;  -13.120;  821.120
931.968;  141.055;  -10.770;  940.660
932.525;  142.110;  -10.680;  909.380
933.082;  144.583;  -13.130;  811.440
933.640;  150.803;  -13.210;  925.900
934.197;  150.652;  -11.060;  886.360
934.754;  150.526;   -9.580;  897.780
935.312;  150.389;  -14.000;  863.340
935.869;  154.747;  -10.710; 1012.980
936.426;  152.723;   -9.860;  872.800
936.983;  151.983;   -9.710;  889.020
937.540;  149.635;  -13.990;  838.280
938.097;  149.750;  -14.040;  940.120
938.654;  152.791;  -10.310;  898.860
939.211;  152.886;  -10.560;  952.480
939.768;  151.186;  -13.900;  915.420
940.324;  152.565;  -14.760;  904.200
940.881;  157.110;  -10.370;  878.500
941.438;  163.116;   -8.260; 1021.200
941.995;  163.689;  -12.540;  992.560
942.551;  162.012;  -14.670;  875.620
943.108;  162.401;  -10.450;  937.920
943.664;  163.203;  -10.750;  869.340
944.221;  168.837;  -11.550; 1088.140
944.777;  171.140;  -14.770;  869.680
945.334;  169.643;  -12.820;  884.840
945.890;  168.452;  -10.130;  946.480
946.446;  164.996;  -13.470;  947.020
947.003;  166.589;  -12.120;  964.940
947.559;  167.036;   -9.980; 1063.040
948.115;  163.215;   -9.080; 1026.540
948.671;  159.825;  -10.830;  967.300
949.227;  157.092;  -12.440;  859.560
949.783;  156.280;  -12.910;  858.900
950.339;  158.295;  -10.270;  991.000
950.895;  159.728;  -13.630; 1023.840
951.451;  158.799;  -15.100;  925.280
952.007;  159.406;  -11.330;  998.540
952.563;  155.566;  -10.580;  937.780
953.118;  152.492;  -13.440;  904.940
953.674;  149.764;  -12.710;  935.780
954.230;  152.088;  -10.350;  949.640
954.785;  154.104;   -9.190;  936.640
955.341;  155.503;  -11.200;  998.160
955.897;  151.658;  -16.560;  834.660
956.452;  151.089;  -12.570;  953.840
957.008;  148.185;   -7.970; 1083.640
957.563;  147.426;  -11.940; 1009.540
958.118;  145.047;  -13.450;  877.700
958.674;  145.458;  -12.030;  946.780
959.229;  145.660;   -9.410; 1013.980
959.784;  143.982;  -12.000;  832.400
960.339;  141.397;  -14.780; 1001.280
960.894;  135.166;   -9.860;  963.760
961.449;  130.374;   -9.970;  859.960
962.004;  128.513;  -10.900; 1212.840
962.559;  123.032;  -13.150;  860.140
963.114;  120.900;  -13.740;  742.480
963.669;  122.507;   -9.820;  915.500
964.224;  121.783;  -13.890;  874.340
964.779;  121.808;  -12.600;  828.420
965.334;  123.183;  -10.950; 1017.860
965.888;  120.296;  -11.170;  875.360
966.443;  121.600;  -12.540;  972.380
966.998;  120.542;  -15.780;  819.460
967.552;  121.633;   -9.760;  908.380
968.107;  115.650;   -9.060;  868.300
968.661;  114.263;  -11.950;  922.440
969.216;  113.098;  -12.800;  856.280
969.770;  113.736;  -11.210;  917.200
970.324;  111.360;  -11.610;  923.140
970.879;  108.863;  -11.370;  947.180
971.433;  108.392;  -12.540;  952.720
971.987;  106.885;  -11.320;  895.340
972.541;  105.721;  -10.720;  917.100
973.095;  106.618;   -9.680; 1009.460
973.649;  105.548;  -11.440;  809.480
974.203;  106.258;  -11.210;  829.040
974.757;  105.962;  -10.240;  855.220
975.311;  104.902;  -13.720;  872.600
975.865;  106.366;  -13.770;  881.820
976.419;  105.157;  -11.690;  857.400
976.973;  105.320;   -9.510;  849.620
977.526;  104.956;  -12.620;  949.920
978.080;  101.473;  -12.010;  796.780
978.634;  101.032;  -10.170;  921.320
979.187;   97.571;   -9.020;  905.400
979.741;   96.133;   -9.820; 1018.380
980.294;   91.922;  -14.870;  789.160
980.848;   88.633;  -12.380;  717.220
981.401;   88.467;  -10.350;  816.540
981.955;   88.280;  -13.720;  844.300
982.508;   85.625;  -11.490;  746.340
983.061;   84.771;  -10.000;  915.260
983.615;   84.210;  -11.480;  798.800
984.168;   83.589;  -13.220;  770.080
984.721;   83.716;  -13.960;  880.760
985.274;   81.344;  -10.870;  867.500
985.827;   79.895;   -9.790;  834.220
986.380;   78.439;  -13.120;  721.340
986.933;   79.624;  -12.450;  864.800
987.486;   79.124;  -10.210;  861.920
988.039;   78.624;   -8.430;  863.100
988.591;   75.041;  -10.520;  893.260
989.144;   71.922;  -14.860;  737.260
989.697;   71.292;  -13.080;  758.740
990.250;   69.808;  -10.150;  858.100
990.802;   67.054;  -13.430;  755.860
991.355;   67.251;  -12.750;  974.880
991.907;   64.523;  -12.040;  864.320
992.460;   61.796;  -11.330;  753.760
993.012;   60.712;  -13.610;  749.540
993.565;   60.518;  -13.460;  711.360
994.117;   61.750;   -9.360;  950.780
994.669;   58.502;  -11.300;  701.320
995.221;   58.138;  -13.540;  791.920
995.774;   57.550;  -13.430;  787.580
996.326;   56.680;  -12.520;  740.220
996.878;   56.665;  -10.950;  838.420
997.430;   54.698;  -14.300;  699.860
997.982;   53.114;  -13.760;  750.140
998.534;   53.511;  -11.530;  739.060
999.086;   52.266;  -10.310;  738.220
999.638;   50.957;  -12.530;  661.380
1000.190;   49.637;  -11.840;  699.320
1000.741;   50.033;  -10.260;  742.700
1001.293;   49.988;   -8.860;  686.020
1001.845;   48.236;  -13.700;  676.640
1002.396;   49.039;  -12.100;  743.400
1002.948;   48.238;  -12.760;  737.400
1003.500;   47.373;  -10.380;  723.780
1004.051;   46.646;  -11.900;  907.580
1004.603;   45.738;  -12.250;  791.820
1005.154;   42.763;  -13.210;  608.980
1005.705;   42.326;  -10.950;  723.960
1006.257;   41.314;  -13.880;  707.220
1006.808;   40.858;  -12.840;  685.460
1007.359;   41.194;  -10.570;  763.240
1007.910;   39.914;   -9.620;  646.640
1008.461;   39.744;  -13.630;  732.940
1009.013;   37.371;  -17.200;  588.340
1009.564;   39.490;  -10.200;  793.520
1010.115;   37.558;  -12.570;  597.040
1010.665;   37.078;  -15.150;  602.160
1011.216;   37.454;  -14.480;  667.920
1011.767;   37.035;  -11.340;  697.920
1012.318;   36.974;   -9.780;  736.980
1012.869;   35.361;  -12.380;  679.000
1013.419;   35.093;  -15.560;  603.120
1013.970;   35.297;  -11.010;  666.640
1014.521;   33.974;  -11.610;  620.620
1015.071;   34.982;  -13.450;  670.380
1015.622;   34.127;  -13.870;  635.460
1016.172;   34.587;  -11.610;  596.820
1016.723;   33.642;  -12.120;  614.380
1017.273;   33.376;  -13.620;  604.160
1017.823;   33.310;  -14.140;  650.340
1018.374;   33.142;  -12.800;  611.760
1018.924;   33.751;  -12.340;  716.880
1019.474;   33.520;  -11.410;  718.880
1020.024;   31.676;  -14.770;  657.580
1020.574;   32.326;   -9.780;  726.160
1021.124;   33.261;   -8.560;  673.580
1021.674;   31.516;  -15.190;  559.120
1022.224;   32.556;  -13.530;  708.940
1022.774;   32.095;  -13.280;  668.820
1023.324;   32.350;  -10.690;  753.520
1023.874;   32.635;  -10.240;  875.760
1024.423;   31.048;  -12.540;  613.700
1024.973;   30.805;  -10.010;  610.760
1025.523;   30.248;  -10.550;  620.960
1026.072;   29.069;  -13.560;  606.420
1026.622;   28.669;  -15.120;  675.740
1027.172;   31.047;  -11.260;  715.660
1027.721;   29.078;  -11.410;  601.220
1028.270;   29.141;  -13.530;  663.400
1028.820;   28.386;  -13.680;  638.080
1029.369;   28.867;  -13.520;  612.700
1029.918;   29.005;  -10.980;  649.840
1030.468;   28.626;  -13.530;  564.780
1031.017;   29.051;  -13.170;  634.800
1031.566;   28.234;  -12.200;  608.900
1032.115;   28.678;   -9.960;  694.500
1032.664;   26.971;  -13.210;  596.480
1033.213;   28.097;  -12.500;  735.420
1033.762;   27.572;  -11.910;  635.620
1034.311;   27.006;   -9.640;  677.220
1034.860;   27.168;  -13.310;  691.000
1035.408;   27.328;  -11.830;  722.720
1035.957;   27.561;  -12.000;  719.540
1036.506;   24.913;  -11.690;  530.800
1037.055;   28.163;  -10.990;  844.320
1037.603;   26.045;  -15.120;  664.000
1038.152;   25.547;  -12.450;  534.760
1038.700;   25.360;  -10.560;  585.740
1039.249;   25.295;  -11.080;  681.220
1039.797;   25.833;  -12.540;  633.360
1040.345;   25.554;  -11.920;  705.420
1040.894;   25.157;  -11.410;  625.300
1041.442;   24.567;  -14.320;  632.200
1041.990;   23.766;  -16.240;  559.160
1042.538;   23.556;  -11.680;  536.180
1043.087;   24.094;  -10.760;  570.860
1043.635;   24.491;  -11.850;  670.500
1044.183;   23.986;  -15.480;  586.400
1044.731;   23.734;  -11.770;  576.000
1045.279;   23.755;  -13.090;  674.920
1045.827;   25.056;  -12.440;  892.400
1046.374;   22.071;  -13.840;  515.420
1046.922;   22.145;  -13.220;  590.580
1047.470;   23.882;  -10.230;  691.300
1048.018;   23.797;  -14.590;  647.960
1048.565;   24.063;  -12.050;  708.600
1049.113;   22.025;  -11.650;  557.000
1049.660;   22.536;  -10.510;  629.660
1050.208;   22.236;  -13.310;  675.640
1050.755;   21.773;  -15.900;  606.580
1051.303;   22.944;  -11.430;  686.820
1051.850;   22.098;   -8.480;  635.120
1052.397;   20.028;  -15.010;  473.960
1052.945;   20.438;  -13.960;  617.760
1053.492;   21.898;  -13.150;  741.840
1054.039;   22.322;   -9.630;  720.180
1054.586;   20.765;  -13.680;  557.240
1055.133;   21.741;  -14.570;  693.140
1055.680;   21.843;  -13.820;  646.620
1056.227;   20.922;  -11.730;  542.780
1056.774;   21.952;  -12.480;  794.980
1057.321;   19.882;  -13.930;  523.260
1057.868;   20.628;  -11.690;  651.320
1058.415;   19.689;   -9.520;  651.980
1058.961;   19.938;  -13.160;  678.940
1059.508;   20.124;  -12.920;  643.820
1060.055;   19.416;  -11.920;  581.780
1060.601;   19.988;  -11.500;  624.300
1061.148;   19.825;  -14.330;  616.820
1061.694;   18.969;  -16.870;  592.580
1062.241;   19.685;  -10.330;  596.320
1062.787;   19.632;  -10.620;  663.140
1063.334;   21.260;  -10.110;  808.560
1063.880;   19.600;  -13.400;  668.360
1064.426;   19.223;  -10.680;  706.820
1064.972;   18.212;   -9.920;  601.340
1065.518;   16.462;  -10.980;  566.640
1066.065;   17.952;  -14.890;  624.460
1066.611;   17.793;  -12.870;  598.800
1067.157;   18.437;  -12.950;  641.860
1067.703;   18.811;  -13.540;  668.480
1068.249;   18.395;  -13.540;  605.220
1068.794;   17.525;  -12.600;  626.880
1069.340;   17.383;  -10.620;  578.960
1069.886;   17.122;  -12.830;  590.700
1070.432;   16.119;  -14.870;  541.720
1070.977;   16.842;  -11.980;  601.080
1071.523;   17.210;   -8.200;  573.060
1072.068;   16.219;  -12.330;  582.000
1072.614;   16.090;  -16.370;  527.760
1073.160;   17.439;  -11.100;  687.040
1073.705;   15.953;  -10.480;  572.520
1074.250;   15.939;  -14.520;  559.900
1074.796;   17.137;  -11.460;  655.160
1075.341;   17.157;  -11.950;  664.100
1075.886;   16.113;  -11.460;  594.240
1076.431;   15.505;  -13.770;  649.880
1076.976;   15.348;  -12.680;  639.220
1077.521;   14.834;  -13.170;  583.080
1078.067;   14.277;  -10.860;  579.400
1078.612;   14.913;  -13.920;  661.620
1079.156;   14.599;  -13.880;  601.540
1079.701;   16.067;  -13.120;  693.260
1080.246;   16.206;   -9.940;  696.300
1080.791;   15.288;  -14.740;  625.020
1081.336;   15.440;  -13.750;  659.320
1081.880;   14.851;  -13.400;  649.680
1082.425;   14.244;  -12.220;  573.480
1082.970;   15.933;  -11.610;  717.040
1083.514;   13.936;  -13.580;  597.000
1084.059;   13.950;  -12.810;  586.720
1084.603;   13.256;  -12.320;  565.840
1085.147;   14.215;  -13.190;  645.220
1085.692;   15.448;  -12.480;  716.800
1086.236;   13.051;  -13.020;  503.140
1086.780;   15.168;   -9.190;  751.440
1087.325;   14.014;  -12.480;  654.620
1087.869;   13.378;  -12.450;  610.700
1088.413;   14.244;  -12.240;  705.040
1088.957;   12.319;   -9.020;  543.400
1089.501;   13.681;  -10.320;  766.640
1090.045;   13.500;  -12.720;  726.480
1090.589;   10.701;  -13.690;  569.920
1091.133;   12.915;  -10.020;  673.340
1091.676;   12.494;  -12.330;  591.940
1092.220;   12.099;  -14.970;  600.920
1092.764;   13.841;  -12.430;  706.960
1093.307;   13.049;   -9.800;  673.780
1093.851;   11.119;  -14.970;  556.540
1094.395;   12.652;  -15.310;  683.140
1094.938;   11.953;  -10.370;  632.520
1095.482;   11.773;  -11.050;  559.800
1096.025;   12.418;  -11.840;  710.880
1096.568;   12.341;  -12.840;  779.280
1097.112;   10.101;  -14.700;  508.180
1097.655;   12.028;   -8.720;  603.000
1098.198;    9.695;  -13.610;  600.180
1098.741;   10.533;  -13.350;  612.860
1099.285;   11.398;  -11.230;  657.300
1099.828;    9.439;  -11.840;  439.400
1100.371;   10.566;  -10.840;  608.160
1100.914;   11.123;  -14.190;  682.660
1101.457;   10.843;  -11.240;  679.900
1101.999;    9.828;  -11.270;  584.680
1102.542;   10.556;  -11.480;  641.440
1103.085;    9.472;  -11.750;  658.500
1103.628;   11.048;  -11.400;  762.060
1104.170;    9.862;  -10.490;  588.280
1104.713;   10.408;  -10.600;  646.700
1105.256;    9.129;  -14.360;  557.440
1105.798;    8.446;  -13.210;  499.980
1106.341;   10.633;  -10.270;  728.900
1106.883;    9.754;  -12.200;  521.340
1107.425;    9.506;  -13.110;  668.180
1107.968;    8.936;  -12.840;  612.380
1108.510;   10.412;   -6.480;  684.960
1109.052;    7.936;  -13.940;  612.620
1109.594;    7.990;  -13.690;  554.440
1110.136;    9.770;  -11.880;  643.220
1110.679;    7.988;   -9.500;  633.080
1111.221;    8.776;  -14.160;  604.460
1111.763;    7.058;  -13.980;  559.220
1112.304;    7.867;  -13.880;  547.140
1112.846;    9.131;  -12.210;  666.240
1113.388;   11.336;  -11.390;  942.180
1113.930;    8.710;  -14.540;  694.200
1114.472;    7.583;  -12.640;  606.540
1115.013;    6.227;  -11.620;  551.280
1115.555;    6.630;  -13.640;  587.100
1116.097;    6.498;  -15.380;  579.480
1116.638;    7.254;  -12.640;  684.600
1117.180;    8.275;   -9.850;  667.740
1117.721;    7.084;  -13.690;  568.580
1118.262;    8.071;  -12.680;  677.960
1118.804;    7.787;  -12.530;  637.340
1119.345;    7.396;  -11.690;  578.400
1119.886;    7.601;  -13.380;  704.040
1120.427;    6.504;  -14.070;  589.020
1120.969;    6.086;  -13.500;  597.920
1121.510;    5.832;  -11.480;  563.060
1122.051;    6.622;  -12.830;  723.580
1122.592;    5.468;  -14.290;  655.420
1123.133;    5.716;  -12.400;  547.940
1123.673;    7.452;  -10.130;  706.480
1124.214;    5.707;  -12.930;  612.460
1124.755;    6.701;  -14.380;  639.460
1125.296;    6.438;  -14.000;  627.320
1125.836;    7.025;  -10.070;  691.500
1126.377;    5.850;  -12.640;  599.660
1126.918;    6.515;  -12.960;  614.980
1127.458;    4.876;  -13.350;  622.220
1127.999;    5.931;  -10.750;  656.980
1128.539;    5.089;  -12.350;  694.240
1129.079;    5.237;  -14.860;  632.720
1129.620;    4.304;  -13.840;  558.100
1130.160;    4.865;  -12.330;  539.480
1130.700;    5.252;  -14.530;  640.840
1131.240;    5.708;  -12.530;  643.700
1131.781;    4.944;  -14.450;  619.680
1132.321;    5.109;   -9.790;  599.120
1132.861;    3.898;  -14.860;  564.200
1133.401;    4.083;  -14.290;  593.940
1133.941;    4.012;  -11.750;  626.280
1134.481;    4.058;   -9.920;  597.580
1135.020;    3.942;  -12.290;  609.160
1135.560;    4.454;  -11.650;  674.940
1136.100;    3.117;  -16.270;  501.160
1136.640;    2.987;  -10.890;  510.480
1137.179;    3.110;  -14.180;  537.960
1137.719;    3.640;  -16.250;  605.400
1138.258;    3.949;  -14.230;  587.360
1138.798;    4.087;   -9.090;  663.780
1139.337;    1.961;  -15.130;  482.840
1139.877;    3.337;  -13.680;  642.360
1140.416;    5.668;  -11.320;  878.060
1140.955;    3.137;  -10.860;  535.380
1141.494;    2.935;  -12.920;  669.280
1142.034;    3.238;  -13.930;  583.520
1142.573;    3.485;  -11.440;  646.280
1143.112;    2.766;  -12.000;  553.480
1143.651;    3.069;  -13.670;  536.480
1144.190;    3.309;  -12.730;  691.640
1144.729;    3.042;  -14.560;  607.420
1145.267;    3.281;  -11.830;  584.900
1145.806;    3.259;  -12.230;  637.040
1146.345;    2.424;  -14.130;  635.020
1146.884;    2.761;  -11.590;  622.500
1147.422;    1.834;  -12.550;  533.060
1147.961;    2.987;  -11.180;  708.460
1148.500;    2.925;  -11.510;  669.720
1149.038;    3.458;  -11.640;  632.500
1149.577;    3.083;  -10.130;  698.640
1150.115;    0.682;  -13.970;  452.280
1150.653;    1.781;  -14.520;  607.340
1151.192;    1.977;  -12.810;  552.920
1151.730;    2.088;   -9.100;  652.560
1152.268;    1.923;  -12.220;  589.520
1152.806;    1.326;  -14.140;  571.180
1153.344;    0.518;  -12.350;  577.640
1153.882;    1.766;   -8.980;  600.060
1154.421;   -0.288;  -15.190;  470.620
1154.958;    0.737;  -15.210;  595.240
1155.496;    2.343;  -12.850;  645.280
1156.034;    1.654;   -9.940;  721.880
1156.572;    1.998;  -13.570;  667.060
1157.110;    0.226;  -14.590;  473.940
1157.647;    1.620;  -13.030;  676.960
1158.185;    0.810;  -12.140;  564.320
1158.723;   -0.104;  -14.390;  509.200
1159.260;    1.607;  -14.090;  701.700
1159.798;    1.811;  -11.920;  658.160
1160.335;    0.514;  -11.110;  631.820

