
Integration time [ms]:   3.882
Averaging Nr. [scans]: 1000
Smoothing Nr. [pixels]: 0
Data measured with spectrometer [name]: 7414430SP
Wave   ;Sample   ;Dark     ;Reference
[nm]   ;[counts] ;[counts] ;[counts] 

288.544;  125.657;   10.292;  793.890
289.143;  129.453;    4.564;  681.602
289.742;  131.523;    6.144;  828.814
290.341;  118.099;    4.396;  789.841
290.940;  108.531;    0.938;  730.702
291.538;  109.853;   -0.684;  881.108
292.137;  109.526;   -2.845;  792.581
292.736;  112.522;   -0.144;  975.101
293.335;  109.498;   -6.352;  735.086
293.934;  111.063;   -7.642;  781.677
294.532;  112.039;   -4.992; 1031.958
295.131;   96.568;   -5.478;  834.394
295.730;   96.613;   -6.549;  809.588
296.328;   94.724;   -9.558;  783.442
296.927;   95.937;   -8.118;  779.652
297.525;   95.425;   -6.908;  781.236
298.124;   86.393;   -9.195;  654.009
298.722;   90.168;   -8.198;  761.933
299.321;   88.596;   -8.817;  708.597
299.919;   86.113;   -7.716;  751.918
300.518;   82.932;  -10.745;  689.338
301.116;   85.042;   -9.647;  691.381
301.715;   84.836;  -10.828;  730.222
302.313;   83.966;   -6.087;  704.943
302.911;   79.370;   -6.824;  733.830
303.509;   85.117;   -8.807;  925.627
304.108;   82.275;   -8.198;  760.383
304.706;   81.738;   -6.218;  801.664
305.304;   77.271;   -7.185;  796.707
305.902;   83.804;   -8.568;  784.484
306.500;   78.052;   -7.737;  728.200
307.098;   76.345;   -6.026;  746.560
307.696;   75.186;   -7.176;  780.432
308.294;   76.296;   -8.656;  731.359
308.892;   78.959;   -6.838;  759.769
309.490;   73.551;   -2.596;  712.161
310.088;   71.667;   -4.485;  788.444
310.686;   76.590;   -3.907;  821.749
311.284;   73.028;   -2.806;  766.040
311.882;   69.759;   -2.845;  731.225
312.480;   66.425;   -3.274;  697.167
313.078;   69.255;   -3.645;  808.331
313.675;   70.525;   -4.997;  691.600
314.273;   66.020;   -0.894;  797.837
314.871;   63.863;   -2.854;  589.829
315.468;   62.810;   -3.644;  652.090
316.066;   65.965;   -3.947;  694.427
316.664;   58.005;   -1.824;  656.351
317.261;   63.559;    1.565;  910.128
317.859;   59.011;   -3.955;  768.735
318.456;   60.708;   -2.886;  830.096
319.054;   56.720;   -0.995;  787.828
319.651;   55.587;   -1.765;  759.928
320.249;   54.721;   -3.685;  810.188
320.846;   52.923;   -3.736;  714.286
321.443;   51.290;   -2.065;  832.135
322.041;   47.376;   -5.635;  812.315
322.638;   46.482;   -5.985;  701.456
323.235;   48.626;   -6.677;  665.683
323.833;   45.214;   -3.497;  740.354
324.430;   40.776;   -6.756;  615.900
325.027;   43.263;   -7.647;  876.855
325.624;   44.712;   -7.598;  644.532
326.221;   40.387;   -5.848;  689.717
326.818;   40.053;   -5.777;  818.332
327.415;   42.666;   -8.769;  748.828
328.012;   42.955;   -6.299;  690.585
328.609;   39.890;   -6.639;  731.389
329.206;   38.348;   -6.358;  778.621
329.803;   38.112;   -8.698;  737.841
330.400;   39.361;   -8.379;  704.260
330.997;   40.116;   -6.178;  817.147
331.594;   37.389;   -5.646;  788.185
332.191;   43.183;   -6.928;  728.722
332.787;   44.769;   -6.057;  844.463
333.384;   42.401;   -6.445;  763.093
333.981;   39.144;   -8.002;  815.687
334.578;   41.549;   -8.443;  708.378
335.174;   44.143;   -6.053;  731.469
335.771;   44.027;   -5.791;  836.456
336.367;   40.234;   -6.570;  710.631
336.964;   43.457;   -6.741;  793.266
337.561;   44.958;   -5.710;  731.112
338.157;   40.324;   -3.928;  911.916
338.754;   36.131;   -5.577;  796.589
339.350;   35.762;   -9.667;  722.493
339.946;   38.775;   -5.269;  773.135
340.543;   30.875;   -4.485;  846.136
341.139;   24.420;   -7.584;  720.836
341.735;   23.238;   -8.553;  772.593
342.332;   22.919;   -4.984;  691.472
342.928;   23.370;   -3.475;  795.394
343.524;   17.927;   -6.653;  761.684
344.120;   14.651;   -7.173;  738.562
344.716;   18.156;   -4.385;  723.717
345.313;   16.150;   -3.565;  795.342
345.909;   10.695;   -7.495;  627.336
346.505;   13.429;   -8.276;  740.247
347.101;   14.752;   -5.697;  827.864
347.697;   14.232;   -4.767;  785.398
348.293;    9.533;   -7.226;  627.244
348.889;   10.056;   -7.547;  745.914
349.485;   10.405;   -9.147;  688.205
350.081;    9.846;   -6.568;  772.592
350.676;    6.533;   -6.516;  691.606
351.272;   11.134;   -7.378;  809.530
351.868;   10.754;   -6.759;  780.497
352.464;    7.246;   -4.798;  723.932
353.059;    3.872;   -7.977;  646.017
353.655;    7.808;   -8.769;  777.063
354.251;    9.321;   -5.920;  759.845
354.846;    2.850;   -7.647;  740.646
355.442;    1.328;   -6.956;  753.071
356.038;    3.801;   -9.928;  751.708
356.633;    3.430;   -7.698;  728.594
357.229;    1.646;   -6.307;  724.757
357.824;   -0.228;   -7.647;  703.600
358.420;   -1.000;  -10.047;  679.726
359.015;    0.726;   -7.458;  695.357
359.610;    1.328;   -5.748;  763.920
360.206;   -4.778;   -9.346;  603.240
360.801;   -1.510;  -11.268;  646.503
361.396;    0.427;   -8.789;  725.975
361.992;   -4.993;   -6.347;  668.220
362.587;   -6.830;   -6.476;  670.160
363.182;   -4.384;   -9.457;  689.631
363.777;   -3.370;   -7.147;  738.242
364.372;   -4.613;   -5.507;  737.314
364.967;   -8.108;   -6.386;  680.744
365.563;   -2.871;   -7.858;  815.567
366.158;   -5.993;   -8.517;  685.161
366.753;   -5.543;   -8.728;  649.263
367.348;   -7.438;   -7.677;  746.056
367.942;   -6.975;  -10.387;  697.298
368.537;   -7.850;   -7.187;  754.245
369.132;   -7.748;   -8.587;  703.428
369.727;  -12.617;   -8.606;  638.079
370.322;  -10.380;  -10.426;  580.186
370.917;  -10.268;   -5.776;  710.646
371.511;   -7.474;   -6.007;  861.834
372.106;  -10.978;   -6.686;  776.964
372.701;  -14.163;   -9.335;  585.988
373.296;   -7.617;   -6.777;  863.135
373.890;  -13.195;   -7.546;  647.840
374.485;  -15.695;   -8.755;  691.199
375.079;  -10.848;   -9.797;  738.685
375.674;   -8.898;   -6.327;  812.970
376.268;  -14.235;   -9.046;  691.759
376.863;  -19.716;   -7.993;  580.327
377.457;  -12.810;   -9.206;  662.490
378.052;  -14.286;   -5.345;  764.884
378.646;  -16.170;   -5.605;  741.167
379.240;  -16.518;   -6.825;  721.176
379.835;  -15.087;  -10.476;  636.978
380.429;  -16.848;   -8.676;  562.557
381.023;  -17.065;   -4.945;  779.205
381.617;  -19.165;   -8.094;  680.106
382.212;  -15.852;  -10.646;  685.303
382.806;  -14.453;   -8.136;  760.690
383.400;  -19.105;   -7.855;  672.281
383.994;  -19.995;   -8.125;  664.870
384.588;  -15.380;   -7.637;  697.701
385.182;  -14.067;   -7.458;  726.624
385.776;  -15.953;   -6.277;  706.875
386.370;  -19.576;   -7.485;  681.968
386.964;  -17.561;   -9.416;  684.155
387.558;  -14.764;   -8.518;  598.360
388.152;  -20.280;   -7.096;  681.959
388.745;  -17.103;   -7.656;  814.707
389.339;  -14.959;   -8.927;  747.642
389.933;  -14.609;   -9.538;  695.370
390.527;  -15.838;   -5.857;  859.029
391.120;  -22.544;   -9.455;  595.318
391.714;  -18.702;   -9.746;  711.633
392.308;  -14.694;   -7.857;  780.253
392.901;  -19.514;   -9.106;  642.460
393.495;  -21.699;  -10.365;  595.414
394.089;  -19.531;   -9.696;  760.452
394.682;  -19.487;   -7.016;  697.188
395.275;  -19.823;   -8.466;  719.927
395.869;  -21.620;   -8.985;  667.314
396.462;  -19.524;  -11.496;  616.609
397.056;  -14.714;   -7.838;  776.621
397.649;  -20.479;   -6.895;  731.575
398.242;  -17.015;   -5.017;  712.645
398.836;  -16.070;   -8.787;  766.408
399.429;  -17.201;   -8.967;  631.041
400.022;  -20.844;   -8.815;  665.902
400.615;  -18.508;   -6.276;  805.609
401.208;  -16.537;   -8.407;  691.451
401.802;  -18.492;   -7.296;  699.329
402.395;  -20.025;   -7.585;  683.502
402.988;  -21.009;   -8.015;  696.627
403.581;  -17.832;   -9.577;  646.878
404.174;  -14.204;   -7.588;  686.568
404.767;  -18.320;   -7.906;  638.583
405.360;  -20.516;   -7.875;  621.445
405.953;  -14.915;   -8.127;  759.034
406.545;  -13.645;   -7.198;  725.342
407.138;  -18.785;   -8.916;  618.350
407.731;  -17.561;   -9.767;  613.303
408.324;  -13.044;  -10.659;  660.554
408.917;  -13.369;   -8.068;  681.864
409.509;  -16.172;   -9.837;  740.396
410.102;  -17.779;   -8.146;  643.948
410.695;  -11.475;   -7.969;  665.758
411.287;  -12.232;   -8.579;  599.821
411.880;  -13.635;   -6.968;  585.421
412.472;  -16.688;   -9.487;  613.092
413.065;  -14.250;  -10.338;  629.408
413.657;  -11.570;   -9.169;  576.678
414.250;  -11.597;  -10.119;  646.681
414.842;  -13.865;   -9.938;  676.353
415.434;  -11.123;  -10.409;  570.463
416.027;   -6.604;   -9.591;  652.196
416.619;   -9.125;   -7.379;  713.400
417.211;  -10.479;   -9.159;  599.352
417.804;   -5.737;   -9.191;  628.499
418.396;   -9.075;   -8.159;  607.643
418.988;   -7.899;   -6.960;  659.238
419.580;  -11.634;  -11.389;  568.276
420.172;   -8.256;  -13.460;  536.196
420.764;   -2.805;  -10.701;  672.482
421.356;   -5.485;   -8.961;  636.898
421.948;   -6.690;   -9.770;  677.661
422.540;    0.239;   -8.832;  680.027
423.132;   -1.732;   -8.153;  600.641
423.724;   -5.138;   -8.481;  561.267
424.316;   -2.954;   -9.261;  621.345
424.908;    1.438;   -9.643;  591.517
425.500;    1.436;   -8.663;  647.978
426.092;    2.136;   -8.503;  648.268
426.683;    0.470;  -10.522;  684.836
427.275;    4.046;  -11.734;  641.471
427.867;    6.063;  -10.264;  668.948
428.458;    6.054;   -7.644;  732.344
429.050;    4.254;   -7.853;  680.749
429.642;    6.939;   -8.904;  743.124
430.233;    7.418;  -10.795;  569.356
430.825;    8.389;   -7.665;  724.809
431.416;    5.515;   -8.843;  698.241
432.008;    9.486;   -9.885;  651.723
432.599;   11.149;   -9.966;  656.073
433.190;    7.828;   -9.164;  637.670
433.782;    6.515;   -8.584;  590.395
434.373;   14.594;   -8.296;  884.765
434.964;   12.771;   -9.896;  602.920
435.556;   10.848;   -8.255;  634.537
436.147;   12.988;   -8.075;  758.490
436.738;   13.133;   -9.716;  701.099
437.329;   18.794;   -7.318;  721.723
437.920;   10.738;   -6.694;  666.688
438.511;   11.090;   -9.644;  564.526
439.103;   17.671;   -9.427;  623.998
439.694;   20.912;  -10.748;  681.583
440.285;   21.438;   -7.997;  764.432
440.876;   18.952;  -10.046;  845.738
441.466;   18.076;  -13.467;  575.162
442.057;   24.095;   -9.329;  665.814
442.648;   22.910;   -7.707;  746.255
443.239;   20.846;   -9.017;  620.477
443.830;   26.210;  -10.279;  704.958
444.421;   28.119;  -12.630;  655.474
445.011;   23.536;   -8.697;  693.619
445.602;   24.062;   -7.787;  743.126
446.193;   25.838;  -13.329;  488.117
446.783;   31.609;   -9.171;  640.397
447.374;   26.138;   -7.457;  692.759
447.964;   26.073;   -9.277;  713.770
448.555;   34.904;   -9.041;  822.742
449.145;   31.735;   -8.969;  662.853
449.736;   32.830;   -6.809;  803.179
450.326;   32.201;   -7.229;  713.626
450.917;   37.601;  -11.391;  675.324
451.507;   36.660;   -9.501;  600.661
452.097;   37.505;   -8.460;  746.267
452.688;   38.257;  -10.080;  742.160
453.278;   38.371;  -12.861;  566.840
453.868;   43.686;   -8.372;  793.550
454.458;   40.378;   -8.131;  651.141
455.048;   40.539;   -8.520;  711.783
455.639;   42.303;  -13.632;  567.096
456.229;   45.839;  -10.143;  710.694
456.819;   48.074;   -9.163;  751.158
457.409;   48.228;   -8.652;  773.993
457.999;   51.182;   -9.933;  737.505
458.589;   51.289;  -10.363;  686.606
459.179;   51.562;  -10.633;  717.658
459.769;   48.560;  -12.442;  627.099
460.358;   53.642;   -9.844;  797.262
460.948;   53.805;   -9.924;  689.503
461.538;   55.253;  -10.484;  660.677
462.128;   52.610;  -10.703;  664.934
462.717;   60.164;  -11.486;  710.326
463.307;   64.189;  -10.767;  705.846
463.897;   58.657;   -8.814;  656.942
464.486;   58.415;   -8.182;  837.128
465.076;   63.002;   -9.985;  733.776
465.666;   66.513;  -10.447;  652.900
466.255;   64.094;   -7.754;  785.651
466.845;   63.052;  -10.884;  666.749
467.434;   67.049;  -12.525;  725.873
468.023;   67.966;  -11.456;  658.357
468.613;   64.657;   -9.173;  713.946
469.202;   68.360;   -9.306;  646.507
469.791;   73.708;   -8.917;  737.811
470.381;   75.406;   -9.657;  742.813
470.970;   75.189;   -9.947;  711.099
471.559;   75.334;   -9.256;  733.291
472.148;   77.970;  -13.397;  675.737
472.738;   80.826;   -9.928;  765.466
473.327;   79.288;  -10.897;  637.529
473.916;   79.758;   -8.526;  737.446
474.505;   84.134;  -11.078;  751.703
475.094;   88.672;   -9.559;  806.570
475.683;   86.214;   -8.838;  797.699
476.272;   86.655;  -10.198;  730.632
476.861;   90.273;  -11.489;  706.754
477.449;   96.937;  -10.721;  728.487
478.038;   90.871;   -9.818;  692.513
478.627;   91.745;   -9.887;  714.852
479.216;   98.696;  -10.030;  769.441
479.805;  101.964;   -9.401;  783.375
480.393;  101.413;   -5.739; 1008.945
480.982;  100.690;   -7.838;  874.501
481.571;  108.064;   -9.111;  858.333
482.159;  107.665;  -10.601;  705.386
482.748;  107.478;   -8.500;  821.385
483.336;  111.903;   -9.241;  858.209
483.925;  111.125;  -10.440;  774.373
484.513;  119.257;  -11.063;  758.962
485.102;  115.866;   -9.540;  810.965
485.690;  124.410;   -6.742; 1011.050
486.278;  126.099;   -8.442;  979.329
486.867;  127.158;  -10.472;  809.662
487.455;  128.091;   -8.811;  898.229
488.043;  128.983;  -10.721;  748.361
488.631;  140.316;  -10.393; 1005.079
489.220;  143.018;  -10.843;  908.626
489.808;  142.329;  -10.572;  741.415
490.396;  150.881;  -10.482;  914.645
490.984;  157.172;  -11.542;  830.161
491.572;  167.379;   -8.463;  940.315
492.160;  172.444;   -8.491;  919.081
492.748;  180.730;   -9.681;  884.341
493.336;  200.182;  -10.493; 1019.693
493.924;  225.803;   -9.354;  958.077
494.512;  256.216;   -9.132; 1066.638
495.100;  292.576;   -9.001; 1103.280
495.687;  343.912;  -11.924; 1206.373
496.275;  408.011;  -11.193; 1150.796
496.863;  504.126;   -9.241; 1281.171
497.451;  614.098;  -11.341; 1386.805
498.038;  709.505;  -11.364; 1556.729
498.626;  817.216;   -8.104; 1741.407
499.214;  993.573;   -8.842; 2016.609
499.801; 1182.845;  -10.112; 2220.633
500.389; 1374.082;  -11.953; 2312.494
500.976; 1614.364;  -10.023; 2744.849
501.564; 1903.387;   -8.662; 3148.565
502.151; 2263.857;  -10.531; 3515.999
502.738; 2630.855;  -13.853; 3971.274
503.326; 3158.877;  -10.794; 4403.796
503.913; 3706.869;   -8.663; 5161.749
504.500; 4050.203;  -10.172; 5986.420
505.088; 4359.301;  -13.472; 6381.201
505.675; 5041.372;  -10.924; 6925.547
506.262; 5811.638;   -8.551; 7619.060
506.849; 6616.674;  -10.523; 8733.969
507.436; 7281.446;  -10.834; 9790.121
508.023; 7528.035;   -9.093; 9985.472
508.610; 7940.771;  -10.073;10434.618
509.197; 8469.550;   -9.500;11198.435
509.784; 9720.447;  -13.242;12391.194
510.371;10478.317;  -10.964;13603.713
510.958;10320.311;   -9.772;14426.586
511.545;11349.286;   -7.842;15243.775
512.132;11638.352;  -12.184;15945.876
512.719;11786.078;   -9.733;16340.369
513.305;13581.197;   -9.172;18011.766
513.892;15164.045;   -9.581;19754.971
514.479;16987.645;  -10.253;20967.805
515.066;19129.129;   -8.183;22299.793
515.652;20435.488;   -9.253;22908.660
516.239;21449.033;   -9.412;23798.875
516.825;23715.859;  -11.153;25567.275
517.412;23729.313;  -10.263;28154.959
517.998;24075.500;   -8.802;28344.111
518.585;23726.686;  -10.401;27134.219
519.171;23492.877;  -12.744;27268.576
519.758;25364.518;  -11.793;28964.129
520.344;27616.492;   -8.912;30664.494
520.930;27384.693;  -10.901;32550.605
521.516;28041.902;  -12.034;35422.895
522.103;29006.133;  -10.473;38280.004
522.689;30473.563;   -8.311;37835.117
523.275;34046.777;  -10.691;37288.613
523.861;35440.789;  -11.193;37281.395
524.447;36093.477;  -11.484;37846.949
525.033;35931.113;   -7.702;38321.949
525.619;35516.359;  -11.241;38579.285
526.205;36702.563;  -12.152;40622.875
526.791;36226.047;  -11.423;42258.836
527.377;33391.246;   -7.981;42966.902
527.963;33514.367;   -9.450;42018.949
528.549;36201.227;  -11.351;42476.828
529.135;36268.320;  -10.202;41854.852
529.721;34127.668;   -8.672;41237.711
530.306;32990.016;   -9.111;41259.445
530.892;36123.090;  -11.252;41506.047
531.478;40427.746;  -10.432;43559.613
532.063;44418.719;  -10.721;47695.563
532.649;46802.113;   -7.450;50808.324
533.235;47098.305;  -11.811;51787.500
533.820;46881.941;   -9.383;52145.035
534.406;45756.043;   -9.400;51133.488
534.991;44385.672;   -8.861;49996.805
535.576;41962.789;  -10.612;48882.852
536.162;38431.891;   -7.322;46942.285
536.747;35823.656;   -9.360;45711.746
537.333;34931.961;  -10.450;48510.180
537.918;37890.375;  -12.610;50439.891
538.503;43989.762;  -12.132;50863.711
539.088;45711.785;  -10.831;50906.922
539.673;44939.563;  -11.220;52621.965
540.259;47212.777;  -11.481;52368.094
540.844;50498.762;  -11.462;50879.109
541.429;52164.191;   -7.869;52077.777
542.014;52931.410;  -11.859;52716.695
542.599;52108.570;  -11.061;52363.281
543.184;51401.223;  -12.300;53187.137
543.769;50702.551;   -9.369;54697.605
544.354;50605.504;  -12.020;53913.914
544.938;47543.066;  -10.350;49680.164
545.523;44845.477;  -10.841;47386.277
546.108;46517.566;   -8.579;49151.949
546.693;48930.895;   -8.818;51384.637
547.278;50030.551;  -11.331;51853.254
547.862;46464.066;  -10.292;51173.750
548.447;42292.043;   -8.349;51691.395
549.031;43500.254;  -10.838;52456.703
549.616;49112.969;  -11.681;52714.516
550.201;52394.895;  -11.140;52414.598
550.785;50387.848;   -8.649;52355.059
551.370;49908.078;  -11.889;54589.453
551.954;49711.613;  -11.239;58267.348
552.538;49392.047;   -8.850;59062.176
553.123;50600.684;  -10.829;58115.285
553.707;50744.875;   -8.887;56556.285
554.291;49693.383;  -10.430;56201.668
554.876;47598.168;   -9.799;55335.762
555.460;48578.711;  -10.018;54155.703
556.044;49959.531;   -7.307;53721.484
556.628;46947.383;  -12.229;53731.016
557.212;43746.262;   -9.820;54312.531
557.796;43055.559;   -9.109;53797.773
558.380;45027.270;   -9.707;56145.984
558.964;44001.637;  -10.980;57277.930
559.548;44049.520;  -12.010;56459.641
560.132;47546.785;   -7.928;54434.543
560.716;49152.047;  -10.247;54800.617
561.300;48979.570;  -11.250;57606.945
561.884;50803.063;  -10.568;58972.445
562.467;49385.605;   -9.727;57327.570
563.051;48011.555;  -11.847;54962.434
563.635;46638.555;  -10.747;52594.473
564.219;43230.848;  -13.108;50610.410
564.802;40087.176;  -11.417;49551.180
565.386;41132.547;  -10.457;48370.953
565.969;42902.141;   -8.959;48178.871
566.553;42255.973;  -10.328;49957.305
567.136;41036.875;  -10.257;50369.594
567.720;40853.207;  -10.186;49492.004
568.303;41160.711;  -10.027;50616.352
568.887;42080.000;  -10.397;50727.148
569.470;40376.176;   -8.185;51698.379
570.053;39416.258;  -11.596;52122.078
570.637;39200.328;  -11.378;52536.438
571.220;39034.109;   -9.138;51186.098
571.803;38253.813;   -7.675;51032.762
572.386;36773.266;   -8.976;49609.887
572.969;34322.574;  -12.477;48285.926
573.552;35290.328;   -9.767;47624.285
574.135;35832.609;   -8.175;45498.641
574.718;32500.383;  -11.096;41970.434
575.301;30685.656;  -11.966;41447.137
575.884;28870.932;  -12.836;40923.836
576.467;32874.813;   -9.116;45267.723
577.050;33759.488;  -10.536;48175.543
577.633;34791.055;  -11.027;47729.328
578.216;35882.715;   -9.946;47579.793
578.799;35930.488;   -9.645;47820.996
579.381;36906.531;   -9.446;48115.551
579.964;38468.387;  -12.217;47333.766
580.547;39362.344;  -10.586;46668.969
581.129;39581.910;   -8.374;44466.141
581.712;37304.953;  -10.434;44164.922
582.294;35067.078;  -10.896;46477.855
582.877;35190.809;   -8.906;48244.254
583.459;36104.637;   -9.994;47437.895
584.042;36837.465;  -10.084;46943.219
584.624;37100.379;  -13.534;46792.227
585.206;35239.910;  -12.716;46557.250
585.789;35549.777;  -11.614;45793.773
586.371;33761.871;  -10.203;43836.391
586.953;31097.313;  -10.314;42972.492
587.536;31612.789;   -9.776;42487.211
588.118;33111.148;   -9.821;42086.414
588.700;34243.918;  -10.073;43389.930
589.282;32700.455;  -12.395;43646.039
589.864;32031.514;  -11.514;43438.109
590.446;32241.883;  -10.803;43151.926
591.028;31629.842;  -11.043;42781.867
591.610;31814.529;  -13.244;42839.098
592.192;31581.574;  -11.095;42820.402
592.774;30105.422;  -10.823;40724.277
593.356;29295.359;  -11.052;39874.789
593.937;30672.379;  -11.664;39980.648
594.519;34283.074;  -10.454;42069.633
595.101;37030.371;  -10.322;42976.031
595.683;36259.539;  -10.042;44084.441
596.264;32643.740;  -14.334;43478.797
596.846;33825.332;  -10.863;43803.672
597.427;32822.617;   -9.901;42986.934
598.009;31389.963;  -10.911;42832.219
598.591;31934.436;  -10.483;42580.086
599.172;33535.023;   -9.663;43061.805
599.753;34654.184;  -10.631;41691.469
600.335;35074.684;   -9.371;40692.520
600.916;32942.699;  -13.992;39982.422
601.498;32342.559;   -8.352;40318.617
602.079;32968.945;   -8.411;40670.609
602.660;32748.852;  -10.841;41450.898
603.241;32327.986;  -12.963;41137.738
603.823;32731.172;  -11.523;38868.797
604.404;32446.102;  -11.881;38182.785
604.985;33362.949;  -11.721;38078.047
605.566;33272.691;   -9.293;38056.633
606.147;31855.252;  -10.940;37020.418
606.728;33442.707;  -11.840;37883.359
607.309;34499.422;  -11.781;38748.273
607.890;34820.777;  -11.262;38850.230
608.471;33065.762;  -10.111;37457.918
609.051;32721.801;   -7.709;36066.457
609.632;30003.629;  -12.409;35991.074
610.213;30164.689;  -10.811;37402.641
610.794;31601.920;  -11.630;38383.363
611.374;35191.012;   -8.030;40562.387
611.955;35430.344;  -10.809;38533.727
612.536;34107.965;  -10.531;36951.789
613.116;33955.055;  -12.820;37197.891
613.697;34957.652;  -11.419;38411.125
614.277;36119.148;   -9.768;38673.938
614.858;33053.992;  -10.251;37075.863
615.438;29599.746;  -11.981;35092.906
616.019;27419.043;   -8.978;33666.301
616.599;29785.293;  -12.219;34189.023
617.179;31987.072;  -14.170;36952.047
617.760;32819.445;   -9.211;39582.574
618.340;32951.762;   -9.018;38943.977
618.920;33233.105;   -9.249;37594.156
619.500;33209.555;  -12.728;37866.938
620.080;33671.195;  -12.939;37869.043
620.660;34682.656;  -11.586;36868.617
621.241;34152.691;  -11.538;36352.309
621.821;32854.574;  -11.398;35459.520
622.401;31456.074;  -10.179;35207.414
622.980;31471.496;  -11.587;35980.422
623.560;32978.660;  -12.888;37351.328
624.140;31390.385;  -13.149;34388.582
624.720;27215.846;   -9.928;32368.764
625.300;26727.309;  -10.869;32638.629
625.880;29426.898;   -8.617;34599.035
626.459;30660.094;  -12.138;36831.738
627.039;33170.848;  -12.267;38299.098
627.619;36481.434;   -7.476;38289.574
628.198;38016.270;  -11.347;37220.695
628.778;35406.941;  -11.678;37632.563
629.357;32752.252;  -12.438;38003.012
629.937;31976.256;   -9.576;38402.039
630.516;31739.617;  -11.096;37868.801
631.096;32708.514;  -11.828;35760.410
631.675;33986.285;  -11.565;35225.219
632.254;34563.859;  -11.845;35130.289
632.834;36060.566;  -11.545;35794.570
633.413;35521.406;  -10.887;35788.922
633.992;35114.508;  -10.175;34532.863
634.571;35767.484;   -9.704;33590.113
635.151;34217.332;  -10.815;34943.863
635.730;32875.145;  -11.617;35352.523
636.309;32613.578;  -10.836;35366.605
636.888;33182.973;   -9.755;36165.637
637.467;33220.348;  -11.684;37515.902
638.046;33476.879;  -11.987;39288.695
638.625;33176.406;  -10.455;38279.699
639.204;32993.738;  -11.234;37741.598
639.782;33883.758;  -12.023;38364.551
640.361;32131.963;  -11.506;36740.621
640.940;29026.891;  -12.316;34950.082
641.519;26974.621;  -11.616;34137.398
642.097;29196.623;   -9.266;35654.258
642.676;33018.738;  -12.936;35637.957
643.255;33671.066;   -9.966;36567.074
643.833;34217.879;   -8.916;37809.434
644.412;32248.047;  -10.936;37337.293
644.990;31566.664;  -12.176;37018.531
645.569;32445.877;  -12.246;36518.469
646.147;35302.105;  -12.107;36186.430
646.726;37990.250;  -12.937;36267.688
647.304;35032.176;  -12.547;36647.625
647.882;34044.965;  -12.597;39286.742
648.461;33329.445;   -9.427;39157.703
649.039;33324.594;   -8.937;35412.883
649.617;34090.813;  -11.067;34744.918
650.195;32510.758;  -10.657;35403.098
650.773;29869.389;  -10.097;35053.797
651.352;29351.311;  -11.887;33756.816
651.930;28365.635;  -13.557;31868.773
652.508;28346.736;  -11.767;33121.551
653.086;31137.613;  -10.777;33564.793
653.663;33894.609;  -12.067;34054.668
654.241;36494.027;  -14.918;35693.309
654.819;36120.555;  -11.788;36422.906
655.397;34011.988;  -11.268;38213.484
655.975;32263.943;  -11.738;39507.625
656.553;30416.727;  -11.018;39498.223
657.130;29176.436;  -12.848;40395.480
657.708;27989.297;  -10.098;39242.020
658.286;29062.920;  -11.678;38920.020
658.863;31723.068;  -11.498;40202.898
659.441;34544.691;  -11.008;39677.938
660.018;36424.789;  -11.048;40413.355
660.596;37195.156;  -12.058;39931.414
661.173;37622.848;  -14.158;39604.531
661.750;36873.813;  -12.298;39700.070
662.328;36267.996;  -10.699;39292.809
662.905;35736.480;  -12.119;38235.648
663.482;31917.596;  -11.829;36212.305
664.060;28134.355;  -11.009;35944.945
664.637;31333.701;  -10.369;35170.785
665.214;33964.137;  -10.459;34197.523
665.791;33197.762;  -12.599;34549.520
666.368;30627.475;  -12.919;35118.578
666.945;28868.934;  -10.699;36019.418
667.522;29981.553;  -11.359;36048.438
668.099;30584.488;  -13.529;36243.914
668.676;29348.932;  -10.229;35958.875
669.253;28946.023;   -9.279;37384.730
669.830;28513.514;  -11.370;36779.629
670.407;28281.359;  -10.950;35231.289
670.984;29226.297;  -12.850;35544.270
671.560;28085.004;   -8.440;35466.867
672.137;28949.311;  -13.520;34280.863
672.714;30520.324;  -13.620;34632.863
673.290;31049.777;  -10.450;35135.422
673.867;30102.064;  -10.960;36114.480
674.443;31086.322;  -13.300;36152.859
675.020;29326.301;  -12.370;35327.238
675.596;28645.141;  -11.250;35795.176
676.173;29230.424;  -11.080;35430.355
676.749;28991.404;  -13.220;33549.516
677.326;29977.918;  -13.000;32210.012
677.902;29815.881;  -12.701;32068.871
678.478;28453.871;  -12.801;32583.891
679.054;29145.949;   -8.601;32088.928
679.631;30230.787;  -12.631;30978.848
680.207;31122.191;   -9.451;33160.887
680.783;30501.529;  -11.701;35570.363
681.359;30848.953;  -12.701;36125.184
681.935;32804.363;  -13.271;35240.922
682.511;34873.754;  -10.791;34429.961
683.087;32801.539;  -10.791;34463.680
683.663;29412.635;   -8.121;34648.898
684.239;27123.994;  -13.261;34546.457
684.815;27774.799;  -10.581;35586.375
685.390;29661.975;   -9.961;35821.895
685.966;29205.297;  -11.182;35085.871
686.542;28372.533;  -13.512;34198.230
687.118;26428.666;  -11.472;32847.707
687.693;25336.670;  -10.152;32794.027
688.269;25705.658;  -14.442;33072.367
688.844;24769.637;  -11.852;33141.664
689.420;23739.988;  -13.942;33965.742
689.995;24973.709;   -9.702;34655.523
690.571;26721.066;  -11.312;33576.742
691.146;26867.320;  -14.332;32657.219
691.722;26559.572;  -11.192;32526.979
692.297;27393.754;  -10.962;33014.617
692.872;28836.396;  -11.082;34012.254
693.448;29630.994;  -14.732;34237.434
694.023;28932.080;  -12.363;34142.672
694.598;27091.961;  -12.393;34132.031
695.173;27709.121;  -11.023;34205.250
695.748;29235.215;  -12.743;32882.488
696.323;28635.611;  -11.103;32864.906
696.898;27880.748;   -8.123;33170.004
697.473;27586.248;  -12.603;32432.984
698.048;27950.385;  -12.553;31649.303
698.623;29328.480;  -12.573;30778.141
699.198;29112.828;  -12.743;31140.119
699.773;28337.279;  -12.843;31764.299
700.348;28730.570;  -16.683;31780.816
700.922;29865.938;  -11.403;32046.375
701.497;31484.145;  -11.253;32603.574
702.072;30924.445;  -10.044;34799.871
702.646;30289.414;  -13.054;35793.172
703.221;30914.008;  -11.414;35201.590
703.795;30244.475;  -10.644;34764.527
704.370;28334.818;  -13.484;34307.367
704.944;27437.311;  -12.144;33509.887
705.519;26951.203;  -12.024;31388.584
706.093;28671.686;  -11.234;31340.104
706.668;29800.563;   -9.874;32630.281
707.242;28867.121;  -12.404;32728.779
707.816;27163.027;  -10.644;32947.238
708.390;26651.809;  -11.174;33277.855
708.965;26628.766;  -10.324;33834.336
709.539;27231.193;  -12.014;33709.273
710.113;27585.250;  -12.295;33044.313
710.687;29162.238;  -10.965;31953.992
711.261;31171.533;  -13.685;30505.949
711.835;29673.559;  -15.335;30262.369
712.409;28424.885;  -13.785;31254.447
712.983;28584.742;  -10.525;32754.986
713.557;26823.455;  -13.175;34018.824
714.131;26623.557;  -13.245;34579.625
714.704;29791.930;  -13.175;33890.262
715.278;32192.352;  -11.545;33531.102
715.852;30733.377;  -10.975;33601.660
716.425;29070.832;  -10.075;33515.117
716.999;29398.660;  -12.185;33185.555
717.573;31719.199;   -9.685;33905.996
718.146;32598.527;  -10.516;35199.293
718.720;31236.791;  -12.106;35060.551
719.293;29610.447;  -12.386;34973.230
719.867;29520.705;  -12.456;36394.449
720.440;29397.262;  -10.686;36663.008
721.013;29614.721;  -12.596;35102.426
721.587;31171.518;  -13.956;33985.266
722.160;33171.352;   -9.806;33524.965
722.733;33798.355;  -11.676;32987.043
723.306;33221.270;  -14.276;33066.301
723.880;31007.316;  -12.126;33399.500
724.453;28549.377;  -10.156;33468.297
725.026;28137.008;  -12.956;33816.637
725.599;28225.363;  -11.676;32797.996
726.172;28651.422;  -12.337;33187.434
726.745;28909.191;  -11.277;35136.613
727.318;28904.168;  -11.927;35751.730
727.891;28116.113;  -13.607;35890.430
728.463;25749.705;  -11.327;34822.090
729.036;25445.217;  -11.917;32895.086
729.609;27048.365;  -12.697;31823.225
730.182;27981.289;  -11.787;31445.283
730.754;27774.154;  -12.957;32373.223
731.327;27540.793;  -11.017;33676.820
731.900;27292.193;  -12.797;33417.000
732.472;26695.756;  -10.677;31978.498
733.045;26163.123;  -12.797;30368.777
733.617;26199.785;  -13.908;30574.215
734.190;25043.943;  -12.258;31280.975
734.762;25096.063;  -13.438;31674.412
735.334;26357.352;  -11.758;31247.291
735.907;29144.637;  -11.158;29876.211
736.479;32537.041;  -11.258;29808.488
737.051;33098.461;  -10.918;30233.547
737.623;32032.459;  -11.038;31469.086
738.195;33179.582;  -12.188;31784.225
738.768;30828.477;  -11.378;32120.523
739.340;25023.332;  -12.598;32094.342
739.912;23288.938;  -11.568;31312.680
740.484;25098.555;   -9.348;31946.238
741.056;27725.744;  -12.628;32984.059
741.628;29599.793;  -13.349;33897.715
742.199;28471.250;  -11.309;33213.016
742.771;28712.834;  -12.699;31369.113
743.343;29858.326;  -11.919;31865.473
743.915;29913.682;  -11.679;32388.631
744.487;28373.859;  -12.249;31079.568
745.058;25913.445;  -11.119;30570.107
745.630;24484.988;   -9.439;29970.127
746.201;23503.635;  -11.949;29186.766
746.773;23479.895;  -12.639;28805.723
747.344;24693.195;  -11.039;29591.223
747.916;26992.752;  -12.549;31412.201
748.487;26175.100;  -12.659;32194.898
749.059;24593.273;  -13.059;32533.719
749.630;23874.732;  -12.080;32158.518
750.201;22314.164;  -13.100;30855.395
750.773;21550.248;  -15.310;28622.555
751.344;21192.650;  -12.240;28405.732
751.915;21270.008;  -11.960;28461.551
752.486;20377.322;  -13.200;27842.850
753.057;19085.975;  -15.230;27845.008
753.628;20218.170;  -13.130;27728.107
754.199;22650.309;  -12.720;27381.086
754.770;22826.535;  -10.680;25882.203
755.341;21453.617;  -11.010;25886.184
755.912;20928.229;  -12.990;26050.861
756.483;20363.699;  -11.110;26798.779
757.054;19948.010;  -12.190;27048.238
757.625;19903.256;  -13.981;26294.838
758.195;20007.402;  -11.041;26142.076
758.766;21116.514;  -11.861;26392.234
759.337;21495.238;  -11.461;26334.594
759.907;20831.518;  -15.001;27579.652
760.478;19698.723;   -9.681;28352.770
761.048;18567.963;  -12.421;27325.088
761.619;19404.797;  -11.761;26460.428
762.189;19943.785;  -12.391;26029.826
762.760;19331.820;  -10.201;26430.145
763.330;19933.088;  -10.811;26670.902
763.900;20528.914;  -10.261;26603.021
764.471;19529.088;  -13.061;25542.740
765.041;18078.027;  -11.051;24358.459
765.611;17922.361;  -11.032;23991.297
766.181;18074.547;  -10.532;24470.236
766.751;18489.449;  -13.502;24845.975
767.321;19735.244;  -11.392;24533.633
767.891;21532.387;  -11.522;24916.492
768.461;22819.275;  -13.672;24776.771
769.031;20386.611;  -14.652;24757.988
769.601;17528.963;  -10.182;24181.088
770.171;16248.773;  -11.752;23670.387
770.741;15265.030;  -12.272;22960.045
771.311;15023.012;  -13.112;22917.523
771.880;16037.788;  -14.122;23562.941
772.450;16779.510;  -11.782;24216.500
773.020;16967.105;  -12.642;24140.398
773.589;16119.871;  -13.043;24414.857
774.159;15554.773;  -11.783;23858.717
774.729;16391.568;  -13.473;22942.135
775.298;17169.641;  -14.523;22324.033
775.867;16734.203;  -12.013;21140.313
776.437;16029.070;  -12.113;20838.092
777.006;15699.679;  -13.543;20599.510
777.576;16346.833;  -12.523;20508.809
778.145;16585.912;  -12.173;20732.947
778.714;15902.896;  -12.153;21062.465
779.283;15101.052;  -11.833;20949.664
779.853;15217.573;  -13.483;20508.623
780.422;15355.484;  -12.933;20649.082
780.991;14863.003;  -13.173;21527.520
781.560;14591.829;  -10.224;22632.658
782.129;15056.629;  -12.684;23048.277
782.698;15114.266;  -11.284;23438.555
783.267;14989.476;  -11.684;23267.734
783.836;14727.910;  -10.974;22415.133
784.404;14292.160;  -13.534;20443.152
784.973;13515.132;  -16.734;19699.150
785.542;12391.688;  -12.594;19763.828
786.111;12019.447;  -11.644;20341.408
786.679;13072.225;  -11.384;20207.967
787.248;13370.711;  -12.014;19516.465
787.817;12212.004;  -12.804;18900.363
788.385;10916.481;  -11.994;17879.121
788.954;11199.066;  -12.564;17658.301
789.522;12209.727;  -12.225;17788.879
790.090;12282.924;  -13.775;18118.277
790.659;12100.506;  -12.485;18338.736
791.227;12785.333;  -12.295;18508.615
791.795;13443.836;  -13.415;17898.254
792.364;13911.427;  -12.995;17295.133
792.932;13677.600;   -8.365;16822.051
793.500;12585.337;  -11.925;17040.148
794.068;12683.044;  -13.245;17179.787
794.636;13462.687;  -13.815;16664.246
795.204;13486.229;  -13.375;16524.545
795.772;13265.371;  -12.125;17274.564
796.340;12420.853;  -13.855;17891.002
796.908;10796.117;  -13.456;17648.561
797.476; 9936.757;  -13.116;17064.080
798.044;10158.477;  -13.226;16672.777
798.612;10498.140;  -11.236;17023.996
799.180;10411.504;  -10.476;16561.615
799.747;10016.897;  -11.746;15962.773
800.315; 9589.642;  -12.366;15296.992
800.883; 8991.918;  -14.616;14801.771
801.450; 9101.940;  -11.996;14534.430
802.018; 9958.110;  -11.206;14173.248
802.585;10391.864;  -12.466;14029.547
803.153; 9885.370;  -12.846;13836.846
803.720; 9249.466;  -12.136;13567.324
804.287; 9396.484;  -10.966;13360.622
804.855; 9541.312;   -9.797;13681.981
805.422; 8768.113;  -13.037;13536.560
805.989; 8073.833;  -12.697;13355.958
806.556; 8266.713;  -11.737;13747.896
807.124; 8970.104;  -11.997;13987.376
807.691; 8747.429;  -13.997;14038.674
808.258; 8121.564;  -10.927;14120.152
808.825; 8358.248;  -13.727;13860.111
809.392; 8420.362;  -11.847;13268.790
809.959; 8386.941;  -14.217;12680.389
810.526; 8349.456;   -8.277;12427.308
811.093; 8489.563;   -9.647;12030.105
811.659; 8534.597;  -10.987;11653.664
812.226; 7938.629;  -13.447;11637.183
812.793; 7467.057;  -14.418;11611.521
813.360; 7623.495;  -13.908;11885.181
813.926; 8098.659;  -12.918;12770.539
814.493; 8319.622;  -14.888;12677.638
815.060; 7895.121;  -12.758;11974.336
815.626; 7586.810;  -13.478;11594.715
816.193; 7534.244;  -13.898;11579.474
816.759; 7652.911;  -13.588;11666.972
817.325; 7649.011;  -12.018;11325.530
817.892; 7284.228;  -14.068;11105.369
818.458; 7327.008;  -13.458;10843.928
819.024; 7228.367;  -11.968;10714.406
819.591; 7010.998;  -11.028;10469.165
820.157; 7102.967;  -12.088;10235.523
820.723; 7212.082;  -12.599;10847.563
821.289; 6913.509;  -10.419;11040.980
821.855; 6680.923;  -10.939;10357.100
822.421; 6661.203;  -12.539; 9978.918
822.987; 6601.221;  -13.259; 9754.177
823.553; 6394.728;  -15.369;10065.755
824.119; 6251.407;  -10.779;10036.294
824.685; 6240.167;   -9.999;10029.192
825.251; 6090.060;  -11.819;10199.230
825.816; 6017.527;  -13.369; 9820.189
826.382; 5873.006;  -12.679; 9297.248
826.948; 5415.451;  -11.199; 9381.347
827.513; 5213.553;  -11.179; 9450.726
828.079; 5299.950;  -13.489; 9472.444
828.645; 5403.553;  -12.500; 9292.643
829.210; 5397.945;  -15.120; 9065.341
829.776; 5363.383;  -12.590; 9132.620
830.341; 5489.171;  -11.540; 9092.878
830.906; 5864.364;  -12.400; 9078.557
831.472; 5853.550;  -12.720; 8534.535
832.037; 5150.684;  -11.490; 8677.874
832.602; 4494.363;  -14.380; 8628.692
833.167; 4227.644;  -12.780; 8879.031
833.733; 4438.976;  -11.100; 9189.790
834.298; 4771.979;  -12.080; 9052.608
834.863; 4609.199;  -13.910; 8895.087
835.428; 4333.189;  -13.470; 8824.266
835.993; 4166.296;  -11.760; 8845.385
836.558; 4325.930;  -12.731; 8888.563
837.123; 4478.127;  -12.431; 8966.582
837.688; 4327.903;  -11.241; 8617.860
838.253; 4150.597;  -13.681; 8590.699
838.817; 4262.248;  -12.531; 8443.797
839.382; 4395.070;  -12.671; 8799.356
839.947; 4455.870;  -11.541; 8810.595
840.511; 4577.181;  -12.021; 8796.394
841.076; 4642.065;  -13.071; 8347.231
841.641; 4842.773;  -11.411; 8224.330
842.205; 5076.623;  -13.671; 8223.349
842.770; 4970.734;  -11.291; 8622.107
843.334; 4693.500;  -12.951; 8410.386
843.898; 4454.756;  -11.221; 8337.465
844.463; 4521.889;  -11.322; 8506.283
845.027; 4507.995;  -11.412; 8280.962
845.591; 4251.993;  -11.512; 8231.141
846.156; 4112.955;  -14.042; 7969.179
846.720; 4163.240;  -12.152; 7768.278
847.284; 3975.989;  -10.922; 7630.957
847.848; 3786.911;  -10.962; 7472.395
848.412; 3575.362;  -14.612; 7437.394
848.976; 3583.002;  -11.492; 7674.592
849.540; 3863.153;   -9.172; 7836.011
850.104; 4068.913;  -11.232; 7913.669
850.668; 3992.514;  -15.182; 7694.508
851.232; 3867.243;  -15.332; 7756.887
851.796; 3819.962;  -13.703; 7926.545
852.359; 3886.519;  -11.113; 7827.844
852.923; 3982.795;  -11.843; 7641.163
853.487; 3952.370;  -11.173; 7342.501
854.050; 3836.218;  -13.443; 7042.820
854.614; 3788.912;  -13.823; 7151.338
855.177; 3710.755;  -16.393; 7105.077
855.741; 3663.401;  -11.693; 6989.675
856.304; 3648.134;  -10.843; 6596.634
856.868; 3544.404;  -13.783; 6356.272
857.431; 3325.746;  -11.953; 6468.571
857.995; 3074.651;  -13.683; 6373.210
858.558; 3050.659;  -11.433; 6324.448
859.121; 3173.926;  -12.493; 6408.327
859.684; 3106.704;  -12.384; 6347.886
860.247; 2779.812;  -14.774; 6321.264
860.810; 2512.981;  -13.154; 6301.903
861.374; 2506.404;  -11.264; 6607.881
861.937; 2578.701;  -15.424; 6408.200
862.500; 2574.212;  -12.854; 6572.639
863.062; 2557.038;  -12.344; 6387.297
863.625; 2556.047;  -13.314; 6190.836
864.188; 2644.270;  -14.724; 5807.254
864.751; 2842.311;  -13.464; 5682.413
865.314; 3194.338;  -11.684; 5547.492
865.876; 3420.134;  -11.104; 5500.150
866.439; 3366.209;  -12.344; 5415.909
867.002; 3184.886;  -13.494; 5501.567
867.564; 2919.887;  -10.935; 5413.946
868.127; 2722.175;  -12.665; 5160.325
868.689; 2684.387;  -14.515; 5133.183
869.252; 2736.040;  -13.425; 5252.382
869.814; 2902.245;  -11.595; 5297.141
870.377; 3006.623;  -12.175; 5390.919
870.939; 2895.137;  -10.265; 5599.898
871.501; 2756.735;  -12.375; 5248.336
872.063; 2671.708;  -14.355; 4854.235
872.626; 2591.079;  -14.435; 4817.074
873.188; 2495.325;  -12.415; 4987.732
873.750; 2518.239;  -14.555; 4868.651
874.312; 2455.956;  -11.185; 4779.330
874.874; 2263.772;  -12.715; 4866.348
875.436; 2176.110;  -13.196; 4718.887
875.998; 2164.580;  -11.426; 4660.005
876.560; 2073.917;   -9.786; 4462.964
877.122; 2005.506;  -12.796; 4145.042
877.683; 1985.439;  -13.226; 4056.481
878.245; 1969.436;  -12.036; 3950.740
878.807; 1966.852;  -11.536; 4058.958
879.369; 1955.031;  -10.806; 3954.677
879.930; 1850.988;  -13.946; 3941.495
880.492; 1697.575;  -11.876; 4067.014
881.053; 1663.861;  -13.216; 3859.633
881.615; 1747.493;  -12.226; 3776.071
882.176; 1817.555;  -12.946; 3734.750
882.738; 1776.092;  -10.736; 3678.489
883.299; 1699.857;  -12.057; 3405.407
883.860; 1639.431;  -12.677; 3351.106
884.422; 1547.054;  -14.097; 3394.044
884.983; 1349.693;  -13.667; 3166.443
885.544; 1082.198;  -10.717; 3189.802
886.105;  845.703;  -14.357; 3160.360
886.666;  720.576;  -14.287; 3093.059
887.227;  679.138;  -14.297; 2941.957
887.788;  690.101;  -13.137; 2974.836
888.349;  694.836;  -14.637; 2721.214
888.910;  699.905;  -12.247; 2696.493
889.471;  734.641;  -10.577; 2560.172
890.032;  759.990;  -12.937; 2558.190
890.593;  745.500;  -12.487; 2567.669
891.153;  705.246;  -11.898; 2460.307
891.714;  706.851;  -14.278; 2372.046
892.275;  719.097;  -13.308; 2309.505
892.835;  677.595;  -12.058; 2382.543
893.396;  610.604;  -15.268; 2295.502
893.956;  564.350;  -13.278; 2162.420
894.517;  536.195;  -11.968; 2125.439
895.077;  526.176;  -12.798; 2086.978
895.638;  508.928;  -11.908; 2126.316
896.198;  488.078;  -13.288; 1838.275
896.758;  467.517;  -12.198; 1892.813
897.319;  443.209;  -13.048; 1792.232
897.879;  409.533;  -13.718; 1762.751
898.439;  375.053;  -14.138; 1661.149
898.999;  364.397;  -13.659; 1781.468
899.559;  353.883;  -14.699; 1703.347
900.119;  334.121;  -14.339; 1537.525
900.679;  313.349;  -11.789; 1638.384
901.239;  291.239;  -13.629; 1527.902
901.799;  276.269;  -13.679; 1456.441
902.359;  263.557;  -13.679; 1357.140
902.919;  254.139;  -14.159; 1331.118
903.479;  245.259;  -13.419; 1317.257
904.038;  234.855;  -14.899; 1262.595
904.598;  222.478;  -14.339; 1152.034
905.158;  217.738;  -13.959; 1240.893
905.717;  214.179;  -12.749; 1233.691
906.277;  207.067;  -11.889; 1217.330
906.836;  202.065;  -12.870; 1222.408
907.396;  199.821;  -11.790; 1193.047
907.955;  193.800;  -13.750; 1182.526
908.515;  183.975;  -14.760; 1099.364
909.074;  176.101;  -12.540; 1092.863
909.633;  170.324;  -12.120; 1069.121
910.192;  171.202;  -12.550; 1196.460
910.752;  169.586;  -12.760; 1029.960
911.311;  166.225;  -14.750; 1009.780
911.870;  163.726;  -13.860;  971.460
912.429;  162.445;  -13.480; 1094.080
912.988;  158.534;  -12.370; 1081.060
913.547;  154.151;  -14.670;  940.380
914.106;  151.255;  -12.800;  999.420
914.665;  149.469;  -11.370;  984.020
915.224;  147.021;  -11.430; 1035.760
915.782;  146.912;  -12.260;  922.560
916.341;  148.735;  -12.540; 1049.840
916.900;  145.685;  -12.540;  925.260
917.458;  144.642;  -13.480;  884.220
918.017;  143.909;  -12.470;  942.600
918.576;  142.006;  -13.450;  904.440
919.134;  141.306;  -12.890;  837.980
919.693;  139.498;  -15.480;  893.060
920.251;  137.850;  -14.420;  876.500
920.809;  137.558;  -12.170;  839.580
921.368;  137.235;  -13.650;  885.360
921.926;  136.996;  -12.750;  842.940
922.484;  137.292;  -14.150;  903.360
923.042;  139.090;  -15.100;  880.340
923.601;  141.779;  -10.990;  998.680
924.159;  140.770;  -12.470;  935.560
924.717;  140.253;  -15.640;  841.080
925.275;  141.409;  -12.380;  903.240
925.833;  140.671;  -12.710;  779.320
926.391;  142.190;  -11.200;  938.380
926.949;  142.887;  -16.000;  857.680
927.506;  144.782;  -12.260;  903.500
928.064;  144.799;  -11.300;  877.580
928.622;  145.038;  -13.750;  880.100
929.180;  143.174;  -15.290;  814.180
929.737;  143.388;  -14.500;  808.540
930.295;  145.408;  -10.630;  928.480
930.853;  147.033;  -14.590;  849.100
931.410;  149.574;  -14.450;  821.120
931.968;  153.043;  -14.390;  940.660
932.525;  153.112;  -13.050;  909.380
933.082;  151.844;  -15.620;  811.440
933.640;  154.455;  -15.650;  925.900
934.197;  157.474;  -13.610;  886.360
934.754;  160.504;  -13.320;  897.780
935.312;  163.839;  -13.370;  863.340
935.869;  166.819;  -12.780; 1012.980
936.426;  165.864;  -14.480;  872.800
936.983;  166.883;  -13.180;  889.020
937.540;  167.418;  -15.710;  838.280
938.097;  169.593;  -14.980;  940.120
938.654;  171.547;  -13.060;  898.860
939.211;  171.810;  -12.760;  952.480
939.768;  172.067;  -16.230;  915.420
940.324;  172.807;  -10.940;  904.200
940.881;  171.481;  -12.570;  878.500
941.438;  169.902;  -13.650; 1021.200
941.995;  169.817;  -13.300;  992.560
942.551;  172.646;  -15.800;  875.620
943.108;  172.163;  -14.180;  937.920
943.664;  170.946;  -13.890;  869.340
944.221;  175.037;  -12.640; 1088.140
944.777;  171.603;  -14.700;  869.680
945.334;  170.980;  -13.010;  884.840
945.890;  172.522;  -13.480;  946.480
946.446;  171.360;  -14.920;  947.020
947.003;  169.646;  -13.860;  964.940
947.559;  170.310;  -12.000; 1063.040
948.115;  170.219;  -10.510; 1026.540
948.671;  169.760;  -12.760;  967.300
949.227;  165.486;  -15.390;  859.560
949.783;  163.069;  -15.570;  858.900
950.339;  161.447;  -12.800;  991.000
950.895;  159.448;  -13.780; 1023.840
951.451;  159.008;  -13.810;  925.280
952.007;  161.150;  -12.390;  998.540
952.563;  161.154;  -11.980;  937.780
953.118;  158.561;  -14.070;  904.940
953.674;  160.745;  -14.140;  935.780
954.230;  165.414;  -12.680;  949.640
954.785;  167.149;  -12.770;  936.640
955.341;  163.049;  -11.450;  998.160
955.897;  155.557;  -15.350;  834.660
956.452;  152.683;  -14.200;  953.840
957.008;  147.568;  -10.820; 1083.640
957.563;  145.368;  -13.200; 1009.540
958.118;  144.803;  -14.460;  877.700
958.674;  146.231;  -13.840;  946.780
959.229;  146.248;  -10.670; 1013.980
959.784;  145.840;  -17.040;  832.400
960.339;  148.453;  -12.970; 1001.280
960.894;  151.418;  -12.700;  963.760
961.449;  155.114;  -13.790;  859.960
962.004;  160.780;  -11.760; 1212.840
962.559;  158.511;  -14.840;  860.140
963.114;  153.238;  -14.530;  742.480
963.669;  151.089;  -12.780;  915.500
964.224;  147.555;  -14.330;  874.340
964.779;  141.382;  -14.380;  828.420
965.334;  137.367;  -12.460; 1017.860
965.888;  134.157;  -13.490;  875.360
966.443;  133.000;  -14.140;  972.380
966.998;  129.934;  -16.240;  819.460
967.552;  129.768;  -12.730;  908.380
968.107;  126.969;  -14.510;  868.300
968.661;  126.618;  -11.850;  922.440
969.216;  125.253;  -14.370;  856.280
969.770;  122.793;  -13.010;  917.200
970.324;  122.186;  -12.460;  923.140
970.879;  121.943;  -11.580;  947.180
971.433;  123.680;  -13.130;  952.720
971.987;  122.871;  -12.360;  895.340
972.541;  119.870;  -14.330;  917.100
973.095;  116.280;  -13.310; 1009.460
973.649;  113.226;  -15.830;  809.480
974.203;  112.751;  -15.830;  829.040
974.757;  115.491;  -13.480;  855.220
975.311;  116.380;  -13.720;  872.600
975.865;  117.783;  -15.780;  881.820
976.419;  118.476;  -14.290;  857.400
976.973;  115.658;  -13.210;  849.620
977.526;  112.142;  -12.300;  949.920
978.080;  107.058;  -14.840;  796.780
978.634;  106.530;  -13.100;  921.320
979.187;  102.269;  -12.300;  905.400
979.741;  101.737;  -12.020; 1018.380
980.294;   99.289;  -14.590;  789.160
980.848;   97.780;  -14.390;  717.220
981.401;   98.133;  -14.280;  816.540
981.955;   97.524;  -11.920;  844.300
982.508;   94.782;  -15.790;  746.340
983.061;   95.052;  -12.070;  915.260
983.615;   91.883;  -13.260;  798.800
984.168;   89.335;  -15.540;  770.080
984.721;   88.977;  -13.230;  880.760
985.274;   87.016;  -11.820;  867.500
985.827;   83.109;  -13.510;  834.220
986.380;   81.799;  -14.840;  721.340
986.933;   83.541;  -13.970;  864.800
987.486;   82.644;  -12.450;  861.920
988.039;   79.854;  -11.170;  863.100
988.591;   77.091;  -13.070;  893.260
989.144;   74.976;  -15.530;  737.260
989.697;   73.089;  -14.300;  758.740
990.250;   72.454;  -13.310;  858.100
990.802;   69.816;  -14.490;  755.860
991.355;   70.865;  -12.980;  974.880
991.907;   69.029;  -13.715;  864.320
992.460;   67.193;  -14.450;  753.760
993.012;   65.217;  -12.590;  749.540
993.565;   63.336;  -15.180;  711.360
994.117;   64.873;  -11.630;  950.780
994.669;   61.766;  -13.760;  701.320
995.221;   60.681;  -12.710;  791.920
995.774;   60.117;  -14.620;  787.580
996.326;   59.363;  -13.150;  740.220
996.878;   59.529;  -12.880;  838.420
997.430;   57.693;  -14.580;  699.860
997.982;   56.868;  -14.030;  750.140
998.534;   57.406;  -12.190;  739.060
999.086;   54.625;  -12.990;  738.220
999.638;   53.215;  -13.180;  661.380
1000.190;   52.157;  -14.970;  699.320
1000.741;   53.122;  -12.200;  742.700
1001.293;   52.528;  -13.400;  686.020
1001.845;   50.779;  -14.490;  676.640
1002.396;   51.237;  -15.280;  743.400
1002.948;   51.718;  -12.380;  737.400
1003.500;   49.560;  -13.260;  723.780
1004.051;   51.249;  -13.730;  907.580
1004.603;   50.855;  -12.300;  791.820
1005.154;   46.402;  -15.330;  608.980
1005.705;   46.047;  -12.800;  723.960
1006.257;   44.624;  -13.900;  707.220
1006.808;   43.325;  -14.430;  685.460
1007.359;   43.981;  -12.010;  763.240
1007.910;   42.184;  -12.690;  646.640
1008.461;   41.855;  -13.610;  732.940
1009.013;   40.326;  -14.990;  588.340
1009.564;   41.800;  -11.860;  793.520
1010.115;   39.995;  -12.640;  597.040
1010.665;   39.099;  -14.570;  602.160
1011.216;   40.044;  -15.190;  667.920
1011.767;   39.109;  -13.470;  697.920
1012.318;   39.263;  -13.760;  736.980
1012.869;   38.089;  -15.950;  679.000
1013.419;   37.733;  -15.880;  603.120
1013.970;   37.698;  -14.540;  666.640
1014.521;   36.807;  -13.220;  620.620
1015.071;   37.270;  -15.020;  670.380
1015.622;   36.655;  -17.510;  635.460
1016.172;   35.808;  -14.130;  596.820
1016.723;   35.941;  -14.220;  614.380
1017.273;   34.956;  -15.370;  604.160
1017.823;   35.492;  -15.290;  650.340
1018.374;   35.767;  -13.420;  611.760
1018.924;   36.005;  -11.740;  716.880
1019.474;   35.226;  -12.250;  718.880
1020.024;   34.120;  -15.850;  657.580
1020.574;   35.420;  -13.280;  726.160
1021.124;   35.057;  -13.560;  673.580
1021.674;   32.674;  -13.790;  559.120
1022.224;   34.294;  -14.610;  708.940
1022.774;   33.539;  -13.100;  668.820
1023.324;   34.618;  -11.470;  753.520
1023.874;   35.470;  -11.990;  875.760
1024.423;   32.358;  -14.550;  613.700
1024.973;   31.351;  -14.440;  610.760
1025.523;   31.936;  -13.250;  620.960
1026.072;   30.673;  -15.200;  606.420
1026.622;   31.024;  -14.590;  675.740
1027.172;   32.509;  -11.080;  715.660
1027.721;   31.187;  -14.010;  601.220
1028.270;   31.287;  -13.690;  663.400
1028.820;   30.905;  -15.380;  638.080
1029.369;   30.747;  -14.980;  612.700
1029.918;   30.968;  -13.100;  649.840
1030.468;   29.660;  -13.680;  564.780
1031.017;   30.059;  -13.770;  634.800
1031.566;   29.304;  -14.100;  608.900
1032.115;   31.153;  -11.770;  694.500
1032.664;   28.735;  -14.940;  596.480
1033.213;   30.203;  -13.370;  735.420
1033.762;   29.686;  -13.660;  635.620
1034.311;   29.298;  -13.650;  677.220
1034.860;   29.172;  -13.820;  691.000
1035.408;   29.426;  -12.860;  722.720
1035.957;   28.966;  -13.060;  719.540
1036.506;   26.683;  -14.510;  530.800
1037.055;   29.879;  -13.470;  844.320
1037.603;   27.736;  -14.800;  664.000
1038.152;   26.505;  -14.190;  534.760
1038.700;   27.693;  -11.810;  585.740
1039.249;   26.717;  -12.850;  681.220
1039.797;   27.082;  -14.610;  633.360
1040.345;   27.259;  -15.220;  705.420
1040.894;   27.578;  -13.480;  625.300
1041.442;   25.162;  -13.310;  632.200
1041.990;   24.815;  -14.510;  559.160
1042.538;   24.719;  -15.700;  536.180
1043.087;   25.524;  -13.910;  570.860
1043.635;   26.520;  -13.620;  670.500
1044.183;   25.359;  -14.230;  586.400
1044.731;   25.416;  -13.730;  576.000
1045.279;   25.053;  -13.970;  674.920
1045.827;   27.415;  -10.750;  892.400
1046.374;   23.537;  -15.230;  515.420
1046.922;   23.359;  -15.390;  590.580
1047.470;   25.308;  -12.320;  691.300
1048.018;   24.426;  -13.230;  647.960
1048.565;   25.201;  -13.390;  708.600
1049.113;   23.515;  -15.030;  557.000
1049.660;   23.760;  -12.540;  629.660
1050.208;   24.062;  -15.040;  675.640
1050.755;   23.066;  -14.680;  606.580
1051.303;   24.111;  -13.610;  686.820
1051.850;   22.823;  -14.340;  635.120
1052.397;   20.530;  -16.330;  473.960
1052.945;   21.671;  -15.710;  617.760
1053.492;   23.100;  -12.320;  741.840
1054.039;   23.912;  -13.730;  720.180
1054.586;   21.647;  -16.140;  557.240
1055.133;   22.720;  -14.020;  693.140
1055.680;   22.643;  -13.430;  646.620
1056.227;   21.222;  -14.570;  542.780
1056.774;   23.104;  -14.400;  794.980
1057.321;   20.435;  -14.230;  523.260
1057.868;   21.006;  -14.220;  651.320
1058.415;   21.015;  -14.060;  651.980
1058.961;   21.534;  -14.640;  678.940
1059.508;   20.193;  -13.970;  643.820
1060.055;   20.247;  -15.100;  581.780
1060.601;   21.072;  -12.180;  624.300
1061.148;   19.723;  -15.010;  616.820
1061.694;   20.024;  -14.750;  592.580
1062.241;   19.973;  -14.130;  596.320
1062.787;   20.779;  -14.770;  663.140
1063.334;   22.223;  -13.130;  808.560
1063.880;   19.985;  -14.420;  668.360
1064.426;   20.506;  -13.130;  706.820
1064.972;   18.882;  -13.960;  601.340
1065.518;   17.579;  -13.680;  566.640
1066.065;   18.950;  -15.720;  624.460
1066.611;   18.432;  -13.970;  598.800
1067.157;   19.836;  -13.920;  641.860
1067.703;   18.815;  -14.760;  668.480
1068.249;   18.419;  -14.490;  605.220
1068.794;   19.306;  -14.740;  626.880
1069.340;   17.452;  -13.220;  578.960
1069.886;   17.904;  -14.930;  590.700
1070.432;   17.081;  -14.700;  541.720
1070.977;   17.295;  -14.470;  601.080
1071.523;   17.611;  -14.330;  573.060
1072.068;   16.874;  -14.960;  582.000
1072.614;   16.502;  -16.220;  527.760
1073.160;   18.534;  -11.280;  687.040
1073.705;   16.459;  -15.990;  572.520
1074.250;   16.609;  -16.550;  559.900
1074.796;   18.080;  -14.600;  655.160
1075.341;   16.803;  -13.440;  664.100
1075.886;   17.494;  -14.450;  594.240
1076.431;   15.833;  -13.160;  649.880
1076.976;   15.767;  -14.710;  639.220
1077.521;   15.916;  -14.000;  583.080
1078.067;   15.140;  -14.470;  579.400
1078.612;   15.736;  -14.530;  661.620
1079.156;   15.457;  -15.660;  601.540
1079.701;   15.585;  -16.120;  693.260
1080.246;   16.467;  -12.960;  696.300
1080.791;   15.720;  -13.700;  625.020
1081.336;   15.649;  -15.540;  659.320
1081.880;   15.299;  -14.640;  649.680
1082.425;   15.273;  -14.220;  573.480
1082.970;   16.895;  -11.890;  717.040
1083.514;   14.133;  -13.820;  597.000
1084.059;   14.551;  -14.280;  586.720
1084.603;   14.347;  -12.890;  565.840
1085.147;   14.447;  -13.590;  645.220
1085.692;   15.289;  -14.050;  716.800
1086.236;   13.697;  -14.990;  503.140
1086.780;   15.918;  -12.640;  751.440
1087.325;   14.170;  -15.550;  654.620
1087.869;   14.373;  -14.980;  610.700
1088.413;   15.273;  -13.440;  705.040
1088.957;   12.904;  -12.170;  543.400
1089.501;   14.094;  -12.730;  766.640
1090.045;   13.399;  -14.650;  726.480
1090.589;   12.233;  -14.500;  569.920
1091.133;   13.727;  -12.320;  673.340
1091.676;   13.159;  -16.130;  591.940
1092.220;   12.189;  -13.930;  600.920
1092.764;   14.165;  -12.820;  706.960
1093.307;   13.558;  -11.700;  673.780
1093.851;   11.384;  -15.600;  556.540
1094.395;   13.069;  -13.920;  683.140
1094.938;   12.614;  -16.090;  632.520
1095.482;   12.360;  -13.820;  559.800
1096.025;   12.608;  -12.720;  710.880
1096.568;   13.628;  -12.100;  779.280
1097.112;   10.764;  -15.450;  508.180
1097.655;   12.822;  -14.310;  603.000
1098.198;   10.900;  -14.740;  600.180
1098.741;   10.511;  -15.550;  612.860
1099.285;   11.919;  -12.600;  657.300
1099.828;   10.548;  -15.050;  439.400
1100.371;   10.373;  -14.800;  608.160
1100.914;   11.284;  -16.480;  682.660
1101.457;   11.321;  -12.990;  679.900
1101.999;   10.386;  -14.110;  584.680
1102.542;   11.219;  -11.450;  641.440
1103.085;   10.641;  -13.350;  658.500
1103.628;   11.920;  -13.200;  762.060
1104.170;   10.152;  -12.310;  588.280
1104.713;   10.594;  -14.320;  646.700
1105.256;    9.993;  -16.110;  557.440
1105.798;    8.121;  -15.910;  499.980
1106.341;   11.680;  -12.200;  728.900
1106.883;    9.352;  -14.910;  521.340
1107.425;   10.184;  -14.960;  668.180
1107.968;    9.885;  -13.440;  612.380
1108.510;   10.966;  -14.010;  684.960
1109.052;    7.672;  -15.430;  612.620
1109.594;    8.772;  -15.290;  554.440
1110.136;    9.728;  -13.360;  643.220
1110.679;    9.417;  -13.820;  633.080
1111.221;    9.169;  -13.690;  604.460
1111.763;    7.980;  -14.890;  559.220
1112.304;    8.406;  -14.550;  547.140
1112.846;    9.815;  -12.760;  666.240
1113.388;   11.687;  -10.780;  942.180
1113.930;    8.119;  -12.690;  694.200
1114.472;    8.239;  -15.730;  606.540
1115.013;    7.006;  -14.620;  551.280
1115.555;    7.298;  -14.950;  587.100
1116.097;    7.053;  -16.460;  579.480
1116.638;    9.021;  -13.730;  684.600
1117.180;    8.499;  -13.810;  667.740
1117.721;    7.047;  -13.280;  568.580
1118.262;    7.542;  -15.080;  677.960
1118.804;    8.741;  -14.040;  637.340
1119.345;    7.379;  -15.430;  578.400
1119.886;    8.123;  -15.240;  704.040
1120.427;    6.326;  -15.820;  589.020
1120.969;    7.198;  -14.550;  597.920
1121.510;    5.415;  -14.030;  563.060
1122.051;    7.184;  -11.990;  723.580
1122.592;    6.123;  -16.490;  655.420
1123.133;    5.487;  -15.580;  547.940
1123.673;    7.408;  -12.850;  706.480
1124.214;    6.401;  -13.630;  612.460
1124.755;    6.914;  -14.830;  639.460
1125.296;    7.015;  -13.110;  627.320
1125.836;    8.023;  -11.320;  691.500
1126.377;    5.246;  -14.330;  599.660
1126.918;    6.619;  -12.800;  614.980
1127.458;    5.853;  -13.580;  622.220
1127.999;    6.140;  -10.330;  656.980
1128.539;    5.959;  -13.390;  694.240
1129.079;    5.419;  -16.420;  632.720
1129.620;    4.580;  -15.700;  558.100
1130.160;    5.083;  -14.790;  539.480
1130.700;    5.746;  -12.910;  640.840
1131.240;    6.164;  -15.610;  643.700
1131.781;    4.613;  -12.920;  619.680
1132.321;    4.613;  -15.300;  599.120
1132.861;    3.583;  -14.760;  564.200
1133.401;    4.300;  -15.470;  593.940
1133.941;    5.488;  -13.710;  626.280
1134.481;    3.979;  -11.820;  597.580
1135.020;    3.544;  -14.810;  609.160
1135.560;    4.334;  -13.660;  674.940
1136.100;    3.658;  -13.940;  501.160
1136.640;    4.157;  -15.410;  510.480
1137.179;    3.635;  -16.920;  537.960
1137.719;    4.162;  -16.430;  605.400
1138.258;    4.342;  -16.300;  587.360
1138.798;    4.778;  -13.710;  663.780
1139.337;    2.512;  -13.840;  482.840
1139.877;    4.340;  -16.140;  642.360
1140.416;    6.210;  -11.410;  878.060
1140.955;    3.576;  -12.820;  535.380
1141.494;    3.484;  -12.310;  669.280
1142.034;    3.206;  -16.280;  583.520
1142.573;    4.721;  -13.090;  646.280
1143.112;    2.898;  -13.770;  553.480
1143.651;    2.942;  -15.830;  536.480
1144.190;    3.871;  -15.010;  691.640
1144.729;    3.207;  -13.650;  607.420
1145.267;    3.321;  -13.670;  584.900
1145.806;    3.111;  -13.630;  637.040
1146.345;    2.754;  -14.160;  635.020
1146.884;    2.912;  -11.180;  622.500
1147.422;    1.980;  -15.890;  533.060
1147.961;    4.027;  -12.760;  708.460
1148.500;    3.933;  -15.220;  669.720
1149.038;    3.457;  -13.720;  632.500
1149.577;    3.732;  -13.250;  698.640
1150.115;    0.271;  -16.790;  452.280
1150.653;    2.041;  -15.810;  607.340
1151.192;    2.794;  -14.730;  552.920
1151.730;    2.574;  -13.660;  652.560
1152.268;    1.916;  -15.120;  589.520
1152.806;    1.470;  -15.580;  571.180
1153.344;    0.744;  -16.210;  577.640
1153.882;    2.618;  -12.810;  600.060
1154.421;    0.869;  -14.150;  470.620
1154.958;    1.074;  -15.360;  595.240
1155.496;    2.364;  -14.710;  645.280
1156.034;    1.764;  -13.640;  721.880
1156.572;    2.527;  -13.740;  667.060
1157.110;   -0.165;  -16.960;  473.940
1157.647;    2.568;  -11.940;  676.960
1158.185;    0.423;  -14.090;  564.320
1158.723;   -0.491;  -13.610;  509.200
1159.260;    1.111;  -14.760;  701.700
1159.798;    1.613;  -13.700;  658.160
1160.335;    1.093;  -13.820;  631.820

