
Integration time [ms]:   3.882
Averaging Nr. [scans]: 1000
Smoothing Nr. [pixels]: 0
Data measured with spectrometer [name]: 7414430SP
Wave   ;Sample   ;Dark     ;Reference
[nm]   ;[counts] ;[counts] ;[counts] 

288.544;  126.462;   10.292;  793.890
289.143;  130.487;    4.564;  681.602
289.742;  131.828;    6.144;  828.814
290.341;  118.470;    4.396;  789.841
290.940;  108.586;    0.938;  730.702
291.538;  110.786;   -0.684;  881.108
292.137;  109.498;   -2.845;  792.581
292.736;  113.833;   -0.144;  975.101
293.335;  109.937;   -6.352;  735.086
293.934;  111.559;   -7.642;  781.677
294.532;  112.506;   -4.992; 1031.958
295.131;   97.051;   -5.478;  834.394
295.730;   96.637;   -6.549;  809.588
296.328;   95.629;   -9.558;  783.442
296.927;   95.605;   -8.118;  779.652
297.525;   97.459;   -6.908;  781.236
298.124;   86.696;   -9.195;  654.009
298.722;   92.491;   -8.198;  761.933
299.321;   90.128;   -8.817;  708.597
299.919;   87.330;   -7.716;  751.918
300.518;   83.319;  -10.745;  689.338
301.116;   86.500;   -9.647;  691.381
301.715;   86.185;  -10.828;  730.222
302.313;   84.039;   -6.087;  704.943
302.911;   80.587;   -6.824;  733.830
303.509;   86.319;   -8.807;  925.627
304.108;   83.515;   -8.198;  760.383
304.706;   82.408;   -6.218;  801.664
305.304;   77.676;   -7.185;  796.707
305.902;   84.100;   -8.568;  784.484
306.500;   79.239;   -7.737;  728.200
307.098;   77.975;   -6.026;  746.560
307.696;   76.098;   -7.176;  780.432
308.294;   77.225;   -8.656;  731.359
308.892;   79.502;   -6.838;  759.769
309.490;   74.257;   -2.596;  712.161
310.088;   71.999;   -4.485;  788.444
310.686;   78.058;   -3.907;  821.749
311.284;   74.283;   -2.806;  766.040
311.882;   70.335;   -2.845;  731.225
312.480;   67.021;   -3.274;  697.167
313.078;   70.482;   -3.645;  808.331
313.675;   72.125;   -4.997;  691.600
314.273;   65.772;   -0.894;  797.837
314.871;   64.797;   -2.854;  589.829
315.468;   63.430;   -3.644;  652.090
316.066;   67.792;   -3.947;  694.427
316.664;   59.276;   -1.824;  656.351
317.261;   64.307;    1.565;  910.128
317.859;   60.368;   -3.955;  768.735
318.456;   61.804;   -2.886;  830.096
319.054;   56.620;   -0.995;  787.828
319.651;   55.592;   -1.765;  759.928
320.249;   56.483;   -3.685;  810.188
320.846;   54.639;   -3.736;  714.286
321.443;   52.084;   -2.065;  832.135
322.041;   48.610;   -5.635;  812.315
322.638;   47.494;   -5.985;  701.456
323.235;   49.835;   -6.677;  665.683
323.833;   46.299;   -3.497;  740.354
324.430;   41.886;   -6.756;  615.900
325.027;   45.686;   -7.647;  876.855
325.624;   45.013;   -7.598;  644.532
326.221;   41.270;   -5.848;  689.717
326.818;   41.068;   -5.777;  818.332
327.415;   44.995;   -8.769;  748.828
328.012;   43.485;   -6.299;  690.585
328.609;   41.728;   -6.639;  731.389
329.206;   39.541;   -6.358;  778.621
329.803;   39.171;   -8.698;  737.841
330.400;   41.793;   -8.379;  704.260
330.997;   41.478;   -6.178;  817.147
331.594;   38.607;   -5.646;  788.185
332.191;   45.295;   -6.928;  728.722
332.787;   46.645;   -6.057;  844.463
333.384;   43.404;   -6.445;  763.093
333.981;   40.054;   -8.002;  815.687
334.578;   43.409;   -8.443;  708.378
335.174;   46.879;   -6.053;  731.469
335.771;   45.387;   -5.791;  836.456
336.367;   42.320;   -6.570;  710.631
336.964;   45.258;   -6.741;  793.266
337.561;   46.962;   -5.710;  731.112
338.157;   42.466;   -3.928;  911.916
338.754;   37.162;   -5.577;  796.589
339.350;   36.900;   -9.667;  722.493
339.946;   41.377;   -5.269;  773.135
340.543;   32.676;   -4.485;  846.136
341.139;   26.673;   -7.584;  720.836
341.735;   25.597;   -8.553;  772.593
342.332;   24.483;   -4.984;  691.472
342.928;   25.152;   -3.475;  795.394
343.524;   18.798;   -6.653;  761.684
344.120;   16.671;   -7.173;  738.562
344.716;   20.249;   -4.385;  723.717
345.313;   16.839;   -3.565;  795.342
345.909;   12.524;   -7.495;  627.336
346.505;   15.584;   -8.276;  740.247
347.101;   16.730;   -5.697;  827.864
347.697;   15.884;   -4.767;  785.398
348.293;   10.397;   -7.226;  627.244
348.889;   12.339;   -7.547;  745.914
349.485;   12.079;   -9.147;  688.205
350.081;   11.801;   -6.568;  772.592
350.676;    7.298;   -6.516;  691.606
351.272;   12.802;   -7.378;  809.530
351.868;   13.519;   -6.759;  780.497
352.464;   10.053;   -4.798;  723.932
353.059;    6.280;   -7.977;  646.017
353.655;   10.098;   -8.769;  777.063
354.251;   11.592;   -5.920;  759.845
354.846;    5.397;   -7.647;  740.646
355.442;    2.814;   -6.956;  753.071
356.038;    5.768;   -9.928;  751.708
356.633;    5.855;   -7.698;  728.594
357.229;    3.091;   -6.307;  724.757
357.824;    1.696;   -7.647;  703.600
358.420;    1.110;  -10.047;  679.726
359.015;    2.654;   -7.458;  695.357
359.610;    3.372;   -5.748;  763.920
360.206;   -3.848;   -9.346;  603.240
360.801;    0.051;  -11.268;  646.503
361.396;    3.125;   -8.789;  725.975
361.992;   -2.022;   -6.347;  668.220
362.587;   -5.229;   -6.476;  670.160
363.182;   -2.265;   -9.457;  689.631
363.777;   -1.190;   -7.147;  738.242
364.372;   -1.834;   -5.507;  737.314
364.967;   -5.599;   -6.386;  680.744
365.563;   -0.993;   -7.858;  815.567
366.158;   -3.891;   -8.517;  685.161
366.753;   -3.727;   -8.728;  649.263
367.348;   -5.389;   -7.677;  746.056
367.942;   -3.874;  -10.387;  697.298
368.537;   -5.633;   -7.187;  754.245
369.132;   -6.068;   -8.587;  703.428
369.727;  -10.058;   -8.606;  638.079
370.322;   -8.157;  -10.426;  580.186
370.917;   -7.373;   -5.776;  710.646
371.511;   -5.045;   -6.007;  861.834
372.106;   -8.486;   -6.686;  776.964
372.701;  -11.740;   -9.335;  585.988
373.296;   -5.296;   -6.777;  863.135
373.890;  -10.891;   -7.546;  647.840
374.485;  -13.527;   -8.755;  691.199
375.079;   -8.286;   -9.797;  738.685
375.674;   -6.736;   -6.327;  812.970
376.268;  -11.608;   -9.046;  691.759
376.863;  -17.689;   -7.993;  580.327
377.457;  -10.106;   -9.206;  662.490
378.052;  -12.308;   -5.345;  764.884
378.646;  -13.627;   -5.605;  741.167
379.240;  -13.567;   -6.825;  721.176
379.835;  -12.046;  -10.476;  636.978
380.429;  -14.118;   -8.676;  562.557
381.023;  -13.953;   -4.945;  779.205
381.617;  -17.466;   -8.094;  680.106
382.212;  -12.703;  -10.646;  685.303
382.806;  -12.209;   -8.136;  760.690
383.400;  -16.399;   -7.855;  672.281
383.994;  -18.115;   -8.125;  664.870
384.588;  -12.982;   -7.637;  697.701
385.182;  -11.263;   -7.458;  726.624
385.776;  -13.278;   -6.277;  706.875
386.370;  -16.988;   -7.485;  681.968
386.964;  -14.561;   -9.416;  684.155
387.558;  -13.183;   -8.518;  598.360
388.152;  -16.718;   -7.096;  681.959
388.745;  -15.414;   -7.656;  814.707
389.339;  -12.397;   -8.927;  747.642
389.933;  -11.820;   -9.538;  695.370
390.527;  -13.040;   -5.857;  859.029
391.120;  -19.555;   -9.455;  595.318
391.714;  -15.479;   -9.746;  711.633
392.308;  -12.929;   -7.857;  780.253
392.901;  -17.126;   -9.106;  642.460
393.495;  -18.761;  -10.365;  595.414
394.089;  -15.128;   -9.696;  760.452
394.682;  -15.725;   -7.016;  697.188
395.275;  -17.132;   -8.466;  719.927
395.869;  -18.133;   -8.985;  667.314
396.462;  -16.109;  -11.496;  616.609
397.056;  -11.984;   -7.838;  776.621
397.649;  -17.186;   -6.895;  731.575
398.242;  -14.915;   -5.017;  712.645
398.836;  -12.799;   -8.787;  766.408
399.429;  -14.596;   -8.967;  631.041
400.022;  -19.152;   -8.815;  665.902
400.615;  -15.690;   -6.276;  805.609
401.208;  -13.259;   -8.407;  691.451
401.802;  -15.324;   -7.296;  699.329
402.395;  -16.971;   -7.585;  683.502
402.988;  -18.110;   -8.015;  696.627
403.581;  -13.700;   -9.577;  646.878
404.174;  -11.123;   -7.588;  686.568
404.767;  -15.610;   -7.906;  638.583
405.360;  -17.686;   -7.875;  621.445
405.953;  -11.095;   -8.127;  759.034
406.545;  -10.632;   -7.198;  725.342
407.138;  -15.403;   -8.916;  618.350
407.731;  -14.578;   -9.767;  613.303
408.324;   -9.265;  -10.659;  660.554
408.917;  -10.224;   -8.068;  681.864
409.509;  -12.848;   -9.837;  740.396
410.102;  -15.462;   -8.146;  643.948
410.695;   -7.641;   -7.969;  665.758
411.287;   -9.379;   -8.579;  599.821
411.880;  -10.597;   -6.968;  585.421
412.472;  -14.206;   -9.487;  613.092
413.065;   -9.950;  -10.338;  629.408
413.657;   -8.130;   -9.169;  576.678
414.250;   -8.647;  -10.119;  646.681
414.842;   -9.785;   -9.938;  676.353
415.434;   -7.421;  -10.409;  570.463
416.027;   -3.288;   -9.591;  652.196
416.619;   -5.261;   -7.379;  713.400
417.211;   -5.926;   -9.159;  599.352
417.804;   -1.479;   -9.191;  628.499
418.396;   -5.361;   -8.159;  607.643
418.988;   -4.390;   -6.960;  659.238
419.580;   -7.704;  -11.389;  568.276
420.172;   -4.956;  -13.460;  536.196
420.764;    0.522;  -10.701;  672.482
421.356;   -1.735;   -8.961;  636.898
421.948;   -2.461;   -9.770;  677.661
422.540;    3.598;   -8.832;  680.027
423.132;    2.792;   -8.153;  600.641
423.724;   -1.942;   -8.481;  561.267
424.316;    0.878;   -9.261;  621.345
424.908;    5.059;   -9.643;  591.517
425.500;    5.617;   -8.663;  647.978
426.092;    5.901;   -8.503;  648.268
426.683;    4.964;  -10.522;  684.836
427.275;    8.635;  -11.734;  641.471
427.867;   10.472;  -10.264;  668.948
428.458;    9.390;   -7.644;  732.344
429.050;    7.537;   -7.853;  680.749
429.642;   11.873;   -8.904;  743.124
430.233;   11.358;  -10.795;  569.356
430.825;   12.276;   -7.665;  724.809
431.416;    9.122;   -8.843;  698.241
432.008;   14.242;   -9.885;  651.723
432.599;   15.877;   -9.966;  656.073
433.190;   10.447;   -9.164;  637.670
433.782;   10.640;   -8.584;  590.395
434.373;   19.475;   -8.296;  884.765
434.964;   17.715;   -9.896;  602.920
435.556;   14.298;   -8.255;  634.537
436.147;   17.918;   -8.075;  758.490
436.738;   17.886;   -9.716;  701.099
437.329;   23.112;   -7.318;  721.723
437.920;   16.359;   -6.694;  666.688
438.511;   15.878;   -9.644;  564.526
439.103;   23.205;   -9.427;  623.998
439.694;   25.724;  -10.748;  681.583
440.285;   25.723;   -7.997;  764.432
440.876;   23.954;  -10.046;  845.738
441.466;   23.489;  -13.467;  575.162
442.057;   29.966;   -9.329;  665.814
442.648;   27.005;   -7.707;  746.255
443.239;   25.471;   -9.017;  620.477
443.830;   31.064;  -10.279;  704.958
444.421;   32.877;  -12.630;  655.474
445.011;   28.933;   -8.697;  693.619
445.602;   28.538;   -7.787;  743.126
446.193;   31.597;  -13.329;  488.117
446.783;   35.956;   -9.171;  640.397
447.374;   31.110;   -7.457;  692.759
447.964;   31.877;   -9.277;  713.770
448.555;   40.758;   -9.041;  822.742
449.145;   37.913;   -8.969;  662.853
449.736;   37.635;   -6.809;  803.179
450.326;   37.188;   -7.229;  713.626
450.917;   42.829;  -11.391;  675.324
451.507;   42.365;   -9.501;  600.661
452.097;   43.021;   -8.460;  746.267
452.688;   43.866;  -10.080;  742.160
453.278;   43.652;  -12.861;  566.840
453.868;   47.939;   -8.372;  793.550
454.458;   45.689;   -8.131;  651.141
455.048;   46.239;   -8.520;  711.783
455.639;   48.374;  -13.632;  567.096
456.229;   52.798;  -10.143;  710.694
456.819;   53.589;   -9.163;  751.158
457.409;   53.792;   -8.652;  773.993
457.999;   57.579;   -9.933;  737.505
458.589;   57.661;  -10.363;  686.606
459.179;   56.529;  -10.633;  717.658
459.769;   55.428;  -12.442;  627.099
460.358;   60.144;   -9.844;  797.262
460.948;   59.999;   -9.924;  689.503
461.538;   61.276;  -10.484;  660.677
462.128;   59.404;  -10.703;  664.934
462.717;   66.723;  -11.486;  710.326
463.307;   69.884;  -10.767;  705.846
463.897;   65.318;   -8.814;  656.942
464.486;   64.517;   -8.182;  837.128
465.076;   69.232;   -9.985;  733.776
465.666;   73.310;  -10.447;  652.900
466.255;   71.603;   -7.754;  785.651
466.845;   69.147;  -10.884;  666.749
467.434;   73.667;  -12.525;  725.873
468.023;   74.276;  -11.456;  658.357
468.613;   71.756;   -9.173;  713.946
469.202;   75.319;   -9.306;  646.507
469.791;   80.585;   -8.917;  737.811
470.381;   81.798;   -9.657;  742.813
470.970;   81.313;   -9.947;  711.099
471.559;   81.365;   -9.256;  733.291
472.148;   85.526;  -13.397;  675.737
472.738;   88.474;   -9.928;  765.466
473.327;   86.627;  -10.897;  637.529
473.916;   86.731;   -8.526;  737.446
474.505;   91.753;  -11.078;  751.703
475.094;   95.868;   -9.559;  806.570
475.683;   93.764;   -8.838;  797.699
476.272;   94.587;  -10.198;  730.632
476.861;   97.369;  -11.489;  706.754
477.449;  105.202;  -10.721;  728.487
478.038;   97.821;   -9.818;  692.513
478.627;   99.335;   -9.887;  714.852
479.216;  107.307;  -10.030;  769.441
479.805;  110.965;   -9.401;  783.375
480.393;  109.818;   -5.739; 1008.945
480.982;  108.910;   -7.838;  874.501
481.571;  115.602;   -9.111;  858.333
482.159;  116.903;  -10.601;  705.386
482.748;  115.536;   -8.500;  821.385
483.336;  120.380;   -9.241;  858.209
483.925;  121.341;  -10.440;  774.373
484.513;  128.918;  -11.063;  758.962
485.102;  124.810;   -9.540;  810.965
485.690;  134.243;   -6.742; 1011.050
486.278;  136.674;   -8.442;  979.329
486.867;  136.623;  -10.472;  809.662
487.455;  138.802;   -8.811;  898.229
488.043;  139.988;  -10.721;  748.361
488.631;  150.275;  -10.393; 1005.079
489.220;  154.347;  -10.843;  908.626
489.808;  153.584;  -10.572;  741.415
490.396;  161.956;  -10.482;  914.645
490.984;  169.575;  -11.542;  830.161
491.572;  180.460;   -8.463;  940.315
492.160;  185.163;   -8.491;  919.081
492.748;  195.626;   -9.681;  884.341
493.336;  216.083;  -10.493; 1019.693
493.924;  244.343;   -9.354;  958.077
494.512;  277.898;   -9.132; 1066.638
495.100;  317.237;   -9.001; 1103.280
495.687;  372.053;  -11.924; 1206.373
496.275;  445.026;  -11.193; 1150.796
496.863;  548.545;   -9.241; 1281.171
497.451;  668.960;  -11.341; 1386.805
498.038;  772.740;  -11.364; 1556.729
498.626;  888.924;   -8.104; 1741.407
499.214; 1079.402;   -8.842; 2016.609
499.801; 1283.648;  -10.112; 2220.633
500.389; 1492.963;  -11.953; 2312.494
500.976; 1756.999;  -10.023; 2744.849
501.564; 2069.008;   -8.662; 3148.565
502.151; 2462.170;  -10.531; 3515.999
502.738; 2864.085;  -13.853; 3971.274
503.326; 3437.493;  -10.794; 4403.796
503.913; 4035.485;   -8.663; 5161.749
504.500; 4415.055;  -10.172; 5986.420
505.088; 4750.945;  -13.472; 6381.201
505.675; 5489.834;  -10.924; 6925.547
506.262; 6324.151;   -8.551; 7619.060
506.849; 7204.927;  -10.523; 8733.969
507.436; 7936.137;  -10.834; 9790.121
508.023; 8204.622;   -9.093; 9985.472
508.610; 8648.739;  -10.073;10434.618
509.197; 9214.756;   -9.500;11198.435
509.784;10581.300;  -13.242;12391.194
510.371;11426.841;  -10.964;13603.713
510.958;11266.110;   -9.772;14426.586
511.545;12395.865;   -7.842;15243.775
512.132;12700.389;  -12.184;15945.876
512.719;12838.610;   -9.733;16340.369
513.305;14800.929;   -9.172;18011.766
513.892;16527.813;   -9.581;19754.971
514.479;18519.938;  -10.253;20967.805
515.066;20862.777;   -8.183;22299.793
515.652;22269.049;   -9.253;22908.660
516.239;23335.594;   -9.412;23798.875
516.825;25893.557;  -11.153;25567.275
517.412;25949.203;  -10.263;28154.959
517.998;26257.102;   -8.802;28344.111
518.585;25884.801;  -10.401;27134.219
519.171;25638.611;  -12.744;27268.576
519.758;27677.576;  -11.793;28964.129
520.344;30100.973;   -8.912;30664.494
520.930;29845.164;  -10.901;32550.605
521.516;30637.949;  -12.034;35422.895
522.103;31799.533;  -10.473;38280.004
522.689;33445.930;   -8.311;37835.117
523.275;37314.641;  -10.691;37288.613
523.861;38875.508;  -11.193;37281.395
524.447;39658.031;  -11.484;37846.949
525.033;39632.594;   -7.702;38321.949
525.619;39319.914;  -11.241;38579.285
526.205;40759.711;  -12.152;40622.875
526.791;40394.133;  -11.423;42258.836
527.377;37528.309;   -7.981;42966.902
527.963;38217.242;   -9.450;42018.949
528.549;42310.230;  -11.351;42476.828
529.135;44186.352;  -10.202;41854.852
529.721;43100.254;   -8.672;41237.711
530.306;41236.594;   -9.111;41259.445
530.892;42721.754;  -11.252;41506.047
531.478;45156.336;  -10.432;43559.613
532.063;48073.293;  -10.721;47695.563
532.649;50266.891;   -7.450;50808.324
533.235;50800.813;  -11.811;51787.500
533.820;50939.027;   -9.383;52145.035
534.406;50242.344;   -9.400;51133.488
534.991;49274.277;   -8.861;49996.805
535.576;47374.629;  -10.612;48882.852
536.162;45406.465;   -7.322;46942.285
536.747;46494.020;   -9.360;45711.746
537.333;49006.359;  -10.450;48510.180
537.918;50966.246;  -12.610;50439.891
538.503;52541.289;  -12.132;50863.711
539.088;49896.422;  -10.831;50906.922
539.673;46979.105;  -11.220;52621.965
540.259;48625.500;  -11.481;52368.094
540.844;51809.375;  -11.462;50879.109
541.429;53515.555;   -7.869;52077.777
542.014;54444.254;  -11.859;52716.695
542.599;53762.770;  -11.061;52363.281
543.184;53097.609;  -12.300;53187.137
543.769;52442.145;   -9.369;54697.605
544.354;52473.645;  -12.020;53913.914
544.938;49329.531;  -10.350;49680.164
545.523;46531.473;  -10.841;47386.277
546.108;48201.875;   -8.579;49151.949
546.693;50780.156;   -8.818;51384.637
547.278;51967.996;  -11.331;51853.254
547.862;48231.723;  -10.292;51173.750
548.447;43850.648;   -8.349;51691.395
549.031;45047.977;  -10.838;52456.703
549.616;50902.199;  -11.681;52714.516
550.201;54362.219;  -11.140;52414.598
550.785;52311.789;   -8.649;52355.059
551.370;51939.227;  -11.889;54589.453
551.954;51790.516;  -11.239;58267.348
552.538;51404.137;   -8.850;59062.176
553.123;52669.738;  -10.829;58115.285
553.707;52837.527;   -8.887;56556.285
554.291;51760.043;  -10.430;56201.668
554.876;49569.855;   -9.799;55335.762
555.460;50542.090;  -10.018;54155.703
556.044;51943.820;   -7.307;53721.484
556.628;48795.473;  -12.229;53731.016
557.212;45451.410;   -9.820;54312.531
557.796;44731.406;   -9.109;53797.773
558.380;46791.469;   -9.707;56145.984
558.964;45712.180;  -10.980;57277.930
559.548;45818.020;  -12.010;56459.641
560.132;49439.152;   -7.928;54434.543
560.716;51138.188;  -10.247;54800.617
561.300;50893.020;  -11.250;57606.945
561.884;52784.195;  -10.568;58972.445
562.467;51349.594;   -9.727;57327.570
563.051;49923.676;  -11.847;54962.434
563.635;48473.992;  -10.747;52594.473
564.219;44862.684;  -13.108;50610.410
564.802;41577.277;  -11.417;49551.180
565.386;42717.020;  -10.457;48370.953
565.969;44556.156;   -8.959;48178.871
566.553;43935.766;  -10.328;49957.305
567.136;42638.969;  -10.257;50369.594
567.720;42376.418;  -10.186;49492.004
568.303;42659.613;  -10.027;50616.352
568.887;43647.398;  -10.397;50727.148
569.470;41852.844;   -8.185;51698.379
570.053;40794.063;  -11.596;52122.078
570.637;40607.535;  -11.378;52536.438
571.220;40464.852;   -9.138;51186.098
571.803;39627.445;   -7.675;51032.762
572.386;38078.922;   -8.976;49609.887
572.969;35572.449;  -12.477;48285.926
573.552;36561.254;   -9.767;47624.285
574.135;37124.797;   -8.175;45498.641
574.718;33698.754;  -11.096;41970.434
575.301;31805.793;  -11.966;41447.137
575.884;29912.832;  -12.836;40923.836
576.467;34034.949;   -9.116;45267.723
577.050;34938.141;  -10.536;48175.543
577.633;35987.023;  -11.027;47729.328
578.216;37013.688;   -9.946;47579.793
578.799;37032.492;   -9.645;47820.996
579.381;38091.320;   -9.446;48115.551
579.964;39738.000;  -12.217;47333.766
580.547;40665.383;  -10.586;46668.969
581.129;40866.863;   -8.374;44466.141
581.712;38532.754;  -10.434;44164.922
582.294;36250.363;  -10.896;46477.855
582.877;36357.727;   -8.906;48244.254
583.459;37271.234;   -9.994;47437.895
584.042;38009.379;  -10.084;46943.219
584.624;38291.066;  -13.534;46792.227
585.206;36355.500;  -12.716;46557.250
585.789;36629.254;  -11.614;45793.773
586.371;34739.703;  -10.203;43836.391
586.953;32017.924;  -10.314;42972.492
587.536;32561.162;   -9.776;42487.211
588.118;34094.566;   -9.821;42086.414
588.700;35305.406;  -10.073;43389.930
589.282;33715.426;  -12.395;43646.039
589.864;32948.848;  -11.514;43438.109
590.446;33137.520;  -10.803;43151.926
591.028;32516.936;  -11.043;42781.867
591.610;32706.473;  -13.244;42839.098
592.192;32453.551;  -11.095;42820.402
592.774;30955.633;  -10.823;40724.277
593.356;30124.260;  -11.052;39874.789
593.937;31529.613;  -11.664;39980.648
594.519;35269.484;  -10.454;42069.633
595.101;38144.352;  -10.322;42976.031
595.683;37320.629;  -10.042;44084.441
596.264;33559.473;  -14.334;43478.797
596.846;34759.914;  -10.863;43803.672
597.427;33765.887;   -9.901;42986.934
598.009;32280.623;  -10.911;42832.219
598.591;32821.594;  -10.483;42580.086
599.172;34455.902;   -9.663;43061.805
599.753;35531.770;  -10.631;41691.469
600.335;35915.043;   -9.371;40692.520
600.916;33777.012;  -13.992;39982.422
601.498;33132.410;   -8.352;40318.617
602.079;33779.055;   -8.411;40670.609
602.660;33549.813;  -10.841;41450.898
603.241;33142.828;  -12.963;41137.738
603.823;33607.590;  -11.523;38868.797
604.404;33316.609;  -11.881;38182.785
604.985;34245.273;  -11.721;38078.047
605.566;34154.281;   -9.293;38056.633
606.147;32716.076;  -10.940;37020.418
606.728;34337.266;  -11.840;37883.359
607.309;35346.617;  -11.781;38748.273
607.890;35640.832;  -11.262;38850.230
608.471;33809.852;  -10.111;37457.918
609.051;33441.480;   -7.709;36066.457
609.632;30710.920;  -12.409;35991.074
610.213;30972.963;  -10.811;37402.641
610.794;32471.777;  -11.630;38383.363
611.374;36072.664;   -8.030;40562.387
611.955;36241.656;  -10.809;38533.727
612.536;34849.648;  -10.531;36951.789
613.116;34731.371;  -12.820;37197.891
613.697;35758.906;  -11.419;38411.125
614.277;36929.105;   -9.768;38673.938
614.858;33766.914;  -10.251;37075.863
615.438;30202.361;  -11.981;35092.906
616.019;27956.238;   -8.978;33666.301
616.599;30382.469;  -12.219;34189.023
617.179;32605.064;  -14.170;36952.047
617.760;33443.922;   -9.211;39582.574
618.340;33579.148;   -9.018;38943.977
618.920;33904.633;   -9.249;37594.156
619.500;33928.516;  -12.728;37866.938
620.080;34363.871;  -12.939;37869.043
620.660;35393.473;  -11.586;36868.617
621.241;34872.168;  -11.538;36352.309
621.821;33537.023;  -11.398;35459.520
622.401;32078.016;  -10.179;35207.414
622.980;32116.432;  -11.587;35980.422
623.560;33664.680;  -12.888;37351.328
624.140;31992.699;  -13.149;34388.582
624.720;27721.438;   -9.928;32368.764
625.300;27261.230;  -10.869;32638.629
625.880;30012.160;   -8.617;34599.035
626.459;31155.459;  -12.138;36831.738
627.039;33653.371;  -12.267;38299.098
627.619;37037.492;   -7.476;38289.574
628.198;38618.461;  -11.347;37220.695
628.778;35961.727;  -11.678;37632.563
629.357;33292.117;  -12.438;38003.012
629.937;32511.305;   -9.576;38402.039
630.516;32267.330;  -11.096;37868.801
631.096;33246.625;  -11.828;35760.410
631.675;34556.125;  -11.565;35225.219
632.254;35207.270;  -11.845;35130.289
632.834;36748.848;  -11.545;35794.570
633.413;36159.066;  -10.887;35788.922
633.992;35688.785;  -10.175;34532.863
634.571;36316.102;   -9.704;33590.113
635.151;34743.043;  -10.815;34943.863
635.730;33368.676;  -11.617;35352.523
636.309;33107.242;  -10.836;35366.605
636.888;33694.680;   -9.755;36165.637
637.467;33773.352;  -11.684;37515.902
638.046;34013.184;  -11.987;39288.695
638.625;33635.270;  -10.455;38279.699
639.204;33406.555;  -11.234;37741.598
639.782;34304.508;  -12.023;38364.551
640.361;32557.279;  -11.506;36740.621
640.940;29450.279;  -12.316;34950.082
641.519;27365.182;  -11.616;34137.398
642.097;29616.893;   -9.266;35654.258
642.676;33482.164;  -12.936;35637.957
643.255;34156.762;   -9.966;36567.074
643.833;34708.043;   -8.916;37809.434
644.412;32633.713;  -10.936;37337.293
644.990;31912.953;  -12.176;37018.531
645.569;32841.465;  -12.246;36518.469
646.147;35737.754;  -12.107;36186.430
646.726;38448.348;  -12.937;36267.688
647.304;35422.566;  -12.547;36647.625
647.882;34385.980;  -12.597;39286.742
648.461;33654.395;   -9.427;39157.703
649.039;33617.266;   -8.937;35412.883
649.617;34370.988;  -11.067;34744.918
650.195;32838.910;  -10.657;35403.098
650.773;30236.236;  -10.097;35053.797
651.352;29711.176;  -11.887;33756.816
651.930;28688.641;  -13.557;31868.773
652.508;28657.682;  -11.767;33121.551
653.086;31508.377;  -10.777;33564.793
653.663;34318.117;  -12.067;34054.668
654.241;36966.848;  -14.918;35693.309
654.819;36566.250;  -11.788;36422.906
655.397;34439.957;  -11.268;38213.484
655.975;32676.270;  -11.738;39507.625
656.553;30775.287;  -11.018;39498.223
657.130;29506.371;  -12.848;40395.480
657.708;28333.068;  -10.098;39242.020
658.286;29384.691;  -11.678;38920.020
658.863;32017.029;  -11.498;40202.898
659.441;34818.184;  -11.008;39677.938
660.018;36655.785;  -11.048;40413.355
660.596;37460.688;  -12.058;39931.414
661.173;37941.840;  -14.158;39604.531
661.750;37192.223;  -12.298;39700.070
662.328;36616.996;  -10.699;39292.809
662.905;36082.574;  -12.119;38235.648
663.482;32211.846;  -11.829;36212.305
664.060;28413.797;  -11.009;35944.945
664.637;31642.896;  -10.369;35170.785
665.214;34259.070;  -10.459;34197.523
665.791;33464.207;  -12.599;34549.520
666.368;30881.582;  -12.919;35118.578
666.945;29076.883;  -10.699;36019.418
667.522;30175.236;  -11.359;36048.438
668.099;30800.416;  -13.529;36243.914
668.676;29538.109;  -10.229;35958.875
669.253;29106.205;   -9.279;37384.730
669.830;28655.301;  -11.370;36779.629
670.407;28418.172;  -10.950;35231.289
670.984;29371.338;  -12.850;35544.270
671.560;28234.027;   -8.440;35466.867
672.137;29131.674;  -13.520;34280.863
672.714;30691.596;  -13.620;34632.863
673.290;31169.660;  -10.450;35135.422
673.867;30164.576;  -10.960;36114.480
674.443;31111.871;  -13.300;36152.859
675.020;29344.512;  -12.370;35327.238
675.596;28685.729;  -11.250;35795.176
676.173;29287.031;  -11.080;35430.355
676.749;29045.275;  -13.220;33549.516
677.326;30034.863;  -13.000;32210.012
677.902;29833.943;  -12.701;32068.871
678.478;28429.225;  -12.801;32583.891
679.054;29158.088;   -8.601;32088.928
679.631;30230.523;  -12.631;30978.848
680.207;31096.799;   -9.451;33160.887
680.783;30501.648;  -11.701;35570.363
681.359;30885.135;  -12.701;36125.184
681.935;32809.156;  -13.271;35240.922
682.511;34808.816;  -10.791;34429.961
683.087;32724.080;  -10.791;34463.680
683.663;29348.377;   -8.121;34648.898
684.239;27077.010;  -13.261;34546.457
684.815;27742.035;  -10.581;35586.375
685.390;29653.994;   -9.961;35821.895
685.966;29199.877;  -11.182;35085.871
686.542;28327.934;  -13.512;34198.230
687.118;26347.184;  -11.472;32847.707
687.693;25262.605;  -10.152;32794.027
688.269;25665.430;  -14.442;33072.367
688.844;24713.674;  -11.852;33141.664
689.420;23677.531;  -13.942;33965.742
689.995;24930.266;   -9.702;34655.523
690.571;26687.490;  -11.312;33576.742
691.146;26828.719;  -14.332;32657.219
691.722;26489.486;  -11.192;32526.979
692.297;27301.920;  -10.962;33014.617
692.872;28768.350;  -11.082;34012.254
693.448;29567.855;  -14.732;34237.434
694.023;28904.580;  -12.363;34142.672
694.598;27027.840;  -12.393;34132.031
695.173;27606.922;  -11.023;34205.250
695.748;29125.602;  -12.743;32882.488
696.323;28520.277;  -11.103;32864.906
696.898;27723.016;   -8.123;33170.004
697.473;27408.111;  -12.603;32432.984
698.048;27779.297;  -12.553;31649.303
698.623;29136.109;  -12.573;30778.141
699.198;28926.297;  -12.743;31140.119
699.773;28186.133;  -12.843;31764.299
700.348;28566.805;  -16.683;31780.816
700.922;29694.342;  -11.403;32046.375
701.497;31272.648;  -11.253;32603.574
702.072;30655.816;  -10.044;34799.871
702.646;30038.781;  -13.054;35793.172
703.221;30664.525;  -11.414;35201.590
703.795;30017.967;  -10.644;34764.527
704.370;28102.113;  -13.484;34307.367
704.944;27190.508;  -12.144;33509.887
705.519;26682.119;  -12.024;31388.584
706.093;28368.313;  -11.234;31340.104
706.668;29499.041;   -9.874;32630.281
707.242;28578.229;  -12.404;32728.779
707.816;26901.811;  -10.644;32947.238
708.390;26429.676;  -11.174;33277.855
708.965;26390.957;  -10.324;33834.336
709.539;26981.271;  -12.014;33709.273
710.113;27324.861;  -12.295;33044.313
710.687;28882.152;  -10.965;31953.992
711.261;30916.039;  -13.685;30505.949
711.835;29457.787;  -15.335;30262.369
712.409;28171.875;  -13.785;31254.447
712.983;28328.355;  -10.525;32754.986
713.557;26625.135;  -13.175;34018.824
714.131;26465.605;  -13.245;34579.625
714.704;29600.592;  -13.175;33890.262
715.278;31942.453;  -11.545;33531.102
715.852;30496.781;  -10.975;33601.660
716.425;28830.395;  -10.075;33515.117
716.999;29148.688;  -12.185;33185.555
717.573;31414.855;   -9.685;33905.996
718.146;32275.348;  -10.516;35199.293
718.720;30936.848;  -12.106;35060.551
719.293;29340.959;  -12.386;34973.230
719.867;29271.258;  -12.456;36394.449
720.440;29130.188;  -10.686;36663.008
721.013;29312.291;  -12.596;35102.426
721.587;30872.775;  -13.956;33985.266
722.160;32862.199;   -9.806;33524.965
722.733;33474.965;  -11.676;32987.043
723.306;32883.008;  -14.276;33066.301
723.880;30654.479;  -12.126;33399.500
724.453;28234.197;  -10.156;33468.297
725.026;27862.275;  -12.956;33816.637
725.599;27990.320;  -11.676;32797.996
726.172;28402.428;  -12.337;33187.434
726.745;28636.473;  -11.277;35136.613
727.318;28619.729;  -11.927;35751.730
727.891;27872.789;  -13.607;35890.430
728.463;25606.854;  -11.327;34822.090
729.036;25415.604;  -11.917;32895.086
729.609;27101.059;  -12.697;31823.225
730.182;28014.369;  -11.787;31445.283
730.754;27708.373;  -12.957;32373.223
731.327;27418.574;  -11.017;33676.820
731.900;27118.447;  -12.797;33417.000
732.472;26460.078;  -10.677;31978.498
733.045;25861.650;  -12.797;30368.777
733.617;25888.768;  -13.908;30574.215
734.190;24771.197;  -12.258;31280.975
734.762;24820.184;  -13.438;31674.412
735.334;26050.787;  -11.758;31247.291
735.907;28779.238;  -11.158;29876.211
736.479;32161.055;  -11.258;29808.488
737.051;32741.119;  -10.918;30233.547
737.623;31690.453;  -11.038;31469.086
738.195;32821.844;  -12.188;31784.225
738.768;30557.922;  -11.378;32120.523
739.340;24787.941;  -12.598;32094.342
739.912;23034.838;  -11.568;31312.680
740.484;24808.689;   -9.348;31946.238
741.056;27393.480;  -12.628;32984.059
741.628;29262.729;  -13.349;33897.715
742.199;28164.352;  -11.309;33213.016
742.771;28391.566;  -12.699;31369.113
743.343;29426.092;  -11.919;31865.473
743.915;29406.316;  -11.679;32388.631
744.487;27928.750;  -12.249;31079.568
745.058;25638.387;  -11.119;30570.107
745.630;24407.469;   -9.439;29970.127
746.201;23634.857;  -11.949;29186.766
746.773;23742.311;  -12.639;28805.723
747.344;24927.422;  -11.039;29591.223
747.916;27031.928;  -12.549;31412.201
748.487;26010.527;  -12.659;32194.898
749.059;24328.354;  -13.059;32533.719
749.630;23571.805;  -12.080;32158.518
750.201;22021.828;  -13.100;30855.395
750.773;21266.639;  -15.310;28622.555
751.344;20929.236;  -12.240;28405.732
751.915;21004.318;  -11.960;28461.551
752.486;20128.275;  -13.200;27842.850
753.057;18841.877;  -15.230;27845.008
753.628;19964.219;  -13.130;27728.107
754.199;22389.502;  -12.720;27381.086
754.770;22565.803;  -10.680;25882.203
755.341;21211.973;  -11.010;25886.184
755.912;20689.916;  -12.990;26050.861
756.483;20116.869;  -11.110;26798.779
757.054;19696.936;  -12.190;27048.238
757.625;19658.143;  -13.981;26294.838
758.195;19731.385;  -11.041;26142.076
758.766;20802.668;  -11.861;26392.234
759.337;21173.457;  -11.461;26334.594
759.907;20533.576;  -15.001;27579.652
760.478;19406.824;   -9.681;28352.770
761.048;18291.729;  -12.421;27325.088
761.619;19140.363;  -11.761;26460.428
762.189;19667.670;  -12.391;26029.826
762.760;19027.633;  -10.201;26430.145
763.330;19590.170;  -10.811;26670.902
763.900;20183.006;  -10.261;26603.021
764.471;19202.715;  -13.061;25542.740
765.041;17790.939;  -11.051;24358.459
765.611;17635.182;  -11.032;23991.297
766.181;17803.432;  -10.532;24470.236
766.751;18201.094;  -13.502;24845.975
767.321;19392.793;  -11.392;24533.633
767.891;21158.492;  -11.522;24916.492
768.461;22426.953;  -13.672;24776.771
769.031;20018.645;  -14.652;24757.988
769.601;17202.217;  -10.182;24181.088
770.171;15989.915;  -11.752;23670.387
770.741;15048.654;  -12.272;22960.045
771.311;14794.542;  -13.112;22917.523
771.880;15772.518;  -14.122;23562.941
772.450;16488.133;  -11.782;24216.500
773.020;16651.209;  -12.642;24140.398
773.589;15800.623;  -13.043;24414.857
774.159;15235.563;  -11.783;23858.717
774.729;16057.839;  -13.473;22942.135
775.298;16840.355;  -14.523;22324.033
775.867;16429.764;  -12.013;21140.313
776.437;15742.466;  -12.113;20838.092
777.006;15418.440;  -13.543;20599.510
777.576;16049.787;  -12.523;20508.809
778.145;16274.322;  -12.173;20732.947
778.714;15598.734;  -12.153;21062.465
779.283;14789.751;  -11.833;20949.664
779.853;14889.196;  -13.483;20508.623
780.422;15043.104;  -12.933;20649.082
780.991;14570.731;  -13.173;21527.520
781.560;14306.385;  -10.224;22632.658
782.129;14768.222;  -12.684;23048.277
782.698;14820.959;  -11.284;23438.555
783.267;14680.093;  -11.684;23267.734
783.836;14428.009;  -10.974;22415.133
784.404;14009.114;  -13.534;20443.152
784.973;13232.275;  -16.734;19699.150
785.542;12129.025;  -12.594;19763.828
786.111;11762.089;  -11.644;20341.408
786.679;12793.280;  -11.384;20207.967
787.248;13077.459;  -12.014;19516.465
787.817;11942.718;  -12.804;18900.363
788.385;10686.420;  -11.994;17879.121
788.954;10972.190;  -12.564;17658.301
789.522;11964.675;  -12.225;17788.879
790.090;12026.335;  -13.775;18118.277
790.659;11841.225;  -12.485;18338.736
791.227;12507.005;  -12.295;18508.615
791.795;13152.087;  -13.415;17898.254
792.364;13609.592;  -12.995;17295.133
792.932;13367.573;   -8.365;16822.051
793.500;12297.187;  -11.925;17040.148
794.068;12406.039;  -13.245;17179.787
794.636;13184.437;  -13.815;16664.246
795.204;13205.441;  -13.375;16524.545
795.772;12980.668;  -12.125;17274.564
796.340;12154.378;  -13.855;17891.002
796.908;10558.581;  -13.456;17648.561
797.476; 9715.116;  -13.116;17064.080
798.044; 9937.917;  -13.226;16672.777
798.612;10270.655;  -11.236;17023.996
799.180;10182.660;  -10.476;16561.615
799.747; 9789.429;  -11.746;15962.773
800.315; 9359.192;  -12.366;15296.992
800.883; 8776.750;  -14.616;14801.771
801.450; 8877.183;  -11.996;14534.430
802.018; 9716.854;  -11.206;14173.248
802.585;10150.572;  -12.466;14029.547
803.153; 9667.212;  -12.846;13836.846
803.720; 9037.979;  -12.136;13567.324
804.287; 9168.520;  -10.966;13360.622
804.855; 9310.199;   -9.797;13681.981
805.422; 8551.575;  -13.037;13536.560
805.989; 7877.015;  -12.697;13355.958
806.556; 8061.601;  -11.737;13747.896
807.124; 8756.321;  -11.997;13987.376
807.691; 8548.013;  -13.997;14038.674
808.258; 7937.518;  -10.927;14120.152
808.825; 8162.513;  -13.727;13860.111
809.392; 8219.048;  -11.847;13268.790
809.959; 8184.091;  -14.217;12680.389
810.526; 8139.341;   -8.277;12427.308
811.093; 8277.714;   -9.647;12030.105
811.659; 8321.750;  -10.987;11653.664
812.226; 7732.057;  -13.447;11637.183
812.793; 7264.831;  -14.418;11611.521
813.360; 7412.173;  -13.908;11885.181
813.926; 7885.465;  -12.918;12770.539
814.493; 8105.173;  -14.888;12677.638
815.060; 7701.229;  -12.758;11974.336
815.626; 7395.287;  -13.478;11594.715
816.193; 7338.777;  -13.898;11579.474
816.759; 7455.796;  -13.588;11666.972
817.325; 7448.809;  -12.018;11325.530
817.892; 7094.324;  -14.068;11105.369
818.458; 7121.314;  -13.458;10843.928
819.024; 7016.814;  -11.968;10714.406
819.591; 6787.688;  -11.028;10469.165
820.157; 6873.816;  -12.088;10235.523
820.723; 6978.920;  -12.599;10847.563
821.289; 6685.436;  -10.419;11040.980
821.855; 6471.281;  -10.939;10357.100
822.421; 6449.991;  -12.539; 9978.918
822.987; 6398.698;  -13.259; 9754.177
823.553; 6196.279;  -15.369;10065.755
824.119; 6054.962;  -10.779;10036.294
824.685; 6044.459;   -9.999;10029.192
825.251; 5898.194;  -11.819;10199.230
825.816; 5829.595;  -13.369; 9820.189
826.382; 5689.703;  -12.679; 9297.248
826.948; 5248.672;  -11.199; 9381.347
827.513; 5063.856;  -11.179; 9450.726
828.079; 5151.158;  -13.489; 9472.444
828.645; 5255.835;  -12.500; 9292.643
829.210; 5251.810;  -15.120; 9065.341
829.776; 5207.209;  -12.590; 9132.620
830.341; 5316.741;  -11.540; 9092.878
830.906; 5673.089;  -12.400; 9078.557
831.472; 5669.489;  -12.720; 8534.535
832.037; 4990.089;  -11.490; 8677.874
832.602; 4356.400;  -14.380; 8628.692
833.167; 4102.381;  -12.780; 8879.031
833.733; 4306.974;  -11.100; 9189.790
834.298; 4628.663;  -12.080; 9052.608
834.863; 4467.495;  -13.910; 8895.087
835.428; 4197.381;  -13.470; 8824.266
835.993; 4039.971;  -11.760; 8845.385
836.558; 4200.081;  -12.731; 8888.563
837.123; 4349.803;  -12.431; 8966.582
837.688; 4197.804;  -11.241; 8617.860
838.253; 4028.718;  -13.681; 8590.699
838.817; 4136.348;  -12.531; 8443.797
839.382; 4264.501;  -12.671; 8799.356
839.947; 4322.718;  -11.541; 8810.595
840.511; 4437.428;  -12.021; 8796.394
841.076; 4499.393;  -13.071; 8347.231
841.641; 4694.468;  -11.411; 8224.330
842.205; 4916.784;  -13.671; 8223.349
842.770; 4808.395;  -11.291; 8622.107
843.334; 4536.471;  -12.951; 8410.386
843.898; 4301.322;  -11.221; 8337.465
844.463; 4363.951;  -11.322; 8506.283
845.027; 4355.983;  -11.412; 8280.962
845.591; 4114.156;  -11.512; 8231.141
846.156; 3980.039;  -14.042; 7969.179
846.720; 4026.974;  -12.152; 7768.278
847.284; 3852.079;  -10.922; 7630.957
847.848; 3666.683;  -10.962; 7472.395
848.412; 3463.774;  -14.612; 7437.394
848.976; 3470.989;  -11.492; 7674.592
849.540; 3741.173;   -9.172; 7836.011
850.104; 3931.389;  -11.232; 7913.669
850.668; 3857.376;  -15.182; 7694.508
851.232; 3741.474;  -15.332; 7756.887
851.796; 3696.531;  -13.703; 7926.545
852.359; 3757.778;  -11.113; 7827.844
852.923; 3856.494;  -11.843; 7641.163
853.487; 3826.082;  -11.173; 7342.501
854.050; 3708.789;  -13.443; 7042.820
854.614; 3667.586;  -13.823; 7151.338
855.177; 3590.748;  -16.393; 7105.077
855.741; 3543.286;  -11.693; 6989.675
856.304; 3521.938;  -10.843; 6596.634
856.868; 3418.000;  -13.783; 6356.272
857.431; 3206.977;  -11.953; 6468.571
857.995; 2960.073;  -13.683; 6373.210
858.558; 2925.730;  -11.433; 6324.448
859.121; 3045.728;  -12.493; 6408.327
859.684; 2982.546;  -12.384; 6347.886
860.247; 2672.427;  -14.774; 6321.264
860.810; 2417.094;  -13.154; 6301.903
861.374; 2412.794;  -11.264; 6607.881
861.937; 2480.010;  -15.424; 6408.200
862.500; 2473.148;  -12.854; 6572.639
863.062; 2455.098;  -12.344; 6387.297
863.625; 2453.539;  -13.314; 6190.836
864.188; 2534.688;  -14.724; 5807.254
864.751; 2717.122;  -13.464; 5682.413
865.314; 3051.167;  -11.684; 5547.492
865.876; 3268.247;  -11.104; 5500.150
866.439; 3214.508;  -12.344; 5415.909
867.002; 3041.599;  -13.494; 5501.567
867.564; 2781.246;  -10.935; 5413.946
868.127; 2590.919;  -12.665; 5160.325
868.689; 2549.910;  -14.515; 5133.183
869.252; 2596.709;  -13.425; 5252.382
869.814; 2756.181;  -11.595; 5297.141
870.377; 2853.942;  -12.175; 5390.919
870.939; 2743.350;  -10.265; 5599.898
871.501; 2608.876;  -12.375; 5248.336
872.063; 2522.502;  -14.355; 4854.235
872.626; 2444.308;  -14.435; 4817.074
873.188; 2353.704;  -12.415; 4987.732
873.750; 2374.458;  -14.555; 4868.651
874.312; 2308.725;  -11.185; 4779.330
874.874; 2124.623;  -12.715; 4866.348
875.436; 2035.414;  -13.196; 4718.887
875.998; 2022.360;  -11.426; 4660.005
876.560; 1939.414;   -9.786; 4462.964
877.122; 1876.949;  -12.796; 4145.042
877.683; 1858.083;  -13.226; 4056.481
878.245; 1846.774;  -12.036; 3950.740
878.807; 1840.401;  -11.536; 4058.958
879.369; 1823.362;  -10.806; 3954.677
879.930; 1727.683;  -13.946; 3941.495
880.492; 1588.633;  -11.876; 4067.014
881.053; 1548.990;  -13.216; 3859.633
881.615; 1604.166;  -12.226; 3776.071
882.176; 1640.054;  -12.946; 3734.750
882.738; 1588.674;  -10.736; 3678.489
883.299; 1520.440;  -12.057; 3405.407
883.860; 1489.322;  -12.677; 3351.106
884.422; 1450.138;  -14.097; 3394.044
884.983; 1348.486;  -13.667; 3166.443
885.544; 1203.995;  -10.717; 3189.802
886.105; 1098.777;  -14.357; 3160.360
886.666; 1074.889;  -14.287; 3093.059
887.227; 1079.725;  -14.297; 2941.957
887.788; 1065.385;  -13.137; 2974.836
888.349;  984.338;  -14.637; 2721.214
888.910;  903.343;  -12.247; 2696.493
889.471;  895.563;  -10.577; 2560.172
890.032;  890.546;  -12.937; 2558.190
890.593;  843.689;  -12.487; 2567.669
891.153;  777.428;  -11.898; 2460.307
891.714;  767.229;  -14.278; 2372.046
892.275;  770.662;  -13.308; 2309.505
892.835;  719.345;  -12.058; 2382.543
893.396;  643.258;  -15.268; 2295.502
893.956;  592.239;  -13.278; 2162.420
894.517;  557.514;  -11.968; 2125.439
895.077;  544.465;  -12.798; 2086.978
895.638;  524.186;  -11.908; 2126.316
896.198;  499.388;  -13.288; 1838.275
896.758;  475.883;  -12.198; 1892.813
897.319;  450.865;  -13.048; 1792.232
897.879;  415.189;  -13.718; 1762.751
898.439;  378.541;  -14.138; 1661.149
898.999;  366.206;  -13.659; 1781.468
899.559;  355.955;  -14.699; 1703.347
900.119;  334.636;  -14.339; 1537.525
900.679;  312.947;  -11.789; 1638.384
901.239;  291.171;  -13.629; 1527.902
901.799;  275.341;  -13.679; 1456.441
902.359;  261.408;  -13.679; 1357.140
902.919;  252.478;  -14.159; 1331.118
903.479;  243.556;  -13.419; 1317.257
904.038;  232.750;  -14.899; 1262.595
904.598;  219.551;  -14.339; 1152.034
905.158;  214.767;  -13.959; 1240.893
905.717;  211.114;  -12.749; 1233.691
906.277;  203.036;  -11.889; 1217.330
906.836;  196.369;  -12.870; 1222.408
907.396;  195.009;  -11.790; 1193.047
907.955;  191.720;  -13.750; 1182.526
908.515;  185.651;  -14.760; 1099.364
909.074;  179.294;  -12.540; 1092.863
909.633;  173.311;  -12.120; 1069.121
910.192;  171.288;  -12.550; 1196.460
910.752;  168.114;  -12.760; 1029.960
911.311;  166.086;  -14.750; 1009.780
911.870;  162.642;  -13.860;  971.460
912.429;  161.062;  -13.480; 1094.080
912.988;  156.797;  -12.370; 1081.060
913.547;  151.849;  -14.670;  940.380
914.106;  150.373;  -12.800;  999.420
914.665;  147.984;  -11.370;  984.020
915.224;  145.755;  -11.430; 1035.760
915.782;  145.176;  -12.260;  922.560
916.341;  146.304;  -12.540; 1049.840
916.900;  143.020;  -12.540;  925.260
917.458;  141.469;  -13.480;  884.220
918.017;  141.625;  -12.470;  942.600
918.576;  141.461;  -13.450;  904.440
919.134;  139.317;  -12.890;  837.980
919.693;  136.837;  -15.480;  893.060
920.251;  134.633;  -14.420;  876.500
920.809;  136.368;  -12.170;  839.580
921.368;  135.646;  -13.650;  885.360
921.926;  134.999;  -12.750;  842.940
922.484;  134.502;  -14.150;  903.360
923.042;  136.657;  -15.100;  880.340
923.601;  139.171;  -10.990;  998.680
924.159;  138.906;  -12.470;  935.560
924.717;  137.482;  -15.640;  841.080
925.275;  139.929;  -12.380;  903.240
925.833;  138.553;  -12.710;  779.320
926.391;  139.129;  -11.200;  938.380
926.949;  140.361;  -16.000;  857.680
927.506;  142.458;  -12.260;  903.500
928.064;  142.819;  -11.300;  877.580
928.622;  143.064;  -13.750;  880.100
929.180;  141.397;  -15.290;  814.180
929.737;  140.699;  -14.500;  808.540
930.295;  142.707;  -10.630;  928.480
930.853;  144.365;  -14.590;  849.100
931.410;  147.018;  -14.450;  821.120
931.968;  150.880;  -14.390;  940.660
932.525;  151.058;  -13.050;  909.380
933.082;  148.665;  -15.620;  811.440
933.640;  152.029;  -15.650;  925.900
934.197;  154.486;  -13.610;  886.360
934.754;  158.964;  -13.320;  897.780
935.312;  161.429;  -13.370;  863.340
935.869;  164.540;  -12.780; 1012.980
936.426;  163.758;  -14.480;  872.800
936.983;  164.909;  -13.180;  889.020
937.540;  164.838;  -15.710;  838.280
938.097;  166.433;  -14.980;  940.120
938.654;  169.481;  -13.060;  898.860
939.211;  170.026;  -12.760;  952.480
939.768;  169.975;  -16.230;  915.420
940.324;  169.870;  -10.940;  904.200
940.881;  169.591;  -12.570;  878.500
941.438;  168.543;  -13.650; 1021.200
941.995;  167.224;  -13.300;  992.560
942.551;  168.813;  -15.800;  875.620
943.108;  169.520;  -14.180;  937.920
943.664;  167.995;  -13.890;  869.340
944.221;  171.665;  -12.640; 1088.140
944.777;  168.779;  -14.700;  869.680
945.334;  167.769;  -13.010;  884.840
945.890;  168.957;  -13.480;  946.480
946.446;  168.636;  -14.920;  947.020
947.003;  166.995;  -13.860;  964.940
947.559;  167.756;  -12.000; 1063.040
948.115;  167.518;  -10.510; 1026.540
948.671;  166.492;  -12.760;  967.300
949.227;  162.958;  -15.390;  859.560
949.783;  159.128;  -15.570;  858.900
950.339;  159.045;  -12.800;  991.000
950.895;  156.456;  -13.780; 1023.840
951.451;  155.324;  -13.810;  925.280
952.007;  158.784;  -12.390;  998.540
952.563;  158.921;  -11.980;  937.780
953.118;  155.755;  -14.070;  904.940
953.674;  158.114;  -14.140;  935.780
954.230;  163.320;  -12.680;  949.640
954.785;  164.084;  -12.770;  936.640
955.341;  160.945;  -11.450;  998.160
955.897;  152.577;  -15.350;  834.660
956.452;  149.606;  -14.200;  953.840
957.008;  145.717;  -10.820; 1083.640
957.563;  142.168;  -13.200; 1009.540
958.118;  141.858;  -14.460;  877.700
958.674;  144.023;  -13.840;  946.780
959.229;  142.842;  -10.670; 1013.980
959.784;  143.397;  -17.040;  832.400
960.339;  145.750;  -12.970; 1001.280
960.894;  148.957;  -12.700;  963.760
961.449;  151.738;  -13.790;  859.960
962.004;  157.594;  -11.760; 1212.840
962.559;  154.977;  -14.840;  860.140
963.114;  151.088;  -14.530;  742.480
963.669;  148.710;  -12.780;  915.500
964.224;  144.171;  -14.330;  874.340
964.779;  137.983;  -14.380;  828.420
965.334;  136.095;  -12.460; 1017.860
965.888;  131.350;  -13.490;  875.360
966.443;  130.765;  -14.140;  972.380
966.998;  126.011;  -16.240;  819.460
967.552;  127.433;  -12.730;  908.380
968.107;  124.275;  -14.510;  868.300
968.661;  124.000;  -11.850;  922.440
969.216;  122.552;  -14.370;  856.280
969.770;  121.035;  -13.010;  917.200
970.324;  119.686;  -12.460;  923.140
970.879;  119.574;  -11.580;  947.180
971.433;  120.982;  -13.130;  952.720
971.987;  120.121;  -12.360;  895.340
972.541;  117.225;  -14.330;  917.100
973.095;  114.255;  -13.310; 1009.460
973.649;  110.087;  -15.830;  809.480
974.203;  111.314;  -15.830;  829.040
974.757;  113.008;  -13.480;  855.220
975.311;  114.484;  -13.720;  872.600
975.865;  115.916;  -15.780;  881.820
976.419;  115.354;  -14.290;  857.400
976.973;  112.493;  -13.210;  849.620
977.526;  110.045;  -12.300;  949.920
978.080;  104.825;  -14.840;  796.780
978.634;  104.788;  -13.100;  921.320
979.187;  100.358;  -12.300;  905.400
979.741;  100.019;  -12.020; 1018.380
980.294;   96.490;  -14.590;  789.160
980.848;   96.249;  -14.390;  717.220
981.401;   95.499;  -14.280;  816.540
981.955;   94.874;  -11.920;  844.300
982.508;   91.542;  -15.790;  746.340
983.061;   93.140;  -12.070;  915.260
983.615;   90.157;  -13.260;  798.800
984.168;   87.291;  -15.540;  770.080
984.721;   86.101;  -13.230;  880.760
985.274;   84.657;  -11.820;  867.500
985.827;   81.962;  -13.510;  834.220
986.380;   80.163;  -14.840;  721.340
986.933;   81.821;  -13.970;  864.800
987.486;   81.461;  -12.450;  861.920
988.039;   79.056;  -11.170;  863.100
988.591;   76.202;  -13.070;  893.260
989.144;   72.487;  -15.530;  737.260
989.697;   71.881;  -14.300;  758.740
990.250;   70.943;  -13.310;  858.100
990.802;   67.783;  -14.490;  755.860
991.355;   69.565;  -12.980;  974.880
991.907;   67.553;  -13.715;  864.320
992.460;   65.542;  -14.450;  753.760
993.012;   63.237;  -12.590;  749.540
993.565;   61.482;  -15.180;  711.360
994.117;   63.614;  -11.630;  950.780
994.669;   60.425;  -13.760;  701.320
995.221;   59.229;  -12.710;  791.920
995.774;   58.571;  -14.620;  787.580
996.326;   58.835;  -13.150;  740.220
996.878;   58.601;  -12.880;  838.420
997.430;   55.924;  -14.580;  699.860
997.982;   54.637;  -14.030;  750.140
998.534;   55.808;  -12.190;  739.060
999.086;   54.104;  -12.990;  738.220
999.638;   52.501;  -13.180;  661.380
1000.190;   51.187;  -14.970;  699.320
1000.741;   51.837;  -12.200;  742.700
1001.293;   50.548;  -13.400;  686.020
1001.845;   49.643;  -14.490;  676.640
1002.396;   49.623;  -15.280;  743.400
1002.948;   50.126;  -12.380;  737.400
1003.500;   49.060;  -13.260;  723.780
1004.051;   50.515;  -13.730;  907.580
1004.603;   48.559;  -12.300;  791.820
1005.154;   46.348;  -15.330;  608.980
1005.705;   44.750;  -12.800;  723.960
1006.257;   43.416;  -13.900;  707.220
1006.808;   42.098;  -14.430;  685.460
1007.359;   42.879;  -12.010;  763.240
1007.910;   40.663;  -12.690;  646.640
1008.461;   40.600;  -13.610;  732.940
1009.013;   39.362;  -14.990;  588.340
1009.564;   41.149;  -11.860;  793.520
1010.115;   39.080;  -12.640;  597.040
1010.665;   37.953;  -14.570;  602.160
1011.216;   38.610;  -15.190;  667.920
1011.767;   38.786;  -13.470;  697.920
1012.318;   38.551;  -13.760;  736.980
1012.869;   36.865;  -15.950;  679.000
1013.419;   37.211;  -15.880;  603.120
1013.970;   37.300;  -14.540;  666.640
1014.521;   36.094;  -13.220;  620.620
1015.071;   36.108;  -15.020;  670.380
1015.622;   35.163;  -17.510;  635.460
1016.172;   35.492;  -14.130;  596.820
1016.723;   35.015;  -14.220;  614.380
1017.273;   33.982;  -15.370;  604.160
1017.823;   34.567;  -15.290;  650.340
1018.374;   35.387;  -13.420;  611.760
1018.924;   34.374;  -11.740;  716.880
1019.474;   35.169;  -12.250;  718.880
1020.024;   33.337;  -15.850;  657.580
1020.574;   34.906;  -13.280;  726.160
1021.124;   34.507;  -13.560;  673.580
1021.674;   31.954;  -13.790;  559.120
1022.224;   33.674;  -14.610;  708.940
1022.774;   33.589;  -13.100;  668.820
1023.324;   34.049;  -11.470;  753.520
1023.874;   34.626;  -11.990;  875.760
1024.423;   31.362;  -14.550;  613.700
1024.973;   31.969;  -14.440;  610.760
1025.523;   31.331;  -13.250;  620.960
1026.072;   29.643;  -15.200;  606.420
1026.622;   29.931;  -14.590;  675.740
1027.172;   32.281;  -11.080;  715.660
1027.721;   30.231;  -14.010;  601.220
1028.270;   30.218;  -13.690;  663.400
1028.820;   29.991;  -15.380;  638.080
1029.369;   30.653;  -14.980;  612.700
1029.918;   31.051;  -13.100;  649.840
1030.468;   28.844;  -13.680;  564.780
1031.017;   29.328;  -13.770;  634.800
1031.566;   29.192;  -14.100;  608.900
1032.115;   29.258;  -11.770;  694.500
1032.664;   28.624;  -14.940;  596.480
1033.213;   29.630;  -13.370;  735.420
1033.762;   28.785;  -13.660;  635.620
1034.311;   28.504;  -13.650;  677.220
1034.860;   28.254;  -13.820;  691.000
1035.408;   28.135;  -12.860;  722.720
1035.957;   29.286;  -13.060;  719.540
1036.506;   26.789;  -14.510;  530.800
1037.055;   29.220;  -13.470;  844.320
1037.603;   26.641;  -14.800;  664.000
1038.152;   25.867;  -14.190;  534.760
1038.700;   26.814;  -11.810;  585.740
1039.249;   25.708;  -12.850;  681.220
1039.797;   26.620;  -14.610;  633.360
1040.345;   26.547;  -15.220;  705.420
1040.894;   25.892;  -13.480;  625.300
1041.442;   25.040;  -13.310;  632.200
1041.990;   24.603;  -14.510;  559.160
1042.538;   24.483;  -15.700;  536.180
1043.087;   24.461;  -13.910;  570.860
1043.635;   25.983;  -13.620;  670.500
1044.183;   24.038;  -14.230;  586.400
1044.731;   25.388;  -13.730;  576.000
1045.279;   24.832;  -13.970;  674.920
1045.827;   26.451;  -10.750;  892.400
1046.374;   22.850;  -15.230;  515.420
1046.922;   22.984;  -15.390;  590.580
1047.470;   25.262;  -12.320;  691.300
1048.018;   23.592;  -13.230;  647.960
1048.565;   23.689;  -13.390;  708.600
1049.113;   22.755;  -15.030;  557.000
1049.660;   23.679;  -12.540;  629.660
1050.208;   22.842;  -15.040;  675.640
1050.755;   22.082;  -14.680;  606.580
1051.303;   23.403;  -13.610;  686.820
1051.850;   23.137;  -14.340;  635.120
1052.397;   20.065;  -16.330;  473.960
1052.945;   20.934;  -15.710;  617.760
1053.492;   23.392;  -12.320;  741.840
1054.039;   23.276;  -13.730;  720.180
1054.586;   20.459;  -16.140;  557.240
1055.133;   21.827;  -14.020;  693.140
1055.680;   22.454;  -13.430;  646.620
1056.227;   21.499;  -14.570;  542.780
1056.774;   22.901;  -14.400;  794.980
1057.321;   19.915;  -14.230;  523.260
1057.868;   20.887;  -14.220;  651.320
1058.415;   21.004;  -14.060;  651.980
1058.961;   20.734;  -14.640;  678.940
1059.508;   20.701;  -13.970;  643.820
1060.055;   20.814;  -15.100;  581.780
1060.601;   21.101;  -12.180;  624.300
1061.148;   19.555;  -15.010;  616.820
1061.694;   18.853;  -14.750;  592.580
1062.241;   19.853;  -14.130;  596.320
1062.787;   19.925;  -14.770;  663.140
1063.334;   21.538;  -13.130;  808.560
1063.880;   18.597;  -14.420;  668.360
1064.426;   20.835;  -13.130;  706.820
1064.972;   19.241;  -13.960;  601.340
1065.518;   17.501;  -13.680;  566.640
1066.065;   19.051;  -15.720;  624.460
1066.611;   17.579;  -13.970;  598.800
1067.157;   19.479;  -13.920;  641.860
1067.703;   18.544;  -14.760;  668.480
1068.249;   17.324;  -14.490;  605.220
1068.794;   18.714;  -14.740;  626.880
1069.340;   17.005;  -13.220;  578.960
1069.886;   17.766;  -14.930;  590.700
1070.432;   15.961;  -14.700;  541.720
1070.977;   16.929;  -14.470;  601.080
1071.523;   18.004;  -14.330;  573.060
1072.068;   16.066;  -14.960;  582.000
1072.614;   15.253;  -16.220;  527.760
1073.160;   17.770;  -11.280;  687.040
1073.705;   16.449;  -15.990;  572.520
1074.250;   15.918;  -16.550;  559.900
1074.796;   16.972;  -14.600;  655.160
1075.341;   17.367;  -13.440;  664.100
1075.886;   16.308;  -14.450;  594.240
1076.431;   15.980;  -13.160;  649.880
1076.976;   15.745;  -14.710;  639.220
1077.521;   15.486;  -14.000;  583.080
1078.067;   14.854;  -14.470;  579.400
1078.612;   15.498;  -14.530;  661.620
1079.156;   15.114;  -15.660;  601.540
1079.701;   16.291;  -16.120;  693.260
1080.246;   17.017;  -12.960;  696.300
1080.791;   14.895;  -13.700;  625.020
1081.336;   15.303;  -15.540;  659.320
1081.880;   14.898;  -14.640;  649.680
1082.425;   14.543;  -14.220;  573.480
1082.970;   16.234;  -11.890;  717.040
1083.514;   14.016;  -13.820;  597.000
1084.059;   13.863;  -14.280;  586.720
1084.603;   13.398;  -12.890;  565.840
1085.147;   14.098;  -13.590;  645.220
1085.692;   15.631;  -14.050;  716.800
1086.236;   13.093;  -14.990;  503.140
1086.780;   15.912;  -12.640;  751.440
1087.325;   13.570;  -15.550;  654.620
1087.869;   13.694;  -14.980;  610.700
1088.413;   14.492;  -13.440;  705.040
1088.957;   12.938;  -12.170;  543.400
1089.501;   14.386;  -12.730;  766.640
1090.045;   13.308;  -14.650;  726.480
1090.589;   11.725;  -14.500;  569.920
1091.133;   13.594;  -12.320;  673.340
1091.676;   12.981;  -16.130;  591.940
1092.220;   12.327;  -13.930;  600.920
1092.764;   14.331;  -12.820;  706.960
1093.307;   13.806;  -11.700;  673.780
1093.851;   10.353;  -15.600;  556.540
1094.395;   12.182;  -13.920;  683.140
1094.938;   12.447;  -16.090;  632.520
1095.482;   12.418;  -13.820;  559.800
1096.025;   12.806;  -12.720;  710.880
1096.568;   12.342;  -12.100;  779.280
1097.112;   10.264;  -15.450;  508.180
1097.655;   12.392;  -14.310;  603.000
1098.198;   10.021;  -14.740;  600.180
1098.741;   10.128;  -15.550;  612.860
1099.285;   12.177;  -12.600;  657.300
1099.828;    9.519;  -15.050;  439.400
1100.371;   10.644;  -14.800;  608.160
1100.914;   10.920;  -16.480;  682.660
1101.457;   11.574;  -12.990;  679.900
1101.999;   10.634;  -14.110;  584.680
1102.542;   10.929;  -11.450;  641.440
1103.085;    9.464;  -13.350;  658.500
1103.628;   11.659;  -13.200;  762.060
1104.170;    9.892;  -12.310;  588.280
1104.713;    9.735;  -14.320;  646.700
1105.256;    8.585;  -16.110;  557.440
1105.798;    8.906;  -15.910;  499.980
1106.341;   10.995;  -12.200;  728.900
1106.883;    9.115;  -14.910;  521.340
1107.425;    8.909;  -14.960;  668.180
1107.968;    9.254;  -13.440;  612.380
1108.510;   10.453;  -14.010;  684.960
1109.052;    7.730;  -15.430;  612.620
1109.594;    8.176;  -15.290;  554.440
1110.136;    9.561;  -13.360;  643.220
1110.679;    9.026;  -13.820;  633.080
1111.221;    8.839;  -13.690;  604.460
1111.763;    7.104;  -14.890;  559.220
1112.304;    8.194;  -14.550;  547.140
1112.846;    9.239;  -12.760;  666.240
1113.388;   11.709;  -10.780;  942.180
1113.930;    8.060;  -12.690;  694.200
1114.472;    8.297;  -15.730;  606.540
1115.013;    7.058;  -14.620;  551.280
1115.555;    6.251;  -14.950;  587.100
1116.097;    6.661;  -16.460;  579.480
1116.638;    8.329;  -13.730;  684.600
1117.180;    8.756;  -13.810;  667.740
1117.721;    6.880;  -13.280;  568.580
1118.262;    7.466;  -15.080;  677.960
1118.804;    7.862;  -14.040;  637.340
1119.345;    6.889;  -15.430;  578.400
1119.886;    7.867;  -15.240;  704.040
1120.427;    6.404;  -15.820;  589.020
1120.969;    6.709;  -14.550;  597.920
1121.510;    6.254;  -14.030;  563.060
1122.051;    7.108;  -11.990;  723.580
1122.592;    6.282;  -16.490;  655.420
1123.133;    5.435;  -15.580;  547.940
1123.673;    7.703;  -12.850;  706.480
1124.214;    5.278;  -13.630;  612.460
1124.755;    6.758;  -14.830;  639.460
1125.296;    5.927;  -13.110;  627.320
1125.836;    7.590;  -11.320;  691.500
1126.377;    5.114;  -14.330;  599.660
1126.918;    6.275;  -12.800;  614.980
1127.458;    5.803;  -13.580;  622.220
1127.999;    7.086;  -10.330;  656.980
1128.539;    5.453;  -13.390;  694.240
1129.079;    4.921;  -16.420;  632.720
1129.620;    5.295;  -15.700;  558.100
1130.160;    5.301;  -14.790;  539.480
1130.700;    4.784;  -12.910;  640.840
1131.240;    4.995;  -15.610;  643.700
1131.781;    5.529;  -12.920;  619.680
1132.321;    5.258;  -15.300;  599.120
1132.861;    3.600;  -14.760;  564.200
1133.401;    3.445;  -15.470;  593.940
1133.941;    5.222;  -13.710;  626.280
1134.481;    3.977;  -11.820;  597.580
1135.020;    3.631;  -14.810;  609.160
1135.560;    4.461;  -13.660;  674.940
1136.100;    3.564;  -13.940;  501.160
1136.640;    3.251;  -15.410;  510.480
1137.179;    2.570;  -16.920;  537.960
1137.719;    3.312;  -16.430;  605.400
1138.258;    3.900;  -16.300;  587.360
1138.798;    4.680;  -13.710;  663.780
1139.337;    2.655;  -13.840;  482.840
1139.877;    3.756;  -16.140;  642.360
1140.416;    6.078;  -11.410;  878.060
1140.955;    3.578;  -12.820;  535.380
1141.494;    3.261;  -12.310;  669.280
1142.034;    2.704;  -16.280;  583.520
1142.573;    3.421;  -13.090;  646.280
1143.112;    3.194;  -13.770;  553.480
1143.651;    2.148;  -15.830;  536.480
1144.190;    2.980;  -15.010;  691.640
1144.729;    3.131;  -13.650;  607.420
1145.267;    3.178;  -13.670;  584.900
1145.806;    3.424;  -13.630;  637.040
1146.345;    2.237;  -14.160;  635.020
1146.884;    2.626;  -11.180;  622.500
1147.422;    1.811;  -15.890;  533.060
1147.961;    3.705;  -12.760;  708.460
1148.500;    2.992;  -15.220;  669.720
1149.038;    4.133;  -13.720;  632.500
1149.577;    3.284;  -13.250;  698.640
1150.115;   -0.071;  -16.790;  452.280
1150.653;    1.842;  -15.810;  607.340
1151.192;    2.005;  -14.730;  552.920
1151.730;    2.858;  -13.660;  652.560
1152.268;    2.004;  -15.120;  589.520
1152.806;    1.413;  -15.580;  571.180
1153.344;    0.643;  -16.210;  577.640
1153.882;    2.384;  -12.810;  600.060
1154.421;   -0.387;  -14.150;  470.620
1154.958;    0.651;  -15.360;  595.240
1155.496;    2.468;  -14.710;  645.280
1156.034;    1.753;  -13.640;  721.880
1156.572;    2.237;  -13.740;  667.060
1157.110;    0.002;  -16.960;  473.940
1157.647;    1.712;  -11.940;  676.960
1158.185;    1.450;  -14.090;  564.320
1158.723;   -0.608;  -13.610;  509.200
1159.260;    1.237;  -14.760;  701.700
1159.798;    0.960;  -13.700;  658.160
1160.335;    0.860;  -13.820;  631.820

