
Integration time [ms]:   3.276
Averaging Nr. [scans]: 1000
Smoothing Nr. [pixels]: 0
Data measured with spectrometer [name]: 7414430SP
Wave   ;Sample   ;Dark     ;Reference
[nm]   ;[counts] ;[counts] ;[counts] 

288.544;  151.052;    7.793;  793.890
289.143;  154.780;    7.462;  681.602
289.742;  154.738;    8.602;  828.814
290.341;  140.349;    1.321;  789.841
290.940;  129.296;   -0.709;  730.702
291.538;  129.994;    0.881;  881.108
292.137;  129.252;    0.122;  792.581
292.736;  134.510;   -1.929;  975.101
293.335;  130.704;   -8.229;  735.086
293.934;  131.234;   -5.279;  781.677
294.532;  130.233;   -1.369; 1031.958
295.131;  115.644;   -7.641;  834.394
295.730;  115.467;   -8.420;  809.588
296.328;  114.395;   -5.611;  783.442
296.927;  115.207;   -5.781;  779.652
297.525;  116.668;   -6.361;  781.236
298.124;  107.183;  -11.382;  654.009
298.722;  109.809;   -7.641;  761.933
299.321;  108.700;   -6.811;  708.597
299.919;  106.318;   -6.991;  751.918
300.518;  103.709;  -10.362;  689.338
301.116;  105.485;   -9.581;  691.381
301.715;  105.268;   -4.891;  730.222
302.313;  103.936;   -8.801;  704.943
302.911;   99.855;   -8.522;  733.830
303.509;  104.083;   -6.171;  925.627
304.108;  102.456;   -7.311;  760.383
304.706;  101.425;   -8.321;  801.664
305.304;   96.172;  -10.222;  796.707
305.902;  101.246;   -6.021;  784.484
306.500;   97.223;   -4.971;  728.200
307.098;   95.467;   -7.061;  746.560
307.696;   93.936;   -8.801;  780.432
308.294;   94.197;   -6.411;  731.359
308.892;   96.692;   -2.901;  759.769
309.490;   93.338;   -5.041;  712.161
310.088;   90.365;   -5.002;  788.444
310.686;   95.185;   -2.041;  821.749
311.284;   90.966;   -2.351;  766.040
311.882;   89.290;   -4.422;  731.225
312.480;   85.792;   -4.192;  697.167
313.078;   86.389;   -1.172;  808.331
313.675;   87.628;   -2.601;  691.600
314.273;   83.484;   -1.312;  797.837
314.871;   82.294;   -3.942;  589.829
315.468;   80.446;   -2.802;  652.090
316.066;   83.012;   -0.701;  694.427
316.664;   75.185;   -4.362;  656.351
317.261;   80.015;   -2.872;  910.128
317.859;   75.594;   -2.022;  768.735
318.456;   75.994;   -0.531;  830.096
319.054;   71.698;   -3.912;  787.828
319.651;   70.321;   -4.752;  759.928
320.249;   69.242;   -2.602;  810.188
320.846;   66.874;   -0.821;  714.286
321.443;   65.161;   -4.642;  832.135
322.041;   61.711;   -5.002;  812.315
322.638;   59.598;   -3.982;  701.456
323.235;   61.099;   -3.411;  665.683
323.833;   58.222;   -7.361;  740.354
324.430;   53.435;   -8.611;  615.900
325.027;   54.257;   -4.061;  876.855
325.624;   53.466;   -4.031;  644.532
326.221;   50.879;   -7.481;  689.717
326.818;   50.241;   -5.281;  818.332
327.415;   53.926;   -7.460;  748.828
328.012;   53.190;   -5.510;  690.585
328.609;   52.241;   -7.880;  731.389
329.206;   50.846;   -8.331;  778.621
329.803;   49.911;   -5.121;  737.841
330.400;   53.043;   -4.510;  704.260
330.997;   55.153;   -6.441;  817.147
331.594;   52.411;   -8.831;  788.185
332.191;   58.821;   -7.621;  728.722
332.787;   61.005;   -4.591;  844.463
333.384;   59.404;   -7.412;  763.093
333.981;   58.105;   -8.293;  815.687
334.578;   60.958;   -7.052;  708.378
335.174;   63.833;   -3.102;  731.469
335.771;   63.357;   -5.943;  836.456
336.367;   60.311;   -7.393;  710.631
336.964;   63.861;   -4.063;  793.266
337.561;   61.627;   -3.813;  731.112
338.157;   57.489;   -4.654;  911.916
338.754;   55.622;   -7.934;  796.589
339.350;   53.110;   -4.414;  722.493
339.946;   55.487;   -4.664;  773.135
340.543;   47.627;   -6.375;  846.136
341.139;   42.000;   -9.815;  720.836
341.735;   39.715;   -4.526;  772.593
342.332;   38.844;   -4.895;  691.472
342.928;   39.648;   -4.295;  795.394
343.524;   32.326;   -5.476;  761.684
344.120;   29.023;   -5.856;  738.562
344.716;   31.788;   -2.155;  723.717
345.313;   30.100;   -6.275;  795.342
345.909;   24.924;   -8.815;  627.336
346.505;   25.774;   -5.305;  740.247
347.101;   27.372;   -2.674;  827.864
347.697;   27.426;   -4.344;  785.398
348.293;   21.727;   -9.975;  627.244
348.889;   22.429;   -5.774;  745.914
349.485;   22.638;   -5.004;  688.205
350.081;   22.821;   -4.704;  772.592
350.676;   17.299;   -6.635;  691.606
351.272;   22.584;   -4.504;  809.530
351.868;   22.018;   -3.914;  780.497
352.464;   19.023;   -9.044;  723.932
353.059;   15.558;   -8.314;  646.017
353.655;   18.913;   -7.024;  777.063
354.251;   20.140;   -5.343;  759.845
354.846;   14.983;   -8.604;  740.646
355.442;   12.861;   -6.945;  753.071
356.038;   13.858;   -7.564;  751.708
356.633;   14.331;   -5.814;  728.594
357.229;   12.307;   -7.364;  724.757
357.824;   11.393;   -8.024;  703.600
358.420;    9.635;   -9.384;  679.726
359.015;   10.177;   -5.104;  695.357
359.610;   11.334;   -6.854;  763.920
360.206;    4.927;  -10.185;  603.240
360.801;    7.540;   -7.054;  646.503
361.396;    9.826;   -5.034;  725.975
361.992;    5.855;   -8.284;  668.220
362.587;    3.319;   -8.625;  670.160
363.182;    5.368;   -7.674;  689.631
363.777;    5.694;   -5.164;  738.242
364.372;    5.812;   -8.604;  737.314
364.967;    1.514;   -9.055;  680.744
365.563;    5.677;   -6.114;  815.567
366.158;    2.951;   -5.814;  685.161
366.753;    3.760;   -7.854;  649.263
367.348;    2.144;   -7.804;  746.056
367.942;    1.446;   -7.954;  697.298
368.537;    0.542;   -4.984;  754.245
369.132;    0.484;   -8.564;  703.428
369.727;   -2.763;   -8.855;  638.079
370.322;   -2.127;   -6.245;  580.186
370.917;   -2.200;   -6.425;  710.646
371.511;    1.034;   -6.294;  861.834
372.106;   -2.486;   -7.685;  776.964
372.701;   -5.453;   -7.335;  585.988
373.296;    0.327;   -4.564;  863.135
373.890;   -5.072;  -10.235;  647.840
374.485;   -6.681;   -7.885;  691.199
375.079;   -3.000;   -7.324;  738.685
375.674;   -1.491;   -3.494;  812.970
376.268;   -6.123;   -8.525;  691.759
376.863;  -12.603;  -10.086;  580.327
377.457;   -5.793;   -7.025;  662.490
378.052;   -8.338;   -3.585;  764.884
378.646;   -8.308;   -7.595;  741.167
379.240;   -8.703;   -8.335;  721.176
379.835;   -7.781;   -5.785;  636.978
380.429;   -9.565;   -4.335;  562.557
381.023;   -9.892;   -6.805;  779.205
381.617;  -12.814;   -9.195;  680.106
382.212;   -9.687;   -6.905;  685.303
382.806;   -8.002;   -3.745;  760.690
383.400;  -11.857;   -7.745;  672.281
383.994;  -13.800;   -9.765;  664.870
384.588;   -9.890;   -6.564;  697.701
385.182;   -7.625;   -5.344;  726.624
385.776;   -9.299;   -8.514;  706.875
386.370;  -13.366;   -9.555;  681.968
386.964;  -12.394;   -8.715;  684.155
387.558;  -10.640;   -6.174;  598.360
388.152;  -13.460;   -8.725;  681.959
388.745;  -11.988;   -7.965;  814.707
389.339;   -9.982;   -5.924;  747.642
389.933;   -8.788;   -5.524;  695.370
390.527;  -10.060;   -7.114;  859.029
391.120;  -16.541;  -10.725;  595.318
391.714;  -13.842;   -8.035;  711.633
392.308;   -9.903;   -3.574;  780.253
392.901;  -14.158;   -7.245;  642.460
393.495;  -15.944;   -9.285;  595.414
394.089;  -13.748;   -5.895;  760.452
394.682;  -14.411;   -4.295;  697.188
395.275;  -14.648;   -9.875;  719.927
395.869;  -15.911;   -8.485;  667.314
396.462;  -15.028;   -7.455;  616.609
397.056;  -10.588;   -5.424;  776.621
397.649;  -14.390;   -6.605;  731.575
398.242;  -13.221;   -8.224;  712.645
398.836;  -11.733;   -7.474;  766.408
399.429;  -12.932;   -7.094;  631.041
400.022;  -16.482;   -9.475;  665.902
400.615;  -14.009;   -7.145;  805.609
401.208;  -12.582;   -7.174;  691.451
401.802;  -13.704;   -5.515;  699.329
402.395;  -14.904;   -9.875;  683.502
402.988;  -16.452;   -8.845;  696.627
403.581;  -13.572;   -8.874;  646.878
404.174;  -10.684;   -5.324;  686.568
404.767;  -13.509;   -9.575;  638.583
405.360;  -16.857;  -10.965;  621.445
405.953;  -11.359;   -8.764;  759.034
406.545;  -10.343;   -7.514;  725.342
407.138;  -14.045;  -10.025;  618.350
407.731;  -14.491;  -10.034;  613.303
408.324;   -9.576;   -9.374;  660.554
408.917;  -10.513;   -6.534;  681.864
409.509;  -12.960;   -8.004;  740.396
410.102;  -14.417;   -9.875;  643.948
410.695;   -8.514;   -8.604;  665.758
411.287;   -9.623;   -6.794;  599.821
411.880;  -10.718;   -9.334;  585.421
412.472;  -13.515;  -10.254;  613.092
413.065;  -10.511;   -6.714;  629.408
413.657;   -8.826;   -7.234;  576.678
414.250;   -8.520;  -10.544;  646.681
414.842;  -10.887;   -9.744;  676.353
415.434;   -8.250;   -6.994;  570.463
416.027;   -4.269;   -5.893;  652.196
416.619;   -6.173;   -7.264;  713.400
417.211;   -6.555;  -10.374;  599.352
417.804;   -3.805;   -7.993;  628.499
418.396;   -7.189;   -7.234;  607.643
418.988;   -5.058;   -9.443;  659.238
419.580;   -8.265;  -10.724;  568.276
420.172;   -6.526;  -10.323;  536.196
420.764;   -2.305;   -8.793;  672.482
421.356;   -2.490;  -11.143;  636.898
421.948;   -4.055;   -8.293;  677.661
422.540;    1.100;   -7.893;  680.027
423.132;    1.060;   -7.082;  600.641
423.724;   -2.935;   -8.653;  561.267
424.316;   -1.212;  -10.213;  621.345
424.908;    2.263;   -9.762;  591.517
425.500;    3.800;   -5.572;  647.978
426.092;    3.447;   -8.422;  648.268
426.683;    2.915;   -9.283;  684.836
427.275;    4.877;   -7.852;  641.471
427.867;    7.080;   -5.272;  668.948
428.458;    7.823;   -7.682;  732.344
429.050;    5.615;  -10.612;  680.749
429.642;    7.694;   -9.882;  743.124
430.233;    8.418;   -6.962;  569.356
430.825;    9.727;   -6.842;  724.809
431.416;    7.639;   -9.672;  698.241
432.008;   10.646;   -6.552;  651.723
432.599;   12.135;   -6.891;  656.073
433.190;    8.095;  -10.912;  637.670
433.782;    7.255;  -11.172;  590.395
434.373;   15.410;   -6.061;  884.765
434.964;   13.894;   -8.251;  602.920
435.556;   11.547;   -9.722;  634.537
436.147;   14.007;   -9.082;  758.490
436.738;   14.778;   -8.041;  701.099
437.329;   19.934;   -7.341;  721.723
437.920;   13.040;   -8.162;  666.688
438.511;   12.680;  -11.802;  564.526
439.103;   19.078;  -10.191;  623.998
439.694;   21.199;   -7.601;  681.583
440.285;   21.781;   -8.541;  764.432
440.876;   19.740;   -9.751;  845.738
441.466;   19.808;   -9.401;  575.162
442.057;   24.599;   -7.760;  665.814
442.648;   23.434;   -9.971;  746.255
443.239;   21.605;  -11.001;  620.477
443.830;   25.827;   -7.990;  704.958
444.421;   28.599;   -7.910;  655.474
445.011;   24.859;   -8.131;  693.619
445.602;   24.862;   -7.111;  743.126
446.193;   26.758;  -10.920;  488.117
446.783;   30.935;   -6.500;  640.397
447.374;   25.791;   -8.671;  692.759
447.964;   27.647;  -10.781;  713.770
448.555;   35.045;   -9.650;  822.742
449.145;   32.592;   -8.660;  662.853
449.736;   33.116;   -8.990;  803.179
450.326;   33.344;   -9.500;  713.626
450.917;   36.935;   -8.680;  675.324
451.507;   37.950;   -7.520;  600.661
452.097;   37.548;   -8.590;  746.267
452.688;   38.675;  -11.340;  742.160
453.278;   38.008;  -10.100;  566.840
453.868;   43.205;   -6.019;  793.550
454.458;   40.343;   -9.440;  651.141
455.048;   41.778;  -10.560;  711.783
455.639;   41.916;  -11.799;  567.096
456.229;   46.493;   -6.899;  710.694
456.819;   48.074;   -7.389;  751.158
457.409;   47.753;  -11.119;  773.993
457.999;   50.604;   -9.289;  737.505
458.589;   51.467;   -6.139;  686.606
459.179;   50.436;   -8.729;  717.658
459.769;   48.536;   -9.789;  627.099
460.358;   53.206;  -10.259;  797.262
460.948;   53.418;   -7.299;  689.503
461.538;   54.690;  -10.289;  660.677
462.128;   53.282;  -11.269;  664.934
462.717;   59.640;   -9.368;  710.326
463.307;   62.742;   -7.908;  705.846
463.897;   59.080;   -9.599;  656.942
464.486;   57.893;   -9.769;  837.128
465.076;   61.767;   -8.048;  733.776
465.666;   65.828;   -9.358;  652.900
466.255;   63.722;   -7.919;  785.651
466.845;   62.616;  -11.689;  666.749
467.434;   65.667;   -7.818;  725.873
468.023;   66.766;   -7.678;  658.357
468.613;   64.443;  -10.939;  713.946
469.202;   68.260;  -10.118;  646.507
469.791;   72.852;   -9.108;  737.811
470.381;   74.749;   -6.058;  742.813
470.970;   73.846;  -10.428;  711.099
471.559;   74.621;  -10.268;  733.291
472.148;   77.223;   -8.448;  675.737
472.738;   79.283;   -6.917;  765.466
473.327;   79.494;  -11.978;  637.529
473.916;   78.632;  -11.888;  737.446
474.505;   83.138;   -9.437;  751.703
475.094;   86.433;   -6.747;  806.570
475.683;   85.631;   -9.367;  797.699
476.272;   86.523;  -12.637;  730.632
476.861;   88.794;  -10.027;  706.754
477.449;   95.638;   -8.716;  728.487
478.038;   91.067;   -9.577;  692.513
478.627;   91.849;   -9.718;  714.852
479.216;   97.900;   -8.947;  769.441
479.805;  100.610;   -6.256;  783.375
480.393;  100.940;   -7.937; 1008.945
480.982;   99.367;   -7.717;  874.501
481.571;  105.495;   -9.266;  858.333
482.159;  106.560;   -7.636;  705.386
482.748;  107.125;   -9.667;  821.385
483.336;  111.072;  -10.376;  858.209
483.925;  112.341;   -7.147;  774.373
484.513;  118.653;   -7.996;  758.962
485.102;  115.353;  -10.027;  810.965
485.690;  123.742;  -10.446; 1011.050
486.278;  124.968;   -8.446;  979.329
486.867;  127.017;   -6.356;  809.662
487.455;  128.497;   -9.136;  898.229
488.043;  130.077;  -10.646;  748.361
488.631;  137.677;   -7.456; 1005.079
489.220;  142.540;   -6.636;  908.626
489.808;  141.979;  -11.036;  741.415
490.396;  150.470;  -10.246;  914.645
490.984;  156.833;   -8.556;  830.161
491.572;  166.147;   -5.886;  940.315
492.160;  172.299;   -9.486;  919.081
492.748;  184.226;  -10.976;  884.341
493.336;  206.379;   -8.776; 1019.693
493.924;  233.711;   -5.465;  958.077
494.512;  260.869;   -9.986; 1066.638
495.100;  298.435;  -10.636; 1103.280
495.687;  354.065;  -10.885; 1206.373
496.275;  417.730;   -8.126; 1150.796
496.863;  491.635;  -10.586; 1281.171
497.451;  594.479;  -11.926; 1386.805
498.038;  726.219;  -10.885; 1556.729
498.626;  838.628;   -6.315; 1741.407
499.214;  993.161;   -7.326; 2016.609
499.801; 1191.486;  -11.906; 2220.633
500.389; 1446.373;  -10.466; 2312.494
500.976; 1760.165;   -5.236; 2744.849
501.564; 2204.419;   -8.936; 3148.565
502.151; 2583.243;  -13.176; 3515.999
502.738; 3042.822;  -10.646; 3971.274
503.326; 3440.736;   -9.525; 4403.796
503.913; 3832.531;  -10.856; 5161.749
504.500; 4204.885;  -11.586; 5986.420
505.088; 4651.382;  -10.336; 6381.201
505.675; 5195.602;   -6.355; 6925.547
506.262; 5935.420;   -9.046; 7619.060
506.849; 6661.883;  -10.416; 8733.969
507.436; 7142.978;  -10.305; 9790.121
508.023; 7733.149;   -5.496; 9985.472
508.610; 7996.044;   -7.856;10434.618
509.197; 8613.747;  -10.097;11198.435
509.784; 9976.583;  -10.886;12391.194
510.371;11032.860;   -9.315;13603.713
510.958;11798.461;   -9.936;14426.586
511.545;12575.915;   -9.326;15243.775
512.132;13364.898;  -10.075;15945.876
512.719;13908.902;   -7.796;16340.369
513.305;14863.300;  -10.606;18011.766
513.892;15643.314;  -11.486;19754.971
514.479;16975.654;   -9.126;20967.805
515.066;18462.938;   -6.026;22299.793
515.652;19744.285;   -8.466;22908.660
516.239;20905.451;  -10.886;23798.875
516.825;21829.490;  -11.496;25567.275
517.412;22820.035;   -5.796;28154.959
517.998;23438.330;  -10.506;28344.111
518.585;23524.146;  -10.076;27134.219
519.171;23988.418;   -8.315;27268.576
519.758;25435.660;   -8.596;28964.129
520.344;27219.281;   -8.466;30664.494
520.930;27081.508;  -11.006;32550.605
521.516;28200.855;  -10.495;35422.895
522.103;30378.154;   -5.526;38280.004
522.689;30784.902;   -8.746;37835.117
523.275;30232.527;  -11.376;37288.613
523.861;31463.455;  -11.156;37281.395
524.447;32789.625;   -8.135;37846.949
525.033;32556.166;   -7.896;38321.949
525.619;32512.432;  -12.476;38579.285
526.205;33731.211;   -9.516;40622.875
526.791;35618.059;   -6.926;42258.836
527.377;35126.852;   -8.346;42966.902
527.963;34682.387;   -8.717;42018.949
528.549;31211.902;  -11.016;42476.828
529.135;29538.541;   -8.536;41854.852
529.721;31213.291;   -9.666;41237.711
530.306;33220.887;  -10.066;41259.445
530.892;34403.766;  -11.356;41506.047
531.478;36298.320;   -6.596;43559.613
532.063;39293.461;   -8.836;47695.563
532.649;39754.832;  -10.047;50808.324
533.235;40197.563;   -9.746;51787.500
533.820;40463.109;   -6.566;52145.035
534.406;41615.980;  -10.817;51133.488
534.991;41107.137;   -9.416;49996.805
535.576;39301.082;   -9.036;48882.852
536.162;39218.891;   -6.156;46942.285
536.747;38959.250;  -11.607;45711.746
537.333;39853.566;  -11.787;48510.180
537.918;39520.113;  -12.437;50439.891
538.503;36837.641;   -7.196;50863.711
539.088;35289.121;  -10.556;50906.922
539.673;38980.656;   -8.767;52621.965
540.259;42865.422;  -10.026;52368.094
540.844;42379.234;   -7.416;50879.109
541.429;44306.301;   -9.467;52077.777
542.014;47148.969;   -9.527;52716.695
542.599;46311.688;   -9.946;52363.281
543.184;43957.375;   -7.927;53187.137
543.769;45413.613;   -9.297;54697.605
544.354;44899.141;  -10.127;53913.914
544.938;43713.055;   -9.267;49680.164
545.523;45622.195;   -6.506;47386.277
546.108;48325.477;   -9.787;49151.949
546.693;50258.914;  -11.587;51384.637
547.278;50164.500;  -10.986;51853.254
547.862;47373.520;   -8.206;51173.750
548.447;42916.984;  -10.067;51691.395
549.031;42443.328;   -9.637;52456.703
549.616;47343.352;   -9.926;52714.516
550.201;46570.770;   -6.347;52414.598
550.785;47671.496;   -7.917;52355.059
551.370;46739.047;  -10.867;54589.453
551.954;46335.020;   -9.047;58267.348
552.538;47098.340;   -7.827;59062.176
553.123;45393.594;  -10.287;58115.285
553.707;43128.191;  -12.178;56556.285
554.291;44676.813;   -8.717;56201.668
554.876;47347.770;   -7.457;55335.762
555.460;47547.109;  -10.387;54155.703
556.044;48368.516;   -9.618;53721.484
556.628;47173.070;  -11.567;53731.016
557.212;46085.211;   -8.097;54312.531
557.796;44357.949;  -11.077;53797.773
558.380;44322.660;  -11.108;56145.984
558.964;44918.813;   -9.057;57277.930
559.548;46256.500;   -6.977;56459.641
560.132;44608.402;  -11.457;54434.543
560.716;43132.449;  -11.378;54800.617
561.300;44207.906;   -9.577;57606.945
561.884;45488.539;   -7.127;58972.445
562.467;43747.449;   -7.118;57327.570
563.051;43115.102;  -13.358;54962.434
563.635;44216.465;  -10.178;52594.473
564.219;44565.809;   -7.837;50610.410
564.802;45529.180;  -11.398;49551.180
565.386;45340.332;  -12.788;48370.953
565.969;44511.066;   -9.077;48178.871
566.553;43669.902;   -6.207;49957.305
567.136;44407.125;   -8.568;50369.594
567.720;40829.867;  -11.868;49492.004
568.303;38816.461;   -8.268;50616.352
568.887;38865.320;   -8.698;50727.148
569.470;39117.180;   -6.808;51698.379
570.053;37656.457;  -13.188;52122.078
570.637;36047.703;  -12.037;52536.438
571.220;36045.391;   -8.577;51186.098
571.803;36764.770;   -8.498;51032.762
572.386;38809.852;  -10.498;49609.887
572.969;41298.805;   -9.388;48285.926
573.552;39639.688;   -8.338;47624.285
574.135;38275.051;   -8.518;45498.641
574.718;35997.418;  -13.628;41970.434
575.301;34970.258;  -10.893;41447.137
575.884;33943.102;   -8.158;40923.836
576.467;35136.980;  -10.328;45267.723
577.050;36985.086;  -13.058;48175.543
577.633;38373.445;   -9.458;47729.328
578.216;37568.875;   -8.928;47579.793
578.799;36675.309;   -9.358;47820.996
579.381;35495.809;  -11.388;48115.551
579.964;33588.805;  -11.718;47333.766
580.547;35278.906;   -8.588;46668.969
581.129;36537.371;   -8.859;44466.141
581.712;37460.426;  -10.729;44164.922
582.294;37977.766;  -11.118;46477.855
582.877;37700.828;   -5.218;48244.254
583.459;35349.695;   -8.679;47437.895
584.042;33401.598;  -10.709;46943.219
584.624;33895.141;  -11.669;46792.227
585.206;33474.281;   -8.218;46557.250
585.789;33487.820;  -10.569;45793.773
586.371;36421.590;  -11.859;43836.391
586.953;37010.629;  -10.719;42972.492
587.536;38208.105;   -7.198;42487.211
588.118;38343.441;   -8.720;42086.414
588.700;34594.617;  -10.439;43389.930
589.282;33638.285;   -9.198;43646.039
589.864;34621.227;   -9.199;43438.109
590.446;35668.527;  -11.319;43151.926
591.028;35645.504;  -11.159;42781.867
591.610;34573.613;  -11.779;42839.098
592.192;31855.691;   -7.668;42820.402
592.774;30244.531;  -11.949;40724.277
593.356;28939.523;  -12.129;39874.789
593.937;27863.332;  -10.669;39980.648
594.519;30058.098;   -6.509;42069.633
595.101;32188.709;  -10.849;42976.031
595.683;32345.271;  -11.679;44084.441
596.264;33383.867;   -9.049;43478.797
596.846;32808.730;   -8.849;43803.672
597.427;32767.980;   -9.570;42986.934
598.009;34459.918;  -12.620;42832.219
598.591;34822.668;  -10.039;42580.086
599.172;34025.762;  -10.369;43061.805
599.753;34163.020;   -9.140;41691.469
600.335;35683.551;  -11.430;40692.520
600.916;33849.523;   -9.939;39982.422
601.498;31266.076;   -8.479;40318.617
602.079;29763.400;  -10.920;40670.609
602.660;29633.201;  -11.480;41450.898
603.241;31210.211;  -11.699;41137.738
603.823;29958.254;   -9.579;38868.797
604.404;29379.471;  -10.620;38182.785
604.985;30999.182;  -10.450;38078.047
605.566;30975.586;   -9.129;38056.633
606.147;31253.943;   -7.510;37020.418
606.728;32792.859;  -10.660;37883.359
607.309;31317.848;  -11.740;38748.273
607.890;30773.707;   -9.759;38850.230
608.471;30236.719;   -8.250;37457.918
609.051;29395.398;   -9.240;36066.457
609.632;28316.758;  -12.120;35991.074
610.213;29022.961;   -9.110;37402.641
610.794;29759.797;   -8.030;38383.363
611.374;29424.443;   -8.110;40562.387
611.955;30022.721;  -13.560;38533.727
612.536;31309.529;  -11.400;36951.789
613.116;31189.025;   -8.070;37197.891
613.697;31524.287;  -10.830;38411.125
614.277;29856.229;  -11.641;38673.938
614.858;30753.428;  -13.310;37075.863
615.438;29920.547;   -7.460;35092.906
616.019;27246.813;   -7.601;33666.301
616.599;27854.975;  -12.020;34189.023
617.179;29808.781;  -11.780;36952.047
617.760;30858.111;   -8.570;39582.574
618.340;31898.688;  -11.471;38943.977
618.920;33143.875;  -11.170;37594.156
619.500;32902.078;  -11.071;37866.938
620.080;31848.145;   -7.750;37869.043
620.660;32952.066;  -12.711;36868.617
621.241;34324.539;  -10.211;36352.309
621.821;34687.039;  -10.961;35459.520
622.401;33750.074;   -7.720;35207.414
622.980;33022.688;   -8.981;35980.422
623.560;31512.057;   -9.331;37351.328
624.140;30264.793;   -9.850;34388.582
624.720;25234.855;   -7.451;32368.764
625.300;21768.723;   -9.070;32638.629
625.880;25119.957;  -12.601;34599.035
626.459;29044.803;  -11.751;36831.738
627.039;32112.967;   -9.281;38299.098
627.619;31955.092;   -8.801;38289.574
628.198;30421.830;  -12.071;37220.695
628.778;29574.848;   -9.461;37632.563
629.357;30184.225;   -8.491;38003.012
629.937;30186.885;   -9.721;38402.039
630.516;29894.783;   -9.951;37868.801
631.096;29725.898;  -11.731;35760.410
631.675;32211.578;   -8.572;35225.219
632.254;37274.121;  -11.282;35130.289
632.834;36618.961;  -13.322;35794.570
633.413;34705.227;  -10.301;35788.922
633.992;32040.547;   -8.582;34532.863
634.571;32946.328;   -8.352;33590.113
635.151;35922.051;  -11.912;34943.863
635.730;34162.621;  -10.511;35352.523
636.309;30540.568;   -7.731;35366.605
636.888;28087.666;   -9.952;36165.637
637.467;28814.469;  -11.672;37515.902
638.046;30491.850;   -8.901;39288.695
638.625;33742.953;   -7.912;38279.699
639.204;33491.883;  -10.022;37741.598
639.782;31909.744;  -12.252;38364.551
640.361;28233.311;  -10.041;36740.621
640.940;25499.678;  -11.161;34950.082
641.519;26290.064;   -9.701;34137.398
642.097;29086.205;  -11.271;35654.258
642.676;31739.789;   -8.651;35637.957
643.255;32461.160;   -8.711;36567.074
643.833;31666.342;   -9.581;37809.434
644.412;31587.691;  -13.711;37337.293
644.990;30529.691;  -11.811;37018.531
645.569;30555.764;   -9.411;36518.469
646.147;29651.598;  -10.291;36186.430
646.726;29469.645;  -12.401;36267.688
647.304;30743.387;  -10.411;36647.625
647.882;32571.434;   -9.651;39286.742
648.461;34183.000;   -9.631;39157.703
649.039;32517.555;  -11.881;35412.883
649.617;31770.352;   -9.661;34744.918
650.195;31330.053;   -9.301;35403.098
650.773;29869.752;  -10.511;35053.797
651.352;27340.994;  -11.521;33756.816
651.930;25050.725;  -12.211;31868.773
652.508;23691.395;   -9.171;33121.551
653.086;27763.566;   -9.371;33564.793
653.663;30542.229;  -13.161;34054.668
654.241;29257.475;  -13.031;35693.309
654.819;30922.164;   -9.371;36422.906
655.397;31019.990;  -10.511;38213.484
655.975;30575.693;  -10.371;39507.625
656.553;30315.982;  -10.051;39498.223
657.130;28654.428;  -10.061;40395.480
657.708;27843.227;   -9.561;39242.020
658.286;27944.027;  -11.511;38920.020
658.863;29367.770;  -10.261;40202.898
659.441;32558.482;   -7.531;39677.938
660.018;32142.111;   -9.501;40413.355
660.596;30989.512;  -13.301;39931.414
661.173;32775.055;  -11.211;39604.531
661.750;32639.424;   -9.951;39700.070
662.328;31304.396;   -9.390;39292.809
662.905;30532.336;  -11.330;38235.648
663.482;26388.637;   -9.050;36212.305
664.060;24601.363;   -8.240;35944.945
664.637;27465.596;  -10.050;35170.785
665.214;29344.336;  -11.760;34197.523
665.791;30999.707;  -10.530;34549.520
666.368;29690.645;   -9.690;35118.578
666.945;30191.787;   -9.320;36019.418
667.522;31812.564;  -11.860;36048.438
668.099;31545.412;  -10.770;36243.914
668.676;30273.416;   -6.260;35958.875
669.253;28984.781;   -7.000;37384.730
669.830;29751.861;  -10.190;36779.629
670.407;29513.395;   -9.550;35231.289
670.984;29309.668;   -9.260;35544.270
671.560;29861.895;   -9.280;35466.867
672.137;29207.170;  -11.810;34280.863
672.714;30050.813;  -11.490;34632.863
673.290;30572.572;   -7.740;35135.422
673.867;30787.877;  -10.660;36114.480
674.443;30708.990;  -12.230;36152.859
675.020;28916.381;  -10.450;35327.238
675.596;29937.195;   -9.260;35795.176
676.173;30370.295;  -10.780;35430.355
676.749;30209.449;  -13.690;33549.516
677.326;30230.156;  -11.980;32210.012
677.902;30165.340;   -8.630;32068.871
678.478;29494.344;  -10.730;32583.891
679.054;28887.043;  -10.520;32088.928
679.631;29193.658;  -11.920;30978.848
680.207;30721.799;   -7.490;33160.887
680.783;32278.008;   -9.860;35570.363
681.359;31362.932;  -13.380;36125.184
681.935;30855.604;  -12.480;35240.922
682.511;30263.521;   -7.900;34429.961
683.087;30457.473;   -7.710;34463.680
683.663;29914.557;  -11.480;34648.898
684.239;28597.846;  -14.090;34546.457
684.815;28243.396;   -7.560;35586.375
685.390;28651.328;   -9.910;35821.895
685.966;29077.721;  -11.159;35085.871
686.542;31377.801;  -11.169;34198.230
687.118;33680.652;   -5.959;32847.707
687.693;34036.086;  -10.329;32794.027
688.269;33616.840;  -12.059;33072.367
688.844;31585.258;  -10.909;33141.664
689.420;29330.686;   -8.019;33965.742
689.995;27146.479;   -8.399;34655.523
690.571;25887.063;  -10.949;33576.742
691.146;26369.250;   -9.619;32657.219
691.722;25885.818;   -8.999;32526.979
692.297;25671.115;  -11.589;33014.617
692.872;27436.645;  -11.739;34012.254
693.448;27111.486;  -11.059;34237.434
694.023;26414.498;  -10.139;34142.672
694.598;28385.369;   -9.029;34132.031
695.173;28673.484;  -13.319;34205.250
695.748;27899.396;  -10.169;32882.488
696.323;28041.754;   -8.339;32864.906
696.898;28299.361;   -8.169;33170.004
697.473;28283.977;  -12.309;32432.984
698.048;27716.195;  -10.989;31649.303
698.623;27487.289;   -9.329;30778.141
699.198;29370.469;   -9.849;31140.119
699.773;30413.785;  -12.329;31764.299
700.348;28758.859;  -10.389;31780.816
700.922;28762.539;   -9.269;32046.375
701.497;29677.025;   -9.329;32603.574
702.072;29825.516;  -10.789;34799.871
702.646;28347.277;  -10.839;35793.172
703.221;26220.350;   -9.099;35201.590
703.795;28333.932;  -10.939;34764.527
704.370;28805.035;  -12.859;34307.367
704.944;29256.887;  -11.559;33509.887
705.519;30134.486;   -7.939;31388.584
706.093;31533.373;  -10.499;31340.104
706.668;31944.625;  -11.289;32630.281
707.242;30885.807;  -11.509;32728.779
707.816;29272.398;   -9.639;32947.238
708.390;27747.504;  -11.429;33277.855
708.965;28214.941;  -11.869;33834.336
709.539;28202.039;  -11.689;33709.273
710.113;28676.824;  -10.478;33044.313
710.687;28189.164;  -10.228;31953.992
711.261;26553.822;  -13.698;30505.949
711.835;26371.215;  -13.378;30262.369
712.409;27139.184;   -9.698;31254.447
712.983;29170.785;  -11.898;32754.986
713.557;30100.777;  -15.138;34018.824
714.131;29657.600;  -14.098;34579.625
714.704;28678.662;   -9.958;33890.262
715.278;26420.463;  -10.028;33531.102
715.852;25293.775;  -11.148;33601.660
716.425;26052.215;   -9.068;33515.117
716.999;26872.008;  -10.038;33185.555
717.573;27954.691;   -9.798;33905.996
718.146;29022.826;  -12.378;35199.293
718.720;29098.256;  -11.918;35060.551
719.293;28523.615;   -8.088;34973.230
719.867;31434.127;  -10.888;36394.449
720.440;31182.445;  -11.938;36663.008
721.013;29539.180;  -12.818;35102.426
721.587;28060.668;  -10.298;33985.266
722.160;26982.119;  -10.048;33524.965
722.733;25923.801;  -12.108;32987.043
723.306;26216.625;  -10.818;33066.301
723.880;28785.918;   -8.908;33399.500
724.453;30976.268;   -9.878;33468.297
725.026;29953.320;  -11.188;33816.637
725.599;26901.611;  -11.678;32797.996
726.172;26901.283;   -9.618;33187.434
726.745;27863.445;   -8.258;35136.613
727.318;29302.391;  -12.978;35751.730
727.891;30111.795;  -12.148;35890.430
728.463;29997.289;   -8.968;34822.090
729.036;29013.943;  -10.188;32895.086
729.609;29446.943;  -11.788;31823.225
730.182;26355.668;  -11.788;31445.283
730.754;23889.576;  -10.268;32373.223
731.327;23994.789;   -9.998;33676.820
731.900;24281.367;  -12.228;33417.000
732.472;25543.744;  -13.848;31978.498
733.045;27445.418;   -8.698;30368.777
733.617;27383.143;  -10.607;30574.215
734.190;26986.264;  -11.507;31280.975
734.762;24148.711;  -13.647;31674.412
735.334;22389.516;   -9.767;31247.291
735.907;23104.164;   -9.897;29876.211
736.479;23323.320;  -11.637;29808.488
737.051;23092.525;   -9.567;30233.547
737.623;24046.969;   -8.187;31469.086
738.195;24695.715;  -11.187;31784.225
738.768;26534.760;  -12.337;32120.523
739.340;26872.758;  -12.227;32094.342
739.912;25769.094;  -11.057;31312.680
740.484;24310.141;  -10.207;31946.238
741.056;23101.791;  -10.047;32984.059
741.628;24885.955;  -13.627;33897.715
742.199;27160.086;   -7.177;33213.016
742.771;25431.771;  -10.797;31369.113
743.343;23055.746;  -11.997;31865.473
743.915;22087.531;  -12.867;32388.631
744.487;22198.543;   -7.617;31079.568
745.058;22403.756;   -9.557;30570.107
745.630;22796.750;   -9.877;29970.127
746.201;23647.066;  -14.177;29186.766
746.773;24241.986;   -9.237;28805.723
747.344;24088.352;   -9.847;29591.223
747.916;22605.879;  -11.657;31412.201
748.487;22744.764;  -10.587;32194.898
749.059;23743.064;   -8.707;32533.719
749.630;24213.941;  -10.537;32158.518
750.201;23183.145;  -11.687;30855.395
750.773;21509.523;  -11.647;28622.555
751.344;21581.873;   -7.147;28405.732
751.915;22928.721;   -9.757;28461.551
752.486;22934.654;  -12.427;27842.850
753.057;20634.191;  -12.227;27845.008
753.628;19345.627;  -10.417;27728.107
754.199;20459.709;  -11.767;27381.086
754.770;21483.162;  -11.187;25882.203
755.341;21450.846;  -10.507;25886.184
755.912;21558.039;   -9.387;26050.861
756.483;21173.254;  -10.647;26798.779
757.054;19418.984;  -11.837;27048.238
757.625;18125.486;  -12.716;26294.838
758.195;17778.209;   -9.666;26142.076
758.766;17468.031;   -8.656;26392.234
759.337;18246.732;  -12.856;26334.594
759.907;19891.439;  -13.366;27579.652
760.478;20831.021;   -8.576;28352.770
761.048;20262.666;  -10.526;27325.088
761.619;19388.709;  -11.116;26460.428
762.189;19375.807;  -12.136;26029.826
762.760;20438.584;   -9.456;26430.145
763.330;21574.686;   -7.136;26670.902
763.900;21058.750;  -11.786;26603.021
764.471;18510.676;  -11.546;25542.740
765.041;17247.938;   -8.096;24358.459
765.611;17310.092;   -8.876;23991.297
766.181;17704.357;  -12.196;24470.236
766.751;18682.965;  -11.636;24845.975
767.321;18440.689;  -10.156;24533.633
767.891;16524.793;  -11.766;24916.492
768.461;15966.657;  -14.936;24776.771
769.031;16462.152;  -12.356;24757.988
769.601;18021.395;   -7.526;24181.088
770.171;17876.832;  -10.766;23670.387
770.741;17116.654;  -13.176;22960.045
771.311;17282.535;  -10.616;22917.523
771.880;17681.299;   -9.576;23562.941
772.450;17338.238;  -10.336;24216.500
773.020;17228.299;  -13.516;24140.398
773.589;16451.863;  -13.466;24414.857
774.159;15778.633;   -8.686;23858.717
774.729;15468.007;   -9.476;22942.135
775.298;15081.313;  -13.666;22324.033
775.867;14732.605;  -11.716;21140.313
776.437;14812.174;   -9.906;20838.092
777.006;14629.457;  -12.166;20599.510
777.576;14485.946;  -12.356;20508.809
778.145;14563.669;  -11.646;20732.947
778.714;14459.069;   -8.226;21062.465
779.283;13769.781;   -9.556;20949.664
779.853;13254.815;  -14.116;20508.623
780.422;13748.438;  -11.506;20649.082
780.991;13301.306;   -9.556;21527.520
781.560;12117.213;   -9.095;22632.658
782.129;11943.708;  -12.135;23048.277
782.698;11999.883;  -10.865;23438.555
783.267;11599.300;   -9.335;23267.734
783.836;11536.670;  -11.045;22415.133
784.404;12536.101;  -13.865;20443.152
784.973;13105.080;  -13.095;19699.150
785.542;13013.663;  -11.575;19763.828
786.111;12850.540;   -9.705;20341.408
786.679;12365.453;  -12.105;20207.967
787.248;12113.021;  -12.455;19516.465
787.817;11909.457;  -11.535;18900.363
788.385;11480.117;   -9.765;17879.121
788.954;10920.607;  -14.005;17658.301
789.522;10432.500;  -11.955;17788.879
790.090;11028.150;  -10.135;18118.277
790.659;11450.356;  -10.975;18338.736
791.227;10947.357;  -13.375;18508.615
791.795;11370.447;  -12.375;17898.254
792.364;11751.120;  -10.725;17295.133
792.932;12074.365;   -9.715;16822.051
793.500;12210.871;  -12.675;17040.148
794.068;12414.857;  -13.495;17179.787
794.636;12539.976;  -10.885;16664.246
795.204;11928.141;  -11.045;16524.545
795.772;11979.619;  -13.175;17274.564
796.340;11482.494;  -12.445;17891.002
796.908;11275.781;   -9.735;17648.561
797.476;11176.918;   -9.815;17064.080
798.044;10746.626;  -13.985;16672.777
798.612; 9958.828;  -13.115;17023.996
799.180; 9607.350;  -10.185;16561.615
799.747; 9561.838;   -9.055;15962.773
800.315; 9291.708;  -12.385;15296.992
800.883; 8948.224;  -15.035;14801.771
801.450; 8950.463;  -10.365;14534.430
802.018; 9006.872;   -9.855;14173.248
802.585; 9138.143;  -11.905;14029.547
803.153; 9167.790;  -11.585;13836.846
803.720; 8987.829;   -9.095;13567.324
804.287; 8545.846;   -9.135;13360.622
804.855; 8125.538;  -11.604;13681.981
805.422; 8004.820;  -11.794;13536.560
805.989; 8017.022;  -10.734;13355.958
806.556; 8168.449;  -10.444;13747.896
807.124; 8397.461;  -12.764;13987.376
807.691; 8376.792;  -12.964;14038.674
808.258; 8204.213;  -11.134;14120.152
808.825; 7915.110;   -9.854;13860.111
809.392; 7983.165;  -10.504;13268.790
809.959; 7493.447;  -13.054;12680.389
810.526; 7049.804;   -8.294;12427.308
811.093; 7121.082;   -8.394;12030.105
811.659; 7788.890;  -12.304;11653.664
812.226; 8308.456;  -13.944;11637.183
812.793; 8003.448;  -10.484;11611.521
813.360; 7370.386;  -10.144;11885.181
813.926; 7060.370;  -11.684;12770.539
814.493; 6838.428;  -13.644;12677.638
815.060; 6440.488;   -9.724;11974.336
815.626; 6464.758;   -9.854;11594.715
816.193; 6883.294;  -13.254;11579.474
816.759; 6894.192;  -13.204;11666.972
817.325; 6972.780;   -9.434;11325.530
817.892; 7373.604;  -10.134;11105.369
818.458; 7805.597;  -13.474;10843.928
819.024; 7420.489;  -11.854;10714.406
819.591; 7123.743;  -10.244;10469.165
820.157; 6908.117;  -10.704;10235.523
820.723; 6369.137;  -12.324;10847.563
821.289; 6045.829;   -9.444;11040.980
821.855; 5967.863;   -8.374;10357.100
822.421; 5984.581;  -10.234; 9978.918
822.987; 6013.855;  -13.294; 9754.177
823.553; 5692.889;  -10.884;10065.755
824.119; 5503.159;   -8.884;10036.294
824.685; 5600.710;   -6.784;10029.192
825.251; 5703.627;  -12.004;10199.230
825.816; 5671.667;  -11.474; 9820.189
826.382; 5443.154;   -9.174; 9297.248
826.948; 5652.457;   -9.214; 9381.347
827.513; 6059.329;  -10.774; 9450.726
828.079; 5876.414;  -11.924; 9472.444
828.645; 5275.678;  -10.543; 9292.643
829.210; 5175.603;  -10.533; 9065.341
829.776; 5165.573;  -10.753; 9132.620
830.341; 5050.147;  -10.173; 9092.878
830.906; 5261.341;  -10.743; 9078.557
831.472; 5628.428;  -11.113; 8534.535
832.037; 5369.604;  -10.603; 8677.874
832.602; 4800.074;  -13.323; 8628.692
833.167; 4517.336;  -10.823; 8879.031
833.733; 4452.818;  -10.113; 9189.790
834.298; 4612.363;  -13.583; 9052.608
834.863; 4698.565;  -12.703; 8895.087
835.428; 4675.302;  -10.523; 8824.266
835.993; 4517.163;   -6.963; 8845.385
836.558; 4340.151;  -10.763; 8888.563
837.123; 4471.912;   -9.903; 8966.582
837.688; 4725.836;   -9.913; 8617.860
838.253; 4984.978;  -10.283; 8590.699
838.817; 5196.818;  -12.963; 8443.797
839.382; 5105.452;  -14.243; 8799.356
839.947; 4782.835;  -10.733; 8810.595
840.511; 4469.721;   -9.383; 8796.394
841.076; 4075.224;  -12.563; 8347.231
841.641; 4120.797;  -12.953; 8224.330
842.205; 4216.173;   -7.043; 8223.349
842.770; 4313.057;   -8.163; 8622.107
843.334; 4473.727;  -12.503; 8410.386
843.898; 4400.548;  -11.693; 8337.465
844.463; 4408.476;  -10.203; 8506.283
845.027; 4172.646;   -9.533; 8280.962
845.591; 3983.987;  -13.443; 8231.141
846.156; 3977.974;  -13.143; 7969.179
846.720; 3874.041;   -9.433; 7768.278
847.284; 3759.840;  -11.033; 7630.957
847.848; 3627.122;  -10.403; 7472.395
848.412; 3524.993;  -11.553; 7437.394
848.976; 3556.813;   -8.393; 7674.592
849.540; 3480.531;   -8.713; 7836.011
850.104; 3597.254;  -12.463; 7913.669
850.668; 3964.370;  -12.973; 7694.508
851.232; 4062.730;  -10.793; 7756.887
851.796; 3890.390;  -10.662; 7926.545
852.359; 3584.208;  -13.082; 7827.844
852.923; 3404.719;  -12.192; 7641.163
853.487; 3214.336;  -11.912; 7342.501
854.050; 3173.713;  -10.892; 7042.820
854.614; 3316.745;  -13.992; 7151.338
855.177; 3444.719;  -11.732; 7105.077
855.741; 3473.823;   -8.962; 6989.675
856.304; 3349.136;   -9.442; 6596.634
856.868; 3294.450;  -14.192; 6356.272
857.431; 3377.042;  -12.702; 6468.571
857.995; 3476.674;   -9.942; 6373.210
858.558; 3473.647;   -9.112; 6324.448
859.121; 3206.882;  -12.932; 6408.327
859.684; 3089.575;  -13.442; 6347.886
860.247; 3202.379;  -10.632; 6321.264
860.810; 3203.307;  -11.272; 6301.903
861.374; 2945.309;   -9.832; 6607.881
861.937; 2681.780;  -11.762; 6408.200
862.500; 2674.588;   -9.722; 6572.639
863.062; 2857.590;  -10.512; 6387.297
863.625; 3037.952;  -11.232; 6190.836
864.188; 3200.686;  -14.112; 5807.254
864.751; 3257.203;  -11.302; 5682.413
865.314; 3140.359;  -10.112; 5547.492
865.876; 2920.326;  -12.182; 5500.150
866.439; 2902.373;  -10.722; 5415.909
867.002; 2859.304;   -9.252; 5501.567
867.564; 2665.359;   -9.572; 5413.946
868.127; 2444.286;  -13.142; 5160.325
868.689; 2339.703;  -12.902; 5133.183
869.252; 2242.471;   -9.732; 5252.382
869.814; 2145.952;   -9.432; 5297.141
870.377; 2149.644;  -11.552; 5390.919
870.939; 2214.077;   -9.052; 5599.898
871.501; 2283.543;  -10.982; 5248.336
872.063; 2290.090;  -12.292; 4854.235
872.626; 2245.884;  -14.912; 4817.074
873.188; 2275.117;  -13.112; 4987.732
873.750; 2245.223;  -13.442; 4868.651
874.312; 2143.786;   -9.402; 4779.330
874.874; 2057.697;  -11.062; 4866.348
875.436; 1970.799;  -13.931; 4718.887
875.998; 1967.573;   -9.561; 4660.005
876.560; 2002.033;  -11.321; 4462.964
877.122; 1956.325;  -12.221; 4145.042
877.683; 1872.367;  -12.191; 4056.481
878.245; 1805.343;  -12.101; 3950.740
878.807; 1848.049;   -8.971; 4058.958
879.369; 1869.815;  -12.071; 3954.677
879.930; 1762.697;  -14.621; 3941.495
880.492; 1707.864;  -10.311; 4067.014
881.053; 1727.916;  -10.901; 3859.633
881.615; 1708.476;  -14.411; 3776.071
882.176; 1678.118;  -13.761; 3734.750
882.738; 1592.894;   -9.181; 3678.489
883.299; 1388.117;  -11.791; 3405.407
883.860; 1124.237;  -13.121; 3351.106
884.422;  888.326;  -11.211; 3394.044
884.983;  748.696;  -10.091; 3166.443
885.544;  719.157;   -8.461; 3189.802
886.105;  727.833;  -12.361; 3160.360
886.666;  734.584;  -14.141; 3093.059
887.227;  741.805;  -11.361; 2941.957
887.788;  735.243;  -11.401; 2974.836
888.349;  719.599;  -13.791; 2721.214
888.910;  740.290;  -13.191; 2696.493
889.471;  762.529;   -9.881; 2560.172
890.032;  758.443;   -9.881; 2558.190
890.593;  747.674;  -10.371; 2567.669
891.153;  731.584;  -13.301; 2460.307
891.714;  690.403;  -11.431; 2372.046
892.275;  660.607;  -11.291; 2309.505
892.835;  629.439;  -11.471; 2382.543
893.396;  585.287;  -11.541; 2295.502
893.956;  533.848;  -11.181; 2162.420
894.517;  501.635;  -11.741; 2125.439
895.077;  497.394;  -11.671; 2086.978
895.638;  499.371;  -11.311; 2126.316
896.198;  473.316;   -9.831; 1838.275
896.758;  433.031;   -8.421; 1892.813
897.319;  405.631;  -12.351; 1792.232
897.879;  390.270;  -13.511; 1762.751
898.439;  366.672;  -12.001; 1661.149
898.999;  344.671;  -10.180; 1781.468
899.559;  337.502;  -12.030; 1703.347
900.119;  332.712;  -15.710; 1537.525
900.679;  329.244;   -8.900; 1638.384
901.239;  315.760;   -8.340; 1527.902
901.799;  305.366;  -13.910; 1456.441
902.359;  300.386;  -13.460; 1357.140
902.919;  293.617;  -11.490; 1331.118
903.479;  281.020;  -12.110; 1317.257
904.038;  261.518;  -11.720; 1262.595
904.598;  245.449;  -13.610; 1152.034
905.158;  241.792;  -11.040; 1240.893
905.717;  235.959;  -10.900; 1233.691
906.277;  225.585;  -15.080; 1217.330
906.836;  216.420;  -13.380; 1222.408
907.396;  207.214;  -10.780; 1193.047
907.955;  199.572;   -8.500; 1182.526
908.515;  193.919;  -12.760; 1099.364
909.074;  187.015;  -11.900; 1092.863
909.633;  179.435;   -8.950; 1069.121
910.192;  172.907;   -8.770; 1196.460
910.752;  166.707;  -12.390; 1029.960
911.311;  162.853;  -13.680; 1009.780
911.870;  160.860;  -12.370;  971.460
912.429;  163.421;  -10.900; 1094.080
912.988;  162.505;  -11.690; 1081.060
913.547;  158.551;  -13.240;  940.380
914.106;  154.084;  -11.990;  999.420
914.665;  150.531;   -9.990;  984.020
915.224;  151.433;  -12.880; 1035.760
915.782;  150.649;  -12.350;  922.560
916.341;  150.208;   -9.110; 1049.840
916.900;  147.085;   -9.270;  925.260
917.458;  145.402;  -13.240;  884.220
918.017;  144.876;  -13.550;  942.600
918.576;  144.496;  -12.320;  904.440
919.134;  142.889;  -11.490;  837.980
919.693;  140.557;  -13.670;  893.060
920.251;  139.430;  -15.470;  876.500
920.809;  137.209;  -11.290;  839.580
921.368;  138.182;  -10.210;  885.360
921.926;  136.925;  -12.140;  842.940
922.484;  135.445;  -13.080;  903.360
923.042;  135.186;  -11.720;  880.340
923.601;  138.214;   -7.480;  998.680
924.159;  136.662;  -11.570;  935.560
924.717;  132.909;  -13.840;  841.080
925.275;  132.873;  -10.640;  903.240
925.833;  132.826;  -11.540;  779.320
926.391;  133.992;  -12.960;  938.380
926.949;  131.909;  -14.130;  857.680
927.506;  132.655;  -11.750;  903.500
928.064;  132.326;  -10.250;  877.580
928.622;  131.090;  -13.030;  880.100
929.180;  131.145;  -13.400;  814.180
929.737;  133.172;  -10.700;  808.540
930.295;  135.433;  -10.070;  928.480
930.853;  137.500;  -11.960;  849.100
931.410;  138.010;  -13.120;  821.120
931.968;  137.740;  -10.770;  940.660
932.525;  137.695;  -10.680;  909.380
933.082;  137.295;  -13.130;  811.440
933.640;  139.218;  -13.210;  925.900
934.197;  136.230;  -11.060;  886.360
934.754;  138.321;   -9.580;  897.780
935.312;  140.163;  -14.000;  863.340
935.869;  144.668;  -10.710; 1012.980
936.426;  145.166;   -9.860;  872.800
936.983;  146.776;   -9.710;  889.020
937.540;  145.670;  -13.990;  838.280
938.097;  144.127;  -14.040;  940.120
938.654;  144.962;  -10.310;  898.860
939.211;  146.459;  -10.560;  952.480
939.768;  149.840;  -13.900;  915.420
940.324;  153.239;  -14.760;  904.200
940.881;  154.356;  -10.370;  878.500
941.438;  155.745;   -8.260; 1021.200
941.995;  151.215;  -12.540;  992.560
942.551;  148.600;  -14.670;  875.620
943.108;  149.742;  -10.450;  937.920
943.664;  152.215;  -10.750;  869.340
944.221;  154.766;  -11.550; 1088.140
944.777;  153.024;  -14.770;  869.680
945.334;  152.526;  -12.820;  884.840
945.890;  155.013;  -10.130;  946.480
946.446;  155.226;  -13.470;  947.020
947.003;  156.957;  -12.120;  964.940
947.559;  159.326;   -9.980; 1063.040
948.115;  158.177;   -9.080; 1026.540
948.671;  155.688;  -10.830;  967.300
949.227;  154.302;  -12.440;  859.560
949.783;  151.105;  -12.910;  858.900
950.339;  153.396;  -10.270;  991.000
950.895;  153.727;  -13.630; 1023.840
951.451;  152.896;  -15.100;  925.280
952.007;  152.482;  -11.330;  998.540
952.563;  153.914;  -10.580;  937.780
953.118;  152.462;  -13.440;  904.940
953.674;  152.378;  -12.710;  935.780
954.230;  151.475;  -10.350;  949.640
954.785;  149.175;   -9.190;  936.640
955.341;  147.000;  -11.200;  998.160
955.897;  144.421;  -16.560;  834.660
956.452;  146.537;  -12.570;  953.840
957.008;  145.423;   -7.970; 1083.640
957.563;  143.146;  -11.940; 1009.540
958.118;  138.468;  -13.450;  877.700
958.674;  137.587;  -12.030;  946.780
959.229;  139.430;   -9.410; 1013.980
959.784;  137.472;  -12.000;  832.400
960.339;  136.306;  -14.780; 1001.280
960.894;  133.538;   -9.860;  963.760
961.449;  130.555;   -9.970;  859.960
962.004;  129.473;  -10.900; 1212.840
962.559;  124.271;  -13.150;  860.140
963.114;  121.652;  -13.740;  742.480
963.669;  122.164;   -9.820;  915.500
964.224;  120.765;  -13.890;  874.340
964.779;  119.580;  -12.600;  828.420
965.334;  119.971;  -10.950; 1017.860
965.888;  118.563;  -11.170;  875.360
966.443;  122.718;  -12.540;  972.380
966.998;  121.154;  -15.780;  819.460
967.552;  120.321;   -9.760;  908.380
968.107;  116.851;   -9.060;  868.300
968.661;  118.341;  -11.950;  922.440
969.216;  118.240;  -12.800;  856.280
969.770;  118.522;  -11.210;  917.200
970.324;  117.248;  -11.610;  923.140
970.879;  114.191;  -11.370;  947.180
971.433;  111.071;  -12.540;  952.720
971.987;  106.485;  -11.320;  895.340
972.541;  103.760;  -10.720;  917.100
973.095;  103.579;   -9.680; 1009.460
973.649;  102.314;  -11.440;  809.480
974.203;  100.674;  -11.210;  829.040
974.757;  100.650;  -10.240;  855.220
975.311;  100.350;  -13.720;  872.600
975.865;  100.034;  -13.770;  881.820
976.419;   97.841;  -11.690;  857.400
976.973;   98.613;   -9.510;  849.620
977.526;  100.868;  -12.620;  949.920
978.080;   99.243;  -12.010;  796.780
978.634;   99.953;  -10.170;  921.320
979.187;   97.882;   -9.020;  905.400
979.741;   95.405;   -9.820; 1018.380
980.294;   90.660;  -14.870;  789.160
980.848;   88.688;  -12.380;  717.220
981.401;   90.992;  -10.350;  816.540
981.955;   92.774;  -13.720;  844.300
982.508;   92.254;  -11.490;  746.340
983.061;   91.142;  -10.000;  915.260
983.615;   88.488;  -11.480;  798.800
984.168;   85.388;  -13.220;  770.080
984.721;   83.502;  -13.960;  880.760
985.274;   83.911;  -10.870;  867.500
985.827;   82.082;   -9.790;  834.220
986.380;   80.453;  -13.120;  721.340
986.933;   78.436;  -12.450;  864.800
987.486;   77.731;  -10.210;  861.920
988.039;   76.897;   -8.430;  863.100
988.591;   74.654;  -10.520;  893.260
989.144;   72.524;  -14.860;  737.260
989.697;   70.881;  -13.080;  758.740
990.250;   72.865;  -10.150;  858.100
990.802;   71.259;  -13.430;  755.860
991.355;   71.947;  -12.750;  974.880
991.907;   70.086;  -12.040;  864.320
992.460;   68.224;  -11.330;  753.760
993.012;   66.091;  -13.610;  749.540
993.565;   66.156;  -13.460;  711.360
994.117;   66.523;   -9.360;  950.780
994.669;   63.829;  -11.300;  701.320
995.221;   61.633;  -13.540;  791.920
995.774;   60.355;  -13.430;  787.580
996.326;   58.213;  -12.520;  740.220
996.878;   58.427;  -10.950;  838.420
997.430;   56.404;  -14.300;  699.860
997.982;   55.553;  -13.760;  750.140
998.534;   54.508;  -11.530;  739.060
999.086;   53.438;  -10.310;  738.220
999.638;   52.764;  -12.530;  661.380
1000.190;   51.913;  -11.840;  699.320
1000.741;   51.075;  -10.260;  742.700
1001.293;   50.556;   -8.860;  686.020
1001.845;   50.093;  -13.700;  676.640
1002.396;   49.866;  -12.100;  743.400
1002.948;   48.756;  -12.760;  737.400
1003.500;   46.985;  -10.380;  723.780
1004.051;   48.379;  -11.900;  907.580
1004.603;   46.142;  -12.250;  791.820
1005.154;   43.015;  -13.210;  608.980
1005.705;   41.744;  -10.950;  723.960
1006.257;   42.110;  -13.880;  707.220
1006.808;   40.363;  -12.840;  685.460
1007.359;   40.524;  -10.570;  763.240
1007.910;   40.015;   -9.620;  646.640
1008.461;   39.755;  -13.630;  732.940
1009.013;   37.751;  -17.200;  588.340
1009.564;   39.634;  -10.200;  793.520
1010.115;   37.011;  -12.570;  597.040
1010.665;   37.346;  -15.150;  602.160
1011.216;   37.333;  -14.480;  667.920
1011.767;   36.248;  -11.340;  697.920
1012.318;   36.284;   -9.780;  736.980
1012.869;   36.184;  -12.380;  679.000
1013.419;   35.419;  -15.560;  603.120
1013.970;   35.575;  -11.010;  666.640
1014.521;   35.356;  -11.610;  620.620
1015.071;   35.613;  -13.450;  670.380
1015.622;   34.299;  -13.870;  635.460
1016.172;   33.786;  -11.610;  596.820
1016.723;   33.013;  -12.120;  614.380
1017.273;   33.359;  -13.620;  604.160
1017.823;   33.784;  -14.140;  650.340
1018.374;   33.061;  -12.800;  611.760
1018.924;   32.819;  -12.340;  716.880
1019.474;   33.207;  -11.410;  718.880
1020.024;   32.230;  -14.770;  657.580
1020.574;   32.359;   -9.780;  726.160
1021.124;   32.642;   -8.560;  673.580
1021.674;   30.906;  -15.190;  559.120
1022.224;   32.555;  -13.530;  708.940
1022.774;   31.448;  -13.280;  668.820
1023.324;   32.052;  -10.690;  753.520
1023.874;   32.732;  -10.240;  875.760
1024.423;   30.101;  -12.540;  613.700
1024.973;   29.718;  -10.010;  610.760
1025.523;   29.354;  -10.550;  620.960
1026.072;   29.080;  -13.560;  606.420
1026.622;   29.509;  -15.120;  675.740
1027.172;   29.873;  -11.260;  715.660
1027.721;   29.691;  -11.410;  601.220
1028.270;   30.647;  -13.530;  663.400
1028.820;   29.315;  -13.680;  638.080
1029.369;   28.231;  -13.520;  612.700
1029.918;   28.613;  -10.980;  649.840
1030.468;   27.941;  -13.530;  564.780
1031.017;   27.799;  -13.170;  634.800
1031.566;   27.030;  -12.200;  608.900
1032.115;   28.180;   -9.960;  694.500
1032.664;   26.923;  -13.210;  596.480
1033.213;   27.904;  -12.500;  735.420
1033.762;   27.449;  -11.910;  635.620
1034.311;   27.165;   -9.640;  677.220
1034.860;   27.195;  -13.310;  691.000
1035.408;   27.391;  -11.830;  722.720
1035.957;   27.308;  -12.000;  719.540
1036.506;   25.288;  -11.690;  530.800
1037.055;   27.797;  -10.990;  844.320
1037.603;   25.673;  -15.120;  664.000
1038.152;   24.592;  -12.450;  534.760
1038.700;   25.052;  -10.560;  585.740
1039.249;   25.392;  -11.080;  681.220
1039.797;   24.780;  -12.540;  633.360
1040.345;   24.371;  -11.920;  705.420
1040.894;   24.973;  -11.410;  625.300
1041.442;   24.327;  -14.320;  632.200
1041.990;   24.151;  -16.240;  559.160
1042.538;   23.213;  -11.680;  536.180
1043.087;   23.255;  -10.760;  570.860
1043.635;   24.228;  -11.850;  670.500
1044.183;   23.520;  -15.480;  586.400
1044.731;   22.459;  -11.770;  576.000
1045.279;   23.349;  -13.090;  674.920
1045.827;   25.254;  -12.440;  892.400
1046.374;   22.687;  -13.840;  515.420
1046.922;   21.128;  -13.220;  590.580
1047.470;   23.349;  -10.230;  691.300
1048.018;   22.720;  -14.590;  647.960
1048.565;   23.834;  -12.050;  708.600
1049.113;   21.691;  -11.650;  557.000
1049.660;   21.712;  -10.510;  629.660
1050.208;   22.397;  -13.310;  675.640
1050.755;   21.198;  -15.900;  606.580
1051.303;   22.120;  -11.430;  686.820
1051.850;   20.995;   -8.480;  635.120
1052.397;   19.930;  -15.010;  473.960
1052.945;   20.854;  -13.960;  617.760
1053.492;   21.680;  -13.150;  741.840
1054.039;   21.703;   -9.630;  720.180
1054.586;   20.129;  -13.680;  557.240
1055.133;   20.469;  -14.570;  693.140
1055.680;   20.280;  -13.820;  646.620
1056.227;   20.258;  -11.730;  542.780
1056.774;   21.123;  -12.480;  794.980
1057.321;   19.190;  -13.930;  523.260
1057.868;   19.353;  -11.690;  651.320
1058.415;   19.819;   -9.520;  651.980
1058.961;   19.500;  -13.160;  678.940
1059.508;   19.654;  -12.920;  643.820
1060.055;   19.286;  -11.920;  581.780
1060.601;   19.815;  -11.500;  624.300
1061.148;   18.853;  -14.330;  616.820
1061.694;   18.611;  -16.870;  592.580
1062.241;   18.384;  -10.330;  596.320
1062.787;   18.768;  -10.620;  663.140
1063.334;   20.155;  -10.110;  808.560
1063.880;   19.063;  -13.400;  668.360
1064.426;   18.597;  -10.680;  706.820
1064.972;   17.699;   -9.920;  601.340
1065.518;   16.638;  -10.980;  566.640
1066.065;   18.184;  -14.890;  624.460
1066.611;   17.430;  -12.870;  598.800
1067.157;   18.058;  -12.950;  641.860
1067.703;   17.712;  -13.540;  668.480
1068.249;   17.224;  -13.540;  605.220
1068.794;   17.367;  -12.600;  626.880
1069.340;   16.197;  -10.620;  578.960
1069.886;   17.408;  -12.830;  590.700
1070.432;   15.963;  -14.870;  541.720
1070.977;   15.615;  -11.980;  601.080
1071.523;   15.862;   -8.200;  573.060
1072.068;   16.690;  -12.330;  582.000
1072.614;   16.274;  -16.370;  527.760
1073.160;   16.748;  -11.100;  687.040
1073.705;   14.952;  -10.480;  572.520
1074.250;   15.814;  -14.520;  559.900
1074.796;   16.368;  -11.460;  655.160
1075.341;   15.711;  -11.950;  664.100
1075.886;   15.934;  -11.460;  594.240
1076.431;   14.862;  -13.770;  649.880
1076.976;   15.219;  -12.680;  639.220
1077.521;   14.348;  -13.170;  583.080
1078.067;   14.098;  -10.860;  579.400
1078.612;   15.954;  -13.920;  661.620
1079.156;   14.439;  -13.880;  601.540
1079.701;   14.713;  -13.120;  693.260
1080.246;   15.437;   -9.940;  696.300
1080.791;   14.778;  -14.740;  625.020
1081.336;   14.436;  -13.750;  659.320
1081.880;   13.951;  -13.400;  649.680
1082.425;   13.755;  -12.220;  573.480
1082.970;   14.805;  -11.610;  717.040
1083.514;   14.091;  -13.580;  597.000
1084.059;   13.254;  -12.810;  586.720
1084.603;   13.070;  -12.320;  565.840
1085.147;   13.119;  -13.190;  645.220
1085.692;   13.853;  -12.480;  716.800
1086.236;   12.057;  -13.020;  503.140
1086.780;   14.213;   -9.190;  751.440
1087.325;   13.740;  -12.480;  654.620
1087.869;   13.761;  -12.450;  610.700
1088.413;   13.487;  -12.240;  705.040
1088.957;   11.253;   -9.020;  543.400
1089.501;   13.673;  -10.320;  766.640
1090.045;   12.769;  -12.720;  726.480
1090.589;   10.566;  -13.690;  569.920
1091.133;   12.382;  -10.020;  673.340
1091.676;   12.084;  -12.330;  591.940
1092.220;   11.706;  -14.970;  600.920
1092.764;   12.446;  -12.430;  706.960
1093.307;   12.466;   -9.800;  673.780
1093.851;   10.479;  -14.970;  556.540
1094.395;   11.354;  -15.310;  683.140
1094.938;   10.758;  -10.370;  632.520
1095.482;   11.097;  -11.050;  559.800
1096.025;   11.928;  -11.840;  710.880
1096.568;   12.718;  -12.840;  779.280
1097.112;   10.083;  -14.700;  508.180
1097.655;   11.462;   -8.720;  603.000
1098.198;    9.784;  -13.610;  600.180
1098.741;    9.815;  -13.350;  612.860
1099.285;   10.760;  -11.230;  657.300
1099.828;    8.495;  -11.840;  439.400
1100.371;   10.483;  -10.840;  608.160
1100.914;   10.060;  -14.190;  682.660
1101.457;   10.471;  -11.240;  679.900
1101.999;    8.785;  -11.270;  584.680
1102.542;    9.588;  -11.480;  641.440
1103.085;    9.280;  -11.750;  658.500
1103.628;    9.860;  -11.400;  762.060
1104.170;    9.363;  -10.490;  588.280
1104.713;   10.001;  -10.600;  646.700
1105.256;    9.287;  -14.360;  557.440
1105.798;    8.154;  -13.210;  499.980
1106.341;   10.007;  -10.270;  728.900
1106.883;    8.445;  -12.200;  521.340
1107.425;    8.809;  -13.110;  668.180
1107.968;    7.895;  -12.840;  612.380
1108.510;    9.139;   -6.480;  684.960
1109.052;    7.587;  -13.940;  612.620
1109.594;    7.733;  -13.690;  554.440
1110.136;    8.557;  -11.880;  643.220
1110.679;    8.037;   -9.500;  633.080
1111.221;    8.765;  -14.160;  604.460
1111.763;    7.286;  -13.980;  559.220
1112.304;    7.599;  -13.880;  547.140
1112.846;    7.713;  -12.210;  666.240
1113.388;   10.389;  -11.390;  942.180
1113.930;    8.421;  -14.540;  694.200
1114.472;    6.989;  -12.640;  606.540
1115.013;    5.626;  -11.620;  551.280
1115.555;    5.362;  -13.640;  587.100
1116.097;    6.246;  -15.380;  579.480
1116.638;    6.966;  -12.640;  684.600
1117.180;    7.592;   -9.850;  667.740
1117.721;    6.392;  -13.690;  568.580
1118.262;    7.179;  -12.680;  677.960
1118.804;    6.947;  -12.530;  637.340
1119.345;    6.066;  -11.690;  578.400
1119.886;    7.269;  -13.380;  704.040
1120.427;    5.649;  -14.070;  589.020
1120.969;    5.271;  -13.500;  597.920
1121.510;    4.781;  -11.480;  563.060
1122.051;    6.157;  -12.830;  723.580
1122.592;    5.931;  -14.290;  655.420
1123.133;    4.563;  -12.400;  547.940
1123.673;    6.398;  -10.130;  706.480
1124.214;    6.289;  -12.930;  612.460
1124.755;    6.055;  -14.380;  639.460
1125.296;    5.448;  -14.000;  627.320
1125.836;    5.819;  -10.070;  691.500
1126.377;    5.781;  -12.640;  599.660
1126.918;    6.030;  -12.960;  614.980
1127.458;    4.408;  -13.350;  622.220
1127.999;    5.756;  -10.750;  656.980
1128.539;    5.227;  -12.350;  694.240
1129.079;    5.021;  -14.860;  632.720
1129.620;    4.247;  -13.840;  558.100
1130.160;    4.360;  -12.330;  539.480
1130.700;    4.770;  -14.530;  640.840
1131.240;    5.561;  -12.530;  643.700
1131.781;    3.707;  -14.450;  619.680
1132.321;    4.373;   -9.790;  599.120
1132.861;    3.314;  -14.860;  564.200
1133.401;    3.013;  -14.290;  593.940
1133.941;    3.451;  -11.750;  626.280
1134.481;    2.965;   -9.920;  597.580
1135.020;    3.349;  -12.290;  609.160
1135.560;    4.210;  -11.650;  674.940
1136.100;    2.843;  -16.270;  501.160
1136.640;    2.767;  -10.890;  510.480
1137.179;    3.039;  -14.180;  537.960
1137.719;    3.459;  -16.250;  605.400
1138.258;    2.827;  -14.230;  587.360
1138.798;    4.035;   -9.090;  663.780
1139.337;    2.234;  -15.130;  482.840
1139.877;    3.294;  -13.680;  642.360
1140.416;    4.332;  -11.320;  878.060
1140.955;    2.346;  -10.860;  535.380
1141.494;    2.884;  -12.920;  669.280
1142.034;    2.458;  -13.930;  583.520
1142.573;    3.316;  -11.440;  646.280
1143.112;    2.853;  -12.000;  553.480
1143.651;    2.360;  -13.670;  536.480
1144.190;    2.392;  -12.730;  691.640
1144.729;    1.870;  -14.560;  607.420
1145.267;    2.027;  -11.830;  584.900
1145.806;    3.081;  -12.230;  637.040
1146.345;    1.658;  -14.130;  635.020
1146.884;    1.991;  -11.590;  622.500
1147.422;    1.004;  -12.550;  533.060
1147.961;    2.915;  -11.180;  708.460
1148.500;    2.531;  -11.510;  669.720
1149.038;    2.370;  -11.640;  632.500
1149.577;    2.813;  -10.130;  698.640
1150.115;    0.363;  -13.970;  452.280
1150.653;    1.831;  -14.520;  607.340
1151.192;    1.054;  -12.810;  552.920
1151.730;    1.630;   -9.100;  652.560
1152.268;    0.504;  -12.220;  589.520
1152.806;    1.459;  -14.140;  571.180
1153.344;    0.141;  -12.350;  577.640
1153.882;    0.917;   -8.980;  600.060
1154.421;    0.141;  -15.190;  470.620
1154.958;    0.088;  -15.210;  595.240
1155.496;    1.761;  -12.850;  645.280
1156.034;    0.917;   -9.940;  721.880
1156.572;    2.170;  -13.570;  667.060
1157.110;   -1.020;  -14.590;  473.940
1157.647;    0.354;  -13.030;  676.960
1158.185;    0.083;  -12.140;  564.320
1158.723;   -0.929;  -14.390;  509.200
1159.260;    0.476;  -14.090;  701.700
1159.798;   -0.038;  -11.920;  658.160
1160.335;    0.021;  -11.110;  631.820

