
Integration time [ms]:   3.276
Averaging Nr. [scans]: 1000
Smoothing Nr. [pixels]: 0
Data measured with spectrometer [name]: 7414430SP
Wave   ;Sample   ;Dark     ;Reference
[nm]   ;[counts] ;[counts] ;[counts] 

288.544;  149.083;    7.793;  793.890
289.143;  153.590;    7.462;  681.602
289.742;  152.945;    8.602;  828.814
290.341;  138.340;    1.321;  789.841
290.940;  126.938;   -0.709;  730.702
291.538;  128.528;    0.881;  881.108
292.137;  128.871;    0.122;  792.581
292.736;  132.924;   -1.929;  975.101
293.335;  129.248;   -8.229;  735.086
293.934;  130.528;   -5.279;  781.677
294.532;  128.274;   -1.369; 1031.958
295.131;  113.740;   -7.641;  834.394
295.730;  114.579;   -8.420;  809.588
296.328;  114.369;   -5.611;  783.442
296.927;  114.914;   -5.781;  779.652
297.525;  115.289;   -6.361;  781.236
298.124;  105.822;  -11.382;  654.009
298.722;  110.116;   -7.641;  761.933
299.321;  107.417;   -6.811;  708.597
299.919;  105.375;   -6.991;  751.918
300.518;  102.764;  -10.362;  689.338
301.116;  104.766;   -9.581;  691.381
301.715;  103.803;   -4.891;  730.222
302.313;  102.362;   -8.801;  704.943
302.911;   97.388;   -8.522;  733.830
303.509;  103.253;   -6.171;  925.627
304.108;  101.065;   -7.311;  760.383
304.706;   99.556;   -8.321;  801.664
305.304;   95.546;  -10.222;  796.707
305.902;   99.941;   -6.021;  784.484
306.500;   95.984;   -4.971;  728.200
307.098;   94.073;   -7.061;  746.560
307.696;   93.181;   -8.801;  780.432
308.294;   92.964;   -6.411;  731.359
308.892;   95.176;   -2.901;  759.769
309.490;   91.804;   -5.041;  712.161
310.088;   90.075;   -5.002;  788.444
310.686;   93.492;   -2.041;  821.749
311.284;   89.421;   -2.351;  766.040
311.882;   87.690;   -4.422;  731.225
312.480;   84.754;   -4.192;  697.167
313.078;   86.523;   -1.172;  808.331
313.675;   86.141;   -2.601;  691.600
314.273;   81.844;   -1.312;  797.837
314.871;   81.310;   -3.942;  589.829
315.468;   78.525;   -2.802;  652.090
316.066;   81.665;   -0.701;  694.427
316.664;   75.320;   -4.362;  656.351
317.261;   78.565;   -2.872;  910.128
317.859;   74.652;   -2.022;  768.735
318.456;   75.025;   -0.531;  830.096
319.054;   70.774;   -3.912;  787.828
319.651;   68.988;   -4.752;  759.928
320.249;   68.843;   -2.602;  810.188
320.846;   65.531;   -0.821;  714.286
321.443;   63.839;   -4.642;  832.135
322.041;   60.677;   -5.002;  812.315
322.638;   58.154;   -3.982;  701.456
323.235;   59.368;   -3.411;  665.683
323.833;   56.504;   -7.361;  740.354
324.430;   53.031;   -8.611;  615.900
325.027;   53.279;   -4.061;  876.855
325.624;   53.149;   -4.031;  644.532
326.221;   50.859;   -7.481;  689.717
326.818;   49.587;   -5.281;  818.332
327.415;   53.171;   -7.460;  748.828
328.012;   52.348;   -5.510;  690.585
328.609;   50.917;   -7.880;  731.389
329.206;   49.176;   -8.331;  778.621
329.803;   49.090;   -5.121;  737.841
330.400;   51.637;   -4.510;  704.260
330.997;   53.351;   -6.441;  817.147
331.594;   52.280;   -8.831;  788.185
332.191;   58.071;   -7.621;  728.722
332.787;   59.739;   -4.591;  844.463
333.384;   58.540;   -7.412;  763.093
333.981;   57.572;   -8.293;  815.687
334.578;   59.991;   -7.052;  708.378
335.174;   62.403;   -3.102;  731.469
335.771;   62.287;   -5.943;  836.456
336.367;   58.820;   -7.393;  710.631
336.964;   63.270;   -4.063;  793.266
337.561;   60.838;   -3.813;  731.112
338.157;   56.174;   -4.654;  911.916
338.754;   54.234;   -7.934;  796.589
339.350;   52.803;   -4.414;  722.493
339.946;   54.052;   -4.664;  773.135
340.543;   46.750;   -6.375;  846.136
341.139;   41.253;   -9.815;  720.836
341.735;   39.469;   -4.526;  772.593
342.332;   36.786;   -4.895;  691.472
342.928;   37.725;   -4.295;  795.394
343.524;   32.188;   -5.476;  761.684
344.120;   28.156;   -5.856;  738.562
344.716;   31.184;   -2.155;  723.717
345.313;   29.211;   -6.275;  795.342
345.909;   23.808;   -8.815;  627.336
346.505;   26.141;   -5.305;  740.247
347.101;   26.721;   -2.674;  827.864
347.697;   26.650;   -4.344;  785.398
348.293;   21.833;   -9.975;  627.244
348.889;   22.881;   -5.774;  745.914
349.485;   21.233;   -5.004;  688.205
350.081;   21.722;   -4.704;  772.592
350.676;   17.741;   -6.635;  691.606
351.272;   22.063;   -4.504;  809.530
351.868;   21.091;   -3.914;  780.497
352.464;   17.881;   -9.044;  723.932
353.059;   15.052;   -8.314;  646.017
353.655;   18.659;   -7.024;  777.063
354.251;   19.099;   -5.343;  759.845
354.846;   13.976;   -8.604;  740.646
355.442;   11.718;   -6.945;  753.071
356.038;   13.809;   -7.564;  751.708
356.633;   14.057;   -5.814;  728.594
357.229;   12.074;   -7.364;  724.757
357.824;   10.481;   -8.024;  703.600
358.420;    9.551;   -9.384;  679.726
359.015;    9.398;   -5.104;  695.357
359.610;   10.370;   -6.854;  763.920
360.206;    4.729;  -10.185;  603.240
360.801;    7.890;   -7.054;  646.503
361.396;   10.272;   -5.034;  725.975
361.992;    5.071;   -8.284;  668.220
362.587;    2.424;   -8.625;  670.160
363.182;    5.180;   -7.674;  689.631
363.777;    4.250;   -5.164;  738.242
364.372;    4.507;   -8.604;  737.314
364.967;    0.575;   -9.055;  680.744
365.563;    5.917;   -6.114;  815.567
366.158;    3.044;   -5.814;  685.161
366.753;    2.311;   -7.854;  649.263
367.348;    1.316;   -7.804;  746.056
367.942;    1.621;   -7.954;  697.298
368.537;    0.286;   -4.984;  754.245
369.132;    0.267;   -8.564;  703.428
369.727;   -3.320;   -8.855;  638.079
370.322;   -1.724;   -6.245;  580.186
370.917;   -2.984;   -6.425;  710.646
371.511;    0.559;   -6.294;  861.834
372.106;   -3.182;   -7.685;  776.964
372.701;   -5.670;   -7.335;  585.988
373.296;   -0.922;   -4.564;  863.135
373.890;   -5.739;  -10.235;  647.840
374.485;   -7.349;   -7.885;  691.199
375.079;   -3.410;   -7.324;  738.685
375.674;   -2.814;   -3.494;  812.970
376.268;   -7.344;   -8.525;  691.759
376.863;  -12.794;  -10.086;  580.327
377.457;   -5.990;   -7.025;  662.490
378.052;   -8.841;   -3.585;  764.884
378.646;   -9.041;   -7.595;  741.167
379.240;   -9.019;   -8.335;  721.176
379.835;   -7.535;   -5.785;  636.978
380.429;  -11.051;   -4.335;  562.557
381.023;  -10.689;   -6.805;  779.205
381.617;  -12.675;   -9.195;  680.106
382.212;   -9.170;   -6.905;  685.303
382.806;   -9.403;   -3.745;  760.690
383.400;  -12.452;   -7.745;  672.281
383.994;  -13.740;   -9.765;  664.870
384.588;   -9.527;   -6.564;  697.701
385.182;   -9.241;   -5.344;  726.624
385.776;  -10.701;   -8.514;  706.875
386.370;  -14.097;   -9.555;  681.968
386.964;  -12.614;   -8.715;  684.155
387.558;  -11.131;   -6.174;  598.360
388.152;  -14.429;   -8.725;  681.959
388.745;  -12.684;   -7.965;  814.707
389.339;  -10.209;   -5.924;  747.642
389.933;   -9.661;   -5.524;  695.370
390.527;  -10.689;   -7.114;  859.029
391.120;  -16.807;  -10.725;  595.318
391.714;  -13.562;   -8.035;  711.633
392.308;  -10.538;   -3.574;  780.253
392.901;  -14.657;   -7.245;  642.460
393.495;  -15.828;   -9.285;  595.414
394.089;  -14.582;   -5.895;  760.452
394.682;  -14.339;   -4.295;  697.188
395.275;  -15.398;   -9.875;  719.927
395.869;  -16.127;   -8.485;  667.314
396.462;  -13.994;   -7.455;  616.609
397.056;  -10.911;   -5.424;  776.621
397.649;  -16.367;   -6.605;  731.575
398.242;  -13.766;   -8.224;  712.645
398.836;  -12.372;   -7.474;  766.408
399.429;  -13.863;   -7.094;  631.041
400.022;  -17.220;   -9.475;  665.902
400.615;  -14.313;   -7.145;  805.609
401.208;  -12.846;   -7.174;  691.451
401.802;  -15.313;   -5.515;  699.329
402.395;  -16.221;   -9.875;  683.502
402.988;  -17.195;   -8.845;  696.627
403.581;  -13.867;   -8.874;  646.878
404.174;  -11.752;   -5.324;  686.568
404.767;  -14.970;   -9.575;  638.583
405.360;  -16.952;  -10.965;  621.445
405.953;  -10.919;   -8.764;  759.034
406.545;  -10.871;   -7.514;  725.342
407.138;  -15.062;  -10.025;  618.350
407.731;  -14.306;  -10.034;  613.303
408.324;  -10.031;   -9.374;  660.554
408.917;  -10.987;   -6.534;  681.864
409.509;  -12.948;   -8.004;  740.396
410.102;  -14.488;   -9.875;  643.948
410.695;   -8.351;   -8.604;  665.758
411.287;   -9.783;   -6.794;  599.821
411.880;  -11.487;   -9.334;  585.421
412.472;  -14.126;  -10.254;  613.092
413.065;  -11.229;   -6.714;  629.408
413.657;   -9.082;   -7.234;  576.678
414.250;   -9.692;  -10.544;  646.681
414.842;  -11.065;   -9.744;  676.353
415.434;   -8.500;   -6.994;  570.463
416.027;   -5.029;   -5.893;  652.196
416.619;   -7.512;   -7.264;  713.400
417.211;   -7.546;  -10.374;  599.352
417.804;   -2.968;   -7.993;  628.499
418.396;   -7.454;   -7.234;  607.643
418.988;   -5.781;   -9.443;  659.238
419.580;   -8.544;  -10.724;  568.276
420.172;   -6.505;  -10.323;  536.196
420.764;   -2.640;   -8.793;  672.482
421.356;   -3.558;  -11.143;  636.898
421.948;   -4.651;   -8.293;  677.661
422.540;    1.054;   -7.893;  680.027
423.132;   -0.633;   -7.082;  600.641
423.724;   -3.466;   -8.653;  561.267
424.316;   -1.754;  -10.213;  621.345
424.908;    2.492;   -9.762;  591.517
425.500;    2.869;   -5.572;  647.978
426.092;    2.721;   -8.422;  648.268
426.683;    1.602;   -9.283;  684.836
427.275;    4.968;   -7.852;  641.471
427.867;    6.535;   -5.272;  668.948
428.458;    6.517;   -7.682;  732.344
429.050;    5.182;  -10.612;  680.749
429.642;    7.337;   -9.882;  743.124
430.233;    8.049;   -6.962;  569.356
430.825;    9.022;   -6.842;  724.809
431.416;    6.624;   -9.672;  698.241
432.008;   10.308;   -6.552;  651.723
432.599;    9.940;   -6.891;  656.073
433.190;    7.901;  -10.912;  637.670
433.782;    7.658;  -11.172;  590.395
434.373;   14.305;   -6.061;  884.765
434.964;   12.377;   -8.251;  602.920
435.556;   10.768;   -9.722;  634.537
436.147;   14.440;   -9.082;  758.490
436.738;   13.520;   -8.041;  701.099
437.329;   18.832;   -7.341;  721.723
437.920;   12.127;   -8.162;  666.688
438.511;   11.334;  -11.802;  564.526
439.103;   18.529;  -10.191;  623.998
439.694;   20.150;   -7.601;  681.583
440.285;   20.868;   -8.541;  764.432
440.876;   18.729;   -9.751;  845.738
441.466;   19.248;   -9.401;  575.162
442.057;   24.100;   -7.760;  665.814
442.648;   21.682;   -9.971;  746.255
443.239;   20.500;  -11.001;  620.477
443.830;   26.237;   -7.990;  704.958
444.421;   27.120;   -7.910;  655.474
445.011;   23.102;   -8.131;  693.619
445.602;   24.109;   -7.111;  743.126
446.193;   25.963;  -10.920;  488.117
446.783;   29.506;   -6.500;  640.397
447.374;   25.327;   -8.671;  692.759
447.964;   25.489;  -10.781;  713.770
448.555;   34.696;   -9.650;  822.742
449.145;   30.057;   -8.660;  662.853
449.736;   31.106;   -8.990;  803.179
450.326;   31.552;   -9.500;  713.626
450.917;   36.855;   -8.680;  675.324
451.507;   34.887;   -7.520;  600.661
452.097;   36.418;   -8.590;  746.267
452.688;   37.582;  -11.340;  742.160
453.278;   37.442;  -10.100;  566.840
453.868;   41.303;   -6.019;  793.550
454.458;   39.103;   -9.440;  651.141
455.048;   39.304;  -10.560;  711.783
455.639;   41.480;  -11.799;  567.096
456.229;   44.622;   -6.899;  710.694
456.819;   46.847;   -7.389;  751.158
457.409;   46.659;  -11.119;  773.993
457.999;   49.737;   -9.289;  737.505
458.589;   49.096;   -6.139;  686.606
459.179;   48.439;   -8.729;  717.658
459.769;   47.376;   -9.789;  627.099
460.358;   53.059;  -10.259;  797.262
460.948;   51.332;   -7.299;  689.503
461.538;   53.850;  -10.289;  660.677
462.128;   50.724;  -11.269;  664.934
462.717;   57.874;   -9.368;  710.326
463.307;   61.397;   -7.908;  705.846
463.897;   57.095;   -9.599;  656.942
464.486;   56.262;   -9.769;  837.128
465.076;   61.211;   -8.048;  733.776
465.666;   63.182;   -9.358;  652.900
466.255;   61.266;   -7.919;  785.651
466.845;   60.418;  -11.689;  666.749
467.434;   63.807;   -7.818;  725.873
468.023;   65.813;   -7.678;  658.357
468.613;   61.969;  -10.939;  713.946
469.202;   67.032;  -10.118;  646.507
469.791;   70.850;   -9.108;  737.811
470.381;   72.957;   -6.058;  742.813
470.970;   71.407;  -10.428;  711.099
471.559;   72.529;  -10.268;  733.291
472.148;   75.549;   -8.448;  675.737
472.738;   77.858;   -6.917;  765.466
473.327;   77.259;  -11.978;  637.529
473.916;   76.881;  -11.888;  737.446
474.505;   82.486;   -9.437;  751.703
475.094;   83.807;   -6.747;  806.570
475.683;   83.249;   -9.367;  797.699
476.272;   84.802;  -12.637;  730.632
476.861;   87.924;  -10.027;  706.754
477.449;   93.277;   -8.716;  728.487
478.038;   87.943;   -9.577;  692.513
478.627;   89.301;   -9.718;  714.852
479.216;   96.488;   -8.947;  769.441
479.805;   98.174;   -6.256;  783.375
480.393;   98.554;   -7.937; 1008.945
480.982;   97.044;   -7.717;  874.501
481.571;  103.597;   -9.266;  858.333
482.159;  104.295;   -7.636;  705.386
482.748;  103.363;   -9.667;  821.385
483.336;  108.729;  -10.376;  858.209
483.925;  109.714;   -7.147;  774.373
484.513;  116.112;   -7.996;  758.962
485.102;  112.486;  -10.027;  810.965
485.690;  121.497;  -10.446; 1011.050
486.278;  123.518;   -8.446;  979.329
486.867;  122.935;   -6.356;  809.662
487.455;  125.861;   -9.136;  898.229
488.043;  126.586;  -10.646;  748.361
488.631;  135.815;   -7.456; 1005.079
489.220;  139.010;   -6.636;  908.626
489.808;  138.943;  -11.036;  741.415
490.396;  147.688;  -10.246;  914.645
490.984;  152.237;   -8.556;  830.161
491.572;  162.735;   -5.886;  940.315
492.160;  166.964;   -9.486;  919.081
492.748;  178.919;  -10.976;  884.341
493.336;  201.862;   -8.776; 1019.693
493.924;  226.780;   -5.465;  958.077
494.512;  252.099;   -9.986; 1066.638
495.100;  289.115;  -10.636; 1103.280
495.687;  343.909;  -10.885; 1206.373
496.275;  404.377;   -8.126; 1150.796
496.863;  473.266;  -10.586; 1281.171
497.451;  570.871;  -11.926; 1386.805
498.038;  700.672;  -10.885; 1556.729
498.626;  804.196;   -6.315; 1741.407
499.214;  945.744;   -7.326; 2016.609
499.801; 1141.549;  -11.906; 2220.633
500.389; 1388.092;  -10.466; 2312.494
500.976; 1698.348;   -5.236; 2744.849
501.564; 2126.000;   -8.936; 3148.565
502.151; 2500.488;  -13.176; 3515.999
502.738; 2943.650;  -10.646; 3971.274
503.326; 3320.626;   -9.525; 4403.796
503.913; 3695.984;  -10.856; 5161.749
504.500; 4052.851;  -11.586; 5986.420
505.088; 4459.661;  -10.336; 6381.201
505.675; 4987.246;   -6.355; 6925.547
506.262; 5697.380;   -9.046; 7619.060
506.849; 6378.642;  -10.416; 8733.969
507.436; 6841.227;  -10.305; 9790.121
508.023; 7405.697;   -5.496; 9985.472
508.610; 7641.496;   -7.856;10434.618
509.197; 8246.126;  -10.097;11198.435
509.784; 9611.846;  -10.886;12391.194
510.371;10629.614;   -9.315;13603.713
510.958;11311.580;   -9.936;14426.586
511.545;12056.953;   -9.326;15243.775
512.132;12925.537;  -10.075;15945.876
512.719;13536.247;   -7.796;16340.369
513.305;14437.217;  -10.606;18011.766
513.892;15177.193;  -11.486;19754.971
514.479;16464.973;   -9.126;20967.805
515.066;17807.512;   -6.026;22299.793
515.652;19031.732;   -8.466;22908.660
516.239;20331.688;  -10.886;23798.875
516.825;21383.639;  -11.496;25567.275
517.412;22436.955;   -5.796;28154.959
517.998;23029.809;  -10.506;28344.111
518.585;23032.275;  -10.076;27134.219
519.171;23469.006;   -8.315;27268.576
519.758;24845.045;   -8.596;28964.129
520.344;26515.482;   -8.466;30664.494
520.930;26488.145;  -11.006;32550.605
521.516;27946.908;  -10.495;35422.895
522.103;30187.902;   -5.526;38280.004
522.689;30802.295;   -8.746;37835.117
523.275;30153.053;  -11.376;37288.613
523.861;31156.736;  -11.156;37281.395
524.447;32616.840;   -8.135;37846.949
525.033;32507.596;   -7.896;38321.949
525.619;32595.449;  -12.476;38579.285
526.205;34112.621;   -9.516;40622.875
526.791;36450.570;   -6.926;42258.836
527.377;36693.996;   -8.346;42966.902
527.963;38110.488;   -8.717;42018.949
528.549;36511.367;  -11.016;42476.828
529.135;35242.305;   -8.536;41854.852
529.721;34743.852;   -9.666;41237.711
530.306;34224.184;  -10.066;41259.445
530.892;33942.191;  -11.356;41506.047
531.478;35279.375;   -6.596;43559.613
532.063;38097.625;   -8.836;47695.563
532.649;38431.215;  -10.047;50808.324
533.235;39307.891;   -9.746;51787.500
533.820;40042.570;   -6.566;52145.035
534.406;41367.828;  -10.817;51133.488
534.991;41156.555;   -9.416;49996.805
535.576;39749.461;   -9.036;48882.852
536.162;40221.082;   -6.156;46942.285
536.747;41200.867;  -11.607;45711.746
537.333;44861.926;  -11.787;48510.180
537.918;47560.609;  -12.437;50439.891
538.503;46185.402;   -7.196;50863.711
539.088;43143.668;  -10.556;50906.922
539.673;43072.969;   -8.767;52621.965
540.259;43014.574;  -10.026;52368.094
540.844;40578.086;   -7.416;50879.109
541.429;41787.336;   -9.467;52077.777
542.014;44520.887;   -9.527;52716.695
542.599;43826.082;   -9.946;52363.281
543.184;41719.277;   -7.927;53187.137
543.769;43428.883;   -9.297;54697.605
544.354;42857.652;  -10.127;53913.914
544.938;41698.949;   -9.267;49680.164
545.523;43506.547;   -6.506;47386.277
546.108;45838.148;   -9.787;49151.949
546.693;47857.539;  -11.587;51384.637
547.278;47851.238;  -10.986;51853.254
547.862;45006.660;   -8.206;51173.750
548.447;40743.145;  -10.067;51691.395
549.031;40320.516;   -9.637;52456.703
549.616;45101.906;   -9.926;52714.516
550.201;44265.383;   -6.347;52414.598
550.785;45402.094;   -7.917;52355.059
551.370;44635.992;  -10.867;54589.453
551.954;44651.496;   -9.047;58267.348
552.538;45472.805;   -7.827;59062.176
553.123;43871.441;  -10.287;58115.285
553.707;41845.813;  -12.178;56556.285
554.291;43138.625;   -8.717;56201.668
554.876;45334.723;   -7.457;55335.762
555.460;45786.488;  -10.387;54155.703
556.044;46818.723;   -9.618;53721.484
556.628;45353.824;  -11.567;53731.016
557.212;44167.617;   -8.097;54312.531
557.796;42764.930;  -11.077;53797.773
558.380;42659.609;  -11.108;56145.984
558.964;43063.742;   -9.057;57277.930
559.548;44080.012;   -6.977;56459.641
560.132;42622.180;  -11.457;54434.543
560.716;41515.703;  -11.378;54800.617
561.300;42761.961;   -9.577;57606.945
561.884;43858.445;   -7.127;58972.445
562.467;42341.691;   -7.118;57327.570
563.051;41635.750;  -13.358;54962.434
563.635;42530.699;  -10.178;52594.473
564.219;42948.559;   -7.837;50610.410
564.802;43800.789;  -11.398;49551.180
565.386;43857.129;  -12.788;48370.953
565.969;43291.621;   -9.077;48178.871
566.553;42742.066;   -6.207;49957.305
567.136;43144.410;   -8.568;50369.594
567.720;39431.484;  -11.868;49492.004
568.303;37409.961;   -8.268;50616.352
568.887;37482.156;   -8.698;50727.148
569.470;37719.727;   -6.808;51698.379
570.053;36376.754;  -13.188;52122.078
570.637;34859.195;  -12.037;52536.438
571.220;34729.320;   -8.577;51186.098
571.803;35290.031;   -8.498;51032.762
572.386;37596.637;  -10.498;49609.887
572.969;40049.582;   -9.388;48285.926
573.552;37963.160;   -8.338;47624.285
574.135;36513.633;   -8.518;45498.641
574.718;34273.996;  -13.628;41970.434
575.301;33032.750;  -10.893;41447.137
575.884;31791.506;   -8.158;40923.836
576.467;32722.227;  -10.328;45267.723
577.050;34390.285;  -13.058;48175.543
577.633;34951.656;   -9.458;47729.328
578.216;33687.836;   -8.928;47579.793
578.799;33564.285;   -9.358;47820.996
579.381;33312.410;  -11.388;48115.551
579.964;32402.514;  -11.718;47333.766
580.547;34192.527;   -8.588;46668.969
581.129;35213.539;   -8.859;44466.141
581.712;35755.426;  -10.729;44164.922
582.294;36326.453;  -11.118;46477.855
582.877;36280.324;   -5.218;48244.254
583.459;33810.348;   -8.679;47437.895
584.042;31911.697;  -10.709;46943.219
584.624;32616.527;  -11.669;46792.227
585.206;32069.557;   -8.218;46557.250
585.789;32064.967;  -10.569;45793.773
586.371;34675.727;  -11.859;43836.391
586.953;34745.758;  -10.719;42972.492
587.536;35688.094;   -7.198;42487.211
588.118;35042.238;   -8.720;42086.414
588.700;30824.707;  -10.439;43389.930
589.282;28462.238;   -9.198;43646.039
589.864;27591.643;   -9.199;43438.109
590.446;28768.199;  -11.319;43151.926
591.028;31086.652;  -11.159;42781.867
591.610;32344.021;  -11.779;42839.098
592.192;30930.225;   -7.668;42820.402
592.774;29842.648;  -11.949;40724.277
593.356;28658.363;  -12.129;39874.789
593.937;27615.021;  -10.669;39980.648
594.519;29834.471;   -6.509;42069.633
595.101;32002.828;  -10.849;42976.031
595.683;32059.969;  -11.679;44084.441
596.264;33082.977;   -9.049;43478.797
596.846;32347.332;   -8.849;43803.672
597.427;32157.525;   -9.570;42986.934
598.009;33870.527;  -12.620;42832.219
598.591;34171.141;  -10.039;42580.086
599.172;33194.254;  -10.369;43061.805
599.753;33324.977;   -9.140;41691.469
600.335;34827.258;  -11.430;40692.520
600.916;33158.961;   -9.939;39982.422
601.498;30725.207;   -8.479;40318.617
602.079;29167.744;  -10.920;40670.609
602.660;29202.482;  -11.480;41450.898
603.241;30821.941;  -11.699;41137.738
603.823;29582.047;   -9.579;38868.797
604.404;29343.527;  -10.620;38182.785
604.985;30784.439;  -10.450;38078.047
605.566;30384.320;   -9.129;38056.633
606.147;30567.648;   -7.510;37020.418
606.728;32273.291;  -10.660;37883.359
607.309;30943.977;  -11.740;38748.273
607.890;30348.777;   -9.759;38850.230
608.471;29798.637;   -8.250;37457.918
609.051;28873.979;   -9.240;36066.457
609.632;27817.561;  -12.120;35991.074
610.213;28696.703;   -9.110;37402.641
610.794;29368.830;   -8.030;38383.363
611.374;28853.484;   -8.110;40562.387
611.955;29265.703;  -13.560;38533.727
612.536;30518.299;  -11.400;36951.789
613.116;30561.434;   -8.070;37197.891
613.697;30823.480;  -10.830;38411.125
614.277;29349.055;  -11.641;38673.938
614.858;30209.607;  -13.310;37075.863
615.438;29305.285;   -7.460;35092.906
616.019;26591.271;   -7.601;33666.301
616.599;27330.982;  -12.020;34189.023
617.179;29199.967;  -11.780;36952.047
617.760;30181.631;   -8.570;39582.574
618.340;31231.104;  -11.471;38943.977
618.920;32504.773;  -11.170;37594.156
619.500;32314.795;  -11.071;37866.938
620.080;31457.082;   -7.750;37869.043
620.660;32628.859;  -12.711;36868.617
621.241;34005.281;  -10.211;36352.309
621.821;34190.082;  -10.961;35459.520
622.401;33193.941;   -7.720;35207.414
622.980;32436.783;   -8.981;35980.422
623.560;31045.883;   -9.331;37351.328
624.140;29925.600;   -9.850;34388.582
624.720;24757.420;   -7.451;32368.764
625.300;21268.404;   -9.070;32638.629
625.880;24639.102;  -12.601;34599.035
626.459;28636.822;  -11.751;36831.738
627.039;31716.891;   -9.281;38299.098
627.619;31551.889;   -8.801;38289.574
628.198;29940.355;  -12.071;37220.695
628.778;29099.955;   -9.461;37632.563
629.357;29748.434;   -8.491;38003.012
629.937;29761.262;   -9.721;38402.039
630.516;29261.303;   -9.951;37868.801
631.096;28928.631;  -11.731;35760.410
631.675;31879.330;   -8.572;35225.219
632.254;36855.215;  -11.282;35130.289
632.834;36161.496;  -13.322;35794.570
633.413;34198.012;  -10.301;35788.922
633.992;31296.322;   -8.582;34532.863
634.571;32154.080;   -8.352;33590.113
635.151;35075.000;  -11.912;34943.863
635.730;33415.352;  -10.511;35352.523
636.309;30129.813;   -7.731;35366.605
636.888;27858.342;   -9.952;36165.637
637.467;28771.742;  -11.672;37515.902
638.046;30364.951;   -8.901;39288.695
638.625;33501.023;   -7.912;38279.699
639.204;33209.313;  -10.022;37741.598
639.782;31686.779;  -12.252;38364.551
640.361;27847.422;  -10.041;36740.621
640.940;25017.057;  -11.161;34950.082
641.519;25626.557;   -9.701;34137.398
642.097;28625.809;  -11.271;35654.258
642.676;31485.832;   -8.651;35637.957
643.255;32010.568;   -8.711;36567.074
643.833;31177.463;   -9.581;37809.434
644.412;31271.139;  -13.711;37337.293
644.990;30452.764;  -11.811;37018.531
645.569;30680.973;   -9.411;36518.469
646.147;29579.967;  -10.291;36186.430
646.726;29026.012;  -12.401;36267.688
647.304;30094.221;  -10.411;36647.625
647.882;32053.180;   -9.651;39286.742
648.461;33793.164;   -9.631;39157.703
649.039;31999.646;  -11.881;35412.883
649.617;31297.561;   -9.661;34744.918
650.195;30904.887;   -9.301;35403.098
650.773;29372.789;  -10.511;35053.797
651.352;27013.457;  -11.521;33756.816
651.930;24781.088;  -12.211;31868.773
652.508;23281.885;   -9.171;33121.551
653.086;27283.900;   -9.371;33564.793
653.663;29928.529;  -13.161;34054.668
654.241;28838.533;  -13.031;35693.309
654.819;30568.668;   -9.371;36422.906
655.397;30647.580;  -10.511;38213.484
655.975;30327.896;  -10.371;39507.625
656.553;29969.260;  -10.051;39498.223
657.130;28372.240;  -10.061;40395.480
657.708;27728.701;   -9.561;39242.020
658.286;27754.793;  -11.511;38920.020
658.863;28928.053;  -10.261;40202.898
659.441;31997.705;   -7.531;39677.938
660.018;31451.002;   -9.501;40413.355
660.596;30374.695;  -13.301;39931.414
661.173;32364.346;  -11.211;39604.531
661.750;32416.234;   -9.951;39700.070
662.328;31264.826;   -9.390;39292.809
662.905;30359.445;  -11.330;38235.648
663.482;25987.066;   -9.050;36212.305
664.060;24259.992;   -8.240;35944.945
664.637;27070.006;  -10.050;35170.785
665.214;28919.078;  -11.760;34197.523
665.791;30336.551;  -10.530;34549.520
666.368;29009.105;   -9.690;35118.578
666.945;29839.010;   -9.320;36019.418
667.522;31449.299;  -11.860;36048.438
668.099;31187.982;  -10.770;36243.914
668.676;30018.666;   -6.260;35958.875
669.253;28751.398;   -7.000;37384.730
669.830;29438.799;  -10.190;36779.629
670.407;29087.666;   -9.550;35231.289
670.984;29125.369;   -9.260;35544.270
671.560;29577.230;   -9.280;35466.867
672.137;28684.061;  -11.810;34280.863
672.714;29499.844;  -11.490;34632.863
673.290;29992.883;   -7.740;35135.422
673.867;30232.049;  -10.660;36114.480
674.443;30043.047;  -12.230;36152.859
675.020;28416.783;  -10.450;35327.238
675.596;29557.510;   -9.260;35795.176
676.173;30054.432;  -10.780;35430.355
676.749;29968.223;  -13.690;33549.516
677.326;29954.256;  -11.980;32210.012
677.902;29843.602;   -8.630;32068.871
678.478;29093.572;  -10.730;32583.891
679.054;28591.957;  -10.520;32088.928
679.631;28899.980;  -11.920;30978.848
680.207;30394.533;   -7.490;33160.887
680.783;31949.100;   -9.860;35570.363
681.359;31018.947;  -13.380;36125.184
681.935;30431.404;  -12.480;35240.922
682.511;29602.691;   -7.900;34429.961
683.087;29741.637;   -7.710;34463.680
683.663;29353.037;  -11.480;34648.898
684.239;28067.016;  -14.090;34546.457
684.815;27797.615;   -7.560;35586.375
685.390;28233.404;   -9.910;35821.895
685.966;28679.133;  -11.159;35085.871
686.542;31143.947;  -11.169;34198.230
687.118;33269.395;   -5.959;32847.707
687.693;33350.301;  -10.329;32794.027
688.269;32995.090;  -12.059;33072.367
688.844;31123.313;  -10.909;33141.664
689.420;28926.691;   -8.019;33965.742
689.995;26647.311;   -8.399;34655.523
690.571;25429.668;  -10.949;33576.742
691.146;25980.404;   -9.619;32657.219
691.722;25457.070;   -8.999;32526.979
692.297;25452.764;  -11.589;33014.617
692.872;27295.412;  -11.739;34012.254
693.448;26786.262;  -11.059;34237.434
694.023;26005.447;  -10.139;34142.672
694.598;28020.080;   -9.029;34132.031
695.173;28242.697;  -13.319;34205.250
695.748;27585.092;  -10.169;32882.488
696.323;27678.445;   -8.339;32864.906
696.898;27942.000;   -8.169;33170.004
697.473;27740.006;  -12.309;32432.984
698.048;27125.803;  -10.989;31649.303
698.623;27112.674;   -9.329;30778.141
699.198;29075.561;   -9.849;31140.119
699.773;29937.631;  -12.329;31764.299
700.348;28324.924;  -10.389;31780.816
700.922;28376.309;   -9.269;32046.375
701.497;29101.646;   -9.329;32603.574
702.072;29070.914;  -10.789;34799.871
702.646;27750.479;  -10.839;35793.172
703.221;25950.693;   -9.099;35201.590
703.795;28000.959;  -10.939;34764.527
704.370;28354.170;  -12.859;34307.367
704.944;28885.934;  -11.559;33509.887
705.519;29796.373;   -7.939;31388.584
706.093;31319.455;  -10.499;31340.104
706.668;31593.078;  -11.289;32630.281
707.242;30462.984;  -11.509;32728.779
707.816;28860.221;   -9.639;32947.238
708.390;27351.654;  -11.429;33277.855
708.965;27935.006;  -11.869;33834.336
709.539;28210.467;  -11.689;33709.273
710.113;28743.607;  -10.478;33044.313
710.687;28012.086;  -10.228;31953.992
711.261;26269.008;  -13.698;30505.949
711.835;26189.225;  -13.378;30262.369
712.409;27082.475;   -9.698;31254.447
712.983;28951.645;  -11.898;32754.986
713.557;29799.754;  -15.138;34018.824
714.131;29328.691;  -14.098;34579.625
714.704;28299.137;   -9.958;33890.262
715.278;26113.402;  -10.028;33531.102
715.852;25200.084;  -11.148;33601.660
716.425;26132.010;   -9.068;33515.117
716.999;26873.125;  -10.038;33185.555
717.573;27844.523;   -9.798;33905.996
718.146;28855.232;  -12.378;35199.293
718.720;28751.848;  -11.918;35060.551
719.293;28242.107;   -8.088;34973.230
719.867;31175.139;  -10.888;36394.449
720.440;30747.607;  -11.938;36663.008
721.013;29042.832;  -12.818;35102.426
721.587;27653.346;  -10.298;33985.266
722.160;26764.416;  -10.048;33524.965
722.733;25768.557;  -12.108;32987.043
723.306;26073.924;  -10.818;33066.301
723.880;28425.705;   -8.908;33399.500
724.453;30189.115;   -9.878;33468.297
725.026;29112.641;  -11.188;33816.637
725.599;26594.139;  -11.678;32797.996
726.172;27257.967;   -9.618;33187.434
726.745;28403.070;   -8.258;35136.613
727.318;29710.570;  -12.978;35751.730
727.891;30013.912;  -12.148;35890.430
728.463;29672.549;   -8.968;34822.090
729.036;28736.676;  -10.188;32895.086
729.609;29107.906;  -11.788;31823.225
730.182;26031.990;  -11.788;31445.283
730.754;23559.010;  -10.268;32373.223
731.327;23666.275;   -9.998;33676.820
731.900;24073.918;  -12.228;33417.000
732.472;25452.691;  -13.848;31978.498
733.045;27282.459;   -8.698;30368.777
733.617;27281.170;  -10.607;30574.215
734.190;26742.031;  -11.507;31280.975
734.762;23776.938;  -13.647;31674.412
735.334;22195.488;   -9.767;31247.291
735.907;22945.645;   -9.897;29876.211
736.479;23002.424;  -11.637;29808.488
737.051;22684.705;   -9.567;30233.547
737.623;23656.697;   -8.187;31469.086
738.195;24556.633;  -11.187;31784.225
738.768;26651.578;  -12.337;32120.523
739.340;26684.100;  -12.227;32094.342
739.912;25315.996;  -11.057;31312.680
740.484;23875.100;  -10.207;31946.238
741.056;22891.582;  -10.047;32984.059
741.628;24635.176;  -13.627;33897.715
742.199;26834.529;   -7.177;33213.016
742.771;25200.320;  -10.797;31369.113
743.343;22891.299;  -11.997;31865.473
743.915;21908.047;  -12.867;32388.631
744.487;22010.025;   -7.617;31079.568
745.058;22178.152;   -9.557;30570.107
745.630;22630.918;   -9.877;29970.127
746.201;23414.201;  -14.177;29186.766
746.773;23836.035;   -9.237;28805.723
747.344;23714.734;   -9.847;29591.223
747.916;22353.344;  -11.657;31412.201
748.487;22650.199;  -10.587;32194.898
749.059;23817.422;   -8.707;32533.719
749.630;24425.410;  -10.537;32158.518
750.201;23471.227;  -11.687;30855.395
750.773;21754.479;  -11.647;28622.555
751.344;21839.990;   -7.147;28405.732
751.915;23044.197;   -9.757;28461.551
752.486;22699.295;  -12.427;27842.850
753.057;20436.061;  -12.227;27845.008
753.628;19320.326;  -10.417;27728.107
754.199;20470.521;  -11.767;27381.086
754.770;21495.422;  -11.187;25882.203
755.341;21506.971;  -10.507;25886.184
755.912;21446.875;   -9.387;26050.861
756.483;20942.484;  -10.647;26798.779
757.054;19117.514;  -11.837;27048.238
757.625;17869.008;  -12.716;26294.838
758.195;17702.484;   -9.666;26142.076
758.766;17451.676;   -8.656;26392.234
759.337;18247.936;  -12.856;26334.594
759.907;20001.900;  -13.366;27579.652
760.478;20886.709;   -8.576;28352.770
761.048;20198.322;  -10.526;27325.088
761.619;19325.646;  -11.116;26460.428
762.189;19392.246;  -12.136;26029.826
762.760;20573.385;   -9.456;26430.145
763.330;21562.773;   -7.136;26670.902
763.900;20879.764;  -11.786;26603.021
764.471;18301.971;  -11.546;25542.740
765.041;17063.930;   -8.096;24358.459
765.611;17179.691;   -8.876;23991.297
766.181;17604.152;  -12.196;24470.236
766.751;18550.234;  -11.636;24845.975
767.321;18256.119;  -10.156;24533.633
767.891;16278.085;  -11.766;24916.492
768.461;15798.571;  -14.936;24776.771
769.031;16422.320;  -12.356;24757.988
769.601;17927.287;   -7.526;24181.088
770.171;17656.363;  -10.766;23670.387
770.741;16957.398;  -13.176;22960.045
771.311;17191.725;  -10.616;22917.523
771.880;17476.100;   -9.576;23562.941
772.450;17167.600;  -10.336;24216.500
773.020;17251.309;  -13.516;24140.398
773.589;16588.572;  -13.466;24414.857
774.159;15939.758;   -8.686;23858.717
774.729;15564.110;   -9.476;22942.135
775.298;15070.639;  -13.666;22324.033
775.867;14705.965;  -11.716;21140.313
776.437;14760.802;   -9.906;20838.092
777.006;14538.631;  -12.166;20599.510
777.576;14432.879;  -12.356;20508.809
778.145;14595.740;  -11.646;20732.947
778.714;14472.990;   -8.226;21062.465
779.283;13744.204;   -9.556;20949.664
779.853;13272.018;  -14.116;20508.623
780.422;13770.354;  -11.506;20649.082
780.991;13353.990;   -9.556;21527.520
781.560;12189.677;   -9.095;22632.658
782.129;12017.666;  -12.135;23048.277
782.698;12061.247;  -10.865;23438.555
783.267;11644.596;   -9.335;23267.734
783.836;11608.774;  -11.045;22415.133
784.404;12644.877;  -13.865;20443.152
784.973;13194.207;  -13.095;19699.150
785.542;13108.778;  -11.575;19763.828
786.111;12930.945;   -9.705;20341.408
786.679;12379.521;  -12.105;20207.967
787.248;12157.701;  -12.455;19516.465
787.817;11986.302;  -11.535;18900.363
788.385;11544.844;   -9.765;17879.121
788.954;10945.273;  -14.005;17658.301
789.522;10454.987;  -11.955;17788.879
790.090;11033.590;  -10.135;18118.277
790.659;11427.102;  -10.975;18338.736
791.227;10950.599;  -13.375;18508.615
791.795;11382.726;  -12.375;17898.254
792.364;11720.224;  -10.725;17295.133
792.932;12001.180;   -9.715;16822.051
793.500;12169.442;  -12.675;17040.148
794.068;12419.436;  -13.495;17179.787
794.636;12522.869;  -10.885;16664.246
795.204;11980.043;  -11.045;16524.545
795.772;12041.877;  -13.175;17274.564
796.340;11542.066;  -12.445;17891.002
796.908;11352.138;   -9.735;17648.561
797.476;11215.255;   -9.815;17064.080
798.044;10762.639;  -13.985;16672.777
798.612; 9981.420;  -13.115;17023.996
799.180; 9634.042;  -10.185;16561.615
799.747; 9573.611;   -9.055;15962.773
800.315; 9334.008;  -12.385;15296.992
800.883; 8989.885;  -15.035;14801.771
801.450; 8969.035;  -10.365;14534.430
802.018; 9016.271;   -9.855;14173.248
802.585; 9156.869;  -11.905;14029.547
803.153; 9212.884;  -11.585;13836.846
803.720; 9012.243;   -9.095;13567.324
804.287; 8520.480;   -9.135;13360.622
804.855; 8109.328;  -11.604;13681.981
805.422; 8018.112;  -11.794;13536.560
805.989; 8014.663;  -10.734;13355.958
806.556; 8196.147;  -10.444;13747.896
807.124; 8453.515;  -12.764;13987.376
807.691; 8439.944;  -12.964;14038.674
808.258; 8220.401;  -11.134;14120.152
808.825; 7878.568;   -9.854;13860.111
809.392; 7941.248;  -10.504;13268.790
809.959; 7472.409;  -13.054;12680.389
810.526; 7050.310;   -8.294;12427.308
811.093; 7126.249;   -8.394;12030.105
811.659; 7747.851;  -12.304;11653.664
812.226; 8238.990;  -13.944;11637.183
812.793; 7919.885;  -10.484;11611.521
813.360; 7301.854;  -10.144;11885.181
813.926; 7019.446;  -11.684;12770.539
814.493; 6800.988;  -13.644;12677.638
815.060; 6389.656;   -9.724;11974.336
815.626; 6393.861;   -9.854;11594.715
816.193; 6790.120;  -13.254;11579.474
816.759; 6827.458;  -13.204;11666.972
817.325; 6949.497;   -9.434;11325.530
817.892; 7376.118;  -10.134;11105.369
818.458; 7840.839;  -13.474;10843.928
819.024; 7433.760;  -11.854;10714.406
819.591; 7106.476;  -10.244;10469.165
820.157; 6886.898;  -10.704;10235.523
820.723; 6390.302;  -12.324;10847.563
821.289; 6088.756;   -9.444;11040.980
821.855; 5997.323;   -8.374;10357.100
822.421; 5958.637;  -10.234; 9978.918
822.987; 5950.864;  -13.294; 9754.177
823.553; 5667.996;  -10.884;10065.755
824.119; 5521.299;   -8.884;10036.294
824.685; 5607.857;   -6.784;10029.192
825.251; 5687.680;  -12.004;10199.230
825.816; 5650.608;  -11.474; 9820.189
826.382; 5439.089;   -9.174; 9297.248
826.948; 5681.945;   -9.214; 9381.347
827.513; 6079.429;  -10.774; 9450.726
828.079; 5869.944;  -11.924; 9472.444
828.645; 5281.067;  -10.543; 9292.643
829.210; 5216.492;  -10.533; 9065.341
829.776; 5205.426;  -10.753; 9132.620
830.341; 5090.671;  -10.173; 9092.878
830.906; 5301.889;  -10.743; 9078.557
831.472; 5642.764;  -11.113; 8534.535
832.037; 5343.331;  -10.603; 8677.874
832.602; 4759.453;  -13.323; 8628.692
833.167; 4503.920;  -10.823; 8879.031
833.733; 4445.394;  -10.113; 9189.790
834.298; 4586.582;  -13.583; 9052.608
834.863; 4659.476;  -12.703; 8895.087
835.428; 4642.963;  -10.523; 8824.266
835.993; 4507.617;   -6.963; 8845.385
836.558; 4350.587;  -10.763; 8888.563
837.123; 4496.775;   -9.903; 8966.582
837.688; 4745.849;   -9.913; 8617.860
838.253; 4974.806;  -10.283; 8590.699
838.817; 5169.440;  -12.963; 8443.797
839.382; 5075.586;  -14.243; 8799.356
839.947; 4745.593;  -10.733; 8810.595
840.511; 4423.273;   -9.383; 8796.394
841.076; 4021.704;  -12.563; 8347.231
841.641; 4077.221;  -12.953; 8224.330
842.205; 4163.813;   -7.043; 8223.349
842.770; 4272.435;   -8.163; 8622.107
843.334; 4431.061;  -12.503; 8410.386
843.898; 4375.252;  -11.693; 8337.465
844.463; 4408.548;  -10.203; 8506.283
845.027; 4196.699;   -9.533; 8280.962
845.591; 4030.140;  -13.443; 8231.141
846.156; 3994.173;  -13.143; 7969.179
846.720; 3864.059;   -9.433; 7768.278
847.284; 3740.666;  -11.033; 7630.957
847.848; 3606.214;  -10.403; 7472.395
848.412; 3488.599;  -11.553; 7437.394
848.976; 3514.342;   -8.393; 7674.592
849.540; 3454.895;   -8.713; 7836.011
850.104; 3595.012;  -12.463; 7913.669
850.668; 3953.305;  -12.973; 7694.508
851.232; 4030.013;  -10.793; 7756.887
851.796; 3854.273;  -10.662; 7926.545
852.359; 3556.012;  -13.082; 7827.844
852.923; 3390.704;  -12.192; 7641.163
853.487; 3201.702;  -11.912; 7342.501
854.050; 3148.899;  -10.892; 7042.820
854.614; 3273.374;  -13.992; 7151.338
855.177; 3392.008;  -11.732; 7105.077
855.741; 3422.883;   -8.962; 6989.675
856.304; 3312.120;   -9.442; 6596.634
856.868; 3265.660;  -14.192; 6356.272
857.431; 3364.180;  -12.702; 6468.571
857.995; 3485.780;   -9.942; 6373.210
858.558; 3486.596;   -9.112; 6324.448
859.121; 3211.291;  -12.932; 6408.327
859.684; 3092.205;  -13.442; 6347.886
860.247; 3189.367;  -10.632; 6321.264
860.810; 3170.314;  -11.272; 6301.903
861.374; 2907.591;   -9.832; 6607.881
861.937; 2653.779;  -11.762; 6408.200
862.500; 2656.192;   -9.722; 6572.639
863.062; 2839.889;  -10.512; 6387.297
863.625; 2996.648;  -11.232; 6190.836
864.188; 3145.222;  -14.112; 5807.254
864.751; 3205.051;  -11.302; 5682.413
865.314; 3093.944;  -10.112; 5547.492
865.876; 2895.852;  -12.182; 5500.150
866.439; 2894.406;  -10.722; 5415.909
867.002; 2838.895;   -9.252; 5501.567
867.564; 2630.050;   -9.572; 5413.946
868.127; 2399.910;  -13.142; 5160.325
868.689; 2292.157;  -12.902; 5133.183
869.252; 2192.122;   -9.732; 5252.382
869.814; 2095.254;   -9.432; 5297.141
870.377; 2113.756;  -11.552; 5390.919
870.939; 2188.360;   -9.052; 5599.898
871.501; 2253.513;  -10.982; 5248.336
872.063; 2251.971;  -12.292; 4854.235
872.626; 2212.394;  -14.912; 4817.074
873.188; 2242.019;  -13.112; 4987.732
873.750; 2208.860;  -13.442; 4868.651
874.312; 2114.157;   -9.402; 4779.330
874.874; 2022.618;  -11.062; 4866.348
875.436; 1935.077;  -13.931; 4718.887
875.998; 1925.764;   -9.561; 4660.005
876.560; 1948.006;  -11.321; 4462.964
877.122; 1887.881;  -12.221; 4145.042
877.683; 1803.866;  -12.191; 4056.481
878.245; 1740.122;  -12.101; 3950.740
878.807; 1783.034;   -8.971; 4058.958
879.369; 1807.209;  -12.071; 3954.677
879.930; 1708.925;  -14.621; 3941.495
880.492; 1646.348;  -10.311; 4067.014
881.053; 1601.180;  -10.901; 3859.633
881.615; 1491.465;  -14.411; 3776.071
882.176; 1396.704;  -13.761; 3734.750
882.738; 1352.136;   -9.181; 3678.489
883.299; 1329.531;  -11.791; 3405.407
883.860; 1338.120;  -13.121; 3351.106
884.422; 1338.968;  -11.211; 3394.044
884.983; 1288.842;  -10.091; 3166.443
885.544; 1206.666;   -8.461; 3189.802
886.105; 1125.154;  -12.361; 3160.360
886.666; 1058.199;  -14.141; 3093.059
887.227; 1001.096;  -11.361; 2941.957
887.788;  937.823;  -11.401; 2974.836
888.349;  875.819;  -13.791; 2721.214
888.910;  877.892;  -13.191; 2696.493
889.471;  885.876;   -9.881; 2560.172
890.032;  865.689;   -9.881; 2558.190
890.593;  842.361;  -10.371; 2567.669
891.153;  816.863;  -13.301; 2460.307
891.714;  765.438;  -11.431; 2372.046
892.275;  723.117;  -11.291; 2309.505
892.835;  680.493;  -11.471; 2382.543
893.396;  625.590;  -11.541; 2295.502
893.956;  568.872;  -11.181; 2162.420
894.517;  531.555;  -11.741; 2125.439
895.077;  527.722;  -11.671; 2086.978
895.638;  529.332;  -11.311; 2126.316
896.198;  499.721;   -9.831; 1838.275
896.758;  455.212;   -8.421; 1892.813
897.319;  423.932;  -12.351; 1792.232
897.879;  407.600;  -13.511; 1762.751
898.439;  380.882;  -12.001; 1661.149
898.999;  357.174;  -10.180; 1781.468
899.559;  347.310;  -12.030; 1703.347
900.119;  342.264;  -15.710; 1537.525
900.679;  338.297;   -8.900; 1638.384
901.239;  323.106;   -8.340; 1527.902
901.799;  312.668;  -13.910; 1456.441
902.359;  307.276;  -13.460; 1357.140
902.919;  300.880;  -11.490; 1331.118
903.479;  287.086;  -12.110; 1317.257
904.038;  265.401;  -11.720; 1262.595
904.598;  250.069;  -13.610; 1152.034
905.158;  246.256;  -11.040; 1240.893
905.717;  238.750;  -10.900; 1233.691
906.277;  227.509;  -15.080; 1217.330
906.836;  216.910;  -13.380; 1222.408
907.396;  209.247;  -10.780; 1193.047
907.955;  201.885;   -8.500; 1182.526
908.515;  195.388;  -12.760; 1099.364
909.074;  189.151;  -11.900; 1092.863
909.633;  184.246;   -8.950; 1069.121
910.192;  178.812;   -8.770; 1196.460
910.752;  173.402;  -12.390; 1029.960
911.311;  170.011;  -13.680; 1009.780
911.870;  166.631;  -12.370;  971.460
912.429;  167.275;  -10.900; 1094.080
912.988;  166.809;  -11.690; 1081.060
913.547;  162.096;  -13.240;  940.380
914.106;  157.469;  -11.990;  999.420
914.665;  154.016;   -9.990;  984.020
915.224;  153.219;  -12.880; 1035.760
915.782;  153.348;  -12.350;  922.560
916.341;  154.084;   -9.110; 1049.840
916.900;  147.736;   -9.270;  925.260
917.458;  146.261;  -13.240;  884.220
918.017;  146.925;  -13.550;  942.600
918.576;  146.552;  -12.320;  904.440
919.134;  144.115;  -11.490;  837.980
919.693;  141.514;  -13.670;  893.060
920.251;  140.245;  -15.470;  876.500
920.809;  139.604;  -11.290;  839.580
921.368;  138.655;  -10.210;  885.360
921.926;  138.052;  -12.140;  842.940
922.484;  136.351;  -13.080;  903.360
923.042;  136.792;  -11.720;  880.340
923.601;  138.575;   -7.480;  998.680
924.159;  137.532;  -11.570;  935.560
924.717;  133.954;  -13.840;  841.080
925.275;  134.145;  -10.640;  903.240
925.833;  132.852;  -11.540;  779.320
926.391;  134.339;  -12.960;  938.380
926.949;  132.690;  -14.130;  857.680
927.506;  132.674;  -11.750;  903.500
928.064;  133.140;  -10.250;  877.580
928.622;  132.529;  -13.030;  880.100
929.180;  131.778;  -13.400;  814.180
929.737;  133.474;  -10.700;  808.540
930.295;  137.366;  -10.070;  928.480
930.853;  138.653;  -11.960;  849.100
931.410;  139.779;  -13.120;  821.120
931.968;  139.728;  -10.770;  940.660
932.525;  138.332;  -10.680;  909.380
933.082;  139.506;  -13.130;  811.440
933.640;  140.314;  -13.210;  925.900
934.197;  138.046;  -11.060;  886.360
934.754;  139.472;   -9.580;  897.780
935.312;  142.120;  -14.000;  863.340
935.869;  147.158;  -10.710; 1012.980
936.426;  147.722;   -9.860;  872.800
936.983;  148.435;   -9.710;  889.020
937.540;  147.099;  -13.990;  838.280
938.097;  145.875;  -14.040;  940.120
938.654;  146.678;  -10.310;  898.860
939.211;  149.110;  -10.560;  952.480
939.768;  152.185;  -13.900;  915.420
940.324;  156.518;  -14.760;  904.200
940.881;  157.118;  -10.370;  878.500
941.438;  158.113;   -8.260; 1021.200
941.995;  154.135;  -12.540;  992.560
942.551;  150.694;  -14.670;  875.620
943.108;  153.280;  -10.450;  937.920
943.664;  154.980;  -10.750;  869.340
944.221;  157.783;  -11.550; 1088.140
944.777;  155.100;  -14.770;  869.680
945.334;  157.580;  -12.820;  884.840
945.890;  158.011;  -10.130;  946.480
946.446;  158.775;  -13.470;  947.020
947.003;  160.495;  -12.120;  964.940
947.559;  162.911;   -9.980; 1063.040
948.115;  161.931;   -9.080; 1026.540
948.671;  159.765;  -10.830;  967.300
949.227;  158.290;  -12.440;  859.560
949.783;  155.320;  -12.910;  858.900
950.339;  156.980;  -10.270;  991.000
950.895;  157.190;  -13.630; 1023.840
951.451;  156.990;  -15.100;  925.280
952.007;  157.895;  -11.330;  998.540
952.563;  158.287;  -10.580;  937.780
953.118;  156.617;  -13.440;  904.940
953.674;  156.187;  -12.710;  935.780
954.230;  156.928;  -10.350;  949.640
954.785;  153.641;   -9.190;  936.640
955.341;  151.500;  -11.200;  998.160
955.897;  149.452;  -16.560;  834.660
956.452;  151.780;  -12.570;  953.840
957.008;  151.061;   -7.970; 1083.640
957.563;  147.569;  -11.940; 1009.540
958.118;  143.763;  -13.450;  877.700
958.674;  144.514;  -12.030;  946.780
959.229;  145.368;   -9.410; 1013.980
959.784;  143.063;  -12.000;  832.400
960.339;  142.687;  -14.780; 1001.280
960.894;  139.455;   -9.860;  963.760
961.449;  135.328;   -9.970;  859.960
962.004;  134.606;  -10.900; 1212.840
962.559;  130.086;  -13.150;  860.140
963.114;  127.553;  -13.740;  742.480
963.669;  126.971;   -9.820;  915.500
964.224;  126.032;  -13.890;  874.340
964.779;  124.754;  -12.600;  828.420
965.334;  126.454;  -10.950; 1017.860
965.888;  125.409;  -11.170;  875.360
966.443;  128.692;  -12.540;  972.380
966.998;  128.633;  -15.780;  819.460
967.552;  127.620;   -9.760;  908.380
968.107;  123.121;   -9.060;  868.300
968.661;  123.610;  -11.950;  922.440
969.216;  125.116;  -12.800;  856.280
969.770;  126.112;  -11.210;  917.200
970.324;  126.534;  -11.610;  923.140
970.879;  124.766;  -11.370;  947.180
971.433;  120.358;  -12.540;  952.720
971.987;  112.279;  -11.320;  895.340
972.541;  102.932;  -10.720;  917.100
973.095;   94.766;   -9.680; 1009.460
973.649;   86.000;  -11.440;  809.480
974.203;   82.138;  -11.210;  829.040
974.757;   81.054;  -10.240;  855.220
975.311;   84.814;  -13.720;  872.600
975.865;   85.926;  -13.770;  881.820
976.419;   87.439;  -11.690;  857.400
976.973;   88.092;   -9.510;  849.620
977.526;   91.290;  -12.620;  949.920
978.080;   90.908;  -12.010;  796.780
978.634;   93.051;  -10.170;  921.320
979.187;   91.256;   -9.020;  905.400
979.741;   88.706;   -9.820; 1018.380
980.294;   85.650;  -14.870;  789.160
980.848;   84.086;  -12.380;  717.220
981.401;   85.923;  -10.350;  816.540
981.955;   88.378;  -13.720;  844.300
982.508;   87.427;  -11.490;  746.340
983.061;   88.651;  -10.000;  915.260
983.615;   85.309;  -11.480;  798.800
984.168;   83.008;  -13.220;  770.080
984.721;   81.905;  -13.960;  880.760
985.274;   82.149;  -10.870;  867.500
985.827;   80.314;   -9.790;  834.220
986.380;   77.735;  -13.120;  721.340
986.933;   77.425;  -12.450;  864.800
987.486;   76.491;  -10.210;  861.920
988.039;   75.371;   -8.430;  863.100
988.591;   74.470;  -10.520;  893.260
989.144;   72.225;  -14.860;  737.260
989.697;   70.651;  -13.080;  758.740
990.250;   70.684;  -10.150;  858.100
990.802;   70.184;  -13.430;  755.860
991.355;   71.885;  -12.750;  974.880
991.907;   69.400;  -12.040;  864.320
992.460;   66.916;  -11.330;  753.760
993.012;   66.229;  -13.610;  749.540
993.565;   65.264;  -13.460;  711.360
994.117;   67.355;   -9.360;  950.780
994.669;   63.568;  -11.300;  701.320
995.221;   61.617;  -13.540;  791.920
995.774;   59.846;  -13.430;  787.580
996.326;   59.126;  -12.520;  740.220
996.878;   59.469;  -10.950;  838.420
997.430;   55.799;  -14.300;  699.860
997.982;   55.967;  -13.760;  750.140
998.534;   54.989;  -11.530;  739.060
999.086;   51.485;  -10.310;  738.220
999.638;   49.060;  -12.530;  661.380
1000.190;   48.881;  -11.840;  699.320
1000.741;   48.870;  -10.260;  742.700
1001.293;   48.353;   -8.860;  686.020
1001.845;   47.949;  -13.700;  676.640
1002.396;   47.959;  -12.100;  743.400
1002.948;   48.198;  -12.760;  737.400
1003.500;   46.899;  -10.380;  723.780
1004.051;   47.372;  -11.900;  907.580
1004.603;   45.147;  -12.250;  791.820
1005.154;   42.431;  -13.210;  608.980
1005.705;   41.282;  -10.950;  723.960
1006.257;   40.526;  -13.880;  707.220
1006.808;   40.562;  -12.840;  685.460
1007.359;   40.308;  -10.570;  763.240
1007.910;   38.390;   -9.620;  646.640
1008.461;   38.671;  -13.630;  732.940
1009.013;   37.859;  -17.200;  588.340
1009.564;   39.834;  -10.200;  793.520
1010.115;   36.508;  -12.570;  597.040
1010.665;   36.905;  -15.150;  602.160
1011.216;   36.005;  -14.480;  667.920
1011.767;   35.810;  -11.340;  697.920
1012.318;   36.201;   -9.780;  736.980
1012.869;   35.160;  -12.380;  679.000
1013.419;   34.310;  -15.560;  603.120
1013.970;   35.445;  -11.010;  666.640
1014.521;   33.888;  -11.610;  620.620
1015.071;   34.516;  -13.450;  670.380
1015.622;   33.763;  -13.870;  635.460
1016.172;   33.914;  -11.610;  596.820
1016.723;   32.910;  -12.120;  614.380
1017.273;   32.383;  -13.620;  604.160
1017.823;   33.839;  -14.140;  650.340
1018.374;   31.934;  -12.800;  611.760
1018.924;   32.742;  -12.340;  716.880
1019.474;   32.693;  -11.410;  718.880
1020.024;   32.151;  -14.770;  657.580
1020.574;   32.866;   -9.780;  726.160
1021.124;   32.384;   -8.560;  673.580
1021.674;   30.531;  -15.190;  559.120
1022.224;   31.518;  -13.530;  708.940
1022.774;   31.775;  -13.280;  668.820
1023.324;   31.884;  -10.690;  753.520
1023.874;   32.365;  -10.240;  875.760
1024.423;   30.547;  -12.540;  613.700
1024.973;   30.890;  -10.010;  610.760
1025.523;   29.047;  -10.550;  620.960
1026.072;   28.957;  -13.560;  606.420
1026.622;   29.311;  -15.120;  675.740
1027.172;   30.217;  -11.260;  715.660
1027.721;   29.119;  -11.410;  601.220
1028.270;   28.729;  -13.530;  663.400
1028.820;   28.753;  -13.680;  638.080
1029.369;   28.439;  -13.520;  612.700
1029.918;   28.742;  -10.980;  649.840
1030.468;   28.215;  -13.530;  564.780
1031.017;   27.896;  -13.170;  634.800
1031.566;   27.599;  -12.200;  608.900
1032.115;   27.480;   -9.960;  694.500
1032.664;   25.799;  -13.210;  596.480
1033.213;   27.074;  -12.500;  735.420
1033.762;   27.559;  -11.910;  635.620
1034.311;   26.745;   -9.640;  677.220
1034.860;   26.776;  -13.310;  691.000
1035.408;   27.318;  -11.830;  722.720
1035.957;   27.912;  -12.000;  719.540
1036.506;   24.669;  -11.690;  530.800
1037.055;   26.803;  -10.990;  844.320
1037.603;   25.555;  -15.120;  664.000
1038.152;   24.673;  -12.450;  534.760
1038.700;   24.328;  -10.560;  585.740
1039.249;   24.647;  -11.080;  681.220
1039.797;   24.361;  -12.540;  633.360
1040.345;   25.123;  -11.920;  705.420
1040.894;   24.327;  -11.410;  625.300
1041.442;   24.047;  -14.320;  632.200
1041.990;   23.022;  -16.240;  559.160
1042.538;   23.013;  -11.680;  536.180
1043.087;   22.754;  -10.760;  570.860
1043.635;   24.054;  -11.850;  670.500
1044.183;   24.102;  -15.480;  586.400
1044.731;   22.738;  -11.770;  576.000
1045.279;   22.270;  -13.090;  674.920
1045.827;   24.254;  -12.440;  892.400
1046.374;   22.161;  -13.840;  515.420
1046.922;   21.765;  -13.220;  590.580
1047.470;   23.650;  -10.230;  691.300
1048.018;   22.574;  -14.590;  647.960
1048.565;   23.362;  -12.050;  708.600
1049.113;   21.146;  -11.650;  557.000
1049.660;   21.770;  -10.510;  629.660
1050.208;   21.163;  -13.310;  675.640
1050.755;   20.922;  -15.900;  606.580
1051.303;   21.803;  -11.430;  686.820
1051.850;   20.569;   -8.480;  635.120
1052.397;   19.202;  -15.010;  473.960
1052.945;   20.079;  -13.960;  617.760
1053.492;   21.731;  -13.150;  741.840
1054.039;   21.772;   -9.630;  720.180
1054.586;   19.455;  -13.680;  557.240
1055.133;   20.856;  -14.570;  693.140
1055.680;   20.739;  -13.820;  646.620
1056.227;   19.404;  -11.730;  542.780
1056.774;   21.003;  -12.480;  794.980
1057.321;   18.967;  -13.930;  523.260
1057.868;   19.599;  -11.690;  651.320
1058.415;   18.898;   -9.520;  651.980
1058.961;   19.644;  -13.160;  678.940
1059.508;   19.127;  -12.920;  643.820
1060.055;   19.502;  -11.920;  581.780
1060.601;   19.644;  -11.500;  624.300
1061.148;   19.369;  -14.330;  616.820
1061.694;   17.805;  -16.870;  592.580
1062.241;   18.688;  -10.330;  596.320
1062.787;   17.997;  -10.620;  663.140
1063.334;   19.624;  -10.110;  808.560
1063.880;   18.009;  -13.400;  668.360
1064.426;   18.307;  -10.680;  706.820
1064.972;   17.323;   -9.920;  601.340
1065.518;   16.311;  -10.980;  566.640
1066.065;   17.239;  -14.890;  624.460
1066.611;   17.411;  -12.870;  598.800
1067.157;   18.060;  -12.950;  641.860
1067.703;   17.426;  -13.540;  668.480
1068.249;   16.822;  -13.540;  605.220
1068.794;   17.134;  -12.600;  626.880
1069.340;   16.425;  -10.620;  578.960
1069.886;   16.376;  -12.830;  590.700
1070.432;   15.512;  -14.870;  541.720
1070.977;   16.316;  -11.980;  601.080
1071.523;   16.111;   -8.200;  573.060
1072.068;   15.657;  -12.330;  582.000
1072.614;   15.461;  -16.370;  527.760
1073.160;   16.715;  -11.100;  687.040
1073.705;   15.038;  -10.480;  572.520
1074.250;   14.711;  -14.520;  559.900
1074.796;   16.555;  -11.460;  655.160
1075.341;   16.156;  -11.950;  664.100
1075.886;   14.844;  -11.460;  594.240
1076.431;   14.853;  -13.770;  649.880
1076.976;   15.040;  -12.680;  639.220
1077.521;   15.169;  -13.170;  583.080
1078.067;   13.975;  -10.860;  579.400
1078.612;   14.215;  -13.920;  661.620
1079.156;   13.868;  -13.880;  601.540
1079.701;   14.714;  -13.120;  693.260
1080.246;   15.052;   -9.940;  696.300
1080.791;   14.113;  -14.740;  625.020
1081.336;   14.592;  -13.750;  659.320
1081.880;   14.469;  -13.400;  649.680
1082.425;   13.267;  -12.220;  573.480
1082.970;   14.324;  -11.610;  717.040
1083.514;   13.080;  -13.580;  597.000
1084.059;   12.532;  -12.810;  586.720
1084.603;   12.006;  -12.320;  565.840
1085.147;   12.595;  -13.190;  645.220
1085.692;   13.808;  -12.480;  716.800
1086.236;   12.371;  -13.020;  503.140
1086.780;   13.083;   -9.190;  751.440
1087.325;   12.931;  -12.480;  654.620
1087.869;   12.432;  -12.450;  610.700
1088.413;   13.727;  -12.240;  705.040
1088.957;   11.307;   -9.020;  543.400
1089.501;   12.768;  -10.320;  766.640
1090.045;   12.253;  -12.720;  726.480
1090.589;   11.274;  -13.690;  569.920
1091.133;   12.190;  -10.020;  673.340
1091.676;   11.466;  -12.330;  591.940
1092.220;   11.450;  -14.970;  600.920
1092.764;   12.498;  -12.430;  706.960
1093.307;   11.765;   -9.800;  673.780
1093.851;    9.776;  -14.970;  556.540
1094.395;   11.805;  -15.310;  683.140
1094.938;   11.187;  -10.370;  632.520
1095.482;   10.722;  -11.050;  559.800
1096.025;   11.636;  -11.840;  710.880
1096.568;   12.077;  -12.840;  779.280
1097.112;    9.582;  -14.700;  508.180
1097.655;   11.249;   -8.720;  603.000
1098.198;    9.102;  -13.610;  600.180
1098.741;   10.023;  -13.350;  612.860
1099.285;   11.144;  -11.230;  657.300
1099.828;    8.630;  -11.840;  439.400
1100.371;    9.805;  -10.840;  608.160
1100.914;    9.941;  -14.190;  682.660
1101.457;   10.665;  -11.240;  679.900
1101.999;    8.863;  -11.270;  584.680
1102.542;    9.266;  -11.480;  641.440
1103.085;    9.081;  -11.750;  658.500
1103.628;   10.320;  -11.400;  762.060
1104.170;    8.837;  -10.490;  588.280
1104.713;    8.751;  -10.600;  646.700
1105.256;    8.312;  -14.360;  557.440
1105.798;    8.453;  -13.210;  499.980
1106.341;    9.526;  -10.270;  728.900
1106.883;    8.385;  -12.200;  521.340
1107.425;    8.205;  -13.110;  668.180
1107.968;    7.900;  -12.840;  612.380
1108.510;    9.067;   -6.480;  684.960
1109.052;    7.847;  -13.940;  612.620
1109.594;    7.458;  -13.690;  554.440
1110.136;    8.662;  -11.880;  643.220
1110.679;    7.332;   -9.500;  633.080
1111.221;    7.848;  -14.160;  604.460
1111.763;    7.843;  -13.980;  559.220
1112.304;    7.387;  -13.880;  547.140
1112.846;    7.820;  -12.210;  666.240
1113.388;    9.302;  -11.390;  942.180
1113.930;    7.427;  -14.540;  694.200
1114.472;    7.102;  -12.640;  606.540
1115.013;    5.617;  -11.620;  551.280
1115.555;    5.674;  -13.640;  587.100
1116.097;    5.684;  -15.380;  579.480
1116.638;    7.243;  -12.640;  684.600
1117.180;    7.551;   -9.850;  667.740
1117.721;    6.405;  -13.690;  568.580
1118.262;    7.154;  -12.680;  677.960
1118.804;    7.304;  -12.530;  637.340
1119.345;    5.205;  -11.690;  578.400
1119.886;    6.559;  -13.380;  704.040
1120.427;    5.989;  -14.070;  589.020
1120.969;    5.139;  -13.500;  597.920
1121.510;    5.519;  -11.480;  563.060
1122.051;    5.108;  -12.830;  723.580
1122.592;    5.080;  -14.290;  655.420
1123.133;    5.511;  -12.400;  547.940
1123.673;    6.404;  -10.130;  706.480
1124.214;    4.812;  -12.930;  612.460
1124.755;    5.525;  -14.380;  639.460
1125.296;    5.526;  -14.000;  627.320
1125.836;    5.129;  -10.070;  691.500
1126.377;    5.025;  -12.640;  599.660
1126.918;    5.124;  -12.960;  614.980
1127.458;    5.074;  -13.350;  622.220
1127.999;    5.351;  -10.750;  656.980
1128.539;    5.375;  -12.350;  694.240
1129.079;    3.908;  -14.860;  632.720
1129.620;    4.410;  -13.840;  558.100
1130.160;    3.328;  -12.330;  539.480
1130.700;    4.296;  -14.530;  640.840
1131.240;    5.349;  -12.530;  643.700
1131.781;    4.112;  -14.450;  619.680
1132.321;    4.246;   -9.790;  599.120
1132.861;    2.749;  -14.860;  564.200
1133.401;    3.043;  -14.290;  593.940
1133.941;    3.966;  -11.750;  626.280
1134.481;    3.488;   -9.920;  597.580
1135.020;    3.049;  -12.290;  609.160
1135.560;    3.477;  -11.650;  674.940
1136.100;    3.307;  -16.270;  501.160
1136.640;    2.821;  -10.890;  510.480
1137.179;    2.853;  -14.180;  537.960
1137.719;    3.342;  -16.250;  605.400
1138.258;    3.503;  -14.230;  587.360
1138.798;    3.317;   -9.090;  663.780
1139.337;    1.226;  -15.130;  482.840
1139.877;    2.289;  -13.680;  642.360
1140.416;    4.536;  -11.320;  878.060
1140.955;    2.119;  -10.860;  535.380
1141.494;    2.012;  -12.920;  669.280
1142.034;    2.214;  -13.930;  583.520
1142.573;    3.687;  -11.440;  646.280
1143.112;    2.140;  -12.000;  553.480
1143.651;    1.731;  -13.670;  536.480
1144.190;    2.823;  -12.730;  691.640
1144.729;    2.423;  -14.560;  607.420
1145.267;    1.820;  -11.830;  584.900
1145.806;    2.763;  -12.230;  637.040
1146.345;    1.234;  -14.130;  635.020
1146.884;    1.249;  -11.590;  622.500
1147.422;    1.272;  -12.550;  533.060
1147.961;    2.552;  -11.180;  708.460
1148.500;    2.607;  -11.510;  669.720
1149.038;    2.829;  -11.640;  632.500
1149.577;    1.844;  -10.130;  698.640
1150.115;   -0.215;  -13.970;  452.280
1150.653;    1.411;  -14.520;  607.340
1151.192;    1.685;  -12.810;  552.920
1151.730;    1.349;   -9.100;  652.560
1152.268;    1.276;  -12.220;  589.520
1152.806;    0.902;  -14.140;  571.180
1153.344;    0.180;  -12.350;  577.640
1153.882;    1.043;   -8.980;  600.060
1154.421;   -0.269;  -15.190;  470.620
1154.958;    0.237;  -15.210;  595.240
1155.496;    1.676;  -12.850;  645.280
1156.034;    0.187;   -9.940;  721.880
1156.572;    1.562;  -13.570;  667.060
1157.110;   -0.938;  -14.590;  473.940
1157.647;    1.055;  -13.030;  676.960
1158.185;   -0.426;  -12.140;  564.320
1158.723;   -1.758;  -14.390;  509.200
1159.260;    0.394;  -14.090;  701.700
1159.798;    0.813;  -11.920;  658.160
1160.335;   -0.073;  -11.110;  631.820

