
Integration time [ms]:   3.276
Averaging Nr. [scans]: 1000
Smoothing Nr. [pixels]: 0
Data measured with spectrometer [name]: 7414430SP
Wave   ;Sample   ;Dark     ;Reference
[nm]   ;[counts] ;[counts] ;[counts] 

288.544;  150.667;    7.793;  793.890
289.143;  154.229;    7.462;  681.602
289.742;  153.595;    8.602;  828.814
290.341;  139.375;    1.321;  789.841
290.940;  129.377;   -0.709;  730.702
291.538;  129.832;    0.881;  881.108
292.137;  129.549;    0.122;  792.581
292.736;  133.686;   -1.929;  975.101
293.335;  131.571;   -8.229;  735.086
293.934;  131.618;   -5.279;  781.677
294.532;  129.882;   -1.369; 1031.958
295.131;  114.437;   -7.641;  834.394
295.730;  116.486;   -8.420;  809.588
296.328;  114.440;   -5.611;  783.442
296.927;  114.999;   -5.781;  779.652
297.525;  116.131;   -6.361;  781.236
298.124;  106.588;  -11.382;  654.009
298.722;  110.394;   -7.641;  761.933
299.321;  108.314;   -6.811;  708.597
299.919;  106.170;   -6.991;  751.918
300.518;  103.419;  -10.362;  689.338
301.116;  105.408;   -9.581;  691.381
301.715;  104.853;   -4.891;  730.222
302.313;  103.085;   -8.801;  704.943
302.911;   99.173;   -8.522;  733.830
303.509;  104.986;   -6.171;  925.627
304.108;  101.686;   -7.311;  760.383
304.706;  100.761;   -8.321;  801.664
305.304;   96.329;  -10.222;  796.707
305.902;  101.086;   -6.021;  784.484
306.500;   96.703;   -4.971;  728.200
307.098;   94.926;   -7.061;  746.560
307.696;   93.919;   -8.801;  780.432
308.294;   94.705;   -6.411;  731.359
308.892;   95.350;   -2.901;  759.769
309.490;   91.672;   -5.041;  712.161
310.088;   90.549;   -5.002;  788.444
310.686;   94.646;   -2.041;  821.749
311.284;   89.900;   -2.351;  766.040
311.882;   87.826;   -4.422;  731.225
312.480;   85.433;   -4.192;  697.167
313.078;   87.263;   -1.172;  808.331
313.675;   86.885;   -2.601;  691.600
314.273;   82.417;   -1.312;  797.837
314.871;   82.606;   -3.942;  589.829
315.468;   79.544;   -2.802;  652.090
316.066;   82.242;   -0.701;  694.427
316.664;   74.391;   -4.362;  656.351
317.261;   79.570;   -2.872;  910.128
317.859;   74.965;   -2.022;  768.735
318.456;   75.669;   -0.531;  830.096
319.054;   70.763;   -3.912;  787.828
319.651;   70.760;   -4.752;  759.928
320.249;   69.535;   -2.602;  810.188
320.846;   66.668;   -0.821;  714.286
321.443;   64.020;   -4.642;  832.135
322.041;   61.804;   -5.002;  812.315
322.638;   58.990;   -3.982;  701.456
323.235;   60.432;   -3.411;  665.683
323.833;   57.230;   -7.361;  740.354
324.430;   53.835;   -8.611;  615.900
325.027;   54.262;   -4.061;  876.855
325.624;   52.931;   -4.031;  644.532
326.221;   49.901;   -7.481;  689.717
326.818;   50.673;   -5.281;  818.332
327.415;   53.626;   -7.460;  748.828
328.012;   52.460;   -5.510;  690.585
328.609;   50.991;   -7.880;  731.389
329.206;   49.680;   -8.331;  778.621
329.803;   50.248;   -5.121;  737.841
330.400;   51.723;   -4.510;  704.260
330.997;   53.041;   -6.441;  817.147
331.594;   53.344;   -8.831;  788.185
332.191;   58.420;   -7.621;  728.722
332.787;   59.907;   -4.591;  844.463
333.384;   58.646;   -7.412;  763.093
333.981;   57.741;   -8.293;  815.687
334.578;   61.374;   -7.052;  708.378
335.174;   62.982;   -3.102;  731.469
335.771;   63.028;   -5.943;  836.456
336.367;   60.435;   -7.393;  710.631
336.964;   64.047;   -4.063;  793.266
337.561;   61.967;   -3.813;  731.112
338.157;   56.734;   -4.654;  911.916
338.754;   55.267;   -7.934;  796.589
339.350;   53.383;   -4.414;  722.493
339.946;   54.572;   -4.664;  773.135
340.543;   46.493;   -6.375;  846.136
341.139;   42.781;   -9.815;  720.836
341.735;   39.704;   -4.526;  772.593
342.332;   37.166;   -4.895;  691.472
342.928;   38.182;   -4.295;  795.394
343.524;   32.720;   -5.476;  761.684
344.120;   29.180;   -5.856;  738.562
344.716;   32.681;   -2.155;  723.717
345.313;   29.061;   -6.275;  795.342
345.909;   24.637;   -8.815;  627.336
346.505;   27.129;   -5.305;  740.247
347.101;   27.277;   -2.674;  827.864
347.697;   27.329;   -4.344;  785.398
348.293;   22.142;   -9.975;  627.244
348.889;   22.928;   -5.774;  745.914
349.485;   21.323;   -5.004;  688.205
350.081;   22.659;   -4.704;  772.592
350.676;   17.669;   -6.635;  691.606
351.272;   22.457;   -4.504;  809.530
351.868;   21.615;   -3.914;  780.497
352.464;   18.777;   -9.044;  723.932
353.059;   15.902;   -8.314;  646.017
353.655;   18.297;   -7.024;  777.063
354.251;   19.732;   -5.343;  759.845
354.846;   13.917;   -8.604;  740.646
355.442;   12.398;   -6.945;  753.071
356.038;   13.882;   -7.564;  751.708
356.633;   13.438;   -5.814;  728.594
357.229;   11.217;   -7.364;  724.757
357.824;   10.361;   -8.024;  703.600
358.420;    9.706;   -9.384;  679.726
359.015;    9.800;   -5.104;  695.357
359.610;   10.431;   -6.854;  763.920
360.206;    4.772;  -10.185;  603.240
360.801;    7.979;   -7.054;  646.503
361.396;   10.302;   -5.034;  725.975
361.992;    5.175;   -8.284;  668.220
362.587;    2.497;   -8.625;  670.160
363.182;    5.400;   -7.674;  689.631
363.777;    5.192;   -5.164;  738.242
364.372;    4.657;   -8.604;  737.314
364.967;    1.931;   -9.055;  680.744
365.563;    6.320;   -6.114;  815.567
366.158;    3.273;   -5.814;  685.161
366.753;    2.356;   -7.854;  649.263
367.348;    2.204;   -7.804;  746.056
367.942;    1.029;   -7.954;  697.298
368.537;    0.522;   -4.984;  754.245
369.132;    0.891;   -8.564;  703.428
369.727;   -2.914;   -8.855;  638.079
370.322;   -1.463;   -6.245;  580.186
370.917;   -2.029;   -6.425;  710.646
371.511;    1.256;   -6.294;  861.834
372.106;   -2.766;   -7.685;  776.964
372.701;   -5.919;   -7.335;  585.988
373.296;   -1.102;   -4.564;  863.135
373.890;   -5.552;  -10.235;  647.840
374.485;   -7.404;   -7.885;  691.199
375.079;   -3.568;   -7.324;  738.685
375.674;   -2.773;   -3.494;  812.970
376.268;   -6.879;   -8.525;  691.759
376.863;  -11.526;  -10.086;  580.327
377.457;   -5.288;   -7.025;  662.490
378.052;   -8.605;   -3.585;  764.884
378.646;   -9.333;   -7.595;  741.167
379.240;   -8.741;   -8.335;  721.176
379.835;   -8.455;   -5.785;  636.978
380.429;  -10.370;   -4.335;  562.557
381.023;  -10.659;   -6.805;  779.205
381.617;  -12.556;   -9.195;  680.106
382.212;   -8.877;   -6.905;  685.303
382.806;   -8.585;   -3.745;  760.690
383.400;  -12.817;   -7.745;  672.281
383.994;  -13.305;   -9.765;  664.870
384.588;   -9.109;   -6.564;  697.701
385.182;   -8.347;   -5.344;  726.624
385.776;  -10.328;   -8.514;  706.875
386.370;  -12.907;   -9.555;  681.968
386.964;  -11.381;   -8.715;  684.155
387.558;  -10.413;   -6.174;  598.360
388.152;  -13.694;   -8.725;  681.959
388.745;  -11.514;   -7.965;  814.707
389.339;   -9.409;   -5.924;  747.642
389.933;   -9.739;   -5.524;  695.370
390.527;  -10.574;   -7.114;  859.029
391.120;  -15.939;  -10.725;  595.318
391.714;  -13.408;   -8.035;  711.633
392.308;  -10.469;   -3.574;  780.253
392.901;  -13.998;   -7.245;  642.460
393.495;  -15.940;   -9.285;  595.414
394.089;  -13.499;   -5.895;  760.452
394.682;  -15.081;   -4.295;  697.188
395.275;  -15.568;   -9.875;  719.927
395.869;  -15.961;   -8.485;  667.314
396.462;  -14.013;   -7.455;  616.609
397.056;  -10.934;   -5.424;  776.621
397.649;  -16.489;   -6.605;  731.575
398.242;  -12.679;   -8.224;  712.645
398.836;  -12.246;   -7.474;  766.408
399.429;  -13.434;   -7.094;  631.041
400.022;  -17.195;   -9.475;  665.902
400.615;  -13.906;   -7.145;  805.609
401.208;  -11.949;   -7.174;  691.451
401.802;  -14.300;   -5.515;  699.329
402.395;  -16.053;   -9.875;  683.502
402.988;  -16.381;   -8.845;  696.627
403.581;  -12.973;   -8.874;  646.878
404.174;  -11.115;   -5.324;  686.568
404.767;  -14.772;   -9.575;  638.583
405.360;  -16.197;  -10.965;  621.445
405.953;  -10.654;   -8.764;  759.034
406.545;  -10.922;   -7.514;  725.342
407.138;  -15.856;  -10.025;  618.350
407.731;  -13.474;  -10.034;  613.303
408.324;   -8.757;   -9.374;  660.554
408.917;  -11.297;   -6.534;  681.864
409.509;  -12.729;   -8.004;  740.396
410.102;  -14.075;   -9.875;  643.948
410.695;   -8.269;   -8.604;  665.758
411.287;   -9.581;   -6.794;  599.821
411.880;  -11.123;   -9.334;  585.421
412.472;  -13.984;  -10.254;  613.092
413.065;  -10.116;   -6.714;  629.408
413.657;   -9.059;   -7.234;  576.678
414.250;   -9.024;  -10.544;  646.681
414.842;  -10.678;   -9.744;  676.353
415.434;   -8.539;   -6.994;  570.463
416.027;   -4.395;   -5.893;  652.196
416.619;   -6.966;   -7.264;  713.400
417.211;   -6.679;  -10.374;  599.352
417.804;   -3.174;   -7.993;  628.499
418.396;   -7.435;   -7.234;  607.643
418.988;   -5.991;   -9.443;  659.238
419.580;   -7.717;  -10.724;  568.276
420.172;   -5.764;  -10.323;  536.196
420.764;   -1.414;   -8.793;  672.482
421.356;   -3.264;  -11.143;  636.898
421.948;   -4.354;   -8.293;  677.661
422.540;    0.779;   -7.893;  680.027
423.132;    0.213;   -7.082;  600.641
423.724;   -3.099;   -8.653;  561.267
424.316;   -0.197;  -10.213;  621.345
424.908;    3.230;   -9.762;  591.517
425.500;    2.275;   -5.572;  647.978
426.092;    3.061;   -8.422;  648.268
426.683;    2.656;   -9.283;  684.836
427.275;    5.549;   -7.852;  641.471
427.867;    6.052;   -5.272;  668.948
428.458;    6.551;   -7.682;  732.344
429.050;    5.810;  -10.612;  680.749
429.642;    8.713;   -9.882;  743.124
430.233;    8.504;   -6.962;  569.356
430.825;    9.624;   -6.842;  724.809
431.416;    7.584;   -9.672;  698.241
432.008;   11.273;   -6.552;  651.723
432.599;   11.233;   -6.891;  656.073
433.190;    7.894;  -10.912;  637.670
433.782;    7.593;  -11.172;  590.395
434.373;   15.582;   -6.061;  884.765
434.964;   13.178;   -8.251;  602.920
435.556;   10.814;   -9.722;  634.537
436.147;   14.541;   -9.082;  758.490
436.738;   14.903;   -8.041;  701.099
437.329;   19.622;   -7.341;  721.723
437.920;   11.757;   -8.162;  666.688
438.511;   12.507;  -11.802;  564.526
439.103;   19.177;  -10.191;  623.998
439.694;   20.462;   -7.601;  681.583
440.285;   20.961;   -8.541;  764.432
440.876;   19.983;   -9.751;  845.738
441.466;   19.155;   -9.401;  575.162
442.057;   24.615;   -7.760;  665.814
442.648;   22.433;   -9.971;  746.255
443.239;   21.561;  -11.001;  620.477
443.830;   27.034;   -7.990;  704.958
444.421;   28.618;   -7.910;  655.474
445.011;   24.646;   -8.131;  693.619
445.602;   24.768;   -7.111;  743.126
446.193;   26.433;  -10.920;  488.117
446.783;   30.491;   -6.500;  640.397
447.374;   25.449;   -8.671;  692.759
447.964;   26.927;  -10.781;  713.770
448.555;   35.189;   -9.650;  822.742
449.145;   31.526;   -8.660;  662.853
449.736;   31.864;   -8.990;  803.179
450.326;   32.105;   -9.500;  713.626
450.917;   37.442;   -8.680;  675.324
451.507;   36.117;   -7.520;  600.661
452.097;   36.487;   -8.590;  746.267
452.688;   37.832;  -11.340;  742.160
453.278;   38.333;  -10.100;  566.840
453.868;   42.929;   -6.019;  793.550
454.458;   39.348;   -9.440;  651.141
455.048;   40.720;  -10.560;  711.783
455.639;   42.656;  -11.799;  567.096
456.229;   45.534;   -6.899;  710.694
456.819;   47.571;   -7.389;  751.158
457.409;   47.231;  -11.119;  773.993
457.999;   50.688;   -9.289;  737.505
458.589;   49.849;   -6.139;  686.606
459.179;   49.119;   -8.729;  717.658
459.769;   47.755;   -9.789;  627.099
460.358;   53.865;  -10.259;  797.262
460.948;   52.916;   -7.299;  689.503
461.538;   54.111;  -10.289;  660.677
462.128;   53.230;  -11.269;  664.934
462.717;   59.209;   -9.368;  710.326
463.307;   61.609;   -7.908;  705.846
463.897;   58.187;   -9.599;  656.942
464.486;   57.557;   -9.769;  837.128
465.076;   62.197;   -8.048;  733.776
465.666;   64.641;   -9.358;  652.900
466.255;   62.752;   -7.919;  785.651
466.845;   61.829;  -11.689;  666.749
467.434;   65.683;   -7.818;  725.873
468.023;   66.127;   -7.678;  658.357
468.613;   63.392;  -10.939;  713.946
469.202;   68.065;  -10.118;  646.507
469.791;   72.372;   -9.108;  737.811
470.381;   73.183;   -6.058;  742.813
470.970;   72.788;  -10.428;  711.099
471.559;   73.776;  -10.268;  733.291
472.148;   77.031;   -8.448;  675.737
472.738;   78.135;   -6.917;  765.466
473.327;   77.844;  -11.978;  637.529
473.916;   78.875;  -11.888;  737.446
474.505;   83.081;   -9.437;  751.703
475.094;   86.081;   -6.747;  806.570
475.683;   84.840;   -9.367;  797.699
476.272;   85.799;  -12.637;  730.632
476.861;   88.495;  -10.027;  706.754
477.449;   94.903;   -8.716;  728.487
478.038;   88.802;   -9.577;  692.513
478.627;   89.909;   -9.718;  714.852
479.216;   97.512;   -8.947;  769.441
479.805;   99.217;   -6.256;  783.375
480.393;   98.922;   -7.937; 1008.945
480.982;   98.671;   -7.717;  874.501
481.571;  104.877;   -9.266;  858.333
482.159;  105.351;   -7.636;  705.386
482.748;  104.215;   -9.667;  821.385
483.336;  109.435;  -10.376;  858.209
483.925;  110.536;   -7.147;  774.373
484.513;  117.485;   -7.996;  758.962
485.102;  113.785;  -10.027;  810.965
485.690;  121.913;  -10.446; 1011.050
486.278;  124.270;   -8.446;  979.329
486.867;  125.615;   -6.356;  809.662
487.455;  126.179;   -9.136;  898.229
488.043;  128.097;  -10.646;  748.361
488.631;  136.852;   -7.456; 1005.079
489.220;  140.279;   -6.636;  908.626
489.808;  140.590;  -11.036;  741.415
490.396;  148.921;  -10.246;  914.645
490.984;  154.517;   -8.556;  830.161
491.572;  164.309;   -5.886;  940.315
492.160;  169.200;   -9.486;  919.081
492.748;  180.669;  -10.976;  884.341
493.336;  203.527;   -8.776; 1019.693
493.924;  229.421;   -5.465;  958.077
494.512;  256.197;   -9.986; 1066.638
495.100;  292.532;  -10.636; 1103.280
495.687;  348.022;  -10.885; 1206.373
496.275;  410.107;   -8.126; 1150.796
496.863;  478.451;  -10.586; 1281.171
497.451;  578.107;  -11.926; 1386.805
498.038;  708.332;  -10.885; 1556.729
498.626;  809.469;   -6.315; 1741.407
499.214;  950.133;   -7.326; 2016.609
499.801; 1157.847;  -11.906; 2220.633
500.389; 1390.176;  -10.466; 2312.494
500.976; 1696.694;   -5.236; 2744.849
501.564; 2104.894;   -8.936; 3148.565
502.151; 2479.049;  -13.176; 3515.999
502.738; 2914.357;  -10.646; 3971.274
503.326; 3264.377;   -9.525; 4403.796
503.913; 3639.392;  -10.856; 5161.749
504.500; 4000.620;  -11.586; 5986.420
505.088; 4353.302;  -10.336; 6381.201
505.675; 4864.771;   -6.355; 6925.547
506.262; 5546.870;   -9.046; 7619.060
506.849; 6248.141;  -10.416; 8733.969
507.436; 6794.960;  -10.305; 9790.121
508.023; 7391.335;   -5.496; 9985.472
508.610; 7580.045;   -7.856;10434.618
509.197; 8149.662;  -10.097;11198.435
509.784; 9450.310;  -10.886;12391.194
510.371;10465.364;   -9.315;13603.713
510.958;11114.060;   -9.936;14426.586
511.545;11839.285;   -9.326;15243.775
512.132;12772.971;  -10.075;15945.876
512.719;13596.813;   -7.796;16340.369
513.305;14673.000;  -10.606;18011.766
513.892;15381.029;  -11.486;19754.971
514.479;16466.160;   -9.126;20967.805
515.066;17555.568;   -6.026;22299.793
515.652;18819.725;   -8.466;22908.660
516.239;20320.740;  -10.886;23798.875
516.825;21499.170;  -11.496;25567.275
517.412;22796.600;   -5.796;28154.959
517.998;23394.207;  -10.506;28344.111
518.585;23137.660;  -10.076;27134.219
519.171;23616.277;   -8.315;27268.576
519.758;25615.963;   -8.596;28964.129
520.344;27326.689;   -8.466;30664.494
520.930;26954.137;  -11.006;32550.605
521.516;28734.439;  -10.495;35422.895
522.103;30828.152;   -5.526;38280.004
522.689;31571.793;   -8.746;37835.117
523.275;30482.854;  -11.376;37288.613
523.861;31069.234;  -11.156;37281.395
524.447;32705.838;   -8.135;37846.949
525.033;32687.119;   -7.896;38321.949
525.619;32860.594;  -12.476;38579.285
526.205;34420.895;   -9.516;40622.875
526.791;36927.496;   -6.926;42258.836
527.377;36803.910;   -8.346;42966.902
527.963;38419.566;   -8.717;42018.949
528.549;37275.863;  -11.016;42476.828
529.135;36079.309;   -8.536;41854.852
529.721;35426.859;   -9.666;41237.711
530.306;35172.137;  -10.066;41259.445
530.892;35045.699;  -11.356;41506.047
531.478;36208.324;   -6.596;43559.613
532.063;39002.484;   -8.836;47695.563
532.649;39228.141;  -10.047;50808.324
533.235;40227.840;   -9.746;51787.500
533.820;41507.723;   -6.566;52145.035
534.406;42629.848;  -10.817;51133.488
534.991;42602.859;   -9.416;49996.805
535.576;41104.621;   -9.036;48882.852
536.162;41452.438;   -6.156;46942.285
536.747;42961.070;  -11.607;45711.746
537.333;46543.137;  -11.787;48510.180
537.918;48746.867;  -12.437;50439.891
538.503;47414.496;   -7.196;50863.711
539.088;45171.656;  -10.556;50906.922
539.673;45513.281;   -8.767;52621.965
540.259;45119.566;  -10.026;52368.094
540.844;42256.332;   -7.416;50879.109
541.429;43639.254;   -9.467;52077.777
542.014;46379.543;   -9.527;52716.695
542.599;45633.121;   -9.946;52363.281
543.184;43006.773;   -7.927;53187.137
543.769;44619.395;   -9.297;54697.605
544.354;44065.711;  -10.127;53913.914
544.938;42592.500;   -9.267;49680.164
545.523;44167.648;   -6.506;47386.277
546.108;46443.840;   -9.787;49151.949
546.693;48917.797;  -11.587;51384.637
547.278;49225.750;  -10.986;51853.254
547.862;45881.688;   -8.206;51173.750
548.447;41330.281;  -10.067;51691.395
549.031;40963.055;   -9.637;52456.703
549.616;45792.539;   -9.926;52714.516
550.201;44648.926;   -6.347;52414.598
550.785;45727.043;   -7.917;52355.059
551.370;45234.758;  -10.867;54589.453
551.954;45630.172;   -9.047;58267.348
552.538;46183.648;   -7.827;59062.176
553.123;44600.203;  -10.287;58115.285
553.707;43114.094;  -12.178;56556.285
554.291;44296.254;   -8.717;56201.668
554.876;46409.770;   -7.457;55335.762
555.460;46695.582;  -10.387;54155.703
556.044;47467.832;   -9.618;53721.484
556.628;45571.449;  -11.567;53731.016
557.212;44332.520;   -8.097;54312.531
557.796;43112.473;  -11.077;53797.773
558.380;42707.133;  -11.108;56145.984
558.964;42782.664;   -9.057;57277.930
559.548;43218.258;   -6.977;56459.641
560.132;41943.469;  -11.457;54434.543
560.716;41273.426;  -11.378;54800.617
561.300;42759.043;   -9.577;57606.945
561.884;43496.848;   -7.127;58972.445
562.467;41866.266;   -7.118;57327.570
563.051;40675.148;  -13.358;54962.434
563.635;41501.590;  -10.178;52594.473
564.219;42526.574;   -7.837;50610.410
564.802;43329.992;  -11.398;49551.180
565.386;43382.320;  -12.788;48370.953
565.969;43015.996;   -9.077;48178.871
566.553;42534.328;   -6.207;49957.305
567.136;42617.418;   -8.568;50369.594
567.720;38711.012;  -11.868;49492.004
568.303;36813.094;   -8.268;50616.352
568.887;36936.676;   -8.698;50727.148
569.470;37397.328;   -6.808;51698.379
570.053;36406.938;  -13.188;52122.078
570.637;34367.730;  -12.037;52536.438
571.220;33596.801;   -8.577;51186.098
571.803;34094.953;   -8.498;51032.762
572.386;36974.648;  -10.498;49609.887
572.969;39324.500;   -9.388;48285.926
573.552;37355.313;   -8.338;47624.285
574.135;36108.832;   -8.518;45498.641
574.718;33517.734;  -13.628;41970.434
575.301;32441.621;  -10.893;41447.137
575.884;31365.510;   -8.158;40923.836
576.467;32674.098;  -10.328;45267.723
577.050;34880.637;  -13.058;48175.543
577.633;35996.781;   -9.458;47729.328
578.216;34818.688;   -8.928;47579.793
578.799;33846.137;   -9.358;47820.996
579.381;32399.848;  -11.388;48115.551
579.964;30915.336;  -11.718;47333.766
580.547;32435.650;   -8.588;46668.969
581.129;33468.738;   -8.859;44466.141
581.712;34180.410;  -10.729;44164.922
582.294;34886.223;  -11.118;46477.855
582.877;35046.820;   -5.218;48244.254
583.459;32989.672;   -8.679;47437.895
584.042;30998.916;  -10.709;46943.219
584.624;31379.018;  -11.669;46792.227
585.206;30680.762;   -8.218;46557.250
585.789;30776.352;  -10.569;45793.773
586.371;31798.053;  -11.859;43836.391
586.953;29771.203;  -10.719;42972.492
587.536;28254.756;   -7.198;42487.211
588.118;28308.998;   -8.720;42086.414
588.700;28845.057;  -10.439;43389.930
589.282;30872.893;   -9.198;43646.039
589.864;33109.895;   -9.199;43438.109
590.446;34297.750;  -11.319;43151.926
591.028;33669.836;  -11.159;42781.867
591.610;32598.068;  -11.779;42839.098
592.192;30554.145;   -7.668;42820.402
592.774;29478.682;  -11.949;40724.277
593.356;28448.352;  -12.129;39874.789
593.937;27744.744;  -10.669;39980.648
594.519;30214.662;   -6.509;42069.633
595.101;31968.691;  -10.849;42976.031
595.683;31847.117;  -11.679;44084.441
596.264;32940.563;   -9.049;43478.797
596.846;32042.996;   -8.849;43803.672
597.427;31558.760;   -9.570;42986.934
598.009;32773.297;  -12.620;42832.219
598.591;33069.094;  -10.039;42580.086
599.172;32315.107;  -10.369;43061.805
599.753;32396.176;   -9.140;41691.469
600.335;33722.289;  -11.430;40692.520
600.916;32215.996;   -9.939;39982.422
601.498;30273.383;   -8.479;40318.617
602.079;28852.225;  -10.920;40670.609
602.660;29138.164;  -11.480;41450.898
603.241;30536.027;  -11.699;41137.738
603.823;29122.232;   -9.579;38868.797
604.404;29431.063;  -10.620;38182.785
604.985;30675.998;  -10.450;38078.047
605.566;30031.418;   -9.129;38056.633
606.147;30182.611;   -7.510;37020.418
606.728;31934.250;  -10.660;37883.359
607.309;30572.043;  -11.740;38748.273
607.890;30049.170;   -9.759;38850.230
608.471;29703.037;   -8.250;37457.918
609.051;28937.719;   -9.240;36066.457
609.632;27753.986;  -12.120;35991.074
610.213;28350.729;   -9.110;37402.641
610.794;29005.771;   -8.030;38383.363
611.374;28858.373;   -8.110;40562.387
611.955;29293.342;  -13.560;38533.727
612.536;30455.945;  -11.400;36951.789
613.116;30647.621;   -8.070;37197.891
613.697;30622.260;  -10.830;38411.125
614.277;29215.094;  -11.641;38673.938
614.858;30264.531;  -13.310;37075.863
615.438;29528.412;   -7.460;35092.906
616.019;26713.121;   -7.601;33666.301
616.599;27170.867;  -12.020;34189.023
617.179;28830.914;  -11.780;36952.047
617.760;29652.912;   -8.570;39582.574
618.340;30578.746;  -11.471;38943.977
618.920;31603.154;  -11.170;37594.156
619.500;31799.551;  -11.071;37866.938
620.080;31423.357;   -7.750;37869.043
620.660;32629.057;  -12.711;36868.617
621.241;34213.473;  -10.211;36352.309
621.821;34314.410;  -10.961;35459.520
622.401;33144.090;   -7.720;35207.414
622.980;32162.988;   -8.981;35980.422
623.560;30851.721;   -9.331;37351.328
624.140;29904.264;   -9.850;34388.582
624.720;24697.334;   -7.451;32368.764
625.300;21167.979;   -9.070;32638.629
625.880;24555.781;  -12.601;34599.035
626.459;28771.367;  -11.751;36831.738
627.039;31905.676;   -9.281;38299.098
627.619;31795.061;   -8.801;38289.574
628.198;29933.824;  -12.071;37220.695
628.778;28831.768;   -9.461;37632.563
629.357;29664.418;   -8.491;38003.012
629.937;29943.377;   -9.721;38402.039
630.516;29362.988;   -9.951;37868.801
631.096;28738.158;  -11.731;35760.410
631.675;32113.215;   -8.572;35225.219
632.254;37249.000;  -11.282;35130.289
632.834;36544.203;  -13.322;35794.570
633.413;34364.801;  -10.301;35788.922
633.992;31250.568;   -8.582;34532.863
634.571;32095.555;   -8.352;33590.113
635.151;34524.871;  -11.912;34943.863
635.730;33018.176;  -10.511;35352.523
636.309;30101.365;   -7.731;35366.605
636.888;28173.322;   -9.952;36165.637
637.467;29252.650;  -11.672;37515.902
638.046;30744.965;   -8.901;39288.695
638.625;33675.875;   -7.912;38279.699
639.204;33280.730;  -10.022;37741.598
639.782;31960.186;  -12.252;38364.551
640.361;27815.881;  -10.041;36740.621
640.940;25241.650;  -11.161;34950.082
641.519;25923.176;   -9.701;34137.398
642.097;28878.379;  -11.271;35654.258
642.676;31715.516;   -8.651;35637.957
643.255;32173.508;   -8.711;36567.074
643.833;31227.184;   -9.581;37809.434
644.412;31557.594;  -13.711;37337.293
644.990;30956.924;  -11.811;37018.531
645.569;31493.279;   -9.411;36518.469
646.147;30678.822;  -10.291;36186.430
646.726;29828.119;  -12.401;36267.688
647.304;30282.602;  -10.411;36647.625
647.882;32353.682;   -9.651;39286.742
648.461;34193.035;   -9.631;39157.703
649.039;32055.023;  -11.881;35412.883
649.617;31037.625;   -9.661;34744.918
650.195;30605.385;   -9.301;35403.098
650.773;29138.123;  -10.511;35053.797
651.352;27242.063;  -11.521;33756.816
651.930;25193.658;  -12.211;31868.773
652.508;23378.127;   -9.171;33121.551
653.086;27131.771;   -9.371;33564.793
653.663;29643.973;  -13.161;34054.668
654.241;28990.715;  -13.031;35693.309
654.819;30778.994;   -9.371;36422.906
655.397;30585.172;  -10.511;38213.484
655.975;30247.033;  -10.371;39507.625
656.553;29426.719;  -10.051;39498.223
657.130;27885.943;  -10.061;40395.480
657.708;27918.061;   -9.561;39242.020
658.286;28095.691;  -11.511;38920.020
658.863;28875.383;  -10.261;40202.898
659.441;32023.840;   -7.531;39677.938
660.018;31670.850;   -9.501;40413.355
660.596;30407.342;  -13.301;39931.414
661.173;32247.049;  -11.211;39604.531
661.750;32718.740;   -9.951;39700.070
662.328;32222.801;   -9.390;39292.809
662.905;31076.932;  -11.330;38235.648
663.482;26029.900;   -9.050;36212.305
664.060;24273.988;   -8.240;35944.945
664.637;27269.949;  -10.050;35170.785
665.214;28851.402;  -11.760;34197.523
665.791;30045.988;  -10.530;34549.520
666.368;28899.582;   -9.690;35118.578
666.945;29997.434;   -9.320;36019.418
667.522;31361.887;  -11.860;36048.438
668.099;31276.225;  -10.770;36243.914
668.676;30163.637;   -6.260;35958.875
669.253;28801.402;   -7.000;37384.730
669.830;29342.354;  -10.190;36779.629
670.407;29192.973;   -9.550;35231.289
670.984;29639.381;   -9.260;35544.270
671.560;30070.283;   -9.280;35466.867
672.137;28818.947;  -11.810;34280.863
672.714;29739.646;  -11.490;34632.863
673.290;30539.098;   -7.740;35135.422
673.867;30812.918;  -10.660;36114.480
674.443;30127.984;  -12.230;36152.859
675.020;28238.629;  -10.450;35327.238
675.596;29690.707;   -9.260;35795.176
676.173;30339.971;  -10.780;35430.355
676.749;30144.656;  -13.690;33549.516
677.326;30190.104;  -11.980;32210.012
677.902;30196.025;   -8.630;32068.871
678.478;29286.295;  -10.730;32583.891
679.054;28748.127;  -10.520;32088.928
679.631;29035.801;  -11.920;30978.848
680.207;30266.883;   -7.490;33160.887
680.783;31762.650;   -9.860;35570.363
681.359;30948.811;  -13.380;36125.184
681.935;30753.320;  -12.480;35240.922
682.511;30197.307;   -7.900;34429.961
683.087;30556.318;   -7.710;34463.680
683.663;30195.672;  -11.480;34648.898
684.239;28391.541;  -14.090;34546.457
684.815;27830.318;   -7.560;35586.375
685.390;28220.908;   -9.910;35821.895
685.966;28617.699;  -11.159;35085.871
686.542;31307.127;  -11.169;34198.230
687.118;33251.270;   -5.959;32847.707
687.693;33132.742;  -10.329;32794.027
688.269;32800.254;  -12.059;33072.367
688.844;30950.646;  -10.909;33141.664
689.420;28972.822;   -8.019;33965.742
689.995;26982.053;   -8.399;34655.523
690.571;25779.904;  -10.949;33576.742
691.146;26127.213;   -9.619;32657.219
691.722;25696.861;   -8.999;32526.979
692.297;26156.055;  -11.589;33014.617
692.872;27899.105;  -11.739;34012.254
693.448;27178.102;  -11.059;34237.434
694.023;26305.758;  -10.139;34142.672
694.598;28546.203;   -9.029;34132.031
695.173;28832.570;  -13.319;34205.250
695.748;28008.123;  -10.169;32882.488
696.323;27631.889;   -8.339;32864.906
696.898;27855.623;   -8.169;33170.004
697.473;27790.453;  -12.309;32432.984
698.048;27033.090;  -10.989;31649.303
698.623;27106.307;   -9.329;30778.141
699.198;29050.139;   -9.849;31140.119
699.773;29905.596;  -12.329;31764.299
700.348;28563.479;  -10.389;31780.816
700.922;28333.914;   -9.269;32046.375
701.497;28775.080;   -9.329;32603.574
702.072;28676.189;  -10.789;34799.871
702.646;27629.592;  -10.839;35793.172
703.221;26340.176;   -9.099;35201.590
703.795;28213.512;  -10.939;34764.527
704.370;28364.199;  -12.859;34307.367
704.944;28592.824;  -11.559;33509.887
705.519;29393.221;   -7.939;31388.584
706.093;30855.604;  -10.499;31340.104
706.668;30850.404;  -11.289;32630.281
707.242;29904.691;  -11.509;32728.779
707.816;28704.822;   -9.639;32947.238
708.390;27244.367;  -11.429;33277.855
708.965;28172.818;  -11.869;33834.336
709.539;28815.963;  -11.689;33709.273
710.113;28902.377;  -10.478;33044.313
710.687;27748.104;  -10.228;31953.992
711.261;26005.250;  -13.698;30505.949
711.835;26080.303;  -13.378;30262.369
712.409;26952.986;   -9.698;31254.447
712.983;28687.055;  -11.898;32754.986
713.557;29588.695;  -15.138;34018.824
714.131;29270.941;  -14.098;34579.625
714.704;28345.670;   -9.958;33890.262
715.278;26052.320;  -10.028;33531.102
715.852;25248.180;  -11.148;33601.660
716.425;26421.107;   -9.068;33515.117
716.999;27372.354;  -10.038;33185.555
717.573;28350.580;   -9.798;33905.996
718.146;29302.975;  -12.378;35199.293
718.720;28921.969;  -11.918;35060.551
719.293;28569.586;   -8.088;34973.230
719.867;31536.162;  -10.888;36394.449
720.440;30887.238;  -11.938;36663.008
721.013;28925.963;  -12.818;35102.426
721.587;27683.240;  -10.298;33985.266
722.160;26818.650;  -10.048;33524.965
722.733;26043.125;  -12.108;32987.043
723.306;26555.111;  -10.818;33066.301
723.880;28554.900;   -8.908;33399.500
724.453;29776.326;   -9.878;33468.297
725.026;28675.813;  -11.188;33816.637
725.599;26624.086;  -11.678;32797.996
726.172;27565.104;   -9.618;33187.434
726.745;28854.695;   -8.258;35136.613
727.318;30300.146;  -12.978;35751.730
727.891;30399.404;  -12.148;35890.430
728.463;29669.521;   -8.968;34822.090
729.036;28497.953;  -10.188;32895.086
729.609;28912.611;  -11.788;31823.225
730.182;25931.277;  -11.788;31445.283
730.754;23548.148;  -10.268;32373.223
731.327;23916.793;   -9.998;33676.820
731.900;24636.084;  -12.228;33417.000
732.472;25911.914;  -13.848;31978.498
733.045;27217.223;   -8.698;30368.777
733.617;27106.166;  -10.607;30574.215
734.190;26810.553;  -11.507;31280.975
734.762;23910.137;  -13.647;31674.412
735.334;22424.900;   -9.767;31247.291
735.907;23272.738;   -9.897;29876.211
736.479;23258.518;  -11.637;29808.488
737.051;22760.426;   -9.567;30233.547
737.623;23390.637;   -8.187;31469.086
738.195;24322.203;  -11.187;31784.225
738.768;26807.521;  -12.337;32120.523
739.340;26714.896;  -12.227;32094.342
739.912;25320.883;  -11.057;31312.680
740.484;24087.227;  -10.207;31946.238
741.056;23016.713;  -10.047;32984.059
741.628;24523.531;  -13.627;33897.715
742.199;26796.270;   -7.177;33213.016
742.771;25422.623;  -10.797;31369.113
743.343;23243.914;  -11.997;31865.473
743.915;22324.611;  -12.867;32388.631
744.487;22390.119;   -7.617;31079.568
745.058;22266.420;   -9.557;30570.107
745.630;22836.381;   -9.877;29970.127
746.201;23649.465;  -14.177;29186.766
746.773;23944.051;   -9.237;28805.723
747.344;23856.211;   -9.847;29591.223
747.916;22512.512;  -11.657;31412.201
748.487;22939.828;  -10.587;32194.898
749.059;24260.830;   -8.707;32533.719
749.630;25142.648;  -10.537;32158.518
750.201;24373.621;  -11.687;30855.395
750.773;22521.629;  -11.647;28622.555
751.344;22369.404;   -7.147;28405.732
751.915;23227.662;   -9.757;28461.551
752.486;22617.211;  -12.427;27842.850
753.057;20569.250;  -12.227;27845.008
753.628;19628.234;  -10.417;27728.107
754.199;20803.410;  -11.767;27381.086
754.770;21848.752;  -11.187;25882.203
755.341;21972.236;  -10.507;25886.184
755.912;21759.004;   -9.387;26050.861
756.483;21107.379;  -10.647;26798.779
757.054;19178.832;  -11.837;27048.238
757.625;17873.703;  -12.716;26294.838
758.195;17932.660;   -9.666;26142.076
758.766;17790.992;   -8.656;26392.234
759.337;18477.383;  -12.856;26334.594
759.907;20187.945;  -13.366;27579.652
760.478;20930.848;   -8.576;28352.770
761.048;20022.479;  -10.526;27325.088
761.619;19120.100;  -11.116;26460.428
762.189;19457.039;  -12.136;26029.826
762.760;20860.152;   -9.456;26430.145
763.330;21777.537;   -7.136;26670.902
763.900;21005.408;  -11.786;26603.021
764.471;18341.824;  -11.546;25542.740
765.041;16920.313;   -8.096;24358.459
765.611;16865.230;   -8.876;23991.297
766.181;17362.252;  -12.196;24470.236
766.751;18552.135;  -11.636;24845.975
767.321;18168.100;  -10.156;24533.633
767.891;15975.865;  -11.766;24916.492
768.461;15499.659;  -14.936;24776.771
769.031;16177.680;  -12.356;24757.988
769.601;17673.818;   -7.526;24181.088
770.171;17465.896;  -10.766;23670.387
770.741;16841.139;  -13.176;22960.045
771.311;17227.623;  -10.616;22917.523
771.880;17549.133;   -9.576;23562.941
772.450;17359.045;  -10.336;24216.500
773.020;17498.254;  -13.516;24140.398
773.589;16878.635;  -13.466;24414.857
774.159;16330.281;   -8.686;23858.717
774.729;15903.540;   -9.476;22942.135
775.298;15297.609;  -13.666;22324.033
775.867;14844.479;  -11.716;21140.313
776.437;14896.753;   -9.906;20838.092
777.006;14641.565;  -12.166;20599.510
777.576;14419.088;  -12.356;20508.809
778.145;14563.775;  -11.646;20732.947
778.714;14498.536;   -8.226;21062.465
779.283;13864.827;   -9.556;20949.664
779.853;13464.328;  -14.116;20508.623
780.422;13896.037;  -11.506;20649.082
780.991;13513.060;   -9.556;21527.520
781.560;12355.265;   -9.095;22632.658
782.129;12129.147;  -12.135;23048.277
782.698;12131.488;  -10.865;23438.555
783.267;11721.333;   -9.335;23267.734
783.836;11730.074;  -11.045;22415.133
784.404;12749.150;  -13.865;20443.152
784.973;13249.236;  -13.095;19699.150
785.542;13336.723;  -11.575;19763.828
786.111;13297.403;   -9.705;20341.408
786.679;12659.671;  -12.105;20207.967
787.248;12336.499;  -12.455;19516.465
787.817;12117.434;  -11.535;18900.363
788.385;11682.642;   -9.765;17879.121
788.954;11127.397;  -14.005;17658.301
789.522;10626.151;  -11.955;17788.879
790.090;11133.389;  -10.135;18118.277
790.659;11565.403;  -10.975;18338.736
791.227;11088.757;  -13.375;18508.615
791.795;11504.370;  -12.375;17898.254
792.364;11723.742;  -10.725;17295.133
792.932;11928.723;   -9.715;16822.051
793.500;12226.617;  -12.675;17040.148
794.068;12651.695;  -13.495;17179.787
794.636;12754.262;  -10.885;16664.246
795.204;12258.274;  -11.045;16524.545
795.772;12319.145;  -13.175;17274.564
796.340;11769.953;  -12.445;17891.002
796.908;11545.354;   -9.735;17648.561
797.476;11386.525;   -9.815;17064.080
798.044;10947.346;  -13.985;16672.777
798.612;10232.368;  -13.115;17023.996
799.180; 9860.952;  -10.185;16561.615
799.747; 9737.149;   -9.055;15962.773
800.315; 9486.758;  -12.385;15296.992
800.883; 9144.180;  -15.035;14801.771
801.450; 9176.288;  -10.365;14534.430
802.018; 9256.025;   -9.855;14173.248
802.585; 9333.109;  -11.905;14029.547
803.153; 9401.796;  -11.585;13836.846
803.720; 9235.425;   -9.095;13567.324
804.287; 8718.240;   -9.135;13360.622
804.855; 8288.785;  -11.604;13681.981
805.422; 8216.428;  -11.794;13536.560
805.989; 8246.554;  -10.734;13355.958
806.556; 8509.058;  -10.444;13747.896
807.124; 8843.705;  -12.764;13987.376
807.691; 8795.722;  -12.964;14038.674
808.258; 8539.459;  -11.134;14120.152
808.825; 8072.354;   -9.854;13860.111
809.392; 8116.746;  -10.504;13268.790
809.959; 7711.580;  -13.054;12680.389
810.526; 7341.005;   -8.294;12427.308
811.093; 7408.130;   -8.394;12030.105
811.659; 7931.970;  -12.304;11653.664
812.226; 8344.205;  -13.944;11637.183
812.793; 7952.368;  -10.484;11611.521
813.360; 7295.378;  -10.144;11885.181
813.926; 7035.965;  -11.684;12770.539
814.493; 6890.017;  -13.644;12677.638
815.060; 6568.893;   -9.724;11974.336
815.626; 6638.404;   -9.854;11594.715
816.193; 7017.060;  -13.254;11579.474
816.759; 7027.232;  -13.204;11666.972
817.325; 7127.403;   -9.434;11325.530
817.892; 7536.344;  -10.134;11105.369
818.458; 7923.403;  -13.474;10843.928
819.024; 7438.246;  -11.854;10714.406
819.591; 7110.816;  -10.244;10469.165
820.157; 6941.109;  -10.704;10235.523
820.723; 6497.582;  -12.324;10847.563
821.289; 6225.686;   -9.444;11040.980
821.855; 6066.911;   -8.374;10357.100
822.421; 5870.172;  -10.234; 9978.918
822.987; 5743.653;  -13.294; 9754.177
823.553; 5449.301;  -10.884;10065.755
824.119; 5346.437;   -8.884;10036.294
824.685; 5480.149;   -6.784;10029.192
825.251; 5589.817;  -12.004;10199.230
825.816; 5559.432;  -11.474; 9820.189
826.382; 5339.813;   -9.174; 9297.248
826.948; 5569.428;   -9.214; 9381.347
827.513; 5903.710;  -10.774; 9450.726
828.079; 5663.584;  -11.924; 9472.444
828.645; 5139.064;  -10.543; 9292.643
829.210; 5092.570;  -10.533; 9065.341
829.776; 5058.699;  -10.753; 9132.620
830.341; 4919.857;  -10.173; 9092.878
830.906; 5105.526;  -10.743; 9078.557
831.472; 5406.419;  -11.113; 8534.535
832.037; 5095.049;  -10.603; 8677.874
832.602; 4551.740;  -13.323; 8628.692
833.167; 4317.246;  -10.823; 8879.031
833.733; 4259.464;  -10.113; 9189.790
834.298; 4365.646;  -13.583; 9052.608
834.863; 4424.106;  -12.703; 8895.087
835.428; 4414.227;  -10.523; 8824.266
835.993; 4307.776;   -6.963; 8845.385
836.558; 4190.693;  -10.763; 8888.563
837.123; 4336.073;   -9.903; 8966.582
837.688; 4595.106;   -9.913; 8617.860
838.253; 4785.933;  -10.283; 8590.699
838.817; 4948.146;  -12.963; 8443.797
839.382; 4865.147;  -14.243; 8799.356
839.947; 4562.966;  -10.733; 8810.595
840.511; 4239.036;   -9.383; 8796.394
841.076; 3880.633;  -12.563; 8347.231
841.641; 3984.934;  -12.953; 8224.330
842.205; 4076.657;   -7.043; 8223.349
842.770; 4161.770;   -8.163; 8622.107
843.334; 4353.576;  -12.503; 8410.386
843.898; 4345.147;  -11.693; 8337.465
844.463; 4361.985;  -10.203; 8506.283
845.027; 4134.130;   -9.533; 8280.962
845.591; 3963.207;  -13.443; 8231.141
846.156; 3911.542;  -13.143; 7969.179
846.720; 3790.368;   -9.433; 7768.278
847.284; 3651.670;  -11.033; 7630.957
847.848; 3508.832;  -10.403; 7472.395
848.412; 3390.502;  -11.553; 7437.394
848.976; 3405.025;   -8.393; 7674.592
849.540; 3357.557;   -8.713; 7836.011
850.104; 3477.114;  -12.463; 7913.669
850.668; 3822.608;  -12.973; 7694.508
851.232; 3933.045;  -10.793; 7756.887
851.796; 3777.471;  -10.662; 7926.545
852.359; 3468.943;  -13.082; 7827.844
852.923; 3323.180;  -12.192; 7641.163
853.487; 3171.342;  -11.912; 7342.501
854.050; 3133.692;  -10.892; 7042.820
854.614; 3250.234;  -13.992; 7151.338
855.177; 3343.830;  -11.732; 7105.077
855.741; 3389.508;   -8.962; 6989.675
856.304; 3314.181;   -9.442; 6596.634
856.868; 3282.776;  -14.192; 6356.272
857.431; 3409.268;  -12.702; 6468.571
857.995; 3554.034;   -9.942; 6373.210
858.558; 3560.360;   -9.112; 6324.448
859.121; 3286.986;  -12.932; 6408.327
859.684; 3144.550;  -13.442; 6347.886
860.247; 3225.663;  -10.632; 6321.264
860.810; 3205.010;  -11.272; 6301.903
861.374; 2944.980;   -9.832; 6607.881
861.937; 2706.670;  -11.762; 6408.200
862.500; 2732.172;   -9.722; 6572.639
863.062; 2906.014;  -10.512; 6387.297
863.625; 3050.791;  -11.232; 6190.836
864.188; 3219.903;  -14.112; 5807.254
864.751; 3294.938;  -11.302; 5682.413
865.314; 3179.998;  -10.112; 5547.492
865.876; 2979.378;  -12.182; 5500.150
866.439; 2976.507;  -10.722; 5415.909
867.002; 2920.701;   -9.252; 5501.567
867.564; 2706.032;   -9.572; 5413.946
868.127; 2470.142;  -13.142; 5160.325
868.689; 2349.152;  -12.902; 5133.183
869.252; 2225.942;   -9.732; 5252.382
869.814; 2113.944;   -9.432; 5297.141
870.377; 2142.558;  -11.552; 5390.919
870.939; 2228.860;   -9.052; 5599.898
871.501; 2296.878;  -10.982; 5248.336
872.063; 2295.445;  -12.292; 4854.235
872.626; 2247.134;  -14.912; 4817.074
873.188; 2261.754;  -13.112; 4987.732
873.750; 2234.003;  -13.442; 4868.651
874.312; 2161.894;   -9.402; 4779.330
874.874; 2068.526;  -11.062; 4866.348
875.436; 1981.029;  -13.931; 4718.887
875.998; 1968.888;   -9.561; 4660.005
876.560; 1973.919;  -11.321; 4462.964
877.122; 1911.713;  -12.221; 4145.042
877.683; 1825.948;  -12.191; 4056.481
878.245; 1759.991;  -12.101; 3950.740
878.807; 1806.443;   -8.971; 4058.958
879.369; 1830.272;  -12.071; 3954.677
879.930; 1736.908;  -14.621; 3941.495
880.492; 1677.068;  -10.311; 4067.014
881.053; 1626.302;  -10.901; 3859.633
881.615; 1505.336;  -14.411; 3776.071
882.176; 1415.279;  -13.761; 3734.750
882.738; 1377.891;   -9.181; 3678.489
883.299; 1357.338;  -11.791; 3405.407
883.860; 1358.605;  -13.121; 3351.106
884.422; 1346.296;  -11.211; 3394.044
884.983; 1289.667;  -10.091; 3166.443
885.544; 1203.904;   -8.461; 3189.802
886.105; 1127.727;  -12.361; 3160.360
886.666; 1064.754;  -14.141; 3093.059
887.227; 1007.764;  -11.361; 2941.957
887.788;  943.923;  -11.401; 2974.836
888.349;  880.616;  -13.791; 2721.214
888.910;  878.707;  -13.191; 2696.493
889.471;  885.043;   -9.881; 2560.172
890.032;  860.842;   -9.881; 2558.190
890.593;  836.098;  -10.371; 2567.669
891.153;  812.801;  -13.301; 2460.307
891.714;  763.572;  -11.431; 2372.046
892.275;  718.811;  -11.291; 2309.505
892.835;  674.946;  -11.471; 2382.543
893.396;  617.812;  -11.541; 2295.502
893.956;  558.308;  -11.181; 2162.420
894.517;  522.638;  -11.741; 2125.439
895.077;  521.552;  -11.671; 2086.978
895.638;  524.588;  -11.311; 2126.316
896.198;  494.689;   -9.831; 1838.275
896.758;  452.124;   -8.421; 1892.813
897.319;  422.025;  -12.351; 1792.232
897.879;  405.965;  -13.511; 1762.751
898.439;  378.950;  -12.001; 1661.149
898.999;  353.705;  -10.180; 1781.468
899.559;  342.571;  -12.030; 1703.347
900.119;  337.141;  -15.710; 1537.525
900.679;  332.862;   -8.900; 1638.384
901.239;  318.248;   -8.340; 1527.902
901.799;  308.633;  -13.910; 1456.441
902.359;  304.636;  -13.460; 1357.140
902.919;  297.600;  -11.490; 1331.118
903.479;  284.261;  -12.110; 1317.257
904.038;  263.402;  -11.720; 1262.595
904.598;  249.874;  -13.610; 1152.034
905.158;  245.844;  -11.040; 1240.893
905.717;  237.826;  -10.900; 1233.691
906.277;  226.577;  -15.080; 1217.330
906.836;  216.383;  -13.380; 1222.408
907.396;  207.445;  -10.780; 1193.047
907.955;  200.286;   -8.500; 1182.526
908.515;  194.906;  -12.760; 1099.364
909.074;  189.460;  -11.900; 1092.863
909.633;  184.121;   -8.950; 1069.121
910.192;  179.025;   -8.770; 1196.460
910.752;  172.867;  -12.390; 1029.960
911.311;  170.105;  -13.680; 1009.780
911.870;  167.053;  -12.370;  971.460
912.429;  167.322;  -10.900; 1094.080
912.988;  167.334;  -11.690; 1081.060
913.547;  162.626;  -13.240;  940.380
914.106;  156.617;  -11.990;  999.420
914.665;  154.233;   -9.990;  984.020
915.224;  153.685;  -12.880; 1035.760
915.782;  153.555;  -12.350;  922.560
916.341;  153.595;   -9.110; 1049.840
916.900;  148.075;   -9.270;  925.260
917.458;  146.280;  -13.240;  884.220
918.017;  146.649;  -13.550;  942.600
918.576;  146.551;  -12.320;  904.440
919.134;  144.352;  -11.490;  837.980
919.693;  142.004;  -13.670;  893.060
920.251;  140.966;  -15.470;  876.500
920.809;  140.060;  -11.290;  839.580
921.368;  139.346;  -10.210;  885.360
921.926;  137.852;  -12.140;  842.940
922.484;  137.446;  -13.080;  903.360
923.042;  137.623;  -11.720;  880.340
923.601;  139.388;   -7.480;  998.680
924.159;  137.647;  -11.570;  935.560
924.717;  135.024;  -13.840;  841.080
925.275;  134.656;  -10.640;  903.240
925.833;  134.154;  -11.540;  779.320
926.391;  134.762;  -12.960;  938.380
926.949;  133.410;  -14.130;  857.680
927.506;  134.332;  -11.750;  903.500
928.064;  133.257;  -10.250;  877.580
928.622;  132.871;  -13.030;  880.100
929.180;  133.401;  -13.400;  814.180
929.737;  134.284;  -10.700;  808.540
930.295;  137.951;  -10.070;  928.480
930.853;  139.203;  -11.960;  849.100
931.410;  140.131;  -13.120;  821.120
931.968;  140.180;  -10.770;  940.660
932.525;  138.938;  -10.680;  909.380
933.082;  139.683;  -13.130;  811.440
933.640;  141.421;  -13.210;  925.900
934.197;  139.475;  -11.060;  886.360
934.754;  140.337;   -9.580;  897.780
935.312;  143.252;  -14.000;  863.340
935.869;  147.745;  -10.710; 1012.980
936.426;  148.830;   -9.860;  872.800
936.983;  149.682;   -9.710;  889.020
937.540;  148.723;  -13.990;  838.280
938.097;  145.898;  -14.040;  940.120
938.654;  147.421;  -10.310;  898.860
939.211;  149.145;  -10.560;  952.480
939.768;  153.345;  -13.900;  915.420
940.324;  157.310;  -14.760;  904.200
940.881;  158.558;  -10.370;  878.500
941.438;  158.412;   -8.260; 1021.200
941.995;  154.654;  -12.540;  992.560
942.551;  152.271;  -14.670;  875.620
943.108;  152.989;  -10.450;  937.920
943.664;  154.668;  -10.750;  869.340
944.221;  158.528;  -11.550; 1088.140
944.777;  156.836;  -14.770;  869.680
945.334;  158.463;  -12.820;  884.840
945.890;  158.754;  -10.130;  946.480
946.446;  158.478;  -13.470;  947.020
947.003;  161.713;  -12.120;  964.940
947.559;  163.760;   -9.980; 1063.040
948.115;  163.047;   -9.080; 1026.540
948.671;  161.612;  -10.830;  967.300
949.227;  160.119;  -12.440;  859.560
949.783;  157.865;  -12.910;  858.900
950.339;  159.053;  -10.270;  991.000
950.895;  159.202;  -13.630; 1023.840
951.451;  159.323;  -15.100;  925.280
952.007;  158.748;  -11.330;  998.540
952.563;  158.166;  -10.580;  937.780
953.118;  156.596;  -13.440;  904.940
953.674;  156.468;  -12.710;  935.780
954.230;  155.785;  -10.350;  949.640
954.785;  153.786;   -9.190;  936.640
955.341;  151.958;  -11.200;  998.160
955.897;  150.447;  -16.560;  834.660
956.452;  152.764;  -12.570;  953.840
957.008;  150.876;   -7.970; 1083.640
957.563;  149.628;  -11.940; 1009.540
958.118;  145.503;  -13.450;  877.700
958.674;  146.741;  -12.030;  946.780
959.229;  147.797;   -9.410; 1013.980
959.784;  145.917;  -12.000;  832.400
960.339;  144.924;  -14.780; 1001.280
960.894;  141.440;   -9.860;  963.760
961.449;  135.760;   -9.970;  859.960
962.004;  135.291;  -10.900; 1212.840
962.559;  130.778;  -13.150;  860.140
963.114;  127.818;  -13.740;  742.480
963.669;  127.071;   -9.820;  915.500
964.224;  125.524;  -13.890;  874.340
964.779;  125.897;  -12.600;  828.420
965.334;  126.654;  -10.950; 1017.860
965.888;  126.331;  -11.170;  875.360
966.443;  129.216;  -12.540;  972.380
966.998;  128.289;  -15.780;  819.460
967.552;  127.545;   -9.760;  908.380
968.107;  124.295;   -9.060;  868.300
968.661;  124.471;  -11.950;  922.440
969.216;  127.309;  -12.800;  856.280
969.770;  127.794;  -11.210;  917.200
970.324;  126.004;  -11.610;  923.140
970.879;  122.268;  -11.370;  947.180
971.433;  119.866;  -12.540;  952.720
971.987;  113.165;  -11.320;  895.340
972.541;  109.296;  -10.720;  917.100
973.095;  108.774;   -9.680; 1009.460
973.649;  107.824;  -11.440;  809.480
974.203;  106.426;  -11.210;  829.040
974.757;  106.143;  -10.240;  855.220
975.311;  107.165;  -13.720;  872.600
975.865;  106.861;  -13.770;  881.820
976.419;  102.231;  -11.690;  857.400
976.973;   96.416;   -9.510;  849.620
977.526;   89.704;  -12.620;  949.920
978.080;   80.880;  -12.010;  796.780
978.634;   78.802;  -10.170;  921.320
979.187;   77.238;   -9.020;  905.400
979.741;   78.217;   -9.820; 1018.380
980.294;   77.576;  -14.870;  789.160
980.848;   77.689;  -12.380;  717.220
981.401;   79.891;  -10.350;  816.540
981.955;   82.662;  -13.720;  844.300
982.508;   83.224;  -11.490;  746.340
983.061;   84.006;  -10.000;  915.260
983.615;   81.107;  -11.480;  798.800
984.168;   79.130;  -13.220;  770.080
984.721;   79.757;  -13.960;  880.760
985.274;   79.487;  -10.870;  867.500
985.827;   78.614;   -9.790;  834.220
986.380;   76.887;  -13.120;  721.340
986.933;   76.950;  -12.450;  864.800
987.486;   75.840;  -10.210;  861.920
988.039;   74.548;   -8.430;  863.100
988.591;   72.837;  -10.520;  893.260
989.144;   70.186;  -14.860;  737.260
989.697;   70.254;  -13.080;  758.740
990.250;   71.074;  -10.150;  858.100
990.802;   70.381;  -13.430;  755.860
991.355;   71.411;  -12.750;  974.880
991.907;   69.189;  -12.040;  864.320
992.460;   66.967;  -11.330;  753.760
993.012;   65.772;  -13.610;  749.540
993.565;   65.725;  -13.460;  711.360
994.117;   67.553;   -9.360;  950.780
994.669;   62.064;  -11.300;  701.320
995.221;   59.456;  -13.540;  791.920
995.774;   57.412;  -13.430;  787.580
996.326;   57.045;  -12.520;  740.220
996.878;   57.298;  -10.950;  838.420
997.430;   55.099;  -14.300;  699.860
997.982;   55.339;  -13.760;  750.140
998.534;   55.311;  -11.530;  739.060
999.086;   52.884;  -10.310;  738.220
999.638;   51.441;  -12.530;  661.380
1000.190;   51.702;  -11.840;  699.320
1000.741;   52.180;  -10.260;  742.700
1001.293;   50.465;   -8.860;  686.020
1001.845;   49.633;  -13.700;  676.640
1002.396;   49.758;  -12.100;  743.400
1002.948;   50.368;  -12.760;  737.400
1003.500;   47.544;  -10.380;  723.780
1004.051;   48.167;  -11.900;  907.580
1004.603;   46.999;  -12.250;  791.820
1005.154;   44.050;  -13.210;  608.980
1005.705;   41.984;  -10.950;  723.960
1006.257;   41.817;  -13.880;  707.220
1006.808;   41.223;  -12.840;  685.460
1007.359;   41.466;  -10.570;  763.240
1007.910;   39.710;   -9.620;  646.640
1008.461;   39.340;  -13.630;  732.940
1009.013;   38.275;  -17.200;  588.340
1009.564;   40.050;  -10.200;  793.520
1010.115;   37.303;  -12.570;  597.040
1010.665;   36.612;  -15.150;  602.160
1011.216;   37.240;  -14.480;  667.920
1011.767;   37.187;  -11.340;  697.920
1012.318;   36.530;   -9.780;  736.980
1012.869;   35.941;  -12.380;  679.000
1013.419;   35.323;  -15.560;  603.120
1013.970;   36.378;  -11.010;  666.640
1014.521;   34.799;  -11.610;  620.620
1015.071;   34.618;  -13.450;  670.380
1015.622;   35.030;  -13.870;  635.460
1016.172;   34.804;  -11.610;  596.820
1016.723;   34.290;  -12.120;  614.380
1017.273;   33.075;  -13.620;  604.160
1017.823;   34.102;  -14.140;  650.340
1018.374;   33.559;  -12.800;  611.760
1018.924;   33.352;  -12.340;  716.880
1019.474;   33.331;  -11.410;  718.880
1020.024;   32.172;  -14.770;  657.580
1020.574;   33.238;   -9.780;  726.160
1021.124;   32.160;   -8.560;  673.580
1021.674;   31.267;  -15.190;  559.120
1022.224;   32.616;  -13.530;  708.940
1022.774;   31.940;  -13.280;  668.820
1023.324;   32.209;  -10.690;  753.520
1023.874;   32.881;  -10.240;  875.760
1024.423;   31.287;  -12.540;  613.700
1024.973;   30.824;  -10.010;  610.760
1025.523;   29.503;  -10.550;  620.960
1026.072;   29.145;  -13.560;  606.420
1026.622;   29.985;  -15.120;  675.740
1027.172;   31.702;  -11.260;  715.660
1027.721;   29.605;  -11.410;  601.220
1028.270;   29.028;  -13.530;  663.400
1028.820;   30.273;  -13.680;  638.080
1029.369;   29.118;  -13.520;  612.700
1029.918;   29.449;  -10.980;  649.840
1030.468;   27.682;  -13.530;  564.780
1031.017;   29.556;  -13.170;  634.800
1031.566;   28.522;  -12.200;  608.900
1032.115;   27.450;   -9.960;  694.500
1032.664;   26.511;  -13.210;  596.480
1033.213;   28.398;  -12.500;  735.420
1033.762;   27.764;  -11.910;  635.620
1034.311;   27.133;   -9.640;  677.220
1034.860;   27.611;  -13.310;  691.000
1035.408;   28.149;  -11.830;  722.720
1035.957;   27.938;  -12.000;  719.540
1036.506;   25.418;  -11.690;  530.800
1037.055;   27.354;  -10.990;  844.320
1037.603;   26.611;  -15.120;  664.000
1038.152;   24.931;  -12.450;  534.760
1038.700;   25.040;  -10.560;  585.740
1039.249;   24.898;  -11.080;  681.220
1039.797;   26.517;  -12.540;  633.360
1040.345;   26.026;  -11.920;  705.420
1040.894;   25.132;  -11.410;  625.300
1041.442;   24.626;  -14.320;  632.200
1041.990;   24.018;  -16.240;  559.160
1042.538;   24.238;  -11.680;  536.180
1043.087;   23.881;  -10.760;  570.860
1043.635;   24.486;  -11.850;  670.500
1044.183;   24.089;  -15.480;  586.400
1044.731;   23.760;  -11.770;  576.000
1045.279;   23.143;  -13.090;  674.920
1045.827;   24.721;  -12.440;  892.400
1046.374;   22.453;  -13.840;  515.420
1046.922;   22.150;  -13.220;  590.580
1047.470;   23.548;  -10.230;  691.300
1048.018;   22.894;  -14.590;  647.960
1048.565;   23.952;  -12.050;  708.600
1049.113;   23.104;  -11.650;  557.000
1049.660;   22.180;  -10.510;  629.660
1050.208;   21.742;  -13.310;  675.640
1050.755;   21.627;  -15.900;  606.580
1051.303;   22.196;  -11.430;  686.820
1051.850;   21.755;   -8.480;  635.120
1052.397;   20.357;  -15.010;  473.960
1052.945;   21.179;  -13.960;  617.760
1053.492;   22.248;  -13.150;  741.840
1054.039;   21.569;   -9.630;  720.180
1054.586;   20.497;  -13.680;  557.240
1055.133;   21.792;  -14.570;  693.140
1055.680;   21.685;  -13.820;  646.620
1056.227;   20.268;  -11.730;  542.780
1056.774;   21.052;  -12.480;  794.980
1057.321;   19.900;  -13.930;  523.260
1057.868;   21.021;  -11.690;  651.320
1058.415;   19.238;   -9.520;  651.980
1058.961;   19.124;  -13.160;  678.940
1059.508;   19.944;  -12.920;  643.820
1060.055;   20.464;  -11.920;  581.780
1060.601;   19.859;  -11.500;  624.300
1061.148;   18.803;  -14.330;  616.820
1061.694;   19.065;  -16.870;  592.580
1062.241;   19.683;  -10.330;  596.320
1062.787;   19.216;  -10.620;  663.140
1063.334;   20.319;  -10.110;  808.560
1063.880;   20.236;  -13.400;  668.360
1064.426;   19.357;  -10.680;  706.820
1064.972;   17.640;   -9.920;  601.340
1065.518;   16.654;  -10.980;  566.640
1066.065;   18.767;  -14.890;  624.460
1066.611;   18.261;  -12.870;  598.800
1067.157;   18.389;  -12.950;  641.860
1067.703;   17.231;  -13.540;  668.480
1068.249;   17.962;  -13.540;  605.220
1068.794;   17.569;  -12.600;  626.880
1069.340;   16.072;  -10.620;  578.960
1069.886;   16.870;  -12.830;  590.700
1070.432;   16.121;  -14.870;  541.720
1070.977;   16.847;  -11.980;  601.080
1071.523;   16.390;   -8.200;  573.060
1072.068;   16.013;  -12.330;  582.000
1072.614;   16.828;  -16.370;  527.760
1073.160;   17.608;  -11.100;  687.040
1073.705;   15.554;  -10.480;  572.520
1074.250;   15.371;  -14.520;  559.900
1074.796;   16.600;  -11.460;  655.160
1075.341;   17.191;  -11.950;  664.100
1075.886;   15.862;  -11.460;  594.240
1076.431;   15.354;  -13.770;  649.880
1076.976;   15.528;  -12.680;  639.220
1077.521;   15.101;  -13.170;  583.080
1078.067;   14.479;  -10.860;  579.400
1078.612;   15.704;  -13.920;  661.620
1079.156;   15.016;  -13.880;  601.540
1079.701;   16.175;  -13.120;  693.260
1080.246;   15.546;   -9.940;  696.300
1080.791;   14.325;  -14.740;  625.020
1081.336;   14.740;  -13.750;  659.320
1081.880;   14.767;  -13.400;  649.680
1082.425;   13.163;  -12.220;  573.480
1082.970;   14.804;  -11.610;  717.040
1083.514;   14.401;  -13.580;  597.000
1084.059;   13.861;  -12.810;  586.720
1084.603;   13.322;  -12.320;  565.840
1085.147;   13.373;  -13.190;  645.220
1085.692;   14.516;  -12.480;  716.800
1086.236;   12.304;  -13.020;  503.140
1086.780;   14.613;   -9.190;  751.440
1087.325;   12.216;  -12.480;  654.620
1087.869;   14.198;  -12.450;  610.700
1088.413;   14.335;  -12.240;  705.040
1088.957;   11.612;   -9.020;  543.400
1089.501;   13.272;  -10.320;  766.640
1090.045;   13.484;  -12.720;  726.480
1090.589;   11.589;  -13.690;  569.920
1091.133;   11.704;  -10.020;  673.340
1091.676;   12.313;  -12.330;  591.940
1092.220;   11.457;  -14.970;  600.920
1092.764;   13.568;  -12.430;  706.960
1093.307;   12.488;   -9.800;  673.780
1093.851;   10.438;  -14.970;  556.540
1094.395;   12.297;  -15.310;  683.140
1094.938;   11.955;  -10.370;  632.520
1095.482;   11.679;  -11.050;  559.800
1096.025;   11.817;  -11.840;  710.880
1096.568;   12.115;  -12.840;  779.280
1097.112;    9.699;  -14.700;  508.180
1097.655;   11.584;   -8.720;  603.000
1098.198;    9.337;  -13.610;  600.180
1098.741;    9.899;  -13.350;  612.860
1099.285;   11.251;  -11.230;  657.300
1099.828;    9.003;  -11.840;  439.400
1100.371;   10.613;  -10.840;  608.160
1100.914;   10.643;  -14.190;  682.660
1101.457;   10.365;  -11.240;  679.900
1101.999;    8.832;  -11.270;  584.680
1102.542;    9.458;  -11.480;  641.440
1103.085;    9.515;  -11.750;  658.500
1103.628;   10.642;  -11.400;  762.060
1104.170;    9.209;  -10.490;  588.280
1104.713;    9.259;  -10.600;  646.700
1105.256;    8.826;  -14.360;  557.440
1105.798;    9.212;  -13.210;  499.980
1106.341;   10.022;  -10.270;  728.900
1106.883;    7.998;  -12.200;  521.340
1107.425;    9.216;  -13.110;  668.180
1107.968;    8.845;  -12.840;  612.380
1108.510;    9.181;   -6.480;  684.960
1109.052;    7.047;  -13.940;  612.620
1109.594;    8.004;  -13.690;  554.440
1110.136;    9.783;  -11.880;  643.220
1110.679;    7.669;   -9.500;  633.080
1111.221;    8.712;  -14.160;  604.460
1111.763;    7.769;  -13.980;  559.220
1112.304;    8.143;  -13.880;  547.140
1112.846;    8.557;  -12.210;  666.240
1113.388;   10.651;  -11.390;  942.180
1113.930;    8.852;  -14.540;  694.200
1114.472;    7.198;  -12.640;  606.540
1115.013;    5.901;  -11.620;  551.280
1115.555;    6.605;  -13.640;  587.100
1116.097;    6.812;  -15.380;  579.480
1116.638;    7.603;  -12.640;  684.600
1117.180;    7.203;   -9.850;  667.740
1117.721;    6.974;  -13.690;  568.580
1118.262;    7.720;  -12.680;  677.960
1118.804;    8.075;  -12.530;  637.340
1119.345;    6.549;  -11.690;  578.400
1119.886;    7.604;  -13.380;  704.040
1120.427;    5.564;  -14.070;  589.020
1120.969;    6.564;  -13.500;  597.920
1121.510;    5.334;  -11.480;  563.060
1122.051;    6.335;  -12.830;  723.580
1122.592;    5.723;  -14.290;  655.420
1123.133;    5.347;  -12.400;  547.940
1123.673;    6.717;  -10.130;  706.480
1124.214;    5.417;  -12.930;  612.460
1124.755;    6.260;  -14.380;  639.460
1125.296;    6.219;  -14.000;  627.320
1125.836;    6.436;  -10.070;  691.500
1126.377;    5.092;  -12.640;  599.660
1126.918;    5.441;  -12.960;  614.980
1127.458;    5.146;  -13.350;  622.220
1127.999;    5.471;  -10.750;  656.980
1128.539;    5.799;  -12.350;  694.240
1129.079;    4.867;  -14.860;  632.720
1129.620;    4.469;  -13.840;  558.100
1130.160;    4.056;  -12.330;  539.480
1130.700;    4.715;  -14.530;  640.840
1131.240;    5.316;  -12.530;  643.700
1131.781;    4.717;  -14.450;  619.680
1132.321;    4.976;   -9.790;  599.120
1132.861;    3.354;  -14.860;  564.200
1133.401;    3.629;  -14.290;  593.940
1133.941;    4.764;  -11.750;  626.280
1134.481;    3.042;   -9.920;  597.580
1135.020;    3.368;  -12.290;  609.160
1135.560;    4.569;  -11.650;  674.940
1136.100;    3.333;  -16.270;  501.160
1136.640;    2.588;  -10.890;  510.480
1137.179;    2.695;  -14.180;  537.960
1137.719;    3.948;  -16.250;  605.400
1138.258;    4.103;  -14.230;  587.360
1138.798;    3.539;   -9.090;  663.780
1139.337;    1.583;  -15.130;  482.840
1139.877;    3.126;  -13.680;  642.360
1140.416;    5.583;  -11.320;  878.060
1140.955;    1.572;  -10.860;  535.380
1141.494;    2.359;  -12.920;  669.280
1142.034;    2.906;  -13.930;  583.520
1142.573;    3.749;  -11.440;  646.280
1143.112;    2.554;  -12.000;  553.480
1143.651;    1.880;  -13.670;  536.480
1144.190;    3.602;  -12.730;  691.640
1144.729;    2.433;  -14.560;  607.420
1145.267;    2.325;  -11.830;  584.900
1145.806;    2.445;  -12.230;  637.040
1146.345;    1.815;  -14.130;  635.020
1146.884;    2.324;  -11.590;  622.500
1147.422;    1.654;  -12.550;  533.060
1147.961;    2.790;  -11.180;  708.460
1148.500;    2.751;  -11.510;  669.720
1149.038;    3.365;  -11.640;  632.500
1149.577;    2.222;  -10.130;  698.640
1150.115;   -0.370;  -13.970;  452.280
1150.653;    1.931;  -14.520;  607.340
1151.192;    1.976;  -12.810;  552.920
1151.730;    1.738;   -9.100;  652.560
1152.268;    0.409;  -12.220;  589.520
1152.806;    1.730;  -14.140;  571.180
1153.344;    0.438;  -12.350;  577.640
1153.882;    0.928;   -8.980;  600.060
1154.421;   -0.660;  -15.190;  470.620
1154.958;   -0.196;  -15.210;  595.240
1155.496;    2.611;  -12.850;  645.280
1156.034;    0.570;   -9.940;  721.880
1156.572;    1.210;  -13.570;  667.060
1157.110;    0.572;  -14.590;  473.940
1157.647;    1.470;  -13.030;  676.960
1158.185;    0.359;  -12.140;  564.320
1158.723;   -0.980;  -14.390;  509.200
1159.260;    0.382;  -14.090;  701.700
1159.798;    1.210;  -11.920;  658.160
1160.335;    0.342;  -11.110;  631.820

