
Integration time [ms]:   3.276
Averaging Nr. [scans]: 1000
Smoothing Nr. [pixels]: 0
Data measured with spectrometer [name]: 7414430SP
Wave   ;Sample   ;Dark     ;Reference
[nm]   ;[counts] ;[counts] ;[counts] 

288.544;  151.152;    7.793;  793.890
289.143;  154.262;    7.462;  681.602
289.742;  155.446;    8.602;  828.814
290.341;  140.405;    1.321;  789.841
290.940;  129.731;   -0.709;  730.702
291.538;  130.378;    0.881;  881.108
292.137;  130.804;    0.122;  792.581
292.736;  134.805;   -1.929;  975.101
293.335;  131.885;   -8.229;  735.086
293.934;  131.951;   -5.279;  781.677
294.532;  130.619;   -1.369; 1031.958
295.131;  115.900;   -7.641;  834.394
295.730;  116.936;   -8.420;  809.588
296.328;  116.129;   -5.611;  783.442
296.927;  116.001;   -5.781;  779.652
297.525;  117.643;   -6.361;  781.236
298.124;  107.244;  -11.382;  654.009
298.722;  110.862;   -7.641;  761.933
299.321;  109.545;   -6.811;  708.597
299.919;  106.717;   -6.991;  751.918
300.518;  103.626;  -10.362;  689.338
301.116;  105.482;   -9.581;  691.381
301.715;  105.633;   -4.891;  730.222
302.313;  104.906;   -8.801;  704.943
302.911;  100.410;   -8.522;  733.830
303.509;  104.777;   -6.171;  925.627
304.108;  102.331;   -7.311;  760.383
304.706;  102.562;   -8.321;  801.664
305.304;   96.325;  -10.222;  796.707
305.902;  102.432;   -6.021;  784.484
306.500;   98.299;   -4.971;  728.200
307.098;   95.893;   -7.061;  746.560
307.696;   94.603;   -8.801;  780.432
308.294;   95.401;   -6.411;  731.359
308.892;   96.953;   -2.901;  759.769
309.490;   92.449;   -5.041;  712.161
310.088;   90.569;   -5.002;  788.444
310.686;   95.739;   -2.041;  821.749
311.284;   90.939;   -2.351;  766.040
311.882;   88.512;   -4.422;  731.225
312.480;   85.873;   -4.192;  697.167
313.078;   86.851;   -1.172;  808.331
313.675;   88.182;   -2.601;  691.600
314.273;   83.338;   -1.312;  797.837
314.871;   82.312;   -3.942;  589.829
315.468;   80.218;   -2.802;  652.090
316.066;   83.036;   -0.701;  694.427
316.664;   75.605;   -4.362;  656.351
317.261;   79.830;   -2.872;  910.128
317.859;   75.518;   -2.022;  768.735
318.456;   75.553;   -0.531;  830.096
319.054;   71.392;   -3.912;  787.828
319.651;   71.148;   -4.752;  759.928
320.249;   69.512;   -2.602;  810.188
320.846;   67.581;   -0.821;  714.286
321.443;   64.846;   -4.642;  832.135
322.041;   61.626;   -5.002;  812.315
322.638;   60.295;   -3.982;  701.456
323.235;   60.977;   -3.411;  665.683
323.833;   57.863;   -7.361;  740.354
324.430;   52.912;   -8.611;  615.900
325.027;   54.137;   -4.061;  876.855
325.624;   54.068;   -4.031;  644.532
326.221;   51.485;   -7.481;  689.717
326.818;   51.134;   -5.281;  818.332
327.415;   54.372;   -7.460;  748.828
328.012;   54.443;   -5.510;  690.585
328.609;   51.744;   -7.880;  731.389
329.206;   50.595;   -8.331;  778.621
329.803;   51.246;   -5.121;  737.841
330.400;   53.092;   -4.510;  704.260
330.997;   54.157;   -6.441;  817.147
331.594;   52.894;   -8.831;  788.185
332.191;   58.456;   -7.621;  728.722
332.787;   60.584;   -4.591;  844.463
333.384;   59.675;   -7.412;  763.093
333.981;   58.370;   -8.293;  815.687
334.578;   61.494;   -7.052;  708.378
335.174;   64.452;   -3.102;  731.469
335.771;   63.253;   -5.943;  836.456
336.367;   60.803;   -7.393;  710.631
336.964;   64.090;   -4.063;  793.266
337.561;   61.632;   -3.813;  731.112
338.157;   58.630;   -4.654;  911.916
338.754;   55.191;   -7.934;  796.589
339.350;   53.102;   -4.414;  722.493
339.946;   56.288;   -4.664;  773.135
340.543;   47.103;   -6.375;  846.136
341.139;   41.593;   -9.815;  720.836
341.735;   40.751;   -4.526;  772.593
342.332;   38.892;   -4.895;  691.472
342.928;   38.749;   -4.295;  795.394
343.524;   33.336;   -5.476;  761.684
344.120;   29.730;   -5.856;  738.562
344.716;   31.770;   -2.155;  723.717
345.313;   30.575;   -6.275;  795.342
345.909;   24.907;   -8.815;  627.336
346.505;   26.095;   -5.305;  740.247
347.101;   27.078;   -2.674;  827.864
347.697;   27.916;   -4.344;  785.398
348.293;   22.284;   -9.975;  627.244
348.889;   23.415;   -5.774;  745.914
349.485;   22.413;   -5.004;  688.205
350.081;   23.184;   -4.704;  772.592
350.676;   17.868;   -6.635;  691.606
351.272;   22.613;   -4.504;  809.530
351.868;   21.734;   -3.914;  780.497
352.464;   19.161;   -9.044;  723.932
353.059;   15.507;   -8.314;  646.017
353.655;   18.616;   -7.024;  777.063
354.251;   20.110;   -5.343;  759.845
354.846;   14.575;   -8.604;  740.646
355.442;   12.357;   -6.945;  753.071
356.038;   14.408;   -7.564;  751.708
356.633;   14.068;   -5.814;  728.594
357.229;   12.533;   -7.364;  724.757
357.824;   10.055;   -8.024;  703.600
358.420;   10.435;   -9.384;  679.726
359.015;   10.219;   -5.104;  695.357
359.610;   10.422;   -6.854;  763.920
360.206;    5.172;  -10.185;  603.240
360.801;    8.390;   -7.054;  646.503
361.396;   10.644;   -5.034;  725.975
361.992;    5.715;   -8.284;  668.220
362.587;    3.300;   -8.625;  670.160
363.182;    4.517;   -7.674;  689.631
363.777;    5.926;   -5.164;  738.242
364.372;    5.627;   -8.604;  737.314
364.967;    0.992;   -9.055;  680.744
365.563;    5.989;   -6.114;  815.567
366.158;    2.936;   -5.814;  685.161
366.753;    2.843;   -7.854;  649.263
367.348;    1.413;   -7.804;  746.056
367.942;    1.390;   -7.954;  697.298
368.537;    0.560;   -4.984;  754.245
369.132;    1.016;   -8.564;  703.428
369.727;   -2.802;   -8.855;  638.079
370.322;   -1.772;   -6.245;  580.186
370.917;   -1.973;   -6.425;  710.646
371.511;    0.472;   -6.294;  861.834
372.106;   -3.320;   -7.685;  776.964
372.701;   -5.731;   -7.335;  585.988
373.296;   -0.427;   -4.564;  863.135
373.890;   -5.312;  -10.235;  647.840
374.485;   -7.251;   -7.885;  691.199
375.079;   -3.883;   -7.324;  738.685
375.674;   -2.337;   -3.494;  812.970
376.268;   -6.247;   -8.525;  691.759
376.863;  -12.542;  -10.086;  580.327
377.457;   -6.173;   -7.025;  662.490
378.052;   -7.749;   -3.585;  764.884
378.646;   -9.325;   -7.595;  741.167
379.240;   -9.023;   -8.335;  721.176
379.835;   -7.746;   -5.785;  636.978
380.429;  -10.666;   -4.335;  562.557
381.023;  -10.184;   -6.805;  779.205
381.617;  -13.009;   -9.195;  680.106
382.212;   -9.019;   -6.905;  685.303
382.806;   -8.112;   -3.745;  760.690
383.400;  -12.245;   -7.745;  672.281
383.994;  -13.321;   -9.765;  664.870
384.588;   -9.354;   -6.564;  697.701
385.182;   -7.710;   -5.344;  726.624
385.776;   -9.507;   -8.514;  706.875
386.370;  -12.256;   -9.555;  681.968
386.964;  -12.459;   -8.715;  684.155
387.558;  -10.522;   -6.174;  598.360
388.152;  -13.704;   -8.725;  681.959
388.745;  -11.660;   -7.965;  814.707
389.339;  -10.127;   -5.924;  747.642
389.933;   -9.223;   -5.524;  695.370
390.527;  -10.469;   -7.114;  859.029
391.120;  -16.576;  -10.725;  595.318
391.714;  -13.522;   -8.035;  711.633
392.308;  -10.829;   -3.574;  780.253
392.901;  -13.912;   -7.245;  642.460
393.495;  -16.345;   -9.285;  595.414
394.089;  -14.067;   -5.895;  760.452
394.682;  -14.508;   -4.295;  697.188
395.275;  -15.769;   -9.875;  719.927
395.869;  -15.982;   -8.485;  667.314
396.462;  -14.079;   -7.455;  616.609
397.056;  -10.570;   -5.424;  776.621
397.649;  -16.301;   -6.605;  731.575
398.242;  -13.308;   -8.224;  712.645
398.836;  -11.851;   -7.474;  766.408
399.429;  -12.855;   -7.094;  631.041
400.022;  -17.397;   -9.475;  665.902
400.615;  -14.274;   -7.145;  805.609
401.208;  -11.738;   -7.174;  691.451
401.802;  -14.937;   -5.515;  699.329
402.395;  -15.835;   -9.875;  683.502
402.988;  -16.551;   -8.845;  696.627
403.581;  -13.282;   -8.874;  646.878
404.174;  -11.392;   -5.324;  686.568
404.767;  -14.653;   -9.575;  638.583
405.360;  -16.536;  -10.965;  621.445
405.953;  -10.958;   -8.764;  759.034
406.545;  -11.263;   -7.514;  725.342
407.138;  -14.529;  -10.025;  618.350
407.731;  -13.323;  -10.034;  613.303
408.324;  -10.322;   -9.374;  660.554
408.917;  -11.235;   -6.534;  681.864
409.509;  -13.583;   -8.004;  740.396
410.102;  -14.787;   -9.875;  643.948
410.695;   -9.071;   -8.604;  665.758
411.287;   -9.663;   -6.794;  599.821
411.880;  -11.569;   -9.334;  585.421
412.472;  -13.698;  -10.254;  613.092
413.065;  -11.178;   -6.714;  629.408
413.657;   -8.667;   -7.234;  576.678
414.250;   -9.171;  -10.544;  646.681
414.842;  -10.621;   -9.744;  676.353
415.434;   -8.178;   -6.994;  570.463
416.027;   -4.406;   -5.893;  652.196
416.619;   -6.080;   -7.264;  713.400
417.211;   -6.871;  -10.374;  599.352
417.804;   -3.562;   -7.993;  628.499
418.396;   -7.693;   -7.234;  607.643
418.988;   -5.097;   -9.443;  659.238
419.580;   -7.975;  -10.724;  568.276
420.172;   -6.182;  -10.323;  536.196
420.764;   -2.229;   -8.793;  672.482
421.356;   -3.361;  -11.143;  636.898
421.948;   -4.209;   -8.293;  677.661
422.540;    1.168;   -7.893;  680.027
423.132;    0.061;   -7.082;  600.641
423.724;   -3.112;   -8.653;  561.267
424.316;   -1.200;  -10.213;  621.345
424.908;    2.239;   -9.762;  591.517
425.500;    3.384;   -5.572;  647.978
426.092;    3.399;   -8.422;  648.268
426.683;    2.887;   -9.283;  684.836
427.275;    5.160;   -7.852;  641.471
427.867;    6.815;   -5.272;  668.948
428.458;    7.095;   -7.682;  732.344
429.050;    5.071;  -10.612;  680.749
429.642;    7.695;   -9.882;  743.124
430.233;    8.342;   -6.962;  569.356
430.825;    9.582;   -6.842;  724.809
431.416;    6.360;   -9.672;  698.241
432.008;   10.980;   -6.552;  651.723
432.599;   11.359;   -6.891;  656.073
433.190;    7.987;  -10.912;  637.670
433.782;    7.540;  -11.172;  590.395
434.373;   14.918;   -6.061;  884.765
434.964;   13.857;   -8.251;  602.920
435.556;   11.300;   -9.722;  634.537
436.147;   14.312;   -9.082;  758.490
436.738;   14.535;   -8.041;  701.099
437.329;   19.429;   -7.341;  721.723
437.920;   11.980;   -8.162;  666.688
438.511;   11.941;  -11.802;  564.526
439.103;   19.391;  -10.191;  623.998
439.694;   20.226;   -7.601;  681.583
440.285;   21.617;   -8.541;  764.432
440.876;   19.690;   -9.751;  845.738
441.466;   19.057;   -9.401;  575.162
442.057;   24.110;   -7.760;  665.814
442.648;   23.650;   -9.971;  746.255
443.239;   20.783;  -11.001;  620.477
443.830;   26.810;   -7.990;  704.958
444.421;   28.459;   -7.910;  655.474
445.011;   24.709;   -8.131;  693.619
445.602;   24.838;   -7.111;  743.126
446.193;   25.929;  -10.920;  488.117
446.783;   30.878;   -6.500;  640.397
447.374;   25.994;   -8.671;  692.759
447.964;   26.422;  -10.781;  713.770
448.555;   35.180;   -9.650;  822.742
449.145;   31.809;   -8.660;  662.853
449.736;   33.172;   -8.990;  803.179
450.326;   32.769;   -9.500;  713.626
450.917;   37.319;   -8.680;  675.324
451.507;   35.771;   -7.520;  600.661
452.097;   37.038;   -8.590;  746.267
452.688;   37.710;  -11.340;  742.160
453.278;   38.051;  -10.100;  566.840
453.868;   41.770;   -6.019;  793.550
454.458;   39.623;   -9.440;  651.141
455.048;   40.397;  -10.560;  711.783
455.639;   42.172;  -11.799;  567.096
456.229;   45.739;   -6.899;  710.694
456.819;   47.366;   -7.389;  751.158
457.409;   46.982;  -11.119;  773.993
457.999;   50.713;   -9.289;  737.505
458.589;   49.905;   -6.139;  686.606
459.179;   49.807;   -8.729;  717.658
459.769;   48.393;   -9.789;  627.099
460.358;   52.925;  -10.259;  797.262
460.948;   53.857;   -7.299;  689.503
461.538;   54.680;  -10.289;  660.677
462.128;   52.149;  -11.269;  664.934
462.717;   59.365;   -9.368;  710.326
463.307;   62.019;   -7.908;  705.846
463.897;   57.822;   -9.599;  656.942
464.486;   56.887;   -9.769;  837.128
465.076;   61.926;   -8.048;  733.776
465.666;   66.102;   -9.358;  652.900
466.255;   62.409;   -7.919;  785.651
466.845;   62.345;  -11.689;  666.749
467.434;   64.953;   -7.818;  725.873
468.023;   66.563;   -7.678;  658.357
468.613;   63.689;  -10.939;  713.946
469.202;   67.981;  -10.118;  646.507
469.791;   71.791;   -9.108;  737.811
470.381;   74.266;   -6.058;  742.813
470.970;   73.744;  -10.428;  711.099
471.559;   73.905;  -10.268;  733.291
472.148;   76.913;   -8.448;  675.737
472.738;   79.222;   -6.917;  765.466
473.327;   78.090;  -11.978;  637.529
473.916;   78.445;  -11.888;  737.446
474.505;   82.428;   -9.437;  751.703
475.094;   85.352;   -6.747;  806.570
475.683;   84.484;   -9.367;  797.699
476.272;   85.084;  -12.637;  730.632
476.861;   87.949;  -10.027;  706.754
477.449;   95.163;   -8.716;  728.487
478.038;   89.856;   -9.577;  692.513
478.627;   90.035;   -9.718;  714.852
479.216;   97.191;   -8.947;  769.441
479.805;  100.015;   -6.256;  783.375
480.393;   99.196;   -7.937; 1008.945
480.982;   98.586;   -7.717;  874.501
481.571;  105.466;   -9.266;  858.333
482.159;  106.127;   -7.636;  705.386
482.748;  104.988;   -9.667;  821.385
483.336;  110.313;  -10.376;  858.209
483.925;  110.087;   -7.147;  774.373
484.513;  117.056;   -7.996;  758.962
485.102;  113.150;  -10.027;  810.965
485.690;  122.243;  -10.446; 1011.050
486.278;  124.296;   -8.446;  979.329
486.867;  124.619;   -6.356;  809.662
487.455;  126.487;   -9.136;  898.229
488.043;  127.285;  -10.646;  748.361
488.631;  136.776;   -7.456; 1005.079
489.220;  140.350;   -6.636;  908.626
489.808;  140.462;  -11.036;  741.415
490.396;  149.405;  -10.246;  914.645
490.984;  154.671;   -8.556;  830.161
491.572;  164.357;   -5.886;  940.315
492.160;  170.060;   -9.486;  919.081
492.748;  182.676;  -10.976;  884.341
493.336;  205.259;   -8.776; 1019.693
493.924;  231.225;   -5.465;  958.077
494.512;  259.541;   -9.986; 1066.638
495.100;  296.134;  -10.636; 1103.280
495.687;  348.321;  -10.885; 1206.373
496.275;  408.649;   -8.126; 1150.796
496.863;  474.012;  -10.586; 1281.171
497.451;  569.392;  -11.926; 1386.805
498.038;  700.398;  -10.885; 1556.729
498.626;  805.568;   -6.315; 1741.407
499.214;  945.564;   -7.326; 2016.609
499.801; 1127.169;  -11.906; 2220.633
500.389; 1367.966;  -10.466; 2312.494
500.976; 1668.469;   -5.236; 2744.849
501.564; 2076.865;   -8.936; 3148.565
502.151; 2428.421;  -13.176; 3515.999
502.738; 2847.677;  -10.646; 3971.274
503.326; 3224.315;   -9.525; 4403.796
503.913; 3587.226;  -10.856; 5161.749
504.500; 3900.426;  -11.586; 5986.420
505.088; 4322.149;  -10.336; 6381.201
505.675; 4830.032;   -6.355; 6925.547
506.262; 5448.723;   -9.046; 7619.060
506.849; 6118.899;  -10.416; 8733.969
507.436; 6590.338;  -10.305; 9790.121
508.023; 7157.112;   -5.496; 9985.472
508.610; 7396.868;   -7.856;10434.618
509.197; 7992.762;  -10.097;11198.435
509.784; 9301.415;  -10.886;12391.194
510.371;10285.211;   -9.315;13603.713
510.958;10980.271;   -9.936;14426.586
511.545;11693.760;   -9.326;15243.775
512.132;12599.548;  -10.075;15945.876
512.719;13160.121;   -7.796;16340.369
513.305;14022.659;  -10.606;18011.766
513.892;14746.391;  -11.486;19754.971
514.479;16033.737;   -9.126;20967.805
515.066;17534.811;   -6.026;22299.793
515.652;18673.840;   -8.466;22908.660
516.239;19791.141;  -10.886;23798.875
516.825;20817.105;  -11.496;25567.275
517.412;21717.775;   -5.796;28154.959
517.998;22523.002;  -10.506;28344.111
518.585;22680.467;  -10.076;27134.219
519.171;22983.008;   -8.315;27268.576
519.758;24118.449;   -8.596;28964.129
520.344;26013.379;   -8.466;30664.494
520.930;26277.488;  -11.006;32550.605
521.516;27481.561;  -10.495;35422.895
522.103;29808.426;   -5.526;38280.004
522.689;30492.850;   -8.746;37835.117
523.275;30215.785;  -11.376;37288.613
523.861;31303.441;  -11.156;37281.395
524.447;32404.816;   -8.135;37846.949
525.033;31645.373;   -7.896;38321.949
525.619;31555.611;  -12.476;38579.285
526.205;32687.371;   -9.516;40622.875
526.791;34557.375;   -6.926;42258.836
527.377;32788.098;   -8.346;42966.902
527.963;32265.711;   -8.717;42018.949
528.549;31989.764;  -11.016;42476.828
529.135;33419.930;   -8.536;41854.852
529.721;35191.586;   -9.666;41237.711
530.306;35652.879;  -10.066;41259.445
530.892;35776.758;  -11.356;41506.047
531.478;37132.355;   -6.596;43559.613
532.063;39565.211;   -8.836;47695.563
532.649;40013.363;  -10.047;50808.324
533.235;40832.352;   -9.746;51787.500
533.820;41508.883;   -6.566;52145.035
534.406;42444.574;  -10.817;51133.488
534.991;41964.258;   -9.416;49996.805
535.576;40483.477;   -9.036;48882.852
536.162;40732.625;   -6.156;46942.285
536.747;41359.906;  -11.607;45711.746
537.333;43588.695;  -11.787;48510.180
537.918;44896.949;  -12.437;50439.891
538.503;41256.066;   -7.196;50863.711
539.088;36545.129;  -10.556;50906.922
539.673;36936.719;   -8.767;52621.965
540.259;39435.691;  -10.026;52368.094
540.844;40134.566;   -7.416;50879.109
541.429;43320.777;   -9.467;52077.777
542.014;47845.625;   -9.527;52716.695
542.599;48138.191;   -9.946;52363.281
543.184;45275.957;   -7.927;53187.137
543.769;46246.734;   -9.297;54697.605
544.354;45775.492;  -10.127;53913.914
544.938;44700.391;   -9.267;49680.164
545.523;46822.426;   -6.506;47386.277
546.108;49170.121;   -9.787;49151.949
546.693;51353.289;  -11.587;51384.637
547.278;51317.535;  -10.986;51853.254
547.862;48232.227;   -8.206;51173.750
548.447;43585.508;  -10.067;51691.395
549.031;42876.605;   -9.637;52456.703
549.616;47565.918;   -9.926;52714.516
550.201;46808.547;   -6.347;52414.598
550.785;47618.617;   -7.917;52355.059
551.370;47004.434;  -10.867;54589.453
551.954;47040.898;   -9.047;58267.348
552.538;48307.246;   -7.827;59062.176
553.123;46494.625;  -10.287;58115.285
553.707;43902.066;  -12.178;56556.285
554.291;44674.707;   -8.717;56201.668
554.876;46741.980;   -7.457;55335.762
555.460;47415.129;  -10.387;54155.703
556.044;49174.770;   -9.618;53721.484
556.628;47532.980;  -11.567;53731.016
557.212;46070.891;   -8.097;54312.531
557.796;43873.727;  -11.077;53797.773
558.380;44104.574;  -11.108;56145.984
558.964;45088.773;   -9.057;57277.930
559.548;46310.602;   -6.977;56459.641
560.132;44222.992;  -11.457;54434.543
560.716;42832.141;  -11.378;54800.617
561.300;43712.613;   -9.577;57606.945
561.884;44680.992;   -7.127;58972.445
562.467;43175.727;   -7.118;57327.570
563.051;42756.602;  -13.358;54962.434
563.635;43609.965;  -10.178;52594.473
564.219;43733.750;   -7.837;50610.410
564.802;44305.922;  -11.398;49551.180
565.386;44542.547;  -12.788;48370.953
565.969;44389.273;   -9.077;48178.871
566.553;43099.914;   -6.207;49957.305
567.136;43442.754;   -8.568;50369.594
567.720;39872.957;  -11.868;49492.004
568.303;38059.629;   -8.268;50616.352
568.887;37977.793;   -8.698;50727.148
569.470;38184.352;   -6.808;51698.379
570.053;37442.832;  -13.188;52122.078
570.637;35727.980;  -12.037;52536.438
571.220;35072.191;   -8.577;51186.098
571.803;35412.332;   -8.498;51032.762
572.386;37459.227;  -10.498;49609.887
572.969;39991.410;   -9.388;48285.926
573.552;38552.762;   -8.338;47624.285
574.135;37331.938;   -8.518;45498.641
574.718;34977.926;  -13.628;41970.434
575.301;33869.250;  -10.893;41447.137
575.884;32760.570;   -8.158;40923.836
576.467;33898.184;  -10.328;45267.723
577.050;35815.453;  -13.058;48175.543
577.633;37586.848;   -9.458;47729.328
578.216;36701.117;   -8.928;47579.793
578.799;35564.098;   -9.358;47820.996
579.381;34258.309;  -11.388;48115.551
579.964;32427.652;  -11.718;47333.766
580.547;33881.828;   -8.588;46668.969
581.129;34861.773;   -8.859;44466.141
581.712;35609.402;  -10.729;44164.922
582.294;36407.230;  -11.118;46477.855
582.877;36496.523;   -5.218;48244.254
583.459;34425.977;   -8.679;47437.895
584.042;32578.029;  -10.709;46943.219
584.624;32826.996;  -11.669;46792.227
585.206;32297.391;   -8.218;46557.250
585.789;32342.865;  -10.569;45793.773
586.371;35181.816;  -11.859;43836.391
586.953;36205.660;  -10.719;42972.492
587.536;37041.137;   -7.198;42487.211
588.118;37260.754;   -8.720;42086.414
588.700;33536.180;  -10.439;43389.930
589.282;32508.074;   -9.198;43646.039
589.864;33207.691;   -9.199;43438.109
590.446;34312.273;  -11.319;43151.926
591.028;34324.172;  -11.159;42781.867
591.610;33311.219;  -11.779;42839.098
592.192;30463.910;   -7.668;42820.402
592.774;28961.432;  -11.949;40724.277
593.356;27884.938;  -12.129;39874.789
593.937;27304.963;  -10.669;39980.648
594.519;29232.951;   -6.509;42069.633
595.101;31391.813;  -10.849;42976.031
595.683;31686.197;  -11.679;44084.441
596.264;32745.635;   -9.049;43478.797
596.846;32076.803;   -8.849;43803.672
597.427;31613.430;   -9.570;42986.934
598.009;33248.309;  -12.620;42832.219
598.591;33632.066;  -10.039;42580.086
599.172;32856.547;  -10.369;43061.805
599.753;32812.984;   -9.140;41691.469
600.335;34350.676;  -11.430;40692.520
600.916;32935.227;   -9.939;39982.422
601.498;30513.102;   -8.479;40318.617
602.079;29164.602;  -10.920;40670.609
602.660;29007.172;  -11.480;41450.898
603.241;30451.080;  -11.699;41137.738
603.823;29313.986;   -9.579;38868.797
604.404;28738.238;  -10.620;38182.785
604.985;30180.953;  -10.450;38078.047
605.566;29826.053;   -9.129;38056.633
606.147;29736.373;   -7.510;37020.418
606.728;31758.467;  -10.660;37883.359
607.309;30784.109;  -11.740;38748.273
607.890;30089.582;   -9.759;38850.230
608.471;29617.844;   -8.250;37457.918
609.051;28970.105;   -9.240;36066.457
609.632;27988.393;  -12.120;35991.074
610.213;28765.711;   -9.110;37402.641
610.794;29555.271;   -8.030;38383.363
611.374;28919.049;   -8.110;40562.387
611.955;29334.971;  -13.560;38533.727
612.536;30849.764;  -11.400;36951.789
613.116;30402.775;   -8.070;37197.891
613.697;30716.053;  -10.830;38411.125
614.277;29152.617;  -11.641;38673.938
614.858;30169.021;  -13.310;37075.863
615.438;29577.586;   -7.460;35092.906
616.019;26817.209;   -7.601;33666.301
616.599;27338.695;  -12.020;34189.023
617.179;29370.609;  -11.780;36952.047
617.760;30155.268;   -8.570;39582.574
618.340;31171.127;  -11.471;38943.977
618.920;32771.000;  -11.170;37594.156
619.500;32600.264;  -11.071;37866.938
620.080;31670.787;   -7.750;37869.043
620.660;32602.039;  -12.711;36868.617
621.241;33692.391;  -10.211;36352.309
621.821;33858.953;  -10.961;35459.520
622.401;33212.707;   -7.720;35207.414
622.980;32236.773;   -8.981;35980.422
623.560;30756.279;   -9.331;37351.328
624.140;29889.781;   -9.850;34388.582
624.720;25119.275;   -7.451;32368.764
625.300;21500.656;   -9.070;32638.629
625.880;24758.043;  -12.601;34599.035
626.459;28508.252;  -11.751;36831.738
627.039;31569.238;   -9.281;38299.098
627.619;31763.313;   -8.801;38289.574
628.198;30106.820;  -12.071;37220.695
628.778;29152.244;   -9.461;37632.563
629.357;29782.209;   -8.491;38003.012
629.937;29757.100;   -9.721;38402.039
630.516;29261.646;   -9.951;37868.801
631.096;29221.260;  -11.731;35760.410
631.675;31666.996;   -8.572;35225.219
632.254;36973.656;  -11.282;35130.289
632.834;36464.262;  -13.322;35794.570
633.413;34582.738;  -10.301;35788.922
633.992;31836.768;   -8.582;34532.863
634.571;32895.238;   -8.352;33590.113
635.151;35877.348;  -11.912;34943.863
635.730;34377.938;  -10.511;35352.523
636.309;30767.693;   -7.731;35366.605
636.888;27947.143;   -9.952;36165.637
637.467;28460.797;  -11.672;37515.902
638.046;30350.402;   -8.901;39288.695
638.625;33378.340;   -7.912;38279.699
639.204;33251.516;  -10.022;37741.598
639.782;31682.693;  -12.252;38364.551
640.361;28131.605;  -10.041;36740.621
640.940;25240.453;  -11.161;34950.082
641.519;25683.215;   -9.701;34137.398
642.097;28114.693;  -11.271;35654.258
642.676;31097.246;   -8.651;35637.957
643.255;32184.725;   -8.711;36567.074
643.833;31411.494;   -9.581;37809.434
644.412;31843.244;  -13.711;37337.293
644.990;31022.893;  -11.811;37018.531
645.569;30580.584;   -9.411;36518.469
646.147;29667.504;  -10.291;36186.430
646.726;29271.629;  -12.401;36267.688
647.304;30427.703;  -10.411;36647.625
647.882;32257.920;   -9.651;39286.742
648.461;33872.836;   -9.631;39157.703
649.039;32281.947;  -11.881;35412.883
649.617;31578.977;   -9.661;34744.918
650.195;31267.895;   -9.301;35403.098
650.773;30246.545;  -10.511;35053.797
651.352;27526.561;  -11.521;33756.816
651.930;25181.896;  -12.211;31868.773
652.508;23741.270;   -9.171;33121.551
653.086;27659.273;   -9.371;33564.793
653.663;30639.176;  -13.161;34054.668
654.241;29406.191;  -13.031;35693.309
654.819;30855.918;   -9.371;36422.906
655.397;30757.313;  -10.511;38213.484
655.975;30591.973;  -10.371;39507.625
656.553;30779.797;  -10.051;39498.223
657.130;28985.459;  -10.061;40395.480
657.708;28117.828;   -9.561;39242.020
658.286;28220.203;  -11.511;38920.020
658.863;29479.971;  -10.261;40202.898
659.441;32306.482;   -7.531;39677.938
660.018;31797.459;   -9.501;40413.355
660.596;30598.395;  -13.301;39931.414
661.173;32380.449;  -11.211;39604.531
661.750;32575.668;   -9.951;39700.070
662.328;31538.766;   -9.390;39292.809
662.905;30854.332;  -11.330;38235.648
663.482;26606.129;   -9.050;36212.305
664.060;24542.854;   -8.240;35944.945
664.637;27237.070;  -10.050;35170.785
665.214;29113.801;  -11.760;34197.523
665.791;31088.805;  -10.530;34549.520
666.368;29894.244;   -9.690;35118.578
666.945;30215.762;   -9.320;36019.418
667.522;31779.611;  -11.860;36048.438
668.099;31881.852;  -10.770;36243.914
668.676;31083.000;   -6.260;35958.875
669.253;29395.463;   -7.000;37384.730
669.830;29822.658;  -10.190;36779.629
670.407;29648.984;   -9.550;35231.289
670.984;29599.779;   -9.260;35544.270
671.560;30203.748;   -9.280;35466.867
672.137;29056.887;  -11.810;34280.863
672.714;29673.252;  -11.490;34632.863
673.290;30134.961;   -7.740;35135.422
673.867;30238.994;  -10.660;36114.480
674.443;30637.393;  -12.230;36152.859
675.020;29022.316;  -10.450;35327.238
675.596;29823.648;   -9.260;35795.176
676.173;30341.598;  -10.780;35430.355
676.749;30054.477;  -13.690;33549.516
677.326;30250.773;  -11.980;32210.012
677.902;30406.209;   -8.630;32068.871
678.478;29600.445;  -10.730;32583.891
679.054;28940.736;  -10.520;32088.928
679.631;29664.816;  -11.920;30978.848
680.207;30970.455;   -7.490;33160.887
680.783;32347.980;   -9.860;35570.363
681.359;31527.148;  -13.380;36125.184
681.935;30719.922;  -12.480;35240.922
682.511;29815.811;   -7.900;34429.961
683.087;29818.957;   -7.710;34463.680
683.663;29365.115;  -11.480;34648.898
684.239;28497.211;  -14.090;34546.457
684.815;28061.568;   -7.560;35586.375
685.390;28386.098;   -9.910;35821.895
685.966;28910.404;  -11.159;35085.871
686.542;31682.980;  -11.169;34198.230
687.118;33863.230;   -5.959;32847.707
687.693;34131.219;  -10.329;32794.027
688.269;33405.891;  -12.059;33072.367
688.844;31361.602;  -10.909;33141.664
689.420;29328.361;   -8.019;33965.742
689.995;27024.705;   -8.399;34655.523
690.571;25720.520;  -10.949;33576.742
691.146;26280.201;   -9.619;32657.219
691.722;25852.811;   -8.999;32526.979
692.297;25424.045;  -11.589;33014.617
692.872;27347.955;  -11.739;34012.254
693.448;26995.139;  -11.059;34237.434
694.023;26156.010;  -10.139;34142.672
694.598;28277.211;   -9.029;34132.031
695.173;28769.797;  -13.319;34205.250
695.748;28147.422;  -10.169;32882.488
696.323;28050.467;   -8.339;32864.906
696.898;28119.426;   -8.169;33170.004
697.473;28010.012;  -12.309;32432.984
698.048;27679.424;  -10.989;31649.303
698.623;27840.262;   -9.329;30778.141
699.198;29662.545;   -9.849;31140.119
699.773;30625.148;  -12.329;31764.299
700.348;29106.535;  -10.389;31780.816
700.922;29097.389;   -9.269;32046.375
701.497;29629.955;   -9.329;32603.574
702.072;29913.332;  -10.789;34799.871
702.646;28895.619;  -10.839;35793.172
703.221;26523.182;   -9.099;35201.590
703.795;28602.904;  -10.939;34764.527
704.370;29225.639;  -12.859;34307.367
704.944;29451.592;  -11.559;33509.887
705.519;30495.803;   -7.939;31388.584
706.093;31742.012;  -10.499;31340.104
706.668;32133.459;  -11.289;32630.281
707.242;30645.559;  -11.509;32728.779
707.816;28900.777;   -9.639;32947.238
708.390;27501.043;  -11.429;33277.855
708.965;28453.732;  -11.869;33834.336
709.539;28872.930;  -11.689;33709.273
710.113;29267.162;  -10.478;33044.313
710.687;28848.604;  -10.228;31953.992
711.261;26951.379;  -13.698;30505.949
711.835;26511.566;  -13.378;30262.369
712.409;27182.383;   -9.698;31254.447
712.983;28934.213;  -11.898;32754.986
713.557;29970.568;  -15.138;34018.824
714.131;29690.580;  -14.098;34579.625
714.704;28881.262;   -9.958;33890.262
715.278;26402.635;  -10.028;33531.102
715.852;25514.383;  -11.148;33601.660
716.425;26330.508;   -9.068;33515.117
716.999;26988.725;  -10.038;33185.555
717.573;28132.098;   -9.798;33905.996
718.146;29608.857;  -12.378;35199.293
718.720;29398.680;  -11.918;35060.551
719.293;28752.457;   -8.088;34973.230
719.867;31655.846;  -10.888;36394.449
720.440;31522.447;  -11.938;36663.008
721.013;29845.328;  -12.818;35102.426
721.587;28468.156;  -10.298;33985.266
722.160;27034.506;  -10.048;33524.965
722.733;26094.379;  -12.108;32987.043
723.306;26642.594;  -10.818;33066.301
723.880;28583.852;   -8.908;33399.500
724.453;30244.080;   -9.878;33468.297
725.026;29161.852;  -11.188;33816.637
725.599;26536.184;  -11.678;32797.996
726.172;26875.482;   -9.618;33187.434
726.745;28180.756;   -8.258;35136.613
727.318;29847.564;  -12.978;35751.730
727.891;30733.078;  -12.148;35890.430
728.463;30602.207;   -8.968;34822.090
729.036;29547.609;  -10.188;32895.086
729.609;29862.926;  -11.788;31823.225
730.182;26648.947;  -11.788;31445.283
730.754;24080.660;  -10.268;32373.223
731.327;24080.418;   -9.998;33676.820
731.900;24138.229;  -12.228;33417.000
732.472;25429.164;  -13.848;31978.498
733.045;27559.795;   -8.698;30368.777
733.617;27518.648;  -10.607;30574.215
734.190;27090.213;  -11.507;31280.975
734.762;24341.693;  -13.647;31674.412
735.334;22668.740;   -9.767;31247.291
735.907;23055.477;   -9.897;29876.211
736.479;23018.670;  -11.637;29808.488
737.051;22728.502;   -9.567;30233.547
737.623;23980.941;   -8.187;31469.086
738.195;24911.063;  -11.187;31784.225
738.768;26631.389;  -12.337;32120.523
739.340;26653.467;  -12.227;32094.342
739.912;25479.465;  -11.057;31312.680
740.484;24325.664;  -10.207;31946.238
741.056;23174.006;  -10.047;32984.059
741.628;24922.027;  -13.627;33897.715
742.199;27279.746;   -7.177;33213.016
742.771;25562.885;  -10.797;31369.113
743.343;23071.191;  -11.997;31865.473
743.915;21930.242;  -12.867;32388.631
744.487;22165.063;   -7.617;31079.568
745.058;22404.977;   -9.557;30570.107
745.630;23120.906;   -9.877;29970.127
746.201;24134.008;  -14.177;29186.766
746.773;24428.461;   -9.237;28805.723
747.344;24265.820;   -9.847;29591.223
747.916;22689.697;  -11.657;31412.201
748.487;22550.652;  -10.587;32194.898
749.059;23789.811;   -8.707;32533.719
749.630;24800.521;  -10.537;32158.518
750.201;23794.791;  -11.687;30855.395
750.773;21936.299;  -11.647;28622.555
751.344;21843.639;   -7.147;28405.732
751.915;22837.330;   -9.757;28461.551
752.486;22390.299;  -12.427;27842.850
753.057;20208.822;  -12.227;27845.008
753.628;19077.641;  -10.417;27728.107
754.199;20267.311;  -11.767;27381.086
754.770;21472.072;  -11.187;25882.203
755.341;21523.900;  -10.507;25886.184
755.912;21698.160;   -9.387;26050.861
756.483;20999.236;  -10.647;26798.779
757.054;19119.076;  -11.837;27048.238
757.625;17885.844;  -12.716;26294.838
758.195;17738.768;   -9.666;26142.076
758.766;17416.709;   -8.656;26392.234
759.337;18170.752;  -12.856;26334.594
759.907;20007.342;  -13.366;27579.652
760.478;20892.275;   -8.576;28352.770
761.048;20281.791;  -10.526;27325.088
761.619;19496.287;  -11.116;26460.428
762.189;19422.727;  -12.136;26029.826
762.760;20346.523;   -9.456;26430.145
763.330;21646.910;   -7.136;26670.902
763.900;21151.869;  -11.786;26603.021
764.471;18391.863;  -11.546;25542.740
765.041;17067.135;   -8.096;24358.459
765.611;17177.912;   -8.876;23991.297
766.181;17641.779;  -12.196;24470.236
766.751;18439.287;  -11.636;24845.975
767.321;18365.629;  -10.156;24533.633
767.891;16509.629;  -11.766;24916.492
768.461;15895.369;  -14.936;24776.771
769.031;16323.773;  -12.356;24757.988
769.601;17988.801;   -7.526;24181.088
770.171;17987.891;  -10.766;23670.387
770.741;17001.928;  -13.176;22960.045
771.311;17174.545;  -10.616;22917.523
771.880;17621.033;   -9.576;23562.941
772.450;17104.090;  -10.336;24216.500
773.020;16981.943;  -13.516;24140.398
773.589;16644.643;  -13.466;24414.857
774.159;16173.614;   -8.686;23858.717
774.729;15680.536;   -9.476;22942.135
775.298;15233.188;  -13.666;22324.033
775.867;14843.188;  -11.716;21140.313
776.437;14875.828;   -9.906;20838.092
777.006;14544.021;  -12.166;20599.510
777.576;14518.532;  -12.356;20508.809
778.145;14706.769;  -11.646;20732.947
778.714;14621.817;   -8.226;21062.465
779.283;13819.834;   -9.556;20949.664
779.853;13310.224;  -14.116;20508.623
780.422;13679.754;  -11.506;20649.082
780.991;13219.303;   -9.556;21527.520
781.560;12142.357;   -9.095;22632.658
782.129;11952.045;  -12.135;23048.277
782.698;11981.534;  -10.865;23438.555
783.267;11678.659;   -9.335;23267.734
783.836;11659.945;  -11.045;22415.133
784.404;12696.123;  -13.865;20443.152
784.973;13198.215;  -13.095;19699.150
785.542;13040.160;  -11.575;19763.828
786.111;12911.813;   -9.705;20341.408
786.679;12517.798;  -12.105;20207.967
787.248;12276.003;  -12.455;19516.465
787.817;12077.431;  -11.535;18900.363
788.385;11666.815;   -9.765;17879.121
788.954;11112.206;  -14.005;17658.301
789.522;10611.509;  -11.955;17788.879
790.090;11151.929;  -10.135;18118.277
790.659;11587.233;  -10.975;18338.736
791.227;10960.990;  -13.375;18508.615
791.795;11358.306;  -12.375;17898.254
792.364;11778.629;  -10.725;17295.133
792.932;12153.018;   -9.715;16822.051
793.500;12382.563;  -12.675;17040.148
794.068;12582.466;  -13.495;17179.787
794.636;12697.069;  -10.885;16664.246
795.204;12164.193;  -11.045;16524.545
795.772;12221.478;  -13.175;17274.564
796.340;11748.588;  -12.445;17891.002
796.908;11550.334;   -9.735;17648.561
797.476;11494.765;   -9.815;17064.080
798.044;11082.878;  -13.985;16672.777
798.612;10254.078;  -13.115;17023.996
799.180; 9911.173;  -10.185;16561.615
799.747; 9804.806;   -9.055;15962.773
800.315; 9459.882;  -12.385;15296.992
800.883; 9138.926;  -15.035;14801.771
801.450; 9152.451;  -10.365;14534.430
802.018; 9201.956;   -9.855;14173.248
802.585; 9276.351;  -11.905;14029.547
803.153; 9335.029;  -11.585;13836.846
803.720; 9241.340;   -9.095;13567.324
804.287; 8935.602;   -9.135;13360.622
804.855; 8508.211;  -11.604;13681.981
805.422; 8310.843;  -11.794;13536.560
805.989; 8281.742;  -10.734;13355.958
806.556; 8422.266;  -10.444;13747.896
807.124; 8715.159;  -12.764;13987.376
807.691; 8653.180;  -12.964;14038.674
808.258; 8466.604;  -11.134;14120.152
808.825; 8183.058;   -9.854;13860.111
809.392; 8261.375;  -10.504;13268.790
809.959; 7749.852;  -13.054;12680.389
810.526; 7318.394;   -8.294;12427.308
811.093; 7385.538;   -8.394;12030.105
811.659; 8014.046;  -12.304;11653.664
812.226; 8470.422;  -13.944;11637.183
812.793; 8122.453;  -10.484;11611.521
813.360; 7480.594;  -10.144;11885.181
813.926; 7112.461;  -11.684;12770.539
814.493; 6843.047;  -13.644;12677.638
815.060; 6464.922;   -9.724;11974.336
815.626; 6497.738;   -9.854;11594.715
816.193; 6912.515;  -13.254;11579.474
816.759; 6958.696;  -13.204;11666.972
817.325; 7058.571;   -9.434;11325.530
817.892; 7407.659;  -10.134;11105.369
818.458; 7812.200;  -13.474;10843.928
819.024; 7484.007;  -11.854;10714.406
819.591; 7147.684;  -10.244;10469.165
820.157; 6902.534;  -10.704;10235.523
820.723; 6346.811;  -12.324;10847.563
821.289; 6033.335;   -9.444;11040.980
821.855; 5973.602;   -8.374;10357.100
822.421; 5991.837;  -10.234; 9978.918
822.987; 5952.497;  -13.294; 9754.177
823.553; 5632.813;  -10.884;10065.755
824.119; 5457.709;   -8.884;10036.294
824.685; 5564.013;   -6.784;10029.192
825.251; 5659.312;  -12.004;10199.230
825.816; 5583.503;  -11.474; 9820.189
826.382; 5313.677;   -9.174; 9297.248
826.948; 5495.372;   -9.214; 9381.347
827.513; 5935.651;  -10.774; 9450.726
828.079; 5779.815;  -11.924; 9472.444
828.645; 5187.184;  -10.543; 9292.643
829.210; 5053.356;  -10.533; 9065.341
829.776; 5037.949;  -10.753; 9132.620
830.341; 4897.714;  -10.173; 9092.878
830.906; 5055.094;  -10.743; 9078.557
831.472; 5433.703;  -11.113; 8534.535
832.037; 5234.815;  -10.603; 8677.874
832.602; 4684.825;  -13.323; 8628.692
833.167; 4363.587;  -10.823; 8879.031
833.733; 4293.412;  -10.113; 9189.790
834.298; 4409.633;  -13.583; 9052.608
834.863; 4460.694;  -12.703; 8895.087
835.428; 4427.459;  -10.523; 8824.266
835.993; 4321.556;   -6.963; 8845.385
836.558; 4188.839;  -10.763; 8888.563
837.123; 4305.120;   -9.903; 8966.582
837.688; 4506.645;   -9.913; 8617.860
838.253; 4708.274;  -10.283; 8590.699
838.817; 4915.300;  -12.963; 8443.797
839.382; 4854.620;  -14.243; 8799.356
839.947; 4537.693;  -10.733; 8810.595
840.511; 4221.557;   -9.383; 8796.394
841.076; 3856.733;  -12.563; 8347.231
841.641; 3903.418;  -12.953; 8224.330
842.205; 3998.213;   -7.043; 8223.349
842.770; 4084.373;   -8.163; 8622.107
843.334; 4289.235;  -12.503; 8410.386
843.898; 4283.843;  -11.693; 8337.465
844.463; 4330.793;  -10.203; 8506.283
845.027; 4103.442;   -9.533; 8280.962
845.591; 3889.798;  -13.443; 8231.141
846.156; 3899.242;  -13.143; 7969.179
846.720; 3765.748;   -9.433; 7768.278
847.284; 3633.029;  -11.033; 7630.957
847.848; 3472.597;  -10.403; 7472.395
848.412; 3385.125;  -11.553; 7437.394
848.976; 3430.323;   -8.393; 7674.592
849.540; 3369.247;   -8.713; 7836.011
850.104; 3449.373;  -12.463; 7913.669
850.668; 3805.426;  -12.973; 7694.508
851.232; 3937.239;  -10.793; 7756.887
851.796; 3761.817;  -10.662; 7926.545
852.359; 3447.446;  -13.082; 7827.844
852.923; 3272.234;  -12.192; 7641.163
853.487; 3089.376;  -11.912; 7342.501
854.050; 3019.781;  -10.892; 7042.820
854.614; 3157.230;  -13.992; 7151.338
855.177; 3271.690;  -11.732; 7105.077
855.741; 3327.888;   -8.962; 6989.675
856.304; 3228.858;   -9.442; 6596.634
856.868; 3161.312;  -14.192; 6356.272
857.431; 3268.947;  -12.702; 6468.571
857.995; 3388.753;   -9.942; 6373.210
858.558; 3409.457;   -9.112; 6324.448
859.121; 3149.536;  -12.932; 6408.327
859.684; 3012.212;  -13.442; 6347.886
860.247; 3136.258;  -10.632; 6321.264
860.810; 3132.761;  -11.272; 6301.903
861.374; 2896.637;   -9.832; 6607.881
861.937; 2634.085;  -11.762; 6408.200
862.500; 2606.117;   -9.722; 6572.639
863.062; 2771.552;  -10.512; 6387.297
863.625; 2964.043;  -11.232; 6190.836
864.188; 3139.448;  -14.112; 5807.254
864.751; 3187.054;  -11.302; 5682.413
865.314; 3072.833;  -10.112; 5547.492
865.876; 2880.738;  -12.182; 5500.150
866.439; 2879.617;  -10.722; 5415.909
867.002; 2851.842;   -9.252; 5501.567
867.564; 2638.740;   -9.572; 5413.946
868.127; 2422.039;  -13.142; 5160.325
868.689; 2327.579;  -12.902; 5133.183
869.252; 2257.899;   -9.732; 5252.382
869.814; 2172.469;   -9.432; 5297.141
870.377; 2187.950;  -11.552; 5390.919
870.939; 2261.706;   -9.052; 5599.898
871.501; 2325.342;  -10.982; 5248.336
872.063; 2334.304;  -12.292; 4854.235
872.626; 2295.498;  -14.912; 4817.074
873.188; 2306.819;  -13.112; 4987.732
873.750; 2269.455;  -13.442; 4868.651
874.312; 2166.081;   -9.402; 4779.330
874.874; 2071.844;  -11.062; 4866.348
875.436; 1992.829;  -13.931; 4718.887
875.998; 2001.040;   -9.561; 4660.005
876.560; 2032.323;  -11.321; 4462.964
877.122; 1981.002;  -12.221; 4145.042
877.683; 1878.034;  -12.191; 4056.481
878.245; 1786.174;  -12.101; 3950.740
878.807; 1815.102;   -8.971; 4058.958
879.369; 1845.220;  -12.071; 3954.677
879.930; 1796.466;  -14.621; 3941.495
880.492; 1828.279;  -10.311; 4067.014
881.053; 1911.608;  -10.901; 3859.633
881.615; 1784.068;  -14.411; 3776.071
882.176; 1509.988;  -13.761; 3734.750
882.738; 1179.935;   -9.181; 3678.489
883.299;  917.473;  -11.791; 3405.407
883.860;  807.510;  -13.121; 3351.106
884.422;  817.724;  -11.211; 3394.044
884.983;  851.066;  -10.091; 3166.443
885.544;  861.541;   -8.461; 3189.802
886.105;  869.351;  -12.361; 3160.360
886.666;  865.741;  -14.141; 3093.059
887.227;  849.998;  -11.361; 2941.957
887.788;  816.627;  -11.401; 2974.836
888.349;  776.524;  -13.791; 2721.214
888.910;  786.427;  -13.191; 2696.493
889.471;  804.138;   -9.881; 2560.172
890.032;  800.425;   -9.881; 2558.190
890.593;  782.164;  -10.371; 2567.669
891.153;  758.235;  -13.301; 2460.307
891.714;  717.611;  -11.431; 2372.046
892.275;  688.590;  -11.291; 2309.505
892.835;  656.845;  -11.471; 2382.543
893.396;  606.540;  -11.541; 2295.502
893.956;  553.396;  -11.181; 2162.420
894.517;  517.181;  -11.741; 2125.439
895.077;  510.869;  -11.671; 2086.978
895.638;  510.561;  -11.311; 2126.316
896.198;  483.862;   -9.831; 1838.275
896.758;  442.100;   -8.421; 1892.813
897.319;  412.078;  -12.351; 1792.232
897.879;  396.918;  -13.511; 1762.751
898.439;  372.345;  -12.001; 1661.149
898.999;  347.720;  -10.180; 1781.468
899.559;  339.428;  -12.030; 1703.347
900.119;  336.547;  -15.710; 1537.525
900.679;  333.334;   -8.900; 1638.384
901.239;  320.572;   -8.340; 1527.902
901.799;  309.283;  -13.910; 1456.441
902.359;  303.015;  -13.460; 1357.140
902.919;  296.489;  -11.490; 1331.118
903.479;  283.231;  -12.110; 1317.257
904.038;  262.082;  -11.720; 1262.595
904.598;  245.320;  -13.610; 1152.034
905.158;  241.792;  -11.040; 1240.893
905.717;  235.303;  -10.900; 1233.691
906.277;  224.367;  -15.080; 1217.330
906.836;  215.593;  -13.380; 1222.408
907.396;  208.938;  -10.780; 1193.047
907.955;  201.512;   -8.500; 1182.526
908.515;  195.558;  -12.760; 1099.364
909.074;  188.704;  -11.900; 1092.863
909.633;  181.536;   -8.950; 1069.121
910.192;  176.877;   -8.770; 1196.460
910.752;  170.426;  -12.390; 1029.960
911.311;  164.560;  -13.680; 1009.780
911.870;  160.558;  -12.370;  971.460
912.429;  160.520;  -10.900; 1094.080
912.988;  160.303;  -11.690; 1081.060
913.547;  156.485;  -13.240;  940.380
914.106;  153.795;  -11.990;  999.420
914.665;  150.178;   -9.990;  984.020
915.224;  149.542;  -12.880; 1035.760
915.782;  149.272;  -12.350;  922.560
916.341;  148.891;   -9.110; 1049.840
916.900;  145.433;   -9.270;  925.260
917.458;  144.058;  -13.240;  884.220
918.017;  143.424;  -13.550;  942.600
918.576;  142.718;  -12.320;  904.440
919.134;  141.000;  -11.490;  837.980
919.693;  139.902;  -13.670;  893.060
920.251;  137.617;  -15.470;  876.500
920.809;  137.209;  -11.290;  839.580
921.368;  136.280;  -10.210;  885.360
921.926;  135.529;  -12.140;  842.940
922.484;  133.678;  -13.080;  903.360
923.042;  133.905;  -11.720;  880.340
923.601;  136.131;   -7.480;  998.680
924.159;  135.132;  -11.570;  935.560
924.717;  131.509;  -13.840;  841.080
925.275;  131.094;  -10.640;  903.240
925.833;  131.706;  -11.540;  779.320
926.391;  132.690;  -12.960;  938.380
926.949;  131.106;  -14.130;  857.680
927.506;  131.086;  -11.750;  903.500
928.064;  131.728;  -10.250;  877.580
928.622;  130.808;  -13.030;  880.100
929.180;  130.270;  -13.400;  814.180
929.737;  131.367;  -10.700;  808.540
930.295;  134.264;  -10.070;  928.480
930.853;  136.056;  -11.960;  849.100
931.410;  137.089;  -13.120;  821.120
931.968;  136.427;  -10.770;  940.660
932.525;  135.892;  -10.680;  909.380
933.082;  135.714;  -13.130;  811.440
933.640;  137.609;  -13.210;  925.900
934.197;  135.907;  -11.060;  886.360
934.754;  136.318;   -9.580;  897.780
935.312;  139.134;  -14.000;  863.340
935.869;  142.903;  -10.710; 1012.980
936.426;  143.455;   -9.860;  872.800
936.983;  144.601;   -9.710;  889.020
937.540;  144.124;  -13.990;  838.280
938.097;  142.397;  -14.040;  940.120
938.654;  143.456;  -10.310;  898.860
939.211;  146.621;  -10.560;  952.480
939.768;  149.553;  -13.900;  915.420
940.324;  152.497;  -14.760;  904.200
940.881;  153.407;  -10.370;  878.500
941.438;  154.307;   -8.260; 1021.200
941.995;  150.050;  -12.540;  992.560
942.551;  147.671;  -14.670;  875.620
943.108;  148.203;  -10.450;  937.920
943.664;  150.269;  -10.750;  869.340
944.221;  153.328;  -11.550; 1088.140
944.777;  150.453;  -14.770;  869.680
945.334;  151.724;  -12.820;  884.840
945.890;  154.879;  -10.130;  946.480
946.446;  154.204;  -13.470;  947.020
947.003;  155.521;  -12.120;  964.940
947.559;  158.070;   -9.980; 1063.040
948.115;  157.201;   -9.080; 1026.540
948.671;  155.258;  -10.830;  967.300
949.227;  152.264;  -12.440;  859.560
949.783;  149.580;  -12.910;  858.900
950.339;  150.907;  -10.270;  991.000
950.895;  151.020;  -13.630; 1023.840
951.451;  150.930;  -15.100;  925.280
952.007;  151.837;  -11.330;  998.540
952.563;  153.082;  -10.580;  937.780
953.118;  152.361;  -13.440;  904.940
953.674;  152.157;  -12.710;  935.780
954.230;  151.862;  -10.350;  949.640
954.785;  148.671;   -9.190;  936.640
955.341;  146.917;  -11.200;  998.160
955.897;  144.808;  -16.560;  834.660
956.452;  146.386;  -12.570;  953.840
957.008;  144.929;   -7.970; 1083.640
957.563;  142.540;  -11.940; 1009.540
958.118;  137.448;  -13.450;  877.700
958.674;  139.206;  -12.030;  946.780
959.229;  139.974;   -9.410; 1013.980
959.784;  137.744;  -12.000;  832.400
960.339;  137.342;  -14.780; 1001.280
960.894;  133.492;   -9.860;  963.760
961.449;  129.717;   -9.970;  859.960
962.004;  129.910;  -10.900; 1212.840
962.559;  125.344;  -13.150;  860.140
963.114;  122.161;  -13.740;  742.480
963.669;  121.791;   -9.820;  915.500
964.224;  120.725;  -13.890;  874.340
964.779;  120.097;  -12.600;  828.420
965.334;  121.508;  -10.950; 1017.860
965.888;  120.143;  -11.170;  875.360
966.443;  122.405;  -12.540;  972.380
966.998;  120.905;  -15.780;  819.460
967.552;  121.943;   -9.760;  908.380
968.107;  117.259;   -9.060;  868.300
968.661;  118.036;  -11.950;  922.440
969.216;  118.791;  -12.800;  856.280
969.770;  119.753;  -11.210;  917.200
970.324;  117.775;  -11.610;  923.140
970.879;  114.920;  -11.370;  947.180
971.433;  112.189;  -12.540;  952.720
971.987;  106.063;  -11.320;  895.340
972.541;  103.629;  -10.720;  917.100
973.095;  103.275;   -9.680; 1009.460
973.649;  101.482;  -11.440;  809.480
974.203;  101.435;  -11.210;  829.040
974.757;  100.851;  -10.240;  855.220
975.311;  100.901;  -13.720;  872.600
975.865;  100.020;  -13.770;  881.820
976.419;   99.146;  -11.690;  857.400
976.973;   98.999;   -9.510;  849.620
977.526;  101.062;  -12.620;  949.920
978.080;   99.871;  -12.010;  796.780
978.634;  102.041;  -10.170;  921.320
979.187;   98.286;   -9.020;  905.400
979.741;   96.511;   -9.820; 1018.380
980.294;   90.897;  -14.870;  789.160
980.848;   89.566;  -12.380;  717.220
981.401;   91.313;  -10.350;  816.540
981.955;   93.917;  -13.720;  844.300
982.508;   91.786;  -11.490;  746.340
983.061;   92.142;  -10.000;  915.260
983.615;   88.585;  -11.480;  798.800
984.168;   86.149;  -13.220;  770.080
984.721;   85.482;  -13.960;  880.760
985.274;   84.247;  -10.870;  867.500
985.827;   82.886;   -9.790;  834.220
986.380;   81.265;  -13.120;  721.340
986.933;   80.119;  -12.450;  864.800
987.486;   78.298;  -10.210;  861.920
988.039;   77.828;   -8.430;  863.100
988.591;   75.318;  -10.520;  893.260
989.144;   73.273;  -14.860;  737.260
989.697;   71.717;  -13.080;  758.740
990.250;   72.450;  -10.150;  858.100
990.802;   71.759;  -13.430;  755.860
991.355;   72.271;  -12.750;  974.880
991.907;   69.987;  -12.040;  864.320
992.460;   67.703;  -11.330;  753.760
993.012;   67.873;  -13.610;  749.540
993.565;   66.193;  -13.460;  711.360
994.117;   67.807;   -9.360;  950.780
994.669;   64.485;  -11.300;  701.320
995.221;   62.550;  -13.540;  791.920
995.774;   60.513;  -13.430;  787.580
996.326;   59.124;  -12.520;  740.220
996.878;   58.535;  -10.950;  838.420
997.430;   56.409;  -14.300;  699.860
997.982;   55.976;  -13.760;  750.140
998.534;   55.606;  -11.530;  739.060
999.086;   54.173;  -10.310;  738.220
999.638;   52.535;  -12.530;  661.380
1000.190;   51.532;  -11.840;  699.320
1000.741;   51.974;  -10.260;  742.700
1001.293;   51.014;   -8.860;  686.020
1001.845;   50.080;  -13.700;  676.640
1002.396;   49.633;  -12.100;  743.400
1002.948;   50.535;  -12.760;  737.400
1003.500;   47.971;  -10.380;  723.780
1004.051;   48.880;  -11.900;  907.580
1004.603;   46.417;  -12.250;  791.820
1005.154;   42.721;  -13.210;  608.980
1005.705;   42.521;  -10.950;  723.960
1006.257;   42.331;  -13.880;  707.220
1006.808;   40.907;  -12.840;  685.460
1007.359;   40.684;  -10.570;  763.240
1007.910;   39.583;   -9.620;  646.640
1008.461;   39.196;  -13.630;  732.940
1009.013;   38.386;  -17.200;  588.340
1009.564;   39.701;  -10.200;  793.520
1010.115;   37.789;  -12.570;  597.040
1010.665;   37.402;  -15.150;  602.160
1011.216;   37.761;  -14.480;  667.920
1011.767;   37.368;  -11.340;  697.920
1012.318;   36.521;   -9.780;  736.980
1012.869;   35.794;  -12.380;  679.000
1013.419;   34.982;  -15.560;  603.120
1013.970;   36.243;  -11.010;  666.640
1014.521;   34.538;  -11.610;  620.620
1015.071;   35.966;  -13.450;  670.380
1015.622;   34.428;  -13.870;  635.460
1016.172;   34.224;  -11.610;  596.820
1016.723;   33.845;  -12.120;  614.380
1017.273;   34.097;  -13.620;  604.160
1017.823;   33.906;  -14.140;  650.340
1018.374;   33.541;  -12.800;  611.760
1018.924;   32.677;  -12.340;  716.880
1019.474;   33.444;  -11.410;  718.880
1020.024;   31.899;  -14.770;  657.580
1020.574;   32.286;   -9.780;  726.160
1021.124;   32.867;   -8.560;  673.580
1021.674;   31.223;  -15.190;  559.120
1022.224;   32.554;  -13.530;  708.940
1022.774;   32.421;  -13.280;  668.820
1023.324;   32.825;  -10.690;  753.520
1023.874;   33.030;  -10.240;  875.760
1024.423;   31.208;  -12.540;  613.700
1024.973;   30.248;  -10.010;  610.760
1025.523;   30.115;  -10.550;  620.960
1026.072;   29.909;  -13.560;  606.420
1026.622;   29.655;  -15.120;  675.740
1027.172;   30.615;  -11.260;  715.660
1027.721;   29.660;  -11.410;  601.220
1028.270;   29.489;  -13.530;  663.400
1028.820;   29.388;  -13.680;  638.080
1029.369;   28.864;  -13.520;  612.700
1029.918;   29.171;  -10.980;  649.840
1030.468;   28.109;  -13.530;  564.780
1031.017;   28.953;  -13.170;  634.800
1031.566;   27.337;  -12.200;  608.900
1032.115;   28.671;   -9.960;  694.500
1032.664;   27.282;  -13.210;  596.480
1033.213;   28.530;  -12.500;  735.420
1033.762;   27.777;  -11.910;  635.620
1034.311;   26.665;   -9.640;  677.220
1034.860;   27.547;  -13.310;  691.000
1035.408;   27.891;  -11.830;  722.720
1035.957;   27.479;  -12.000;  719.540
1036.506;   25.780;  -11.690;  530.800
1037.055;   28.032;  -10.990;  844.320
1037.603;   25.746;  -15.120;  664.000
1038.152;   24.762;  -12.450;  534.760
1038.700;   25.196;  -10.560;  585.740
1039.249;   25.089;  -11.080;  681.220
1039.797;   25.926;  -12.540;  633.360
1040.345;   25.695;  -11.920;  705.420
1040.894;   24.956;  -11.410;  625.300
1041.442;   24.607;  -14.320;  632.200
1041.990;   24.049;  -16.240;  559.160
1042.538;   24.306;  -11.680;  536.180
1043.087;   23.998;  -10.760;  570.860
1043.635;   25.453;  -11.850;  670.500
1044.183;   23.761;  -15.480;  586.400
1044.731;   24.004;  -11.770;  576.000
1045.279;   23.232;  -13.090;  674.920
1045.827;   25.341;  -12.440;  892.400
1046.374;   22.504;  -13.840;  515.420
1046.922;   22.196;  -13.220;  590.580
1047.470;   23.349;  -10.230;  691.300
1048.018;   23.485;  -14.590;  647.960
1048.565;   24.156;  -12.050;  708.600
1049.113;   22.036;  -11.650;  557.000
1049.660;   22.332;  -10.510;  629.660
1050.208;   22.827;  -13.310;  675.640
1050.755;   21.725;  -15.900;  606.580
1051.303;   22.760;  -11.430;  686.820
1051.850;   21.671;   -8.480;  635.120
1052.397;   19.542;  -15.010;  473.960
1052.945;   20.768;  -13.960;  617.760
1053.492;   22.234;  -13.150;  741.840
1054.039;   21.557;   -9.630;  720.180
1054.586;   20.769;  -13.680;  557.240
1055.133;   21.482;  -14.570;  693.140
1055.680;   21.365;  -13.820;  646.620
1056.227;   20.718;  -11.730;  542.780
1056.774;   21.845;  -12.480;  794.980
1057.321;   19.754;  -13.930;  523.260
1057.868;   19.923;  -11.690;  651.320
1058.415;   20.021;   -9.520;  651.980
1058.961;   19.561;  -13.160;  678.940
1059.508;   19.425;  -12.920;  643.820
1060.055;   19.586;  -11.920;  581.780
1060.601;   19.631;  -11.500;  624.300
1061.148;   19.272;  -14.330;  616.820
1061.694;   18.816;  -16.870;  592.580
1062.241;   19.248;  -10.330;  596.320
1062.787;   18.872;  -10.620;  663.140
1063.334;   20.989;  -10.110;  808.560
1063.880;   19.245;  -13.400;  668.360
1064.426;   19.206;  -10.680;  706.820
1064.972;   18.099;   -9.920;  601.340
1065.518;   17.002;  -10.980;  566.640
1066.065;   18.540;  -14.890;  624.460
1066.611;   17.810;  -12.870;  598.800
1067.157;   18.419;  -12.950;  641.860
1067.703;   18.315;  -13.540;  668.480
1068.249;   17.926;  -13.540;  605.220
1068.794;   17.928;  -12.600;  626.880
1069.340;   16.844;  -10.620;  578.960
1069.886;   17.382;  -12.830;  590.700
1070.432;   16.637;  -14.870;  541.720
1070.977;   16.802;  -11.980;  601.080
1071.523;   17.049;   -8.200;  573.060
1072.068;   16.526;  -12.330;  582.000
1072.614;   16.059;  -16.370;  527.760
1073.160;   16.906;  -11.100;  687.040
1073.705;   15.187;  -10.480;  572.520
1074.250;   16.390;  -14.520;  559.900
1074.796;   17.495;  -11.460;  655.160
1075.341;   16.364;  -11.950;  664.100
1075.886;   16.080;  -11.460;  594.240
1076.431;   15.391;  -13.770;  649.880
1076.976;   15.499;  -12.680;  639.220
1077.521;   15.108;  -13.170;  583.080
1078.067;   14.321;  -10.860;  579.400
1078.612;   15.160;  -13.920;  661.620
1079.156;   15.244;  -13.880;  601.540
1079.701;   15.348;  -13.120;  693.260
1080.246;   15.649;   -9.940;  696.300
1080.791;   15.186;  -14.740;  625.020
1081.336;   15.112;  -13.750;  659.320
1081.880;   15.139;  -13.400;  649.680
1082.425;   13.790;  -12.220;  573.480
1082.970;   15.403;  -11.610;  717.040
1083.514;   14.124;  -13.580;  597.000
1084.059;   12.880;  -12.810;  586.720
1084.603;   12.810;  -12.320;  565.840
1085.147;   13.164;  -13.190;  645.220
1085.692;   14.752;  -12.480;  716.800
1086.236;   11.842;  -13.020;  503.140
1086.780;   14.936;   -9.190;  751.440
1087.325;   13.494;  -12.480;  654.620
1087.869;   13.791;  -12.450;  610.700
1088.413;   13.957;  -12.240;  705.040
1088.957;   11.892;   -9.020;  543.400
1089.501;   14.531;  -10.320;  766.640
1090.045;   12.911;  -12.720;  726.480
1090.589;   11.428;  -13.690;  569.920
1091.133;   12.439;  -10.020;  673.340
1091.676;   12.776;  -12.330;  591.940
1092.220;   11.854;  -14.970;  600.920
1092.764;   12.739;  -12.430;  706.960
1093.307;   12.295;   -9.800;  673.780
1093.851;   10.677;  -14.970;  556.540
1094.395;   12.231;  -15.310;  683.140
1094.938;   11.252;  -10.370;  632.520
1095.482;   11.568;  -11.050;  559.800
1096.025;   11.989;  -11.840;  710.880
1096.568;   13.230;  -12.840;  779.280
1097.112;   10.677;  -14.700;  508.180
1097.655;   11.693;   -8.720;  603.000
1098.198;   10.841;  -13.610;  600.180
1098.741;   10.597;  -13.350;  612.860
1099.285;   11.443;  -11.230;  657.300
1099.828;    9.580;  -11.840;  439.400
1100.371;    9.920;  -10.840;  608.160
1100.914;   10.625;  -14.190;  682.660
1101.457;   10.487;  -11.240;  679.900
1101.999;    8.805;  -11.270;  584.680
1102.542;   10.087;  -11.480;  641.440
1103.085;    9.949;  -11.750;  658.500
1103.628;   10.088;  -11.400;  762.060
1104.170;    9.551;  -10.490;  588.280
1104.713;   10.059;  -10.600;  646.700
1105.256;    9.418;  -14.360;  557.440
1105.798;    8.562;  -13.210;  499.980
1106.341;   10.307;  -10.270;  728.900
1106.883;    9.220;  -12.200;  521.340
1107.425;    9.366;  -13.110;  668.180
1107.968;    9.001;  -12.840;  612.380
1108.510;    9.579;   -6.480;  684.960
1109.052;    8.028;  -13.940;  612.620
1109.594;    8.651;  -13.690;  554.440
1110.136;    9.062;  -11.880;  643.220
1110.679;    7.661;   -9.500;  633.080
1111.221;    8.551;  -14.160;  604.460
1111.763;    7.848;  -13.980;  559.220
1112.304;    7.380;  -13.880;  547.140
1112.846;    8.771;  -12.210;  666.240
1113.388;   10.468;  -11.390;  942.180
1113.930;    8.126;  -14.540;  694.200
1114.472;    7.635;  -12.640;  606.540
1115.013;    6.101;  -11.620;  551.280
1115.555;    6.706;  -13.640;  587.100
1116.097;    6.291;  -15.380;  579.480
1116.638;    7.265;  -12.640;  684.600
1117.180;    8.117;   -9.850;  667.740
1117.721;    7.530;  -13.690;  568.580
1118.262;    7.547;  -12.680;  677.960
1118.804;    7.845;  -12.530;  637.340
1119.345;    6.537;  -11.690;  578.400
1119.886;    7.679;  -13.380;  704.040
1120.427;    5.968;  -14.070;  589.020
1120.969;    5.965;  -13.500;  597.920
1121.510;    5.939;  -11.480;  563.060
1122.051;    5.958;  -12.830;  723.580
1122.592;    5.630;  -14.290;  655.420
1123.133;    5.255;  -12.400;  547.940
1123.673;    6.551;  -10.130;  706.480
1124.214;    5.670;  -12.930;  612.460
1124.755;    6.529;  -14.380;  639.460
1125.296;    5.491;  -14.000;  627.320
1125.836;    6.363;  -10.070;  691.500
1126.377;    5.611;  -12.640;  599.660
1126.918;    5.546;  -12.960;  614.980
1127.458;    5.051;  -13.350;  622.220
1127.999;    5.955;  -10.750;  656.980
1128.539;    5.401;  -12.350;  694.240
1129.079;    4.788;  -14.860;  632.720
1129.620;    5.102;  -13.840;  558.100
1130.160;    4.629;  -12.330;  539.480
1130.700;    5.099;  -14.530;  640.840
1131.240;    5.444;  -12.530;  643.700
1131.781;    4.761;  -14.450;  619.680
1132.321;    4.560;   -9.790;  599.120
1132.861;    3.331;  -14.860;  564.200
1133.401;    3.349;  -14.290;  593.940
1133.941;    4.265;  -11.750;  626.280
1134.481;    3.976;   -9.920;  597.580
1135.020;    3.439;  -12.290;  609.160
1135.560;    4.608;  -11.650;  674.940
1136.100;    3.643;  -16.270;  501.160
1136.640;    3.009;  -10.890;  510.480
1137.179;    3.621;  -14.180;  537.960
1137.719;    3.608;  -16.250;  605.400
1138.258;    3.625;  -14.230;  587.360
1138.798;    3.582;   -9.090;  663.780
1139.337;    2.907;  -15.130;  482.840
1139.877;    3.453;  -13.680;  642.360
1140.416;    5.204;  -11.320;  878.060
1140.955;    3.054;  -10.860;  535.380
1141.494;    3.244;  -12.920;  669.280
1142.034;    2.285;  -13.930;  583.520
1142.573;    3.652;  -11.440;  646.280
1143.112;    2.475;  -12.000;  553.480
1143.651;    2.933;  -13.670;  536.480
1144.190;    3.540;  -12.730;  691.640
1144.729;    3.050;  -14.560;  607.420
1145.267;    2.115;  -11.830;  584.900
1145.806;    3.424;  -12.230;  637.040
1146.345;    1.898;  -14.130;  635.020
1146.884;    2.485;  -11.590;  622.500
1147.422;    2.238;  -12.550;  533.060
1147.961;    3.196;  -11.180;  708.460
1148.500;    3.051;  -11.510;  669.720
1149.038;    3.192;  -11.640;  632.500
1149.577;    2.764;  -10.130;  698.640
1150.115;    0.617;  -13.970;  452.280
1150.653;    2.036;  -14.520;  607.340
1151.192;    1.790;  -12.810;  552.920
1151.730;    2.185;   -9.100;  652.560
1152.268;    0.851;  -12.220;  589.520
1152.806;    1.968;  -14.140;  571.180
1153.344;    0.018;  -12.350;  577.640
1153.882;    1.448;   -8.980;  600.060
1154.421;    0.119;  -15.190;  470.620
1154.958;    0.036;  -15.210;  595.240
1155.496;    2.683;  -12.850;  645.280
1156.034;    1.627;   -9.940;  721.880
1156.572;    2.550;  -13.570;  667.060
1157.110;    0.335;  -14.590;  473.940
1157.647;    2.261;  -13.030;  676.960
1158.185;    0.073;  -12.140;  564.320
1158.723;   -1.271;  -14.390;  509.200
1159.260;    0.575;  -14.090;  701.700
1159.798;    1.103;  -11.920;  658.160
1160.335;    0.295;  -11.110;  631.820

