
Integration time [ms]:   3.276
Averaging Nr. [scans]: 1000
Smoothing Nr. [pixels]: 0
Data measured with spectrometer [name]: 7414430SP
Wave   ;Sample   ;Dark     ;Reference
[nm]   ;[counts] ;[counts] ;[counts] 

288.544;  149.317;    7.793;  793.890
289.143;  152.847;    7.462;  681.602
289.742;  153.521;    8.602;  828.814
290.341;  138.416;    1.321;  789.841
290.940;  127.645;   -0.709;  730.702
291.538;  129.378;    0.881;  881.108
292.137;  128.226;    0.122;  792.581
292.736;  132.605;   -1.929;  975.101
293.335;  129.970;   -8.229;  735.086
293.934;  131.277;   -5.279;  781.677
294.532;  129.513;   -1.369; 1031.958
295.131;  114.738;   -7.641;  834.394
295.730;  114.350;   -8.420;  809.588
296.328;  113.191;   -5.611;  783.442
296.927;  114.847;   -5.781;  779.652
297.525;  116.150;   -6.361;  781.236
298.124;  106.610;  -11.382;  654.009
298.722;  109.997;   -7.641;  761.933
299.321;  107.863;   -6.811;  708.597
299.919;  105.089;   -6.991;  751.918
300.518;  102.661;  -10.362;  689.338
301.116;  104.199;   -9.581;  691.381
301.715;  103.977;   -4.891;  730.222
302.313;  102.889;   -8.801;  704.943
302.911;   98.798;   -8.522;  733.830
303.509;  103.817;   -6.171;  925.627
304.108;  101.558;   -7.311;  760.383
304.706;  100.940;   -8.321;  801.664
305.304;   96.136;  -10.222;  796.707
305.902;  100.461;   -6.021;  784.484
306.500;   96.067;   -4.971;  728.200
307.098;   94.307;   -7.061;  746.560
307.696;   93.353;   -8.801;  780.432
308.294;   93.280;   -6.411;  731.359
308.892;   95.760;   -2.901;  759.769
309.490;   90.940;   -5.041;  712.161
310.088;   90.013;   -5.002;  788.444
310.686;   94.440;   -2.041;  821.749
311.284;   89.915;   -2.351;  766.040
311.882;   87.517;   -4.422;  731.225
312.480;   84.371;   -4.192;  697.167
313.078;   86.199;   -1.172;  808.331
313.675;   85.961;   -2.601;  691.600
314.273;   80.919;   -1.312;  797.837
314.871;   81.231;   -3.942;  589.829
315.468;   79.321;   -2.802;  652.090
316.066;   81.555;   -0.701;  694.427
316.664;   74.987;   -4.362;  656.351
317.261;   79.109;   -2.872;  910.128
317.859;   74.520;   -2.022;  768.735
318.456;   75.175;   -0.531;  830.096
319.054;   70.856;   -3.912;  787.828
319.651;   70.169;   -4.752;  759.928
320.249;   68.565;   -2.602;  810.188
320.846;   66.621;   -0.821;  714.286
321.443;   63.713;   -4.642;  832.135
322.041;   60.442;   -5.002;  812.315
322.638;   58.917;   -3.982;  701.456
323.235;   59.840;   -3.411;  665.683
323.833;   56.863;   -7.361;  740.354
324.430;   51.926;   -8.611;  615.900
325.027;   54.389;   -4.061;  876.855
325.624;   52.997;   -4.031;  644.532
326.221;   50.283;   -7.481;  689.717
326.818;   49.603;   -5.281;  818.332
327.415;   53.370;   -7.460;  748.828
328.012;   53.498;   -5.510;  690.585
328.609;   51.285;   -7.880;  731.389
329.206;   48.376;   -8.331;  778.621
329.803;   48.848;   -5.121;  737.841
330.400;   52.143;   -4.510;  704.260
330.997;   52.776;   -6.441;  817.147
331.594;   51.967;   -8.831;  788.185
332.191;   57.113;   -7.621;  728.722
332.787;   59.807;   -4.591;  844.463
333.384;   58.606;   -7.412;  763.093
333.981;   56.916;   -8.293;  815.687
334.578;   59.948;   -7.052;  708.378
335.174;   63.422;   -3.102;  731.469
335.771;   62.840;   -5.943;  836.456
336.367;   59.474;   -7.393;  710.631
336.964;   63.868;   -4.063;  793.266
337.561;   61.109;   -3.813;  731.112
338.157;   56.953;   -4.654;  911.916
338.754;   54.504;   -7.934;  796.589
339.350;   52.632;   -4.414;  722.493
339.946;   55.099;   -4.664;  773.135
340.543;   46.653;   -6.375;  846.136
341.139;   41.883;   -9.815;  720.836
341.735;   39.587;   -4.526;  772.593
342.332;   37.466;   -4.895;  691.472
342.928;   38.211;   -4.295;  795.394
343.524;   31.994;   -5.476;  761.684
344.120;   28.599;   -5.856;  738.562
344.716;   32.175;   -2.155;  723.717
345.313;   29.492;   -6.275;  795.342
345.909;   24.780;   -8.815;  627.336
346.505;   25.750;   -5.305;  740.247
347.101;   27.491;   -2.674;  827.864
347.697;   27.090;   -4.344;  785.398
348.293;   21.188;   -9.975;  627.244
348.889;   22.547;   -5.774;  745.914
349.485;   21.583;   -5.004;  688.205
350.081;   21.922;   -4.704;  772.592
350.676;   17.338;   -6.635;  691.606
351.272;   21.827;   -4.504;  809.530
351.868;   22.044;   -3.914;  780.497
352.464;   18.237;   -9.044;  723.932
353.059;   15.308;   -8.314;  646.017
353.655;   18.414;   -7.024;  777.063
354.251;   19.458;   -5.343;  759.845
354.846;   13.665;   -8.604;  740.646
355.442;   11.750;   -6.945;  753.071
356.038;   14.435;   -7.564;  751.708
356.633;   14.016;   -5.814;  728.594
357.229;   11.068;   -7.364;  724.757
357.824;    9.682;   -8.024;  703.600
358.420;    9.431;   -9.384;  679.726
359.015;    9.744;   -5.104;  695.357
359.610;   10.356;   -6.854;  763.920
360.206;    4.305;  -10.185;  603.240
360.801;    7.500;   -7.054;  646.503
361.396;   10.139;   -5.034;  725.975
361.992;    5.040;   -8.284;  668.220
362.587;    2.825;   -8.625;  670.160
363.182;    4.697;   -7.674;  689.631
363.777;    4.991;   -5.164;  738.242
364.372;    4.503;   -8.604;  737.314
364.967;    2.030;   -9.055;  680.744
365.563;    5.363;   -6.114;  815.567
366.158;    2.840;   -5.814;  685.161
366.753;    2.562;   -7.854;  649.263
367.348;    1.519;   -7.804;  746.056
367.942;    1.109;   -7.954;  697.298
368.537;    0.266;   -4.984;  754.245
369.132;    0.507;   -8.564;  703.428
369.727;   -3.644;   -8.855;  638.079
370.322;   -2.392;   -6.245;  580.186
370.917;   -2.444;   -6.425;  710.646
371.511;    0.308;   -6.294;  861.834
372.106;   -3.516;   -7.685;  776.964
372.701;   -6.794;   -7.335;  585.988
373.296;   -0.339;   -4.564;  863.135
373.890;   -5.652;  -10.235;  647.840
374.485;   -8.357;   -7.885;  691.199
375.079;   -3.801;   -7.324;  738.685
375.674;   -2.533;   -3.494;  812.970
376.268;   -7.322;   -8.525;  691.759
376.863;  -12.427;  -10.086;  580.327
377.457;   -6.495;   -7.025;  662.490
378.052;   -7.602;   -3.585;  764.884
378.646;   -9.188;   -7.595;  741.167
379.240;   -9.717;   -8.335;  721.176
379.835;   -8.643;   -5.785;  636.978
380.429;  -10.485;   -4.335;  562.557
381.023;  -11.025;   -6.805;  779.205
381.617;  -12.613;   -9.195;  680.106
382.212;   -8.953;   -6.905;  685.303
382.806;   -8.735;   -3.745;  760.690
383.400;  -13.072;   -7.745;  672.281
383.994;  -14.042;   -9.765;  664.870
384.588;   -9.333;   -6.564;  697.701
385.182;   -8.691;   -5.344;  726.624
385.776;  -11.034;   -8.514;  706.875
386.370;  -13.192;   -9.555;  681.968
386.964;  -12.691;   -8.715;  684.155
387.558;  -10.643;   -6.174;  598.360
388.152;  -14.203;   -8.725;  681.959
388.745;  -12.372;   -7.965;  814.707
389.339;   -9.994;   -5.924;  747.642
389.933;  -10.069;   -5.524;  695.370
390.527;  -11.183;   -7.114;  859.029
391.120;  -17.330;  -10.725;  595.318
391.714;  -14.154;   -8.035;  711.633
392.308;  -10.656;   -3.574;  780.253
392.901;  -14.916;   -7.245;  642.460
393.495;  -16.258;   -9.285;  595.414
394.089;  -13.921;   -5.895;  760.452
394.682;  -15.071;   -4.295;  697.188
395.275;  -15.592;   -9.875;  719.927
395.869;  -16.419;   -8.485;  667.314
396.462;  -15.542;   -7.455;  616.609
397.056;  -11.180;   -5.424;  776.621
397.649;  -15.945;   -6.605;  731.575
398.242;  -12.661;   -8.224;  712.645
398.836;  -12.202;   -7.474;  766.408
399.429;  -13.608;   -7.094;  631.041
400.022;  -17.147;   -9.475;  665.902
400.615;  -14.302;   -7.145;  805.609
401.208;  -12.708;   -7.174;  691.451
401.802;  -14.727;   -5.515;  699.329
402.395;  -16.307;   -9.875;  683.502
402.988;  -16.902;   -8.845;  696.627
403.581;  -13.414;   -8.874;  646.878
404.174;  -11.364;   -5.324;  686.568
404.767;  -15.146;   -9.575;  638.583
405.360;  -17.459;  -10.965;  621.445
405.953;  -11.375;   -8.764;  759.034
406.545;  -11.246;   -7.514;  725.342
407.138;  -15.477;  -10.025;  618.350
407.731;  -14.111;  -10.034;  613.303
408.324;  -10.490;   -9.374;  660.554
408.917;  -10.998;   -6.534;  681.864
409.509;  -13.427;   -8.004;  740.396
410.102;  -15.084;   -9.875;  643.948
410.695;   -8.835;   -8.604;  665.758
411.287;   -9.593;   -6.794;  599.821
411.880;  -11.193;   -9.334;  585.421
412.472;  -13.716;  -10.254;  613.092
413.065;  -12.155;   -6.714;  629.408
413.657;   -9.513;   -7.234;  576.678
414.250;   -9.641;  -10.544;  646.681
414.842;  -11.215;   -9.744;  676.353
415.434;   -8.263;   -6.994;  570.463
416.027;   -3.657;   -5.893;  652.196
416.619;   -6.957;   -7.264;  713.400
417.211;   -8.027;  -10.374;  599.352
417.804;   -3.728;   -7.993;  628.499
418.396;   -7.649;   -7.234;  607.643
418.988;   -5.811;   -9.443;  659.238
419.580;   -9.289;  -10.724;  568.276
420.172;   -6.892;  -10.323;  536.196
420.764;   -2.109;   -8.793;  672.482
421.356;   -3.403;  -11.143;  636.898
421.948;   -4.300;   -8.293;  677.661
422.540;    0.853;   -7.893;  680.027
423.132;   -0.535;   -7.082;  600.641
423.724;   -3.304;   -8.653;  561.267
424.316;   -0.986;  -10.213;  621.345
424.908;    2.189;   -9.762;  591.517
425.500;    3.048;   -5.572;  647.978
426.092;    2.529;   -8.422;  648.268
426.683;    2.329;   -9.283;  684.836
427.275;    5.185;   -7.852;  641.471
427.867;    6.788;   -5.272;  668.948
428.458;    6.242;   -7.682;  732.344
429.050;    5.540;  -10.612;  680.749
429.642;    7.396;   -9.882;  743.124
430.233;    8.742;   -6.962;  569.356
430.825;    9.207;   -6.842;  724.809
431.416;    6.012;   -9.672;  698.241
432.008;   10.020;   -6.552;  651.723
432.599;   11.318;   -6.891;  656.073
433.190;    7.246;  -10.912;  637.670
433.782;    7.507;  -11.172;  590.395
434.373;   14.493;   -6.061;  884.765
434.964;   13.161;   -8.251;  602.920
435.556;   10.891;   -9.722;  634.537
436.147;   13.903;   -9.082;  758.490
436.738;   13.641;   -8.041;  701.099
437.329;   19.463;   -7.341;  721.723
437.920;   11.761;   -8.162;  666.688
438.511;   12.130;  -11.802;  564.526
439.103;   18.666;  -10.191;  623.998
439.694;   20.296;   -7.601;  681.583
440.285;   21.043;   -8.541;  764.432
440.876;   19.168;   -9.751;  845.738
441.466;   18.297;   -9.401;  575.162
442.057;   23.575;   -7.760;  665.814
442.648;   22.777;   -9.971;  746.255
443.239;   21.067;  -11.001;  620.477
443.830;   26.355;   -7.990;  704.958
444.421;   27.293;   -7.910;  655.474
445.011;   23.694;   -8.131;  693.619
445.602;   23.412;   -7.111;  743.126
446.193;   25.867;  -10.920;  488.117
446.783;   30.887;   -6.500;  640.397
447.374;   25.107;   -8.671;  692.759
447.964;   26.100;  -10.781;  713.770
448.555;   35.061;   -9.650;  822.742
449.145;   31.271;   -8.660;  662.853
449.736;   31.275;   -8.990;  803.179
450.326;   31.428;   -9.500;  713.626
450.917;   36.035;   -8.680;  675.324
451.507;   35.760;   -7.520;  600.661
452.097;   36.398;   -8.590;  746.267
452.688;   37.711;  -11.340;  742.160
453.278;   36.687;  -10.100;  566.840
453.868;   41.699;   -6.019;  793.550
454.458;   39.520;   -9.440;  651.141
455.048;   39.512;  -10.560;  711.783
455.639;   41.486;  -11.799;  567.096
456.229;   45.278;   -6.899;  710.694
456.819;   47.147;   -7.389;  751.158
457.409;   47.158;  -11.119;  773.993
457.999;   49.731;   -9.289;  737.505
458.589;   50.015;   -6.139;  686.606
459.179;   48.921;   -8.729;  717.658
459.769;   47.412;   -9.789;  627.099
460.358;   52.398;  -10.259;  797.262
460.948;   52.615;   -7.299;  689.503
461.538;   54.294;  -10.289;  660.677
462.128;   51.522;  -11.269;  664.934
462.717;   58.725;   -9.368;  710.326
463.307;   61.713;   -7.908;  705.846
463.897;   56.848;   -9.599;  656.942
464.486;   56.172;   -9.769;  837.128
465.076;   61.355;   -8.048;  733.776
465.666;   64.655;   -9.358;  652.900
466.255;   62.714;   -7.919;  785.651
466.845;   61.818;  -11.689;  666.749
467.434;   64.370;   -7.818;  725.873
468.023;   65.446;   -7.678;  658.357
468.613;   62.087;  -10.939;  713.946
469.202;   67.600;  -10.118;  646.507
469.791;   70.646;   -9.108;  737.811
470.381;   73.754;   -6.058;  742.813
470.970;   72.519;  -10.428;  711.099
471.559;   72.863;  -10.268;  733.291
472.148;   76.336;   -8.448;  675.737
472.738;   77.650;   -6.917;  765.466
473.327;   77.773;  -11.978;  637.529
473.916;   77.488;  -11.888;  737.446
474.505;   81.431;   -9.437;  751.703
475.094;   85.103;   -6.747;  806.570
475.683;   84.016;   -9.367;  797.699
476.272;   85.443;  -12.637;  730.632
476.861;   87.291;  -10.027;  706.754
477.449;   94.475;   -8.716;  728.487
478.038;   88.122;   -9.577;  692.513
478.627;   88.883;   -9.718;  714.852
479.216;   95.358;   -8.947;  769.441
479.805;   98.996;   -6.256;  783.375
480.393;   99.155;   -7.937; 1008.945
480.982;   97.882;   -7.717;  874.501
481.571;  103.427;   -9.266;  858.333
482.159;  104.394;   -7.636;  705.386
482.748;  103.876;   -9.667;  821.385
483.336;  109.016;  -10.376;  858.209
483.925;  109.895;   -7.147;  774.373
484.513;  116.864;   -7.996;  758.962
485.102;  112.543;  -10.027;  810.965
485.690;  121.435;  -10.446; 1011.050
486.278;  123.436;   -8.446;  979.329
486.867;  123.991;   -6.356;  809.662
487.455;  125.160;   -9.136;  898.229
488.043;  126.542;  -10.646;  748.361
488.631;  135.510;   -7.456; 1005.079
489.220;  138.574;   -6.636;  908.626
489.808;  138.817;  -11.036;  741.415
490.396;  147.003;  -10.246;  914.645
490.984;  153.340;   -8.556;  830.161
491.572;  162.290;   -5.886;  940.315
492.160;  168.050;   -9.486;  919.081
492.748;  178.949;  -10.976;  884.341
493.336;  201.496;   -8.776; 1019.693
493.924;  227.335;   -5.465;  958.077
494.512;  252.780;   -9.986; 1066.638
495.100;  289.159;  -10.636; 1103.280
495.687;  342.633;  -10.885; 1206.373
496.275;  403.443;   -8.126; 1150.796
496.863;  468.270;  -10.586; 1281.171
497.451;  566.567;  -11.926; 1386.805
498.038;  692.052;  -10.885; 1556.729
498.626;  791.079;   -6.315; 1741.407
499.214;  926.242;   -7.326; 2016.609
499.801; 1121.119;  -11.906; 2220.633
500.389; 1348.224;  -10.466; 2312.494
500.976; 1650.542;   -5.236; 2744.849
501.564; 2062.462;   -8.936; 3148.565
502.151; 2430.291;  -13.176; 3515.999
502.738; 2867.792;  -10.646; 3971.274
503.326; 3218.634;   -9.525; 4403.796
503.913; 3573.066;  -10.856; 5161.749
504.500; 3930.293;  -11.586; 5986.420
505.088; 4315.821;  -10.336; 6381.201
505.675; 4816.708;   -6.355; 6925.547
506.262; 5479.573;   -9.046; 7619.060
506.849; 6137.286;  -10.416; 8733.969
507.436; 6601.346;  -10.305; 9790.121
508.023; 7176.530;   -5.496; 9985.472
508.610; 7416.068;   -7.856;10434.618
509.197; 8001.622;  -10.097;11198.435
509.784; 9300.319;  -10.886;12391.194
510.371;10257.582;   -9.315;13603.713
510.958;10955.555;   -9.936;14426.586
511.545;11701.672;   -9.326;15243.775
512.132;12628.286;  -10.075;15945.876
512.719;13292.035;   -7.796;16340.369
513.305;14192.871;  -10.606;18011.766
513.892;14982.646;  -11.486;19754.971
514.479;16227.660;   -9.126;20967.805
515.066;17481.656;   -6.026;22299.793
515.652;18626.063;   -8.466;22908.660
516.239;20076.678;  -10.886;23798.875
516.825;21288.709;  -11.496;25567.275
517.412;22484.813;   -5.796;28154.959
517.998;22983.281;  -10.506;28344.111
518.585;22877.395;  -10.076;27134.219
519.171;23402.396;   -8.315;27268.576
519.758;24993.010;   -8.596;28964.129
520.344;26624.932;   -8.466;30664.494
520.930;26583.119;  -11.006;32550.605
521.516;28412.959;  -10.495;35422.895
522.103;30751.697;   -5.526;38280.004
522.689;31408.945;   -8.746;37835.117
523.275;30568.047;  -11.376;37288.613
523.861;31291.113;  -11.156;37281.395
524.447;32653.314;   -8.135;37846.949
525.033;32553.486;   -7.896;38321.949
525.619;32774.598;  -12.476;38579.285
526.205;34446.238;   -9.516;40622.875
526.791;36782.258;   -6.926;42258.836
527.377;36850.262;   -8.346;42966.902
527.963;38448.352;   -8.717;42018.949
528.549;36923.344;  -11.016;42476.828
529.135;35810.930;   -8.536;41854.852
529.721;35453.313;   -9.666;41237.711
530.306;34987.563;  -10.066;41259.445
530.892;34715.301;  -11.356;41506.047
531.478;36052.965;   -6.596;43559.613
532.063;38861.219;   -8.836;47695.563
532.649;38902.684;  -10.047;50808.324
533.235;39986.551;   -9.746;51787.500
533.820;41172.480;   -6.566;52145.035
534.406;42642.723;  -10.817;51133.488
534.991;42447.348;   -9.416;49996.805
535.576;41064.949;   -9.036;48882.852
536.162;41387.277;   -6.156;46942.285
536.747;42530.242;  -11.607;45711.746
537.333;46584.379;  -11.787;48510.180
537.918;48885.105;  -12.437;50439.891
538.503;47182.766;   -7.196;50863.711
539.088;44516.027;  -10.556;50906.922
539.673;44649.453;   -8.767;52621.965
540.259;44385.246;  -10.026;52368.094
540.844;41616.809;   -7.416;50879.109
541.429;42747.195;   -9.467;52077.777
542.014;45696.809;   -9.527;52716.695
542.599;45062.859;   -9.946;52363.281
543.184;42992.387;   -7.927;53187.137
543.769;44758.750;   -9.297;54697.605
544.354;43912.055;  -10.127;53913.914
544.938;42546.859;   -9.267;49680.164
545.523;44194.438;   -6.506;47386.277
546.108;46369.082;   -9.787;49151.949
546.693;48590.215;  -11.587;51384.637
547.278;48664.266;  -10.986;51853.254
547.862;45725.539;   -8.206;51173.750
548.447;41272.266;  -10.067;51691.395
549.031;41068.305;   -9.637;52456.703
549.616;45882.797;   -9.926;52714.516
550.201;44668.676;   -6.347;52414.598
550.785;45857.184;   -7.917;52355.059
551.370;45140.102;  -10.867;54589.453
551.954;45292.164;   -9.047;58267.348
552.538;45855.734;   -7.827;59062.176
553.123;44263.398;  -10.287;58115.285
553.707;42674.477;  -12.178;56556.285
554.291;43875.984;   -8.717;56201.668
554.876;45731.406;   -7.457;55335.762
555.460;46032.145;  -10.387;54155.703
556.044;47295.945;   -9.618;53721.484
556.628;45833.031;  -11.567;53731.016
557.212;44276.035;   -8.097;54312.531
557.796;42808.438;  -11.077;53797.773
558.380;42549.230;  -11.108;56145.984
558.964;42883.074;   -9.057;57277.930
559.548;43646.152;   -6.977;56459.641
560.132;42274.555;  -11.457;54434.543
560.716;41326.906;  -11.378;54800.617
561.300;42618.824;   -9.577;57606.945
561.884;43574.102;   -7.127;58972.445
562.467;42138.621;   -7.118;57327.570
563.051;41201.996;  -13.358;54962.434
563.635;41964.406;  -10.178;52594.473
564.219;42574.410;   -7.837;50610.410
564.802;43569.133;  -11.398;49551.180
565.386;43643.703;  -12.788;48370.953
565.969;43051.484;   -9.077;48178.871
566.553;42781.066;   -6.207;49957.305
567.136;42837.367;   -8.568;50369.594
567.720;38953.668;  -11.868;49492.004
568.303;37081.477;   -8.268;50616.352
568.887;37269.516;   -8.698;50727.148
569.470;37301.020;   -6.808;51698.379
570.053;35928.824;  -13.188;52122.078
570.637;34340.207;  -12.037;52536.438
571.220;33970.008;   -8.577;51186.098
571.803;34400.402;   -8.498;51032.762
572.386;36950.020;  -10.498;49609.887
572.969;39229.609;   -9.388;48285.926
573.552;37137.258;   -8.338;47624.285
574.135;35902.211;   -8.518;45498.641
574.718;33537.496;  -13.628;41970.434
575.301;32270.533;  -10.893;41447.137
575.884;31003.568;   -8.158;40923.836
576.467;32373.420;  -10.328;45267.723
577.050;34796.398;  -13.058;48175.543
577.633;35880.305;   -9.458;47729.328
578.216;34346.789;   -8.928;47579.793
578.799;33051.371;   -9.358;47820.996
579.381;31485.186;  -11.388;48115.551
579.964;30378.033;  -11.718;47333.766
580.547;32422.973;   -8.588;46668.969
581.129;34030.555;   -8.859;44466.141
581.712;34762.902;  -10.729;44164.922
582.294;35338.422;  -11.118;46477.855
582.877;35224.613;   -5.218;48244.254
583.459;32786.395;   -8.679;47437.895
584.042;30988.092;  -10.709;46943.219
584.624;31795.883;  -11.669;46792.227
585.206;31114.836;   -8.218;46557.250
585.789;31124.879;  -10.569;45793.773
586.371;33280.750;  -11.859;43836.391
586.953;32661.395;  -10.719;42972.492
587.536;32342.902;   -7.198;42487.211
588.118;29876.707;   -8.720;42086.414
588.700;26119.721;  -10.439;43389.930
589.282;26863.195;   -9.198;43646.039
589.864;30532.965;   -9.199;43438.109
590.446;33178.258;  -11.319;43151.926
591.028;33584.570;  -11.159;42781.867
591.610;32967.691;  -11.779;42839.098
592.192;30853.275;   -7.668;42820.402
592.774;29474.631;  -11.949;40724.277
593.356;28289.254;  -12.129;39874.789
593.937;27465.314;  -10.669;39980.648
594.519;29740.453;   -6.509;42069.633
595.101;31699.920;  -10.849;42976.031
595.683;31644.178;  -11.679;44084.441
596.264;32737.844;   -9.049;43478.797
596.846;31808.297;   -8.849;43803.672
597.427;31594.059;   -9.570;42986.934
598.009;33219.652;  -12.620;42832.219
598.591;33451.750;  -10.039;42580.086
599.172;32365.637;  -10.369;43061.805
599.753;32405.252;   -9.140;41691.469
600.335;34023.313;  -11.430;40692.520
600.916;32586.826;   -9.939;39982.422
601.498;30264.240;   -8.479;40318.617
602.079;28840.025;  -10.920;40670.609
602.660;29063.332;  -11.480;41450.898
603.241;30463.248;  -11.699;41137.738
603.823;29240.260;   -9.579;38868.797
604.404;29381.518;  -10.620;38182.785
604.985;30684.338;  -10.450;38078.047
605.566;30074.451;   -9.129;38056.633
606.147;30183.385;   -7.510;37020.418
606.728;31853.441;  -10.660;37883.359
607.309;30523.582;  -11.740;38748.273
607.890;29863.105;   -9.759;38850.230
608.471;29514.748;   -8.250;37457.918
609.051;28655.168;   -9.240;36066.457
609.632;27696.578;  -12.120;35991.074
610.213;28528.328;   -9.110;37402.641
610.794;29017.201;   -8.030;38383.363
611.374;28614.320;   -8.110;40562.387
611.955;29059.865;  -13.560;38533.727
612.536;30254.365;  -11.400;36951.789
613.116;30391.932;   -8.070;37197.891
613.697;30455.605;  -10.830;38411.125
614.277;29140.830;  -11.641;38673.938
614.858;30099.070;  -13.310;37075.863
615.438;29189.410;   -7.460;35092.906
616.019;26313.758;   -7.601;33666.301
616.599;27063.197;  -12.020;34189.023
617.179;28765.186;  -11.780;36952.047
617.760;29495.326;   -8.570;39582.574
618.340;30560.211;  -11.471;38943.977
618.920;31878.990;  -11.170;37594.156
619.500;31959.340;  -11.071;37866.938
620.080;31364.494;   -7.750;37869.043
620.660;32520.566;  -12.711;36868.617
621.241;33925.316;  -10.211;36352.309
621.821;33998.195;  -10.961;35459.520
622.401;32865.441;   -7.720;35207.414
622.980;31988.908;   -8.981;35980.422
623.560;30633.008;   -9.331;37351.328
624.140;29698.805;   -9.850;34388.582
624.720;24485.084;   -7.451;32368.764
625.300;20984.854;   -9.070;32638.629
625.880;24337.768;  -12.601;34599.035
626.459;28393.217;  -11.751;36831.738
627.039;31548.639;   -9.281;38299.098
627.619;31427.000;   -8.801;38289.574
628.198;29645.145;  -12.071;37220.695
628.778;28734.674;   -9.461;37632.563
629.357;29537.977;   -8.491;38003.012
629.937;29763.848;   -9.721;38402.039
630.516;29206.508;   -9.951;37868.801
631.096;28676.287;  -11.731;35760.410
631.675;31866.439;   -8.572;35225.219
632.254;36767.254;  -11.282;35130.289
632.834;36116.211;  -13.322;35794.570
633.413;34094.660;  -10.301;35788.922
633.992;30963.600;   -8.582;34532.863
634.571;31827.896;   -8.352;33590.113
635.151;34514.488;  -11.912;34943.863
635.730;33072.844;  -10.511;35352.523
636.309;29980.371;   -7.731;35366.605
636.888;27783.553;   -9.952;36165.637
637.467;28912.115;  -11.672;37515.902
638.046;30483.000;   -8.901;39288.695
638.625;33462.426;   -7.912;38279.699
639.204;33092.699;  -10.022;37741.598
639.782;31514.879;  -12.252;38364.551
640.361;27676.791;  -10.041;36740.621
640.940;24971.479;  -11.161;34950.082
641.519;25637.891;   -9.701;34137.398
642.097;28787.670;  -11.271;35654.258
642.676;31447.316;   -8.651;35637.957
643.255;31745.389;   -8.711;36567.074
643.833;30925.660;   -9.581;37809.434
644.412;31165.900;  -13.711;37337.293
644.990;30502.668;  -11.811;37018.531
645.569;30983.010;   -9.411;36518.469
646.147;29771.602;  -10.291;36186.430
646.726;28898.977;  -12.401;36267.688
647.304;29756.467;  -10.411;36647.625
647.882;31981.010;   -9.651;39286.742
648.461;33776.895;   -9.631;39157.703
649.039;31706.168;  -11.881;35412.883
649.617;31020.895;   -9.661;34744.918
650.195;30888.768;   -9.301;35403.098
650.773;29333.947;  -10.511;35053.797
651.352;27100.637;  -11.521;33756.816
651.930;24901.615;  -12.211;31868.773
652.508;23238.660;   -9.171;33121.551
653.086;27190.805;   -9.371;33564.793
653.663;29802.141;  -13.161;34054.668
654.241;28972.176;  -13.031;35693.309
654.819;30682.592;   -9.371;36422.906
655.397;30737.494;  -10.511;38213.484
655.975;30606.279;  -10.371;39507.625
656.553;30108.113;  -10.051;39498.223
657.130;28531.088;  -10.061;40395.480
657.708;28118.574;   -9.561;39242.020
658.286;28066.479;  -11.511;38920.020
658.863;29092.205;  -10.261;40202.898
659.441;32181.680;   -7.531;39677.938
660.018;31530.791;   -9.501;40413.355
660.596;30395.020;  -13.301;39931.414
661.173;32462.750;  -11.211;39604.531
661.750;32792.500;   -9.951;39700.070
662.328;32084.039;   -9.390;39292.809
662.905;30901.965;  -11.330;38235.648
663.482;26026.547;   -9.050;36212.305
664.060;24199.436;   -8.240;35944.945
664.637;27120.324;  -10.050;35170.785
665.214;29056.385;  -11.760;34197.523
665.791;30260.184;  -10.530;34549.520
666.368;28878.674;   -9.690;35118.578
666.945;30069.063;   -9.320;36019.418
667.522;31663.379;  -11.860;36048.438
668.099;31458.141;  -10.770;36243.914
668.676;30379.797;   -6.260;35958.875
669.253;28879.488;   -7.000;37384.730
669.830;29548.473;  -10.190;36779.629
670.407;29299.307;   -9.550;35231.289
670.984;29685.324;   -9.260;35544.270
671.560;30087.980;   -9.280;35466.867
672.137;28881.227;  -11.810;34280.863
672.714;29628.014;  -11.490;34632.863
673.290;30071.090;   -7.740;35135.422
673.867;30461.963;  -10.660;36114.480
674.443;30078.074;  -12.230;36152.859
675.020;28390.840;  -10.450;35327.238
675.596;29726.139;   -9.260;35795.176
676.173;30241.090;  -10.780;35430.355
676.749;30140.807;  -13.690;33549.516
677.326;30197.504;  -11.980;32210.012
677.902;30156.531;   -8.630;32068.871
678.478;29372.447;  -10.730;32583.891
679.054;28921.029;  -10.520;32088.928
679.631;29178.555;  -11.920;30978.848
680.207;30746.641;   -7.490;33160.887
680.783;32336.412;   -9.860;35570.363
681.359;31319.850;  -13.380;36125.184
681.935;30593.064;  -12.480;35240.922
682.511;29684.787;   -7.900;34429.961
683.087;29886.902;   -7.710;34463.680
683.663;29667.020;  -11.480;34648.898
684.239;28283.580;  -14.090;34546.457
684.815;27934.414;   -7.560;35586.375
685.390;28404.596;   -9.910;35821.895
685.966;28934.988;  -11.159;35085.871
686.542;31552.527;  -11.169;34198.230
687.118;33349.035;   -5.959;32847.707
687.693;33132.816;  -10.329;32794.027
688.269;32868.922;  -12.059;33072.367
688.844;31069.996;  -10.909;33141.664
689.420;28840.064;   -8.019;33965.742
689.995;26471.662;   -8.399;34655.523
690.571;25262.307;  -10.949;33576.742
691.146;25849.877;   -9.619;32657.219
691.722;25277.189;   -8.999;32526.979
692.297;25689.488;  -11.589;33014.617
692.872;27610.635;  -11.739;34012.254
693.448;26908.184;  -11.059;34237.434
694.023;26180.738;  -10.139;34142.672
694.598;28324.977;   -9.029;34132.031
695.173;28454.258;  -13.319;34205.250
695.748;27742.414;  -10.169;32882.488
696.323;27565.463;   -8.339;32864.906
696.898;27876.104;   -8.169;33170.004
697.473;27700.902;  -12.309;32432.984
698.048;27087.926;  -10.989;31649.303
698.623;27292.828;   -9.329;30778.141
699.198;29387.941;   -9.849;31140.119
699.773;29971.758;  -12.329;31764.299
700.348;28296.486;  -10.389;31780.816
700.922;28250.002;   -9.269;32046.375
701.497;28754.281;   -9.329;32603.574
702.072;28741.027;  -10.789;34799.871
702.646;27652.627;  -10.839;35793.172
703.221;26070.531;   -9.099;35201.590
703.795;28035.145;  -10.939;34764.527
704.370;28189.354;  -12.859;34307.367
704.944;28713.723;  -11.559;33509.887
705.519;29786.322;   -7.939;31388.584
706.093;31293.289;  -10.499;31340.104
706.668;31314.979;  -11.289;32630.281
707.242;30328.221;  -11.509;32728.779
707.816;28849.246;   -9.639;32947.238
708.390;27285.438;  -11.429;33277.855
708.965;28110.326;  -11.869;33834.336
709.539;28584.748;  -11.689;33709.273
710.113;29037.850;  -10.478;33044.313
710.687;28066.648;  -10.228;31953.992
711.261;26213.783;  -13.698;30505.949
711.835;26209.852;  -13.378;30262.369
712.409;27202.803;   -9.698;31254.447
712.983;28919.471;  -11.898;32754.986
713.557;29665.373;  -15.138;34018.824
714.131;29284.129;  -14.098;34579.625
714.704;28416.984;   -9.958;33890.262
715.278;26223.129;  -10.028;33531.102
715.852;25512.973;  -11.148;33601.660
716.425;26495.209;   -9.068;33515.117
716.999;27182.525;  -10.038;33185.555
717.573;28268.652;   -9.798;33905.996
718.146;29322.535;  -12.378;35199.293
718.720;28934.012;  -11.918;35060.551
719.293;28331.994;   -8.088;34973.230
719.867;31139.311;  -10.888;36394.449
720.440;30426.875;  -11.938;36663.008
721.013;28619.547;  -12.818;35102.426
721.587;27615.275;  -10.298;33985.266
722.160;26950.150;  -10.048;33524.965
722.733;25989.486;  -12.108;32987.043
723.306;26381.148;  -10.818;33066.301
723.880;28514.139;   -8.908;33399.500
724.453;29763.826;   -9.878;33468.297
725.026;28671.010;  -11.188;33816.637
725.599;26540.334;  -11.678;32797.996
726.172;27503.326;   -9.618;33187.434
726.745;28755.365;   -8.258;35136.613
727.318;30085.207;  -12.978;35751.730
727.891;30050.002;  -12.148;35890.430
728.463;29607.900;   -8.968;34822.090
729.036;28873.273;  -10.188;32895.086
729.609;29281.906;  -11.788;31823.225
730.182;26228.834;  -11.788;31445.283
730.754;23738.043;  -10.268;32373.223
731.327;23706.816;   -9.998;33676.820
731.900;24216.674;  -12.228;33417.000
732.472;25685.771;  -13.848;31978.498
733.045;27373.221;   -8.698;30368.777
733.617;27420.447;  -10.607;30574.215
734.190;26804.627;  -11.507;31280.975
734.762;23650.357;  -13.647;31674.412
735.334;22193.869;   -9.767;31247.291
735.907;23086.680;   -9.897;29876.211
736.479;23061.420;  -11.637;29808.488
737.051;22638.463;   -9.567;30233.547
737.623;23581.900;   -8.187;31469.086
738.195;24709.875;  -11.187;31784.225
738.768;26882.977;  -12.337;32120.523
739.340;26567.498;  -12.227;32094.342
739.912;25117.740;  -11.057;31312.680
740.484;23758.232;  -10.207;31946.238
741.056;22900.898;  -10.047;32984.059
741.628;24822.549;  -13.627;33897.715
742.199;27104.977;   -7.177;33213.016
742.771;25384.367;  -10.797;31369.113
743.343;23033.732;  -11.997;31865.473
743.915;22102.230;  -12.867;32388.631
744.487;22252.354;   -7.617;31079.568
745.058;22311.840;   -9.557;30570.107
745.630;22771.332;   -9.877;29970.127
746.201;23409.885;  -14.177;29186.766
746.773;23554.611;   -9.237;28805.723
747.344;23452.777;   -9.847;29591.223
747.916;22375.412;  -11.657;31412.201
748.487;22807.213;  -10.587;32194.898
749.059;23984.635;   -8.707;32533.719
749.630;24719.857;  -10.537;32158.518
750.201;23904.957;  -11.687;30855.395
750.773;22151.121;  -11.647;28622.555
751.344;22118.012;   -7.147;28405.732
751.915;23158.432;   -9.757;28461.551
752.486;22624.273;  -12.427;27842.850
753.057;20537.344;  -12.227;27845.008
753.628;19614.232;  -10.417;27728.107
754.199;20854.111;  -11.767;27381.086
754.770;21731.783;  -11.187;25882.203
755.341;21656.271;  -10.507;25886.184
755.912;21526.012;   -9.387;26050.861
756.483;20916.150;  -10.647;26798.779
757.054;18999.396;  -11.837;27048.238
757.625;17725.152;  -12.716;26294.838
758.195;17697.133;   -9.666;26142.076
758.766;17569.482;   -8.656;26392.234
759.337;18402.164;  -12.856;26334.594
759.907;20202.584;  -13.366;27579.652
760.478;20966.988;   -8.576;28352.770
761.048;20097.896;  -10.526;27325.088
761.619;19242.924;  -11.116;26460.428
762.189;19456.270;  -12.136;26029.826
762.760;20861.305;   -9.456;26430.145
763.330;21800.293;   -7.136;26670.902
763.900;21028.201;  -11.786;26603.021
764.471;18338.139;  -11.546;25542.740
765.041;17054.449;   -8.096;24358.459
765.611;17131.693;   -8.876;23991.297
766.181;17607.371;  -12.196;24470.236
766.751;18584.232;  -11.636;24845.975
767.321;18210.986;  -10.156;24533.633
767.891;16107.150;  -11.766;24916.492
768.461;15671.562;  -14.936;24776.771
769.031;16332.130;  -12.356;24757.988
769.601;17820.580;   -7.526;24181.088
770.171;17555.438;  -10.766;23670.387
770.741;16949.826;  -13.176;22960.045
771.311;17333.984;  -10.616;22917.523
771.880;17581.268;   -9.576;23562.941
772.450;17268.697;  -10.336;24216.500
773.020;17418.057;  -13.516;24140.398
773.589;16831.877;  -13.466;24414.857
774.159;16241.576;   -8.686;23858.717
774.729;15830.851;   -9.476;22942.135
775.298;15262.597;  -13.666;22324.033
775.867;14844.739;  -11.716;21140.313
776.437;14843.349;   -9.906;20838.092
777.006;14562.380;  -12.166;20599.510
777.576;14467.093;  -12.356;20508.809
778.145;14696.430;  -11.646;20732.947
778.714;14560.754;   -8.226;21062.465
779.283;13778.326;   -9.556;20949.664
779.853;13326.879;  -14.116;20508.623
780.422;13786.950;  -11.506;20649.082
780.991;13395.865;   -9.556;21527.520
781.560;12310.131;   -9.095;22632.658
782.129;12154.305;  -12.135;23048.277
782.698;12157.028;  -10.865;23438.555
783.267;11722.835;   -9.335;23267.734
783.836;11733.518;  -11.045;22415.133
784.404;12845.024;  -13.865;20443.152
784.973;13361.490;  -13.095;19699.150
785.542;13317.671;  -11.575;19763.828
786.111;13204.100;   -9.705;20341.408
786.679;12597.969;  -12.105;20207.967
787.248;12304.906;  -12.455;19516.465
787.817;12105.646;  -11.535;18900.363
788.385;11684.180;   -9.765;17879.121
788.954;11100.216;  -14.005;17658.301
789.522;10630.934;  -11.955;17788.879
790.090;11190.219;  -10.135;18118.277
790.659;11524.757;  -10.975;18338.736
791.227;11003.449;  -13.375;18508.615
791.795;11486.637;  -12.375;17898.254
792.364;11780.104;  -10.725;17295.133
792.932;11993.288;   -9.715;16822.051
793.500;12221.917;  -12.675;17040.148
794.068;12578.498;  -13.495;17179.787
794.636;12677.287;  -10.885;16664.246
795.204;12182.659;  -11.045;16524.545
795.772;12254.305;  -13.175;17274.564
796.340;11730.874;  -12.445;17891.002
796.908;11548.242;   -9.735;17648.561
797.476;11421.514;   -9.815;17064.080
798.044;10979.647;  -13.985;16672.777
798.612;10197.396;  -13.115;17023.996
799.180; 9798.668;  -10.185;16561.615
799.747; 9708.402;   -9.055;15962.773
800.315; 9467.374;  -12.385;15296.992
800.883; 9082.135;  -15.035;14801.771
801.450; 9039.740;  -10.365;14534.430
802.018; 9113.087;   -9.855;14173.248
802.585; 9285.730;  -11.905;14029.547
803.153; 9393.665;  -11.585;13836.846
803.720; 9229.170;   -9.095;13567.324
804.287; 8747.638;   -9.135;13360.622
804.855; 8328.842;  -11.604;13681.981
805.422; 8214.583;  -11.794;13536.560
805.989; 8200.718;  -10.734;13355.958
806.556; 8435.321;  -10.444;13747.896
807.124; 8741.927;  -12.764;13987.376
807.691; 8717.661;  -12.964;14038.674
808.258; 8464.532;  -11.134;14120.152
808.825; 8037.166;   -9.854;13860.111
809.392; 8081.109;  -10.504;13268.790
809.959; 7645.995;  -13.054;12680.389
810.526; 7259.430;   -8.294;12427.308
811.093; 7342.081;   -8.394;12030.105
811.659; 7895.427;  -12.304;11653.664
812.226; 8314.338;  -13.944;11637.183
812.793; 7937.642;  -10.484;11611.521
813.360; 7302.325;  -10.144;11885.181
813.926; 7028.211;  -11.684;12770.539
814.493; 6822.760;  -13.644;12677.638
815.060; 6455.257;   -9.724;11974.336
815.626; 6504.358;   -9.854;11594.715
816.193; 6916.585;  -13.254;11579.474
816.759; 6950.747;  -13.204;11666.972
817.325; 7061.794;   -9.434;11325.530
817.892; 7448.230;  -10.134;11105.369
818.458; 7857.703;  -13.474;10843.928
819.024; 7388.213;  -11.854;10714.406
819.591; 6999.449;  -10.244;10469.165
820.157; 6773.199;  -10.704;10235.523
820.723; 6313.402;  -12.324;10847.563
821.289; 6034.909;   -9.444;11040.980
821.855; 5903.999;   -8.374;10357.100
822.421; 5795.121;  -10.234; 9978.918
822.987; 5753.750;  -13.294; 9754.177
823.553; 5492.367;  -10.884;10065.755
824.119; 5366.882;   -8.884;10036.294
824.685; 5444.008;   -6.784;10029.192
825.251; 5503.705;  -12.004;10199.230
825.816; 5482.881;  -11.474; 9820.189
826.382; 5293.552;   -9.174; 9297.248
826.948; 5555.436;   -9.214; 9381.347
827.513; 5910.689;  -10.774; 9450.726
828.079; 5682.981;  -11.924; 9472.444
828.645; 5147.722;  -10.543; 9292.643
829.210; 5111.007;  -10.533; 9065.341
829.776; 5071.300;  -10.753; 9132.620
830.341; 4922.491;  -10.173; 9092.878
830.906; 5113.882;  -10.743; 9078.557
831.472; 5426.281;  -11.113; 8534.535
832.037; 5100.733;  -10.603; 8677.874
832.602; 4538.009;  -13.323; 8628.692
833.167; 4316.040;  -10.823; 8879.031
833.733; 4274.818;  -10.113; 9189.790
834.298; 4391.708;  -13.583; 9052.608
834.863; 4426.806;  -12.703; 8895.087
835.428; 4424.628;  -10.523; 8824.266
835.993; 4339.080;   -6.963; 8845.385
836.558; 4215.932;  -10.763; 8888.563
837.123; 4351.468;   -9.903; 8966.582
837.688; 4549.168;   -9.913; 8617.860
838.253; 4719.584;  -10.283; 8590.699
838.817; 4885.701;  -12.963; 8443.797
839.382; 4783.896;  -14.243; 8799.356
839.947; 4483.206;  -10.733; 8810.595
840.511; 4193.050;   -9.383; 8796.394
841.076; 3850.460;  -12.563; 8347.231
841.641; 3952.500;  -12.953; 8224.330
842.205; 4055.155;   -7.043; 8223.349
842.770; 4182.756;   -8.163; 8622.107
843.334; 4370.827;  -12.503; 8410.386
843.898; 4343.059;  -11.693; 8337.465
844.463; 4377.175;  -10.203; 8506.283
845.027; 4150.885;   -9.533; 8280.962
845.591; 3975.115;  -13.443; 8231.141
846.156; 3913.308;  -13.143; 7969.179
846.720; 3779.802;   -9.433; 7768.278
847.284; 3639.545;  -11.033; 7630.957
847.848; 3507.271;  -10.403; 7472.395
848.412; 3407.673;  -11.553; 7437.394
848.976; 3440.240;   -8.393; 7674.592
849.540; 3400.503;   -8.713; 7836.011
850.104; 3548.896;  -12.463; 7913.669
850.668; 3899.744;  -12.973; 7694.508
851.232; 3970.099;  -10.793; 7756.887
851.796; 3794.661;  -10.662; 7926.545
852.359; 3503.378;  -13.082; 7827.844
852.923; 3361.175;  -12.192; 7641.163
853.487; 3194.283;  -11.912; 7342.501
854.050; 3143.602;  -10.892; 7042.820
854.614; 3258.736;  -13.992; 7151.338
855.177; 3364.556;  -11.732; 7105.077
855.741; 3394.315;   -8.962; 6989.675
856.304; 3300.551;   -9.442; 6596.634
856.868; 3261.085;  -14.192; 6356.272
857.431; 3375.723;  -12.702; 6468.571
857.995; 3515.756;   -9.942; 6373.210
858.558; 3526.364;   -9.112; 6324.448
859.121; 3253.047;  -12.932; 6408.327
859.684; 3135.987;  -13.442; 6347.886
860.247; 3226.576;  -10.632; 6321.264
860.810; 3198.561;  -11.272; 6301.903
861.374; 2939.072;   -9.832; 6607.881
861.937; 2697.602;  -11.762; 6408.200
862.500; 2710.111;   -9.722; 6572.639
863.062; 2901.638;  -10.512; 6387.297
863.625; 3070.525;  -11.232; 6190.836
864.188; 3236.127;  -14.112; 5807.254
864.751; 3290.008;  -11.302; 5682.413
865.314; 3162.855;  -10.112; 5547.492
865.876; 2969.738;  -12.182; 5500.150
866.439; 2969.096;  -10.722; 5415.909
867.002; 2907.609;   -9.252; 5501.567
867.564; 2677.874;   -9.572; 5413.946
868.127; 2439.408;  -13.142; 5160.325
868.689; 2331.007;  -12.902; 5133.183
869.252; 2221.394;   -9.732; 5252.382
869.814; 2126.950;   -9.432; 5297.141
870.377; 2155.744;  -11.552; 5390.919
870.939; 2239.628;   -9.052; 5599.898
871.501; 2298.315;  -10.982; 5248.336
872.063; 2288.417;  -12.292; 4854.235
872.626; 2249.966;  -14.912; 4817.074
873.188; 2281.849;  -13.112; 4987.732
873.750; 2250.709;  -13.442; 4868.651
874.312; 2163.101;   -9.402; 4779.330
874.874; 2065.225;  -11.062; 4866.348
875.436; 1971.261;  -13.931; 4718.887
875.998; 1955.865;   -9.561; 4660.005
876.560; 1973.686;  -11.321; 4462.964
877.122; 1917.693;  -12.221; 4145.042
877.683; 1828.902;  -12.191; 4056.481
878.245; 1758.834;  -12.101; 3950.740
878.807; 1803.820;   -8.971; 4058.958
879.369; 1827.257;  -12.071; 3954.677
879.930; 1733.654;  -14.621; 3941.495
880.492; 1677.101;  -10.311; 4067.014
881.053; 1620.643;  -10.901; 3859.633
881.615; 1494.224;  -14.411; 3776.071
882.176; 1399.651;  -13.761; 3734.750
882.738; 1358.069;   -9.181; 3678.489
883.299; 1336.417;  -11.791; 3405.407
883.860; 1349.247;  -13.121; 3351.106
884.422; 1348.856;  -11.211; 3394.044
884.983; 1294.008;  -10.091; 3166.443
885.544; 1208.428;   -8.461; 3189.802
886.105; 1128.923;  -12.361; 3160.360
886.666; 1061.549;  -14.141; 3093.059
887.227; 1005.761;  -11.361; 2941.957
887.788;  943.524;  -11.401; 2974.836
888.349;  879.955;  -13.791; 2721.214
888.910;  877.527;  -13.191; 2696.493
889.471;  885.120;   -9.881; 2560.172
890.032;  863.032;   -9.881; 2558.190
890.593;  839.906;  -10.371; 2567.669
891.153;  814.192;  -13.301; 2460.307
891.714;  764.277;  -11.431; 2372.046
892.275;  721.139;  -11.291; 2309.505
892.835;  675.431;  -11.471; 2382.543
893.396;  617.358;  -11.541; 2295.502
893.956;  559.229;  -11.181; 2162.420
894.517;  524.814;  -11.741; 2125.439
895.077;  521.799;  -11.671; 2086.978
895.638;  523.439;  -11.311; 2126.316
896.198;  494.461;   -9.831; 1838.275
896.758;  452.709;   -8.421; 1892.813
897.319;  420.794;  -12.351; 1792.232
897.879;  403.746;  -13.511; 1762.751
898.439;  377.947;  -12.001; 1661.149
898.999;  354.642;  -10.180; 1781.468
899.559;  344.353;  -12.030; 1703.347
900.119;  339.346;  -15.710; 1537.525
900.679;  334.996;   -8.900; 1638.384
901.239;  320.089;   -8.340; 1527.902
901.799;  309.727;  -13.910; 1456.441
902.359;  304.555;  -13.460; 1357.140
902.919;  297.234;  -11.490; 1331.118
903.479;  284.512;  -12.110; 1317.257
904.038;  262.120;  -11.720; 1262.595
904.598;  248.337;  -13.610; 1152.034
905.158;  245.810;  -11.040; 1240.893
905.717;  237.328;  -10.900; 1233.691
906.277;  225.358;  -15.080; 1217.330
906.836;  214.744;  -13.380; 1222.408
907.396;  207.559;  -10.780; 1193.047
907.955;  200.435;   -8.500; 1182.526
908.515;  194.111;  -12.760; 1099.364
909.074;  188.297;  -11.900; 1092.863
909.633;  183.485;   -8.950; 1069.121
910.192;  178.753;   -8.770; 1196.460
910.752;  172.494;  -12.390; 1029.960
911.311;  168.666;  -13.680; 1009.780
911.870;  166.795;  -12.370;  971.460
912.429;  168.688;  -10.900; 1094.080
912.988;  167.197;  -11.690; 1081.060
913.547;  161.703;  -13.240;  940.380
914.106;  156.815;  -11.990;  999.420
914.665;  152.871;   -9.990;  984.020
915.224;  153.335;  -12.880; 1035.760
915.782;  153.315;  -12.350;  922.560
916.341;  152.422;   -9.110; 1049.840
916.900;  148.866;   -9.270;  925.260
917.458;  146.893;  -13.240;  884.220
918.017;  146.496;  -13.550;  942.600
918.576;  145.473;  -12.320;  904.440
919.134;  143.894;  -11.490;  837.980
919.693;  142.011;  -13.670;  893.060
920.251;  140.323;  -15.470;  876.500
920.809;  139.636;  -11.290;  839.580
921.368;  138.975;  -10.210;  885.360
921.926;  137.533;  -12.140;  842.940
922.484;  136.436;  -13.080;  903.360
923.042;  136.038;  -11.720;  880.340
923.601;  139.151;   -7.480;  998.680
924.159;  136.655;  -11.570;  935.560
924.717;  133.835;  -13.840;  841.080
925.275;  134.896;  -10.640;  903.240
925.833;  133.813;  -11.540;  779.320
926.391;  134.782;  -12.960;  938.380
926.949;  131.921;  -14.130;  857.680
927.506;  133.617;  -11.750;  903.500
928.064;  134.233;  -10.250;  877.580
928.622;  132.406;  -13.030;  880.100
929.180;  132.672;  -13.400;  814.180
929.737;  134.147;  -10.700;  808.540
930.295;  137.333;  -10.070;  928.480
930.853;  138.922;  -11.960;  849.100
931.410;  139.740;  -13.120;  821.120
931.968;  139.646;  -10.770;  940.660
932.525;  138.829;  -10.680;  909.380
933.082;  139.967;  -13.130;  811.440
933.640;  140.949;  -13.210;  925.900
934.197;  138.829;  -11.060;  886.360
934.754;  139.671;   -9.580;  897.780
935.312;  143.598;  -14.000;  863.340
935.869;  147.303;  -10.710; 1012.980
936.426;  148.784;   -9.860;  872.800
936.983;  149.664;   -9.710;  889.020
937.540;  147.506;  -13.990;  838.280
938.097;  146.245;  -14.040;  940.120
938.654;  146.674;  -10.310;  898.860
939.211;  150.022;  -10.560;  952.480
939.768;  153.671;  -13.900;  915.420
940.324;  156.768;  -14.760;  904.200
940.881;  158.140;  -10.370;  878.500
941.438;  158.574;   -8.260; 1021.200
941.995;  154.209;  -12.540;  992.560
942.551;  151.572;  -14.670;  875.620
943.108;  153.935;  -10.450;  937.920
943.664;  155.790;  -10.750;  869.340
944.221;  159.000;  -11.550; 1088.140
944.777;  156.074;  -14.770;  869.680
945.334;  157.868;  -12.820;  884.840
945.890;  159.894;  -10.130;  946.480
946.446;  158.907;  -13.470;  947.020
947.003;  160.671;  -12.120;  964.940
947.559;  163.918;   -9.980; 1063.040
948.115;  163.275;   -9.080; 1026.540
948.671;  161.994;  -10.830;  967.300
949.227;  159.491;  -12.440;  859.560
949.783;  157.298;  -12.910;  858.900
950.339;  157.952;  -10.270;  991.000
950.895;  157.515;  -13.630; 1023.840
951.451;  157.993;  -15.100;  925.280
952.007;  158.613;  -11.330;  998.540
952.563;  158.757;  -10.580;  937.780
953.118;  156.917;  -13.440;  904.940
953.674;  156.958;  -12.710;  935.780
954.230;  156.566;  -10.350;  949.640
954.785;  154.149;   -9.190;  936.640
955.341;  152.032;  -11.200;  998.160
955.897;  150.462;  -16.560;  834.660
956.452;  151.929;  -12.570;  953.840
957.008;  150.562;   -7.970; 1083.640
957.563;  148.471;  -11.940; 1009.540
958.118;  144.015;  -13.450;  877.700
958.674;  145.228;  -12.030;  946.780
959.229;  147.118;   -9.410; 1013.980
959.784;  145.087;  -12.000;  832.400
960.339;  144.177;  -14.780; 1001.280
960.894;  139.656;   -9.860;  963.760
961.449;  136.116;   -9.970;  859.960
962.004;  134.922;  -10.900; 1212.840
962.559;  130.359;  -13.150;  860.140
963.114;  128.185;  -13.740;  742.480
963.669;  127.098;   -9.820;  915.500
964.224;  125.968;  -13.890;  874.340
964.779;  124.677;  -12.600;  828.420
965.334;  125.849;  -10.950; 1017.860
965.888;  126.420;  -11.170;  875.360
966.443;  128.992;  -12.540;  972.380
966.998;  128.373;  -15.780;  819.460
967.552;  127.827;   -9.760;  908.380
968.107;  123.735;   -9.060;  868.300
968.661;  125.541;  -11.950;  922.440
969.216;  126.197;  -12.800;  856.280
969.770;  127.658;  -11.210;  917.200
970.324;  125.817;  -11.610;  923.140
970.879;  123.053;  -11.370;  947.180
971.433;  117.414;  -12.540;  952.720
971.987;  111.389;  -11.320;  895.340
972.541;  109.136;  -10.720;  917.100
973.095;  109.465;   -9.680; 1009.460
973.649;  109.502;  -11.440;  809.480
974.203;  108.102;  -11.210;  829.040
974.757;  104.502;  -10.240;  855.220
975.311;   97.552;  -13.720;  872.600
975.865;   89.659;  -13.770;  881.820
976.419;   82.260;  -11.690;  857.400
976.973;   79.205;   -9.510;  849.620
977.526;   79.752;  -12.620;  949.920
978.080;   80.341;  -12.010;  796.780
978.634;   84.924;  -10.170;  921.320
979.187;   84.983;   -9.020;  905.400
979.741;   85.068;   -9.820; 1018.380
980.294;   81.992;  -14.870;  789.160
980.848;   81.565;  -12.380;  717.220
981.401;   84.095;  -10.350;  816.540
981.955;   86.624;  -13.720;  844.300
982.508;   85.235;  -11.490;  746.340
983.061;   86.741;  -10.000;  915.260
983.615;   83.631;  -11.480;  798.800
984.168;   81.163;  -13.220;  770.080
984.721;   80.392;  -13.960;  880.760
985.274;   80.994;  -10.870;  867.500
985.827;   79.536;   -9.790;  834.220
986.380;   77.757;  -13.120;  721.340
986.933;   77.094;  -12.450;  864.800
987.486;   75.937;  -10.210;  861.920
988.039;   74.898;   -8.430;  863.100
988.591;   72.951;  -10.520;  893.260
989.144;   70.392;  -14.860;  737.260
989.697;   70.864;  -13.080;  758.740
990.250;   71.156;  -10.150;  858.100
990.802;   70.286;  -13.430;  755.860
991.355;   71.834;  -12.750;  974.880
991.907;   69.329;  -12.040;  864.320
992.460;   66.825;  -11.330;  753.760
993.012;   66.193;  -13.610;  749.540
993.565;   65.542;  -13.460;  711.360
994.117;   66.939;   -9.360;  950.780
994.669;   64.071;  -11.300;  701.320
995.221;   61.513;  -13.540;  791.920
995.774;   59.876;  -13.430;  787.580
996.326;   57.949;  -12.520;  740.220
996.878;   55.710;  -10.950;  838.420
997.430;   53.280;  -14.300;  699.860
997.982;   52.100;  -13.760;  750.140
998.534;   52.950;  -11.530;  739.060
999.086;   52.083;  -10.310;  738.220
999.638;   51.560;  -12.530;  661.380
1000.190;   50.848;  -11.840;  699.320
1000.741;   50.902;  -10.260;  742.700
1001.293;   50.944;   -8.860;  686.020
1001.845;   48.695;  -13.700;  676.640
1002.396;   49.190;  -12.100;  743.400
1002.948;   49.011;  -12.760;  737.400
1003.500;   47.421;  -10.380;  723.780
1004.051;   47.647;  -11.900;  907.580
1004.603;   46.104;  -12.250;  791.820
1005.154;   43.024;  -13.210;  608.980
1005.705;   42.077;  -10.950;  723.960
1006.257;   41.941;  -13.880;  707.220
1006.808;   39.885;  -12.840;  685.460
1007.359;   40.514;  -10.570;  763.240
1007.910;   39.836;   -9.620;  646.640
1008.461;   39.429;  -13.630;  732.940
1009.013;   38.222;  -17.200;  588.340
1009.564;   39.101;  -10.200;  793.520
1010.115;   37.136;  -12.570;  597.040
1010.665;   37.349;  -15.150;  602.160
1011.216;   36.874;  -14.480;  667.920
1011.767;   36.409;  -11.340;  697.920
1012.318;   36.259;   -9.780;  736.980
1012.869;   35.062;  -12.380;  679.000
1013.419;   34.567;  -15.560;  603.120
1013.970;   35.222;  -11.010;  666.640
1014.521;   34.167;  -11.610;  620.620
1015.071;   34.936;  -13.450;  670.380
1015.622;   34.435;  -13.870;  635.460
1016.172;   33.758;  -11.610;  596.820
1016.723;   33.462;  -12.120;  614.380
1017.273;   32.844;  -13.620;  604.160
1017.823;   33.691;  -14.140;  650.340
1018.374;   32.234;  -12.800;  611.760
1018.924;   33.022;  -12.340;  716.880
1019.474;   33.150;  -11.410;  718.880
1020.024;   31.706;  -14.770;  657.580
1020.574;   32.491;   -9.780;  726.160
1021.124;   32.909;   -8.560;  673.580
1021.674;   31.106;  -15.190;  559.120
1022.224;   32.012;  -13.530;  708.940
1022.774;   32.482;  -13.280;  668.820
1023.324;   32.494;  -10.690;  753.520
1023.874;   32.792;  -10.240;  875.760
1024.423;   30.827;  -12.540;  613.700
1024.973;   30.181;  -10.010;  610.760
1025.523;   29.955;  -10.550;  620.960
1026.072;   28.964;  -13.560;  606.420
1026.622;   28.732;  -15.120;  675.740
1027.172;   30.322;  -11.260;  715.660
1027.721;   29.110;  -11.410;  601.220
1028.270;   29.506;  -13.530;  663.400
1028.820;   29.077;  -13.680;  638.080
1029.369;   29.034;  -13.520;  612.700
1029.918;   29.680;  -10.980;  649.840
1030.468;   28.277;  -13.530;  564.780
1031.017;   29.163;  -13.170;  634.800
1031.566;   28.152;  -12.200;  608.900
1032.115;   28.779;   -9.960;  694.500
1032.664;   26.108;  -13.210;  596.480
1033.213;   28.240;  -12.500;  735.420
1033.762;   27.299;  -11.910;  635.620
1034.311;   27.556;   -9.640;  677.220
1034.860;   27.450;  -13.310;  691.000
1035.408;   27.491;  -11.830;  722.720
1035.957;   27.697;  -12.000;  719.540
1036.506;   25.320;  -11.690;  530.800
1037.055;   27.796;  -10.990;  844.320
1037.603;   26.050;  -15.120;  664.000
1038.152;   24.714;  -12.450;  534.760
1038.700;   26.060;  -10.560;  585.740
1039.249;   24.960;  -11.080;  681.220
1039.797;   25.035;  -12.540;  633.360
1040.345;   25.483;  -11.920;  705.420
1040.894;   25.046;  -11.410;  625.300
1041.442;   24.261;  -14.320;  632.200
1041.990;   23.377;  -16.240;  559.160
1042.538;   23.835;  -11.680;  536.180
1043.087;   23.338;  -10.760;  570.860
1043.635;   24.603;  -11.850;  670.500
1044.183;   23.157;  -15.480;  586.400
1044.731;   23.024;  -11.770;  576.000
1045.279;   22.481;  -13.090;  674.920
1045.827;   24.735;  -12.440;  892.400
1046.374;   22.015;  -13.840;  515.420
1046.922;   21.413;  -13.220;  590.580
1047.470;   23.497;  -10.230;  691.300
1048.018;   23.254;  -14.590;  647.960
1048.565;   23.405;  -12.050;  708.600
1049.113;   21.600;  -11.650;  557.000
1049.660;   22.042;  -10.510;  629.660
1050.208;   22.023;  -13.310;  675.640
1050.755;   20.973;  -15.900;  606.580
1051.303;   22.525;  -11.430;  686.820
1051.850;   21.584;   -8.480;  635.120
1052.397;   20.288;  -15.010;  473.960
1052.945;   19.775;  -13.960;  617.760
1053.492;   22.245;  -13.150;  741.840
1054.039;   21.883;   -9.630;  720.180
1054.586;   20.286;  -13.680;  557.240
1055.133;   21.556;  -14.570;  693.140
1055.680;   21.147;  -13.820;  646.620
1056.227;   19.651;  -11.730;  542.780
1056.774;   21.293;  -12.480;  794.980
1057.321;   19.547;  -13.930;  523.260
1057.868;   20.173;  -11.690;  651.320
1058.415;   20.154;   -9.520;  651.980
1058.961;   19.957;  -13.160;  678.940
1059.508;   19.087;  -12.920;  643.820
1060.055;   18.834;  -11.920;  581.780
1060.601;   20.095;  -11.500;  624.300
1061.148;   18.998;  -14.330;  616.820
1061.694;   18.513;  -16.870;  592.580
1062.241;   18.953;  -10.330;  596.320
1062.787;   18.970;  -10.620;  663.140
1063.334;   20.118;  -10.110;  808.560
1063.880;   18.448;  -13.400;  668.360
1064.426;   18.170;  -10.680;  706.820
1064.972;   18.169;   -9.920;  601.340
1065.518;   16.844;  -10.980;  566.640
1066.065;   17.852;  -14.890;  624.460
1066.611;   16.684;  -12.870;  598.800
1067.157;   18.214;  -12.950;  641.860
1067.703;   17.431;  -13.540;  668.480
1068.249;   17.878;  -13.540;  605.220
1068.794;   17.638;  -12.600;  626.880
1069.340;   17.037;  -10.620;  578.960
1069.886;   17.011;  -12.830;  590.700
1070.432;   15.360;  -14.870;  541.720
1070.977;   16.127;  -11.980;  601.080
1071.523;   16.013;   -8.200;  573.060
1072.068;   16.317;  -12.330;  582.000
1072.614;   15.447;  -16.370;  527.760
1073.160;   16.948;  -11.100;  687.040
1073.705;   15.582;  -10.480;  572.520
1074.250;   14.757;  -14.520;  559.900
1074.796;   16.179;  -11.460;  655.160
1075.341;   15.734;  -11.950;  664.100
1075.886;   15.702;  -11.460;  594.240
1076.431;   15.873;  -13.770;  649.880
1076.976;   14.678;  -12.680;  639.220
1077.521;   14.543;  -13.170;  583.080
1078.067;   14.577;  -10.860;  579.400
1078.612;   14.314;  -13.920;  661.620
1079.156;   15.149;  -13.880;  601.540
1079.701;   14.874;  -13.120;  693.260
1080.246;   15.423;   -9.940;  696.300
1080.791;   14.869;  -14.740;  625.020
1081.336;   14.619;  -13.750;  659.320
1081.880;   14.478;  -13.400;  649.680
1082.425;   13.731;  -12.220;  573.480
1082.970;   14.997;  -11.610;  717.040
1083.514;   13.059;  -13.580;  597.000
1084.059;   12.490;  -12.810;  586.720
1084.603;   13.321;  -12.320;  565.840
1085.147;   13.146;  -13.190;  645.220
1085.692;   14.484;  -12.480;  716.800
1086.236;   12.679;  -13.020;  503.140
1086.780;   14.186;   -9.190;  751.440
1087.325;   13.525;  -12.480;  654.620
1087.869;   13.136;  -12.450;  610.700
1088.413;   13.353;  -12.240;  705.040
1088.957;   11.827;   -9.020;  543.400
1089.501;   13.316;  -10.320;  766.640
1090.045;   12.427;  -12.720;  726.480
1090.589;   11.273;  -13.690;  569.920
1091.133;   12.503;  -10.020;  673.340
1091.676;   12.334;  -12.330;  591.940
1092.220;   11.514;  -14.970;  600.920
1092.764;   12.171;  -12.430;  706.960
1093.307;   12.668;   -9.800;  673.780
1093.851;   10.318;  -14.970;  556.540
1094.395;   11.347;  -15.310;  683.140
1094.938;   10.755;  -10.370;  632.520
1095.482;   11.414;  -11.050;  559.800
1096.025;   11.658;  -11.840;  710.880
1096.568;   12.461;  -12.840;  779.280
1097.112;    9.188;  -14.700;  508.180
1097.655;   11.355;   -8.720;  603.000
1098.198;    9.887;  -13.610;  600.180
1098.741;    9.863;  -13.350;  612.860
1099.285;   11.636;  -11.230;  657.300
1099.828;    9.272;  -11.840;  439.400
1100.371;    9.916;  -10.840;  608.160
1100.914;    9.343;  -14.190;  682.660
1101.457;   10.777;  -11.240;  679.900
1101.999;    8.623;  -11.270;  584.680
1102.542;    9.179;  -11.480;  641.440
1103.085;    9.714;  -11.750;  658.500
1103.628;   10.118;  -11.400;  762.060
1104.170;    9.354;  -10.490;  588.280
1104.713;    9.461;  -10.600;  646.700
1105.256;    9.017;  -14.360;  557.440
1105.798;    8.069;  -13.210;  499.980
1106.341;    9.821;  -10.270;  728.900
1106.883;    8.544;  -12.200;  521.340
1107.425;    8.511;  -13.110;  668.180
1107.968;    8.414;  -12.840;  612.380
1108.510;    8.489;   -6.480;  684.960
1109.052;    6.737;  -13.940;  612.620
1109.594;    7.202;  -13.690;  554.440
1110.136;    9.149;  -11.880;  643.220
1110.679;    7.898;   -9.500;  633.080
1111.221;    8.432;  -14.160;  604.460
1111.763;    7.260;  -13.980;  559.220
1112.304;    7.078;  -13.880;  547.140
1112.846;    8.514;  -12.210;  666.240
1113.388;   10.068;  -11.390;  942.180
1113.930;    7.726;  -14.540;  694.200
1114.472;    6.997;  -12.640;  606.540
1115.013;    5.808;  -11.620;  551.280
1115.555;    6.030;  -13.640;  587.100
1116.097;    4.986;  -15.380;  579.480
1116.638;    7.194;  -12.640;  684.600
1117.180;    7.246;   -9.850;  667.740
1117.721;    6.588;  -13.690;  568.580
1118.262;    6.335;  -12.680;  677.960
1118.804;    7.398;  -12.530;  637.340
1119.345;    6.065;  -11.690;  578.400
1119.886;    7.366;  -13.380;  704.040
1120.427;    6.254;  -14.070;  589.020
1120.969;    5.133;  -13.500;  597.920
1121.510;    5.685;  -11.480;  563.060
1122.051;    5.119;  -12.830;  723.580
1122.592;    5.340;  -14.290;  655.420
1123.133;    4.767;  -12.400;  547.940
1123.673;    7.020;  -10.130;  706.480
1124.214;    4.911;  -12.930;  612.460
1124.755;    5.867;  -14.380;  639.460
1125.296;    5.449;  -14.000;  627.320
1125.836;    6.197;  -10.070;  691.500
1126.377;    4.866;  -12.640;  599.660
1126.918;    5.509;  -12.960;  614.980
1127.458;    4.619;  -13.350;  622.220
1127.999;    6.104;  -10.750;  656.980
1128.539;    4.971;  -12.350;  694.240
1129.079;    4.773;  -14.860;  632.720
1129.620;    3.713;  -13.840;  558.100
1130.160;    4.518;  -12.330;  539.480
1130.700;    4.985;  -14.530;  640.840
1131.240;    5.264;  -12.530;  643.700
1131.781;    4.146;  -14.450;  619.680
1132.321;    4.339;   -9.790;  599.120
1132.861;    3.059;  -14.860;  564.200
1133.401;    3.824;  -14.290;  593.940
1133.941;    3.798;  -11.750;  626.280
1134.481;    2.898;   -9.920;  597.580
1135.020;    3.117;  -12.290;  609.160
1135.560;    3.966;  -11.650;  674.940
1136.100;    3.040;  -16.270;  501.160
1136.640;    3.341;  -10.890;  510.480
1137.179;    3.224;  -14.180;  537.960
1137.719;    3.133;  -16.250;  605.400
1138.258;    3.416;  -14.230;  587.360
1138.798;    4.101;   -9.090;  663.780
1139.337;    1.735;  -15.130;  482.840
1139.877;    2.649;  -13.680;  642.360
1140.416;    4.961;  -11.320;  878.060
1140.955;    2.365;  -10.860;  535.380
1141.494;    2.896;  -12.920;  669.280
1142.034;    1.688;  -13.930;  583.520
1142.573;    3.401;  -11.440;  646.280
1143.112;    1.860;  -12.000;  553.480
1143.651;    2.209;  -13.670;  536.480
1144.190;    3.157;  -12.730;  691.640
1144.729;    2.744;  -14.560;  607.420
1145.267;    1.921;  -11.830;  584.900
1145.806;    2.654;  -12.230;  637.040
1146.345;    1.334;  -14.130;  635.020
1146.884;    1.260;  -11.590;  622.500
1147.422;    1.219;  -12.550;  533.060
1147.961;    3.167;  -11.180;  708.460
1148.500;    2.491;  -11.510;  669.720
1149.038;    2.765;  -11.640;  632.500
1149.577;    2.438;  -10.130;  698.640
1150.115;    0.354;  -13.970;  452.280
1150.653;    1.458;  -14.520;  607.340
1151.192;    1.961;  -12.810;  552.920
1151.730;    1.252;   -9.100;  652.560
1152.268;    0.519;  -12.220;  589.520
1152.806;    0.649;  -14.140;  571.180
1153.344;   -0.284;  -12.350;  577.640
1153.882;    1.150;   -8.980;  600.060
1154.421;   -0.347;  -15.190;  470.620
1154.958;    0.443;  -15.210;  595.240
1155.496;    1.242;  -12.850;  645.280
1156.034;    0.707;   -9.940;  721.880
1156.572;    2.177;  -13.570;  667.060
1157.110;   -0.459;  -14.590;  473.940
1157.647;    0.842;  -13.030;  676.960
1158.185;   -0.001;  -12.140;  564.320
1158.723;   -0.448;  -14.390;  509.200
1159.260;    0.450;  -14.090;  701.700
1159.798;    0.370;  -11.920;  658.160
1160.335;   -0.192;  -11.110;  631.820

