
Integration time [ms]:   3.276
Averaging Nr. [scans]: 1000
Smoothing Nr. [pixels]: 0
Data measured with spectrometer [name]: 7414430SP
Wave   ;Sample   ;Dark     ;Reference
[nm]   ;[counts] ;[counts] ;[counts] 

288.544;  149.825;    7.793;  793.890
289.143;  155.410;    7.462;  681.602
289.742;  155.644;    8.602;  828.814
290.341;  140.227;    1.321;  789.841
290.940;  128.816;   -0.709;  730.702
291.538;  130.141;    0.881;  881.108
292.137;  131.186;    0.122;  792.581
292.736;  134.676;   -1.929;  975.101
293.335;  131.243;   -8.229;  735.086
293.934;  131.917;   -5.279;  781.677
294.532;  130.449;   -1.369; 1031.958
295.131;  115.628;   -7.641;  834.394
295.730;  115.942;   -8.420;  809.588
296.328;  115.117;   -5.611;  783.442
296.927;  115.930;   -5.781;  779.652
297.525;  117.004;   -6.361;  781.236
298.124;  107.086;  -11.382;  654.009
298.722;  111.368;   -7.641;  761.933
299.321;  109.533;   -6.811;  708.597
299.919;  106.602;   -6.991;  751.918
300.518;  103.093;  -10.362;  689.338
301.116;  105.500;   -9.581;  691.381
301.715;  105.301;   -4.891;  730.222
302.313;  103.697;   -8.801;  704.943
302.911;   99.949;   -8.522;  733.830
303.509;  105.850;   -6.171;  925.627
304.108;  103.341;   -7.311;  760.383
304.706;  101.327;   -8.321;  801.664
305.304;   95.085;  -10.222;  796.707
305.902;  102.638;   -6.021;  784.484
306.500;   98.292;   -4.971;  728.200
307.098;   95.705;   -7.061;  746.560
307.696;   93.636;   -8.801;  780.432
308.294;   94.381;   -6.411;  731.359
308.892;   97.933;   -2.901;  759.769
309.490;   91.971;   -5.041;  712.161
310.088;   90.894;   -5.002;  788.444
310.686;   94.782;   -2.041;  821.749
311.284;   91.346;   -2.351;  766.040
311.882;   88.641;   -4.422;  731.225
312.480;   85.460;   -4.192;  697.167
313.078;   87.272;   -1.172;  808.331
313.675;   88.552;   -2.601;  691.600
314.273;   81.986;   -1.312;  797.837
314.871;   82.622;   -3.942;  589.829
315.468;   80.148;   -2.802;  652.090
316.066;   83.120;   -0.701;  694.427
316.664;   75.571;   -4.362;  656.351
317.261;   79.653;   -2.872;  910.128
317.859;   75.570;   -2.022;  768.735
318.456;   75.743;   -0.531;  830.096
319.054;   72.108;   -3.912;  787.828
319.651;   70.717;   -4.752;  759.928
320.249;   69.127;   -2.602;  810.188
320.846;   68.042;   -0.821;  714.286
321.443;   64.991;   -4.642;  832.135
322.041;   62.102;   -5.002;  812.315
322.638;   59.606;   -3.982;  701.456
323.235;   60.965;   -3.411;  665.683
323.833;   58.298;   -7.361;  740.354
324.430;   53.848;   -8.611;  615.900
325.027;   54.743;   -4.061;  876.855
325.624;   54.454;   -4.031;  644.532
326.221;   51.224;   -7.481;  689.717
326.818;   51.261;   -5.281;  818.332
327.415;   54.423;   -7.460;  748.828
328.012;   54.052;   -5.510;  690.585
328.609;   52.258;   -7.880;  731.389
329.206;   49.911;   -8.331;  778.621
329.803;   50.048;   -5.121;  737.841
330.400;   53.119;   -4.510;  704.260
330.997;   54.060;   -6.441;  817.147
331.594;   53.125;   -8.831;  788.185
332.191;   58.318;   -7.621;  728.722
332.787;   61.476;   -4.591;  844.463
333.384;   59.312;   -7.412;  763.093
333.981;   57.827;   -8.293;  815.687
334.578;   61.537;   -7.052;  708.378
335.174;   64.318;   -3.102;  731.469
335.771;   63.391;   -5.943;  836.456
336.367;   60.871;   -7.393;  710.631
336.964;   64.847;   -4.063;  793.266
337.561;   62.645;   -3.813;  731.112
338.157;   57.625;   -4.654;  911.916
338.754;   55.601;   -7.934;  796.589
339.350;   54.089;   -4.414;  722.493
339.946;   56.733;   -4.664;  773.135
340.543;   47.788;   -6.375;  846.136
341.139;   42.608;   -9.815;  720.836
341.735;   40.589;   -4.526;  772.593
342.332;   39.068;   -4.895;  691.472
342.928;   38.331;   -4.295;  795.394
343.524;   32.932;   -5.476;  761.684
344.120;   29.410;   -5.856;  738.562
344.716;   32.686;   -2.155;  723.717
345.313;   30.400;   -6.275;  795.342
345.909;   25.376;   -8.815;  627.336
346.505;   27.136;   -5.305;  740.247
347.101;   28.217;   -2.674;  827.864
347.697;   27.978;   -4.344;  785.398
348.293;   22.192;   -9.975;  627.244
348.889;   23.424;   -5.774;  745.914
349.485;   22.726;   -5.004;  688.205
350.081;   22.474;   -4.704;  772.592
350.676;   17.732;   -6.635;  691.606
351.272;   22.808;   -4.504;  809.530
351.868;   22.781;   -3.914;  780.497
352.464;   19.144;   -9.044;  723.932
353.059;   15.946;   -8.314;  646.017
353.655;   19.023;   -7.024;  777.063
354.251;   20.338;   -5.343;  759.845
354.846;   14.063;   -8.604;  740.646
355.442;   12.582;   -6.945;  753.071
356.038;   15.179;   -7.564;  751.708
356.633;   14.516;   -5.814;  728.594
357.229;   12.054;   -7.364;  724.757
357.824;   10.275;   -8.024;  703.600
358.420;    9.873;   -9.384;  679.726
359.015;   11.001;   -5.104;  695.357
359.610;   11.264;   -6.854;  763.920
360.206;    5.075;  -10.185;  603.240
360.801;    8.267;   -7.054;  646.503
361.396;   10.706;   -5.034;  725.975
361.992;    5.917;   -8.284;  668.220
362.587;    2.959;   -8.625;  670.160
363.182;    5.920;   -7.674;  689.631
363.777;    5.673;   -5.164;  738.242
364.372;    4.797;   -8.604;  737.314
364.967;    1.775;   -9.055;  680.744
365.563;    6.436;   -6.114;  815.567
366.158;    3.976;   -5.814;  685.161
366.753;    3.617;   -7.854;  649.263
367.348;    2.221;   -7.804;  746.056
367.942;    2.571;   -7.954;  697.298
368.537;    0.776;   -4.984;  754.245
369.132;    1.221;   -8.564;  703.428
369.727;   -2.830;   -8.855;  638.079
370.322;   -0.715;   -6.245;  580.186
370.917;   -1.955;   -6.425;  710.646
371.511;    0.869;   -6.294;  861.834
372.106;   -2.725;   -7.685;  776.964
372.701;   -5.314;   -7.335;  585.988
373.296;    0.240;   -4.564;  863.135
373.890;   -4.551;  -10.235;  647.840
374.485;   -7.397;   -7.885;  691.199
375.079;   -3.022;   -7.324;  738.685
375.674;   -0.989;   -3.494;  812.970
376.268;   -6.175;   -8.525;  691.759
376.863;  -11.850;  -10.086;  580.327
377.457;   -5.366;   -7.025;  662.490
378.052;   -7.536;   -3.585;  764.884
378.646;   -8.573;   -7.595;  741.167
379.240;   -9.070;   -8.335;  721.176
379.835;   -7.608;   -5.785;  636.978
380.429;   -9.415;   -4.335;  562.557
381.023;  -10.323;   -6.805;  779.205
381.617;  -12.336;   -9.195;  680.106
382.212;   -8.402;   -6.905;  685.303
382.806;   -7.892;   -3.745;  760.690
383.400;  -12.001;   -7.745;  672.281
383.994;  -13.465;   -9.765;  664.870
384.588;   -8.784;   -6.564;  697.701
385.182;   -7.247;   -5.344;  726.624
385.776;   -9.787;   -8.514;  706.875
386.370;  -13.105;   -9.555;  681.968
386.964;  -11.775;   -8.715;  684.155
387.558;  -10.058;   -6.174;  598.360
388.152;  -13.383;   -8.725;  681.959
388.745;  -11.019;   -7.965;  814.707
389.339;   -9.427;   -5.924;  747.642
389.933;   -8.795;   -5.524;  695.370
390.527;  -10.144;   -7.114;  859.029
391.120;  -16.311;  -10.725;  595.318
391.714;  -13.518;   -8.035;  711.633
392.308;   -9.669;   -3.574;  780.253
392.901;  -13.919;   -7.245;  642.460
393.495;  -16.363;   -9.285;  595.414
394.089;  -13.335;   -5.895;  760.452
394.682;  -14.341;   -4.295;  697.188
395.275;  -14.880;   -9.875;  719.927
395.869;  -16.402;   -8.485;  667.314
396.462;  -14.589;   -7.455;  616.609
397.056;   -9.570;   -5.424;  776.621
397.649;  -15.984;   -6.605;  731.575
398.242;  -13.166;   -8.224;  712.645
398.836;  -11.277;   -7.474;  766.408
399.429;  -12.574;   -7.094;  631.041
400.022;  -16.394;   -9.475;  665.902
400.615;  -13.846;   -7.145;  805.609
401.208;  -11.857;   -7.174;  691.451
401.802;  -13.985;   -5.515;  699.329
402.395;  -15.288;   -9.875;  683.502
402.988;  -17.050;   -8.845;  696.627
403.581;  -12.600;   -8.874;  646.878
404.174;  -10.542;   -5.324;  686.568
404.767;  -14.055;   -9.575;  638.583
405.360;  -16.391;  -10.965;  621.445
405.953;  -11.095;   -8.764;  759.034
406.545;  -10.364;   -7.514;  725.342
407.138;  -15.063;  -10.025;  618.350
407.731;  -13.764;  -10.034;  613.303
408.324;   -9.135;   -9.374;  660.554
408.917;  -10.107;   -6.534;  681.864
409.509;  -12.289;   -8.004;  740.396
410.102;  -14.060;   -9.875;  643.948
410.695;   -8.134;   -8.604;  665.758
411.287;   -8.255;   -6.794;  599.821
411.880;  -10.678;   -9.334;  585.421
412.472;  -13.466;  -10.254;  613.092
413.065;  -10.231;   -6.714;  629.408
413.657;   -8.144;   -7.234;  576.678
414.250;   -8.228;  -10.544;  646.681
414.842;  -10.577;   -9.744;  676.353
415.434;   -7.644;   -6.994;  570.463
416.027;   -3.315;   -5.893;  652.196
416.619;   -5.865;   -7.264;  713.400
417.211;   -6.360;  -10.374;  599.352
417.804;   -3.177;   -7.993;  628.499
418.396;   -7.005;   -7.234;  607.643
418.988;   -4.384;   -9.443;  659.238
419.580;   -7.948;  -10.724;  568.276
420.172;   -5.699;  -10.323;  536.196
420.764;   -0.911;   -8.793;  672.482
421.356;   -2.637;  -11.143;  636.898
421.948;   -3.689;   -8.293;  677.661
422.540;    1.891;   -7.893;  680.027
423.132;    1.026;   -7.082;  600.641
423.724;   -2.776;   -8.653;  561.267
424.316;   -1.434;  -10.213;  621.345
424.908;    3.270;   -9.762;  591.517
425.500;    4.081;   -5.572;  647.978
426.092;    3.505;   -8.422;  648.268
426.683;    2.562;   -9.283;  684.836
427.275;    5.932;   -7.852;  641.471
427.867;    7.201;   -5.272;  668.948
428.458;    7.585;   -7.682;  732.344
429.050;    6.302;  -10.612;  680.749
429.642;    8.451;   -9.882;  743.124
430.233;    9.113;   -6.962;  569.356
430.825;    9.836;   -6.842;  724.809
431.416;    7.582;   -9.672;  698.241
432.008;   11.068;   -6.552;  651.723
432.599;   12.088;   -6.891;  656.073
433.190;    8.379;  -10.912;  637.670
433.782;    8.173;  -11.172;  590.395
434.373;   16.099;   -6.061;  884.765
434.964;   14.849;   -8.251;  602.920
435.556;   11.526;   -9.722;  634.537
436.147;   14.618;   -9.082;  758.490
436.738;   14.488;   -8.041;  701.099
437.329;   20.858;   -7.341;  721.723
437.920;   12.727;   -8.162;  666.688
438.511;   12.238;  -11.802;  564.526
439.103;   19.795;  -10.191;  623.998
439.694;   21.862;   -7.601;  681.583
440.285;   21.798;   -8.541;  764.432
440.876;   19.800;   -9.751;  845.738
441.466;   20.219;   -9.401;  575.162
442.057;   25.316;   -7.760;  665.814
442.648;   23.157;   -9.971;  746.255
443.239;   21.306;  -11.001;  620.477
443.830;   27.271;   -7.990;  704.958
444.421;   29.497;   -7.910;  655.474
445.011;   25.096;   -8.131;  693.619
445.602;   24.550;   -7.111;  743.126
446.193;   26.363;  -10.920;  488.117
446.783;   31.422;   -6.500;  640.397
447.374;   26.204;   -8.671;  692.759
447.964;   26.349;  -10.781;  713.770
448.555;   35.546;   -9.650;  822.742
449.145;   31.813;   -8.660;  662.853
449.736;   32.780;   -8.990;  803.179
450.326;   32.764;   -9.500;  713.626
450.917;   38.104;   -8.680;  675.324
451.507;   37.447;   -7.520;  600.661
452.097;   37.530;   -8.590;  746.267
452.688;   38.203;  -11.340;  742.160
453.278;   38.576;  -10.100;  566.840
453.868;   43.208;   -6.019;  793.550
454.458;   40.584;   -9.440;  651.141
455.048;   39.908;  -10.560;  711.783
455.639;   43.327;  -11.799;  567.096
456.229;   46.083;   -6.899;  710.694
456.819;   48.081;   -7.389;  751.158
457.409;   47.474;  -11.119;  773.993
457.999;   50.468;   -9.289;  737.505
458.589;   51.165;   -6.139;  686.606
459.179;   50.353;   -8.729;  717.658
459.769;   48.541;   -9.789;  627.099
460.358;   53.832;  -10.259;  797.262
460.948;   53.414;   -7.299;  689.503
461.538;   55.810;  -10.289;  660.677
462.128;   52.548;  -11.269;  664.934
462.717;   59.633;   -9.368;  710.326
463.307;   62.606;   -7.908;  705.846
463.897;   58.639;   -9.599;  656.942
464.486;   57.336;   -9.769;  837.128
465.076;   62.543;   -8.048;  733.776
465.666;   66.740;   -9.358;  652.900
466.255;   63.601;   -7.919;  785.651
466.845;   62.203;  -11.689;  666.749
467.434;   65.920;   -7.818;  725.873
468.023;   66.678;   -7.678;  658.357
468.613;   64.275;  -10.939;  713.946
469.202;   68.247;  -10.118;  646.507
469.791;   72.316;   -9.108;  737.811
470.381;   74.642;   -6.058;  742.813
470.970;   73.658;  -10.428;  711.099
471.559;   73.941;  -10.268;  733.291
472.148;   76.719;   -8.448;  675.737
472.738;   79.884;   -6.917;  765.466
473.327;   79.008;  -11.978;  637.529
473.916;   78.633;  -11.888;  737.446
474.505;   83.345;   -9.437;  751.703
475.094;   85.794;   -6.747;  806.570
475.683;   85.495;   -9.367;  797.699
476.272;   85.905;  -12.637;  730.632
476.861;   89.374;  -10.027;  706.754
477.449;   96.071;   -8.716;  728.487
478.038;   89.699;   -9.577;  692.513
478.627;   90.200;   -9.718;  714.852
479.216;   97.437;   -8.947;  769.441
479.805;  101.164;   -6.256;  783.375
480.393;  100.276;   -7.937; 1008.945
480.982;   98.975;   -7.717;  874.501
481.571;  105.394;   -9.266;  858.333
482.159;  106.411;   -7.636;  705.386
482.748;  106.099;   -9.667;  821.385
483.336;  110.125;  -10.376;  858.209
483.925;  111.507;   -7.147;  774.373
484.513;  118.848;   -7.996;  758.962
485.102;  114.287;  -10.027;  810.965
485.690;  123.366;  -10.446; 1011.050
486.278;  124.677;   -8.446;  979.329
486.867;  126.210;   -6.356;  809.662
487.455;  126.787;   -9.136;  898.229
488.043;  128.710;  -10.646;  748.361
488.631;  137.544;   -7.456; 1005.079
489.220;  142.163;   -6.636;  908.626
489.808;  141.230;  -11.036;  741.415
490.396;  149.666;  -10.246;  914.645
490.984;  155.130;   -8.556;  830.161
491.572;  165.172;   -5.886;  940.315
492.160;  170.378;   -9.486;  919.081
492.748;  182.195;  -10.976;  884.341
493.336;  205.173;   -8.776; 1019.693
493.924;  231.170;   -5.465;  958.077
494.512;  258.167;   -9.986; 1066.638
495.100;  293.533;  -10.636; 1103.280
495.687;  348.080;  -10.885; 1206.373
496.275;  409.813;   -8.126; 1150.796
496.863;  477.267;  -10.586; 1281.171
497.451;  577.257;  -11.926; 1386.805
498.038;  705.580;  -10.885; 1556.729
498.626;  810.686;   -6.315; 1741.407
499.214;  956.766;   -7.326; 2016.609
499.801; 1145.624;  -11.906; 2220.633
500.389; 1384.410;  -10.466; 2312.494
500.976; 1683.000;   -5.236; 2744.849
501.564; 2111.161;   -8.936; 3148.565
502.151; 2470.908;  -13.176; 3515.999
502.738; 2902.133;  -10.646; 3971.274
503.326; 3282.486;   -9.525; 4403.796
503.913; 3656.075;  -10.856; 5161.749
504.500; 4018.300;  -11.586; 5986.420
505.088; 4420.919;  -10.336; 6381.201
505.675; 4939.335;   -6.355; 6925.547
506.262; 5634.049;   -9.046; 7619.060
506.849; 6339.484;  -10.416; 8733.969
507.436; 6804.179;  -10.305; 9790.121
508.023; 7357.307;   -5.496; 9985.472
508.610; 7608.360;   -7.856;10434.618
509.197; 8221.121;  -10.097;11198.435
509.784; 9537.783;  -10.886;12391.194
510.371;10588.499;   -9.315;13603.713
510.958;11372.266;   -9.936;14426.586
511.545;12131.905;   -9.326;15243.775
512.132;12944.189;  -10.075;15945.876
512.719;13473.964;   -7.796;16340.369
513.305;14420.729;  -10.606;18011.766
513.892;15134.542;  -11.486;19754.971
514.479;16434.119;   -9.126;20967.805
515.066;17951.547;   -6.026;22299.793
515.652;19266.113;   -8.466;22908.660
516.239;20537.518;  -10.886;23798.875
516.825;21538.490;  -11.496;25567.275
517.412;22575.203;   -5.796;28154.959
517.998;23130.369;  -10.506;28344.111
518.585;23202.213;  -10.076;27134.219
519.171;23738.455;   -8.315;27268.576
519.758;25122.121;   -8.596;28964.129
520.344;26955.777;   -8.466;30664.494
520.930;26990.861;  -11.006;32550.605
521.516;28247.578;  -10.495;35422.895
522.103;30485.498;   -5.526;38280.004
522.689;31006.912;   -8.746;37835.117
523.275;30502.305;  -11.376;37288.613
523.861;31821.244;  -11.156;37281.395
524.447;33238.520;   -8.135;37846.949
525.033;32983.418;   -7.896;38321.949
525.619;33090.668;  -12.476;38579.285
526.205;34521.637;   -9.516;40622.875
526.791;36662.777;   -6.926;42258.836
527.377;36692.215;   -8.346;42966.902
527.963;37777.691;   -8.717;42018.949
528.549;36052.754;  -11.016;42476.828
529.135;33970.430;   -8.536;41854.852
529.721;31418.381;   -9.666;41237.711
530.306;29530.703;  -10.066;41259.445
530.892;30662.715;  -11.356;41506.047
531.478;34387.617;   -6.596;43559.613
532.063;38773.504;   -8.836;47695.563
532.649;39728.195;  -10.047;50808.324
533.235;40450.664;   -9.746;51787.500
533.820;40657.895;   -6.566;52145.035
534.406;41496.031;  -10.817;51133.488
534.991;40384.695;   -9.416;49996.805
535.576;37489.957;   -9.036;48882.852
536.162;35419.684;   -6.156;46942.285
536.747;33174.660;  -11.607;45711.746
537.333;35573.426;  -11.787;48510.180
537.918;41141.367;  -12.437;50439.891
538.503;44752.668;   -7.196;50863.711
539.088;44960.988;  -10.556;50906.922
539.673;46297.246;   -8.767;52621.965
540.259;46662.016;  -10.026;52368.094
540.844;44095.293;   -7.416;50879.109
541.429;45344.129;   -9.467;52077.777
542.014;47968.738;   -9.527;52716.695
542.599;47187.000;   -9.946;52363.281
543.184;44754.395;   -7.927;53187.137
543.769;46196.086;   -9.297;54697.605
544.354;45680.332;  -10.127;53913.914
544.938;44317.305;   -9.267;49680.164
545.523;46206.723;   -6.506;47386.277
546.108;49068.531;   -9.787;49151.949
546.693;50963.664;  -11.587;51384.637
547.278;50486.250;  -10.986;51853.254
547.862;47528.730;   -8.206;51173.750
548.447;43125.879;  -10.067;51691.395
549.031;42506.262;   -9.637;52456.703
549.616;47346.934;   -9.926;52714.516
550.201;46714.082;   -6.347;52414.598
550.785;47901.172;   -7.917;52355.059
551.370;46910.781;  -10.867;54589.453
551.954;46357.090;   -9.047;58267.348
552.538;47187.922;   -7.827;59062.176
553.123;45608.969;  -10.287;58115.285
553.707;43302.035;  -12.178;56556.285
554.291;44696.641;   -8.717;56201.668
554.876;47025.672;   -7.457;55335.762
555.460;47060.500;  -10.387;54155.703
556.044;48063.281;   -9.618;53721.484
556.628;46716.836;  -11.567;53731.016
557.212;45510.102;   -8.097;54312.531
557.796;43947.281;  -11.077;53797.773
558.380;44009.402;  -11.108;56145.984
558.964;44458.852;   -9.057;57277.930
559.548;45683.793;   -6.977;56459.641
560.132;43900.098;  -11.457;54434.543
560.716;42515.770;  -11.378;54800.617
561.300;43509.867;   -9.577;57606.945
561.884;44617.340;   -7.127;58972.445
562.467;43028.422;   -7.118;57327.570
563.051;42374.387;  -13.358;54962.434
563.635;43465.070;  -10.178;52594.473
564.219;43585.734;   -7.837;50610.410
564.802;44432.617;  -11.398;49551.180
565.386;44331.383;  -12.788;48370.953
565.969;43673.699;   -9.077;48178.871
566.553;42841.117;   -6.207;49957.305
567.136;43384.453;   -8.568;50369.594
567.720;39870.277;  -11.868;49492.004
568.303;37723.477;   -8.268;50616.352
568.887;37732.223;   -8.698;50727.148
569.470;38064.121;   -6.808;51698.379
570.053;36780.531;  -13.188;52122.078
570.637;35181.270;  -12.037;52536.438
571.220;35101.063;   -8.577;51186.098
571.803;35839.859;   -8.498;51032.762
572.386;38019.949;  -10.498;49609.887
572.969;40431.301;   -9.388;48285.926
573.552;38633.063;   -8.338;47624.285
574.135;37233.473;   -8.518;45498.641
574.718;34794.164;  -13.628;41970.434
575.301;33860.527;  -10.893;41447.137
575.884;32926.891;   -8.158;40923.836
576.467;34065.723;  -10.328;45267.723
577.050;35974.438;  -13.058;48175.543
577.633;37502.504;   -9.458;47729.328
578.216;36628.395;   -8.928;47579.793
578.799;35733.324;   -9.358;47820.996
579.381;34623.836;  -11.388;48115.551
579.964;32741.016;  -11.718;47333.766
580.547;34279.066;   -8.588;46668.969
581.129;35388.816;   -8.859;44466.141
581.712;36236.598;  -10.729;44164.922
582.294;36790.434;  -11.118;46477.855
582.877;36705.141;   -5.218;48244.254
583.459;34355.289;   -8.679;47437.895
584.042;32285.313;  -10.709;46943.219
584.624;32800.402;  -11.669;46792.227
585.206;32407.785;   -8.218;46557.250
585.789;32379.063;  -10.569;45793.773
586.371;35106.398;  -11.859;43836.391
586.953;35597.098;  -10.719;42972.492
587.536;37026.316;   -7.198;42487.211
588.118;37292.027;   -8.720;42086.414
588.700;33688.785;  -10.439;43389.930
589.282;32762.492;   -9.198;43646.039
589.864;33521.086;   -9.199;43438.109
590.446;34603.148;  -11.319;43151.926
591.028;34579.633;  -11.159;42781.867
591.610;33556.617;  -11.779;42839.098
592.192;30974.252;   -7.668;42820.402
592.774;29418.115;  -11.949;40724.277
593.356;28204.488;  -12.129;39874.789
593.937;27172.705;  -10.669;39980.648
594.519;29256.465;   -6.509;42069.633
595.101;31528.740;  -10.849;42976.031
595.683;31666.740;  -11.679;44084.441
596.264;32669.602;   -9.049;43478.797
596.846;32162.029;   -8.849;43803.672
597.427;32096.385;   -9.570;42986.934
598.009;33683.039;  -12.620;42832.219
598.591;34122.059;  -10.039;42580.086
599.172;33366.984;  -10.369;43061.805
599.753;33518.414;   -9.140;41691.469
600.335;35029.641;  -11.430;40692.520
600.916;33280.285;   -9.939;39982.422
601.498;30776.480;   -8.479;40318.617
602.079;29234.105;  -10.920;40670.609
602.660;29092.094;  -11.480;41450.898
603.241;30732.076;  -11.699;41137.738
603.823;29523.918;   -9.579;38868.797
604.404;29015.963;  -10.620;38182.785
604.985;30701.670;  -10.450;38078.047
605.566;30566.152;   -9.129;38056.633
606.147;30661.195;   -7.510;37020.418
606.728;32200.316;  -10.660;37883.359
607.309;30890.053;  -11.740;38748.273
607.890;30366.979;   -9.759;38850.230
608.471;29791.525;   -8.250;37457.918
609.051;28889.988;   -9.240;36066.457
609.632;27903.115;  -12.120;35991.074
610.213;28664.201;   -9.110;37402.641
610.794;29412.889;   -8.030;38383.363
611.374;29016.986;   -8.110;40562.387
611.955;29543.430;  -13.560;38533.727
612.536;30877.008;  -11.400;36951.789
613.116;30767.896;   -8.070;37197.891
613.697;31059.760;  -10.830;38411.125
614.277;29405.955;  -11.641;38673.938
614.858;30255.863;  -13.310;37075.863
615.438;29494.533;   -7.460;35092.906
616.019;26873.723;   -7.601;33666.301
616.599;27513.438;  -12.020;34189.023
617.179;29277.605;  -11.780;36952.047
617.760;30217.248;   -8.570;39582.574
618.340;31321.162;  -11.471;38943.977
618.920;32601.270;  -11.170;37594.156
619.500;32483.797;  -11.071;37866.938
620.080;31601.727;   -7.750;37869.043
620.660;32725.838;  -12.711;36868.617
621.241;34041.270;  -10.211;36352.309
621.821;34213.406;  -10.961;35459.520
622.401;33222.207;   -7.720;35207.414
622.980;32524.326;   -8.981;35980.422
623.560;31133.900;   -9.331;37351.328
624.140;29855.895;   -9.850;34388.582
624.720;24786.033;   -7.451;32368.764
625.300;21255.088;   -9.070;32638.629
625.880;24641.416;  -12.601;34599.035
626.459;28565.168;  -11.751;36831.738
627.039;31575.943;   -9.281;38299.098
627.619;31521.396;   -8.801;38289.574
628.198;29962.506;  -12.071;37220.695
628.778;29189.590;   -9.461;37632.563
629.357;29947.418;   -8.491;38003.012
629.937;29930.641;   -9.721;38402.039
630.516;29385.711;   -9.951;37868.801
631.096;29093.746;  -11.731;35760.410
631.675;31616.014;   -8.572;35225.219
632.254;36619.684;  -11.282;35130.289
632.834;36106.254;  -13.322;35794.570
633.413;34311.207;  -10.301;35788.922
633.992;31599.215;   -8.582;34532.863
634.571;32295.908;   -8.352;33590.113
635.151;35415.375;  -11.912;34943.863
635.730;33889.863;  -10.511;35352.523
636.309;30253.885;   -7.731;35366.605
636.888;27627.688;   -9.952;36165.637
637.467;28309.256;  -11.672;37515.902
638.046;29980.736;   -8.901;39288.695
638.625;33131.777;   -7.912;38279.699
639.204;32985.895;  -10.022;37741.598
639.782;31552.766;  -12.252;38364.551
640.361;27937.902;  -10.041;36740.621
640.940;25160.344;  -11.161;34950.082
641.519;25781.506;   -9.701;34137.398
642.097;28702.936;  -11.271;35654.258
642.676;31672.092;   -8.651;35637.957
643.255;32380.322;   -8.711;36567.074
643.833;31528.977;   -9.581;37809.434
644.412;31465.494;  -13.711;37337.293
644.990;30451.756;  -11.811;37018.531
645.569;30382.713;   -9.411;36518.469
646.147;29408.918;  -10.291;36186.430
646.726;29220.646;  -12.401;36267.688
647.304;30527.941;  -10.411;36647.625
647.882;32340.076;   -9.651;39286.742
648.461;34008.242;   -9.631;39157.703
649.039;32209.148;  -11.881;35412.883
649.617;31552.021;   -9.661;34744.918
650.195;31324.484;   -9.301;35403.098
650.773;29892.828;  -10.511;35053.797
651.352;27338.807;  -11.521;33756.816
651.930;24897.488;  -12.211;31868.773
652.508;23334.656;   -9.171;33121.551
653.086;27289.152;   -9.371;33564.793
653.663;30249.271;  -13.161;34054.668
654.241;28955.068;  -13.031;35693.309
654.819;30558.162;   -9.371;36422.906
655.397;30825.547;  -10.511;38213.484
655.975;30443.641;  -10.371;39507.625
656.553;30177.227;  -10.051;39498.223
657.130;28647.672;  -10.061;40395.480
657.708;27905.756;   -9.561;39242.020
658.286;27994.398;  -11.511;38920.020
658.863;29316.820;  -10.261;40202.898
659.441;32366.813;   -7.531;39677.938
660.018;31878.918;   -9.501;40413.355
660.596;30703.531;  -13.301;39931.414
661.173;32705.857;  -11.211;39604.531
661.750;32857.152;   -9.951;39700.070
662.328;31510.814;   -9.390;39292.809
662.905;30478.867;  -11.330;38235.648
663.482;26326.455;   -9.050;36212.305
664.060;24435.814;   -8.240;35944.945
664.637;27165.455;  -10.050;35170.785
665.214;29041.688;  -11.760;34197.523
665.791;30580.102;  -10.530;34549.520
666.368;29442.518;   -9.690;35118.578
666.945;30149.961;   -9.320;36019.418
667.522;31828.803;  -11.860;36048.438
668.099;31492.395;  -10.770;36243.914
668.676;30285.762;   -6.260;35958.875
669.253;28964.670;   -7.000;37384.730
669.830;29632.559;  -10.190;36779.629
670.407;29410.842;   -9.550;35231.289
670.984;29254.791;   -9.260;35544.270
671.560;29884.434;   -9.280;35466.867
672.137;29099.668;  -11.810;34280.863
672.714;29927.566;  -11.490;34632.863
673.290;30604.828;   -7.740;35135.422
673.867;30714.293;  -10.660;36114.480
674.443;30734.678;  -12.230;36152.859
675.020;29006.646;  -10.450;35327.238
675.596;30022.754;   -9.260;35795.176
676.173;30504.506;  -10.780;35430.355
676.749;30204.221;  -13.690;33549.516
677.326;30125.180;  -11.980;32210.012
677.902;30088.340;   -8.630;32068.871
678.478;29411.875;  -10.730;32583.891
679.054;28772.387;  -10.520;32088.928
679.631;29106.711;  -11.920;30978.848
680.207;30719.014;   -7.490;33160.887
680.783;32400.934;   -9.860;35570.363
681.359;31397.879;  -13.380;36125.184
681.935;30724.230;  -12.480;35240.922
682.511;30027.023;   -7.900;34429.961
683.087;30136.129;   -7.710;34463.680
683.663;29709.811;  -11.480;34648.898
684.239;28492.004;  -14.090;34546.457
684.815;28107.162;   -7.560;35586.375
685.390;28447.395;   -9.910;35821.895
685.966;29003.736;  -11.159;35085.871
686.542;31482.971;  -11.169;34198.230
687.118;33618.914;   -5.959;32847.707
687.693;33853.484;  -10.329;32794.027
688.269;33581.266;  -12.059;33072.367
688.844;31843.107;  -10.909;33141.664
689.420;29684.441;   -8.019;33965.742
689.995;27353.129;   -8.399;34655.523
690.571;25983.248;  -10.949;33576.742
691.146;26408.615;   -9.619;32657.219
691.722;25923.199;   -8.999;32526.979
692.297;25708.018;  -11.589;33014.617
692.872;27515.102;  -11.739;34012.254
693.448;27143.438;  -11.059;34237.434
694.023;26302.855;  -10.139;34142.672
694.598;28321.283;   -9.029;34132.031
695.173;28679.465;  -13.319;34205.250
695.748;27972.412;  -10.169;32882.488
696.323;28145.051;   -8.339;32864.906
696.898;28416.234;   -8.169;33170.004
697.473;28201.180;  -12.309;32432.984
698.048;27545.266;  -10.989;31649.303
698.623;27398.072;   -9.329;30778.141
699.198;29280.809;   -9.849;31140.119
699.773;30205.246;  -12.329;31764.299
700.348;28532.693;  -10.389;31780.816
700.922;28578.672;   -9.269;32046.375
701.497;29470.834;   -9.329;32603.574
702.072;29688.615;  -10.789;34799.871
702.646;28382.518;  -10.839;35793.172
703.221;26218.957;   -9.099;35201.590
703.795;28455.658;  -10.939;34764.527
704.370;28922.127;  -12.859;34307.367
704.944;29227.279;  -11.559;33509.887
705.519;30069.264;   -7.939;31388.584
706.093;31489.363;  -10.499;31340.104
706.668;31832.162;  -11.289;32630.281
707.242;30777.197;  -11.509;32728.779
707.816;29171.283;   -9.639;32947.238
708.390;27576.879;  -11.429;33277.855
708.965;28026.043;  -11.869;33834.336
709.539;27935.986;  -11.689;33709.273
710.113;28465.504;  -10.478;33044.313
710.687;28061.400;  -10.228;31953.992
711.261;26390.895;  -13.698;30505.949
711.835;26242.074;  -13.378;30262.369
712.409;26940.570;   -9.698;31254.447
712.983;28922.619;  -11.898;32754.986
713.557;30001.506;  -15.138;34018.824
714.131;29479.475;  -14.098;34579.625
714.704;28470.379;   -9.958;33890.262
715.278;26275.850;  -10.028;33531.102
715.852;25273.068;  -11.148;33601.660
716.425;26070.768;   -9.068;33515.117
716.999;26809.900;  -10.038;33185.555
717.573;27784.049;   -9.798;33905.996
718.146;28918.650;  -12.378;35199.293
718.720;28954.156;  -11.918;35060.551
719.293;28383.260;   -8.088;34973.230
719.867;31258.270;  -10.888;36394.449
720.440;31082.625;  -11.938;36663.008
721.013;29359.664;  -12.818;35102.426
721.587;27931.277;  -10.298;33985.266
722.160;26930.162;  -10.048;33524.965
722.733;25836.631;  -12.108;32987.043
723.306;26157.770;  -10.818;33066.301
723.880;28608.301;   -8.908;33399.500
724.453;30658.502;   -9.878;33468.297
725.026;29748.490;  -11.188;33816.637
725.599;27006.877;  -11.678;32797.996
726.172;27286.803;   -9.618;33187.434
726.745;28352.111;   -8.258;35136.613
727.318;29622.832;  -12.978;35751.730
727.891;30108.250;  -12.148;35890.430
728.463;29724.748;   -8.968;34822.090
729.036;28575.742;  -10.188;32895.086
729.609;28835.822;  -11.788;31823.225
730.182;25803.623;  -11.788;31445.283
730.754;23387.758;  -10.268;32373.223
731.327;23525.705;   -9.998;33676.820
731.900;23961.113;  -12.228;33417.000
732.472;25320.955;  -13.848;31978.498
733.045;27288.836;   -8.698;30368.777
733.617;27356.162;  -10.607;30574.215
734.190;27058.266;  -11.507;31280.975
734.762;24273.770;  -13.647;31674.412
735.334;22458.248;   -9.767;31247.291
735.907;23017.488;   -9.897;29876.211
736.479;23189.322;  -11.637;29808.488
737.051;22929.799;   -9.567;30233.547
737.623;23858.906;   -8.187;31469.086
738.195;24535.762;  -11.187;31784.225
738.768;26425.336;  -12.337;32120.523
739.340;26794.727;  -12.227;32094.342
739.912;25662.863;  -11.057;31312.680
740.484;24155.162;  -10.207;31946.238
741.056;22928.590;  -10.047;32984.059
741.628;24704.262;  -13.627;33897.715
742.199;26949.537;   -7.177;33213.016
742.771;25251.840;  -10.797;31369.113
743.343;22966.717;  -11.997;31865.473
743.915;21994.525;  -12.867;32388.631
744.487;22015.629;   -7.617;31079.568
745.058;22087.926;   -9.557;30570.107
745.630;22463.139;   -9.877;29970.127
746.201;23331.031;  -14.177;29186.766
746.773;23924.063;   -9.237;28805.723
747.344;23871.934;   -9.847;29591.223
747.916;22515.439;  -11.657;31412.201
748.487;22610.375;  -10.587;32194.898
749.059;23732.449;   -8.707;32533.719
749.630;24406.182;  -10.537;32158.518
750.201;23471.881;  -11.687;30855.395
750.773;21687.842;  -11.647;28622.555
751.344;21619.066;   -7.147;28405.732
751.915;22910.996;   -9.757;28461.551
752.486;22936.328;  -12.427;27842.850
753.057;20674.758;  -12.227;27845.008
753.628;19434.578;  -10.417;27728.107
754.199;20499.090;  -11.767;27381.086
754.770;21476.869;  -11.187;25882.203
755.341;21498.834;  -10.507;25886.184
755.912;21618.162;   -9.387;26050.861
756.483;21129.832;  -10.647;26798.779
757.054;19351.117;  -11.837;27048.238
757.625;18025.650;  -12.716;26294.838
758.195;17738.768;   -9.666;26142.076
758.766;17478.633;   -8.656;26392.234
759.337;18240.656;  -12.856;26334.594
759.907;19891.313;  -13.366;27579.652
760.478;20776.629;   -8.576;28352.770
761.048;20206.453;  -10.526;27325.088
761.619;19361.664;  -11.116;26460.428
762.189;19403.313;  -12.136;26029.826
762.760;20451.492;   -9.456;26430.145
763.330;21611.197;   -7.136;26670.902
763.900;21109.316;  -11.786;26603.021
764.471;18498.613;  -11.546;25542.740
765.041;17245.371;   -8.096;24358.459
765.611;17335.256;   -8.876;23991.297
766.181;17714.125;  -12.196;24470.236
766.751;18634.912;  -11.636;24845.975
767.321;18422.664;  -10.156;24533.633
767.891;16535.393;  -11.766;24916.492
768.461;16009.962;  -14.936;24776.771
769.031;16528.289;  -12.356;24757.988
769.601;18121.949;   -7.526;24181.088
770.171;17968.699;  -10.766;23670.387
770.741;17116.938;  -13.176;22960.045
771.311;17277.910;  -10.616;22917.523
771.880;17696.809;   -9.576;23562.941
772.450;17401.246;  -10.336;24216.500
773.020;17394.887;  -13.516;24140.398
773.589;16752.953;  -13.466;24414.857
774.159;16080.646;   -8.686;23858.717
774.729;15672.144;   -9.476;22942.135
775.298;15217.241;  -13.666;22324.033
775.867;14818.272;  -11.716;21140.313
776.437;14921.742;   -9.906;20838.092
777.006;14750.657;  -12.166;20599.510
777.576;14635.779;  -12.356;20508.809
778.145;14700.049;  -11.646;20732.947
778.714;14565.820;   -8.226;21062.465
779.283;13807.004;   -9.556;20949.664
779.853;13276.537;  -14.116;20508.623
780.422;13756.578;  -11.506;20649.082
780.991;13345.805;   -9.556;21527.520
781.560;12191.602;   -9.095;22632.658
782.129;12057.781;  -12.135;23048.277
782.698;12110.095;  -10.865;23438.555
783.267;11678.626;   -9.335;23267.734
783.836;11586.380;  -11.045;22415.133
784.404;12662.670;  -13.865;20443.152
784.973;13278.896;  -13.095;19699.150
785.542;13185.798;  -11.575;19763.828
786.111;12972.621;   -9.705;20341.408
786.679;12440.007;  -12.105;20207.967
787.248;12171.242;  -12.455;19516.465
787.817;12025.003;  -11.535;18900.363
788.385;11682.758;   -9.765;17879.121
788.954;11135.142;  -14.005;17658.301
789.522;10611.213;  -11.955;17788.879
790.090;11151.874;  -10.135;18118.277
790.659;11581.059;  -10.975;18338.736
791.227;11058.261;  -13.375;18508.615
791.795;11481.635;  -12.375;17898.254
792.364;11893.750;  -10.725;17295.133
792.932;12281.461;   -9.715;16822.051
793.500;12435.829;  -12.675;17040.148
794.068;12651.774;  -13.495;17179.787
794.636;12802.812;  -10.885;16664.246
795.204;12183.918;  -11.045;16524.545
795.772;12270.639;  -13.175;17274.564
796.340;11794.103;  -12.445;17891.002
796.908;11585.896;   -9.735;17648.561
797.476;11480.853;   -9.815;17064.080
798.044;11013.967;  -13.985;16672.777
798.612;10200.459;  -13.115;17023.996
799.180; 9792.900;  -10.185;16561.615
799.747; 9707.095;   -9.055;15962.773
800.315; 9460.636;  -12.385;15296.992
800.883; 9153.755;  -15.035;14801.771
801.450; 9216.971;  -10.365;14534.430
802.018; 9314.275;   -9.855;14173.248
802.585; 9422.609;  -11.905;14029.547
803.153; 9445.735;  -11.585;13836.846
803.720; 9263.650;   -9.095;13567.324
804.287; 8812.896;   -9.135;13360.622
804.855; 8360.699;  -11.604;13681.981
805.422; 8244.105;  -11.794;13536.560
805.989; 8275.749;  -10.734;13355.958
806.556; 8458.047;  -10.444;13747.896
807.124; 8695.068;  -12.764;13987.376
807.691; 8667.775;  -12.964;14038.674
808.258; 8471.233;  -11.134;14120.152
808.825; 8134.885;   -9.854;13860.111
809.392; 8207.755;  -10.504;13268.790
809.959; 7710.813;  -13.054;12680.389
810.526; 7231.567;   -8.294;12427.308
811.093; 7266.508;   -8.394;12030.105
811.659; 7898.554;  -12.304;11653.664
812.226; 8430.801;  -13.944;11637.183
812.793; 8141.092;  -10.484;11611.521
813.360; 7515.148;  -10.144;11885.181
813.926; 7204.546;  -11.684;12770.539
814.493; 6976.686;  -13.644;12677.638
815.060; 6558.250;   -9.724;11974.336
815.626; 6533.338;   -9.854;11594.715
816.193; 6936.520;  -13.254;11579.474
816.759; 6960.279;  -13.204;11666.972
817.325; 7002.902;   -9.434;11325.530
817.892; 7338.234;  -10.134;11105.369
818.458; 7788.174;  -13.474;10843.928
819.024; 7426.620;  -11.854;10714.406
819.591; 7078.414;  -10.244;10469.165
820.157; 6842.533;  -10.704;10235.523
820.723; 6327.967;  -12.324;10847.563
821.289; 6012.233;   -9.444;11040.980
821.855; 5925.891;   -8.374;10357.100
822.421; 5892.278;  -10.234; 9978.918
822.987; 5886.850;  -13.294; 9754.177
823.553; 5575.187;  -10.884;10065.755
824.119; 5388.937;   -8.884;10036.294
824.685; 5485.259;   -6.784;10029.192
825.251; 5569.000;  -12.004;10199.230
825.816; 5522.210;  -11.474; 9820.189
826.382; 5286.158;   -9.174; 9297.248
826.948; 5480.990;   -9.214; 9381.347
827.513; 5885.476;  -10.774; 9450.726
828.079; 5705.863;  -11.924; 9472.444
828.645; 5107.453;  -10.543; 9292.643
829.210; 4990.975;  -10.533; 9065.341
829.776; 4974.912;  -10.753; 9132.620
830.341; 4861.821;  -10.173; 9092.878
830.906; 5049.542;  -10.743; 9078.557
831.472; 5396.771;  -11.113; 8534.535
832.037; 5146.425;  -10.603; 8677.874
832.602; 4613.746;  -13.323; 8628.692
833.167; 4370.478;  -10.823; 8879.031
833.733; 4313.965;  -10.113; 9189.790
834.298; 4444.907;  -13.583; 9052.608
834.863; 4516.118;  -12.703; 8895.087
835.428; 4499.740;  -10.523; 8824.266
835.993; 4355.818;   -6.963; 8845.385
836.558; 4184.189;  -10.763; 8888.563
837.123; 4295.366;   -9.903; 8966.582
837.688; 4527.523;   -9.913; 8617.860
838.253; 4771.027;  -10.283; 8590.699
838.817; 4978.802;  -12.963; 8443.797
839.382; 4896.140;  -14.243; 8799.356
839.947; 4581.692;  -10.733; 8810.595
840.511; 4291.321;   -9.383; 8796.394
841.076; 3909.104;  -12.563; 8347.231
841.641; 3956.978;  -12.953; 8224.330
842.205; 4056.511;   -7.043; 8223.349
842.770; 4149.929;   -8.163; 8622.107
843.334; 4308.936;  -12.503; 8410.386
843.898; 4243.685;  -11.693; 8337.465
844.463; 4259.588;  -10.203; 8506.283
845.027; 4057.977;   -9.533; 8280.962
845.591; 3882.626;  -13.443; 8231.141
846.156; 3868.412;  -13.143; 7969.179
846.720; 3752.259;   -9.433; 7768.278
847.284; 3631.175;  -11.033; 7630.957
847.848; 3501.649;  -10.403; 7472.395
848.412; 3421.949;  -11.553; 7437.394
848.976; 3476.196;   -8.393; 7674.592
849.540; 3406.348;   -8.713; 7836.011
850.104; 3516.683;  -12.463; 7913.669
850.668; 3884.697;  -12.973; 7694.508
851.232; 3989.755;  -10.793; 7756.887
851.796; 3821.860;  -10.662; 7926.545
852.359; 3520.569;  -13.082; 7827.844
852.923; 3356.606;  -12.192; 7641.163
853.487; 3179.661;  -11.912; 7342.501
854.050; 3136.550;  -10.892; 7042.820
854.614; 3290.373;  -13.992; 7151.338
855.177; 3426.624;  -11.732; 7105.077
855.741; 3466.124;   -8.962; 6989.675
856.304; 3354.880;   -9.442; 6596.634
856.868; 3305.760;  -14.192; 6356.272
857.431; 3402.682;  -12.702; 6468.571
857.995; 3516.915;   -9.942; 6373.210
858.558; 3527.363;   -9.112; 6324.448
859.121; 3253.673;  -12.932; 6408.327
859.684; 3126.447;  -13.442; 6347.886
860.247; 3245.567;  -10.632; 6321.264
860.810; 3248.943;  -11.272; 6301.903
861.374; 2997.800;   -9.832; 6607.881
861.937; 2744.316;  -11.762; 6408.200
862.500; 2740.880;   -9.722; 6572.639
863.062; 2922.537;  -10.512; 6387.297
863.625; 3097.534;  -11.232; 6190.836
864.188; 3261.767;  -14.112; 5807.254
864.751; 3323.334;  -11.302; 5682.413
865.314; 3206.100;  -10.112; 5547.492
865.876; 2989.647;  -12.182; 5500.150
866.439; 2974.033;  -10.722; 5415.909
867.002; 2926.870;   -9.252; 5501.567
867.564; 2718.980;   -9.572; 5413.946
868.127; 2497.139;  -13.142; 5160.325
868.689; 2386.913;  -12.902; 5133.183
869.252; 2289.937;   -9.732; 5252.382
869.814; 2195.795;   -9.432; 5297.141
870.377; 2208.079;  -11.552; 5390.919
870.939; 2281.734;   -9.052; 5599.898
871.501; 2352.662;  -10.982; 5248.336
872.063; 2353.105;  -12.292; 4854.235
872.626; 2306.206;  -14.912; 4817.074
873.188; 2334.522;  -13.112; 4987.732
873.750; 2305.390;  -13.442; 4868.651
874.312; 2197.975;   -9.402; 4779.330
874.874; 2101.395;  -11.062; 4866.348
875.436; 2012.040;  -13.931; 4718.887
875.998; 2004.948;   -9.561; 4660.005
876.560; 2033.469;  -11.321; 4462.964
877.122; 1975.702;  -12.221; 4145.042
877.683; 1876.079;  -12.191; 4056.481
878.245; 1802.943;  -12.101; 3950.740
878.807; 1852.009;   -8.971; 4058.958
879.369; 1886.346;  -12.071; 3954.677
879.930; 1794.334;  -14.621; 3941.495
880.492; 1729.746;  -10.311; 4067.014
881.053; 1695.541;  -10.901; 3859.633
881.615; 1572.502;  -14.411; 3776.071
882.176; 1467.580;  -13.761; 3734.750
882.738; 1433.358;   -9.181; 3678.489
883.299; 1459.089;  -11.791; 3405.407
883.860; 1553.210;  -13.121; 3351.106
884.422; 1628.290;  -11.211; 3394.044
884.983; 1533.780;  -10.091; 3166.443
885.544; 1243.375;   -8.461; 3189.802
886.105;  904.647;  -12.361; 3160.360
886.666;  680.603;  -14.141; 3093.059
887.227;  596.298;  -11.361; 2941.957
887.788;  585.741;  -11.401; 2974.836
888.349;  594.231;  -13.791; 2721.214
888.910;  634.372;  -13.191; 2696.493
889.471;  672.870;   -9.881; 2560.172
890.032;  685.494;   -9.881; 2558.190
890.593;  685.274;  -10.371; 2567.669
891.153;  679.371;  -13.301; 2460.307
891.714;  653.106;  -11.431; 2372.046
892.275;  629.931;  -11.291; 2309.505
892.835;  604.203;  -11.471; 2382.543
893.396;  563.428;  -11.541; 2295.502
893.956;  519.669;  -11.181; 2162.420
894.517;  488.971;  -11.741; 2125.439
895.077;  485.263;  -11.671; 2086.978
895.638;  487.994;  -11.311; 2126.316
896.198;  462.053;   -9.831; 1838.275
896.758;  424.022;   -8.421; 1892.813
897.319;  396.866;  -12.351; 1792.232
897.879;  383.356;  -13.511; 1762.751
898.439;  359.701;  -12.001; 1661.149
898.999;  337.779;  -10.180; 1781.468
899.559;  330.835;  -12.030; 1703.347
900.119;  328.165;  -15.710; 1537.525
900.679;  324.309;   -8.900; 1638.384
901.239;  311.280;   -8.340; 1527.902
901.799;  300.492;  -13.910; 1456.441
902.359;  294.562;  -13.460; 1357.140
902.919;  289.618;  -11.490; 1331.118
903.479;  278.048;  -12.110; 1317.257
904.038;  258.363;  -11.720; 1262.595
904.598;  243.163;  -13.610; 1152.034
905.158;  240.420;  -11.040; 1240.893
905.717;  234.570;  -10.900; 1233.691
906.277;  222.679;  -15.080; 1217.330
906.836;  213.008;  -13.380; 1222.408
907.396;  204.183;  -10.780; 1193.047
907.955;  194.530;   -8.500; 1182.526
908.515;  186.960;  -12.760; 1099.364
909.074;  181.669;  -11.900; 1092.863
909.633;  177.237;   -8.950; 1069.121
910.192;  174.040;   -8.770; 1196.460
910.752;  169.167;  -12.390; 1029.960
911.311;  165.308;  -13.680; 1009.780
911.870;  164.588;  -12.370;  971.460
912.429;  165.221;  -10.900; 1094.080
912.988;  164.461;  -11.690; 1081.060
913.547;  160.091;  -13.240;  940.380
914.106;  155.746;  -11.990;  999.420
914.665;  151.831;   -9.990;  984.020
915.224;  152.135;  -12.880; 1035.760
915.782;  151.648;  -12.350;  922.560
916.341;  151.398;   -9.110; 1049.840
916.900;  147.831;   -9.270;  925.260
917.458;  145.541;  -13.240;  884.220
918.017;  145.278;  -13.550;  942.600
918.576;  145.011;  -12.320;  904.440
919.134;  142.951;  -11.490;  837.980
919.693;  140.493;  -13.670;  893.060
920.251;  139.478;  -15.470;  876.500
920.809;  138.930;  -11.290;  839.580
921.368;  137.919;  -10.210;  885.360
921.926;  136.987;  -12.140;  842.940
922.484;  135.591;  -13.080;  903.360
923.042;  135.578;  -11.720;  880.340
923.601;  138.045;   -7.480;  998.680
924.159;  136.899;  -11.570;  935.560
924.717;  133.011;  -13.840;  841.080
925.275;  132.924;  -10.640;  903.240
925.833;  133.374;  -11.540;  779.320
926.391;  133.992;  -12.960;  938.380
926.949;  132.267;  -14.130;  857.680
927.506;  133.773;  -11.750;  903.500
928.064;  133.455;  -10.250;  877.580
928.622;  131.540;  -13.030;  880.100
929.180;  131.305;  -13.400;  814.180
929.737;  134.450;  -10.700;  808.540
930.295;  137.317;  -10.070;  928.480
930.853;  137.413;  -11.960;  849.100
931.410;  138.313;  -13.120;  821.120
931.968;  138.912;  -10.770;  940.660
932.525;  138.214;  -10.680;  909.380
933.082;  138.438;  -13.130;  811.440
933.640;  139.553;  -13.210;  925.900
934.197;  137.074;  -11.060;  886.360
934.754;  138.926;   -9.580;  897.780
935.312;  140.504;  -14.000;  863.340
935.869;  145.069;  -10.710; 1012.980
936.426;  145.597;   -9.860;  872.800
936.983;  146.808;   -9.710;  889.020
937.540;  145.540;  -13.990;  838.280
938.097;  144.878;  -14.040;  940.120
938.654;  146.004;  -10.310;  898.860
939.211;  148.688;  -10.560;  952.480
939.768;  150.982;  -13.900;  915.420
940.324;  154.486;  -14.760;  904.200
940.881;  155.504;  -10.370;  878.500
941.438;  156.197;   -8.260; 1021.200
941.995;  151.814;  -12.540;  992.560
942.551;  150.396;  -14.670;  875.620
943.108;  151.093;  -10.450;  937.920
943.664;  152.952;  -10.750;  869.340
944.221;  155.668;  -11.550; 1088.140
944.777;  152.756;  -14.770;  869.680
945.334;  153.706;  -12.820;  884.840
945.890;  155.750;  -10.130;  946.480
946.446;  156.133;  -13.470;  947.020
947.003;  157.487;  -12.120;  964.940
947.559;  160.902;   -9.980; 1063.040
948.115;  159.456;   -9.080; 1026.540
948.671;  157.020;  -10.830;  967.300
949.227;  155.199;  -12.440;  859.560
949.783;  152.884;  -12.910;  858.900
950.339;  153.656;  -10.270;  991.000
950.895;  154.531;  -13.630; 1023.840
951.451;  153.887;  -15.100;  925.280
952.007;  153.815;  -11.330;  998.540
952.563;  154.775;  -10.580;  937.780
953.118;  153.265;  -13.440;  904.940
953.674;  152.832;  -12.710;  935.780
954.230;  152.337;  -10.350;  949.640
954.785;  150.115;   -9.190;  936.640
955.341;  146.635;  -11.200;  998.160
955.897;  144.771;  -16.560;  834.660
956.452;  147.607;  -12.570;  953.840
957.008;  145.680;   -7.970; 1083.640
957.563;  143.949;  -11.940; 1009.540
958.118;  138.763;  -13.450;  877.700
958.674;  139.870;  -12.030;  946.780
959.229;  140.646;   -9.410; 1013.980
959.784;  137.565;  -12.000;  832.400
960.339;  137.276;  -14.780; 1001.280
960.894;  134.578;   -9.860;  963.760
961.449;  131.334;   -9.970;  859.960
962.004;  129.803;  -10.900; 1212.840
962.559;  124.675;  -13.150;  860.140
963.114;  123.487;  -13.740;  742.480
963.669;  123.138;   -9.820;  915.500
964.224;  120.800;  -13.890;  874.340
964.779;  119.691;  -12.600;  828.420
965.334;  121.439;  -10.950; 1017.860
965.888;  120.970;  -11.170;  875.360
966.443;  122.855;  -12.540;  972.380
966.998;  122.183;  -15.780;  819.460
967.552;  121.548;   -9.760;  908.380
968.107;  117.999;   -9.060;  868.300
968.661;  118.735;  -11.950;  922.440
969.216;  119.176;  -12.800;  856.280
969.770;  119.127;  -11.210;  917.200
970.324;  118.639;  -11.610;  923.140
970.879;  114.669;  -11.370;  947.180
971.433;  111.804;  -12.540;  952.720
971.987;  107.931;  -11.320;  895.340
972.541;  104.919;  -10.720;  917.100
973.095;  103.849;   -9.680; 1009.460
973.649;  103.042;  -11.440;  809.480
974.203;  102.004;  -11.210;  829.040
974.757;  101.666;  -10.240;  855.220
975.311;  101.000;  -13.720;  872.600
975.865;  100.414;  -13.770;  881.820
976.419;   99.596;  -11.690;  857.400
976.973;   98.939;   -9.510;  849.620
977.526;   99.908;  -12.620;  949.920
978.080;   99.535;  -12.010;  796.780
978.634;  101.401;  -10.170;  921.320
979.187;   98.573;   -9.020;  905.400
979.741;   95.647;   -9.820; 1018.380
980.294;   90.835;  -14.870;  789.160
980.848;   89.397;  -12.380;  717.220
981.401;   91.133;  -10.350;  816.540
981.955;   93.863;  -13.720;  844.300
982.508;   92.051;  -11.490;  746.340
983.061;   93.020;  -10.000;  915.260
983.615;   88.950;  -11.480;  798.800
984.168;   85.221;  -13.220;  770.080
984.721;   84.679;  -13.960;  880.760
985.274;   84.802;  -10.870;  867.500
985.827;   82.808;   -9.790;  834.220
986.380;   80.022;  -13.120;  721.340
986.933;   79.996;  -12.450;  864.800
987.486;   78.309;  -10.210;  861.920
988.039;   77.531;   -8.430;  863.100
988.591;   75.077;  -10.520;  893.260
989.144;   72.130;  -14.860;  737.260
989.697;   71.981;  -13.080;  758.740
990.250;   72.992;  -10.150;  858.100
990.802;   71.117;  -13.430;  755.860
991.355;   72.426;  -12.750;  974.880
991.907;   70.432;  -12.040;  864.320
992.460;   68.437;  -11.330;  753.760
993.012;   66.797;  -13.610;  749.540
993.565;   66.185;  -13.460;  711.360
994.117;   67.821;   -9.360;  950.780
994.669;   64.777;  -11.300;  701.320
995.221;   62.026;  -13.540;  791.920
995.774;   60.876;  -13.430;  787.580
996.326;   59.203;  -12.520;  740.220
996.878;   59.058;  -10.950;  838.420
997.430;   56.749;  -14.300;  699.860
997.982;   55.640;  -13.760;  750.140
998.534;   56.302;  -11.530;  739.060
999.086;   54.833;  -10.310;  738.220
999.638;   52.306;  -12.530;  661.380
1000.190;   51.520;  -11.840;  699.320
1000.741;   51.912;  -10.260;  742.700
1001.293;   51.976;   -8.860;  686.020
1001.845;   50.161;  -13.700;  676.640
1002.396;   49.220;  -12.100;  743.400
1002.948;   49.922;  -12.760;  737.400
1003.500;   49.032;  -10.380;  723.780
1004.051;   48.454;  -11.900;  907.580
1004.603;   46.445;  -12.250;  791.820
1005.154;   43.686;  -13.210;  608.980
1005.705;   43.513;  -10.950;  723.960
1006.257;   41.923;  -13.880;  707.220
1006.808;   41.457;  -12.840;  685.460
1007.359;   40.886;  -10.570;  763.240
1007.910;   40.164;   -9.620;  646.640
1008.461;   40.265;  -13.630;  732.940
1009.013;   37.953;  -17.200;  588.340
1009.564;   39.750;  -10.200;  793.520
1010.115;   37.844;  -12.570;  597.040
1010.665;   37.297;  -15.150;  602.160
1011.216;   37.455;  -14.480;  667.920
1011.767;   37.267;  -11.340;  697.920
1012.318;   37.789;   -9.780;  736.980
1012.869;   35.798;  -12.380;  679.000
1013.419;   35.569;  -15.560;  603.120
1013.970;   36.116;  -11.010;  666.640
1014.521;   35.183;  -11.610;  620.620
1015.071;   35.205;  -13.450;  670.380
1015.622;   34.542;  -13.870;  635.460
1016.172;   34.023;  -11.610;  596.820
1016.723;   34.580;  -12.120;  614.380
1017.273;   33.415;  -13.620;  604.160
1017.823;   33.798;  -14.140;  650.340
1018.374;   33.073;  -12.800;  611.760
1018.924;   33.630;  -12.340;  716.880
1019.474;   33.056;  -11.410;  718.880
1020.024;   31.708;  -14.770;  657.580
1020.574;   33.797;   -9.780;  726.160
1021.124;   33.192;   -8.560;  673.580
1021.674;   31.327;  -15.190;  559.120
1022.224;   32.720;  -13.530;  708.940
1022.774;   32.201;  -13.280;  668.820
1023.324;   32.944;  -10.690;  753.520
1023.874;   32.832;  -10.240;  875.760
1024.423;   30.559;  -12.540;  613.700
1024.973;   31.312;  -10.010;  610.760
1025.523;   30.341;  -10.550;  620.960
1026.072;   29.148;  -13.560;  606.420
1026.622;   29.234;  -15.120;  675.740
1027.172;   31.599;  -11.260;  715.660
1027.721;   29.449;  -11.410;  601.220
1028.270;   28.835;  -13.530;  663.400
1028.820;   29.284;  -13.680;  638.080
1029.369;   29.374;  -13.520;  612.700
1029.918;   29.626;  -10.980;  649.840
1030.468;   28.226;  -13.530;  564.780
1031.017;   28.840;  -13.170;  634.800
1031.566;   28.407;  -12.200;  608.900
1032.115;   28.976;   -9.960;  694.500
1032.664;   27.132;  -13.210;  596.480
1033.213;   28.193;  -12.500;  735.420
1033.762;   27.904;  -11.910;  635.620
1034.311;   27.494;   -9.640;  677.220
1034.860;   27.562;  -13.310;  691.000
1035.408;   27.650;  -11.830;  722.720
1035.957;   28.407;  -12.000;  719.540
1036.506;   26.267;  -11.690;  530.800
1037.055;   27.987;  -10.990;  844.320
1037.603;   26.632;  -15.120;  664.000
1038.152;   24.990;  -12.450;  534.760
1038.700;   26.103;  -10.560;  585.740
1039.249;   24.713;  -11.080;  681.220
1039.797;   25.064;  -12.540;  633.360
1040.345;   26.214;  -11.920;  705.420
1040.894;   25.734;  -11.410;  625.300
1041.442;   25.046;  -14.320;  632.200
1041.990;   24.134;  -16.240;  559.160
1042.538;   23.693;  -11.680;  536.180
1043.087;   24.577;  -10.760;  570.860
1043.635;   24.888;  -11.850;  670.500
1044.183;   23.337;  -15.480;  586.400
1044.731;   23.931;  -11.770;  576.000
1045.279;   23.987;  -13.090;  674.920
1045.827;   25.475;  -12.440;  892.400
1046.374;   22.275;  -13.840;  515.420
1046.922;   22.870;  -13.220;  590.580
1047.470;   24.187;  -10.230;  691.300
1048.018;   23.086;  -14.590;  647.960
1048.565;   24.224;  -12.050;  708.600
1049.113;   21.830;  -11.650;  557.000
1049.660;   22.458;  -10.510;  629.660
1050.208;   22.784;  -13.310;  675.640
1050.755;   21.091;  -15.900;  606.580
1051.303;   21.990;  -11.430;  686.820
1051.850;   22.199;   -8.480;  635.120
1052.397;   20.070;  -15.010;  473.960
1052.945;   20.452;  -13.960;  617.760
1053.492;   22.291;  -13.150;  741.840
1054.039;   22.829;   -9.630;  720.180
1054.586;   20.348;  -13.680;  557.240
1055.133;   21.450;  -14.570;  693.140
1055.680;   20.923;  -13.820;  646.620
1056.227;   21.167;  -11.730;  542.780
1056.774;   21.953;  -12.480;  794.980
1057.321;   19.656;  -13.930;  523.260
1057.868;   20.461;  -11.690;  651.320
1058.415;   20.527;   -9.520;  651.980
1058.961;   19.792;  -13.160;  678.940
1059.508;   20.053;  -12.920;  643.820
1060.055;   19.686;  -11.920;  581.780
1060.601;   20.497;  -11.500;  624.300
1061.148;   19.374;  -14.330;  616.820
1061.694;   18.249;  -16.870;  592.580
1062.241;   19.073;  -10.330;  596.320
1062.787;   19.138;  -10.620;  663.140
1063.334;   20.015;  -10.110;  808.560
1063.880;   18.662;  -13.400;  668.360
1064.426;   19.078;  -10.680;  706.820
1064.972;   18.525;   -9.920;  601.340
1065.518;   17.115;  -10.980;  566.640
1066.065;   18.414;  -14.890;  624.460
1066.611;   17.755;  -12.870;  598.800
1067.157;   18.700;  -12.950;  641.860
1067.703;   17.189;  -13.540;  668.480
1068.249;   16.738;  -13.540;  605.220
1068.794;   18.206;  -12.600;  626.880
1069.340;   17.158;  -10.620;  578.960
1069.886;   17.381;  -12.830;  590.700
1070.432;   16.601;  -14.870;  541.720
1070.977;   16.543;  -11.980;  601.080
1071.523;   16.803;   -8.200;  573.060
1072.068;   16.800;  -12.330;  582.000
1072.614;   15.750;  -16.370;  527.760
1073.160;   16.978;  -11.100;  687.040
1073.705;   16.982;  -10.480;  572.520
1074.250;   15.729;  -14.520;  559.900
1074.796;   16.995;  -11.460;  655.160
1075.341;   16.789;  -11.950;  664.100
1075.886;   16.810;  -11.460;  594.240
1076.431;   14.783;  -13.770;  649.880
1076.976;   15.129;  -12.680;  639.220
1077.521;   15.414;  -13.170;  583.080
1078.067;   15.571;  -10.860;  579.400
1078.612;   15.003;  -13.920;  661.620
1079.156;   14.882;  -13.880;  601.540
1079.701;   15.906;  -13.120;  693.260
1080.246;   16.270;   -9.940;  696.300
1080.791;   14.973;  -14.740;  625.020
1081.336;   14.314;  -13.750;  659.320
1081.880;   15.006;  -13.400;  649.680
1082.425;   14.300;  -12.220;  573.480
1082.970;   15.186;  -11.610;  717.040
1083.514;   13.815;  -13.580;  597.000
1084.059;   13.988;  -12.810;  586.720
1084.603;   12.958;  -12.320;  565.840
1085.147;   13.934;  -13.190;  645.220
1085.692;   14.393;  -12.480;  716.800
1086.236;   12.598;  -13.020;  503.140
1086.780;   15.326;   -9.190;  751.440
1087.325;   13.756;  -12.480;  654.620
1087.869;   13.584;  -12.450;  610.700
1088.413;   13.597;  -12.240;  705.040
1088.957;   12.457;   -9.020;  543.400
1089.501;   13.365;  -10.320;  766.640
1090.045;   12.961;  -12.720;  726.480
1090.589;   11.647;  -13.690;  569.920
1091.133;   13.261;  -10.020;  673.340
1091.676;   12.786;  -12.330;  591.940
1092.220;   12.078;  -14.970;  600.920
1092.764;   13.486;  -12.430;  706.960
1093.307;   13.461;   -9.800;  673.780
1093.851;   11.121;  -14.970;  556.540
1094.395;   11.842;  -15.310;  683.140
1094.938;   12.231;  -10.370;  632.520
1095.482;   11.534;  -11.050;  559.800
1096.025;   12.057;  -11.840;  710.880
1096.568;   12.193;  -12.840;  779.280
1097.112;   10.460;  -14.700;  508.180
1097.655;   11.558;   -8.720;  603.000
1098.198;    9.805;  -13.610;  600.180
1098.741;    9.471;  -13.350;  612.860
1099.285;   11.546;  -11.230;  657.300
1099.828;    9.799;  -11.840;  439.400
1100.371;   10.822;  -10.840;  608.160
1100.914;   10.132;  -14.190;  682.660
1101.457;   11.206;  -11.240;  679.900
1101.999;   10.073;  -11.270;  584.680
1102.542;    9.741;  -11.480;  641.440
1103.085;   10.137;  -11.750;  658.500
1103.628;   10.520;  -11.400;  762.060
1104.170;    9.760;  -10.490;  588.280
1104.713;   10.242;  -10.600;  646.700
1105.256;    9.060;  -14.360;  557.440
1105.798;    8.850;  -13.210;  499.980
1106.341;   11.485;  -10.270;  728.900
1106.883;    8.753;  -12.200;  521.340
1107.425;    9.100;  -13.110;  668.180
1107.968;    9.324;  -12.840;  612.380
1108.510;    9.603;   -6.480;  684.960
1109.052;    7.655;  -13.940;  612.620
1109.594;    8.086;  -13.690;  554.440
1110.136;    9.339;  -11.880;  643.220
1110.679;    8.520;   -9.500;  633.080
1111.221;    8.687;  -14.160;  604.460
1111.763;    7.791;  -13.980;  559.220
1112.304;    7.894;  -13.880;  547.140
1112.846;    8.649;  -12.210;  666.240
1113.388;   10.360;  -11.390;  942.180
1113.930;    7.226;  -14.540;  694.200
1114.472;    7.528;  -12.640;  606.540
1115.013;    6.440;  -11.620;  551.280
1115.555;    6.054;  -13.640;  587.100
1116.097;    6.468;  -15.380;  579.480
1116.638;    8.090;  -12.640;  684.600
1117.180;    8.395;   -9.850;  667.740
1117.721;    7.319;  -13.690;  568.580
1118.262;    7.024;  -12.680;  677.960
1118.804;    7.704;  -12.530;  637.340
1119.345;    6.943;  -11.690;  578.400
1119.886;    7.152;  -13.380;  704.040
1120.427;    5.539;  -14.070;  589.020
1120.969;    6.034;  -13.500;  597.920
1121.510;    5.951;  -11.480;  563.060
1122.051;    7.243;  -12.830;  723.580
1122.592;    5.600;  -14.290;  655.420
1123.133;    5.194;  -12.400;  547.940
1123.673;    7.703;  -10.130;  706.480
1124.214;    5.593;  -12.930;  612.460
1124.755;    5.999;  -14.380;  639.460
1125.296;    6.264;  -14.000;  627.320
1125.836;    7.041;  -10.070;  691.500
1126.377;    5.196;  -12.640;  599.660
1126.918;    5.275;  -12.960;  614.980
1127.458;    5.069;  -13.350;  622.220
1127.999;    6.425;  -10.750;  656.980
1128.539;    6.409;  -12.350;  694.240
1129.079;    3.864;  -14.860;  632.720
1129.620;    5.138;  -13.840;  558.100
1130.160;    3.961;  -12.330;  539.480
1130.700;    5.254;  -14.530;  640.840
1131.240;    5.401;  -12.530;  643.700
1131.781;    4.635;  -14.450;  619.680
1132.321;    5.588;   -9.790;  599.120
1132.861;    3.874;  -14.860;  564.200
1133.401;    3.304;  -14.290;  593.940
1133.941;    5.143;  -11.750;  626.280
1134.481;    4.043;   -9.920;  597.580
1135.020;    3.336;  -12.290;  609.160
1135.560;    3.871;  -11.650;  674.940
1136.100;    4.070;  -16.270;  501.160
1136.640;    3.996;  -10.890;  510.480
1137.179;    3.112;  -14.180;  537.960
1137.719;    3.457;  -16.250;  605.400
1138.258;    4.174;  -14.230;  587.360
1138.798;    4.398;   -9.090;  663.780
1139.337;    2.827;  -15.130;  482.840
1139.877;    3.148;  -13.680;  642.360
1140.416;    5.465;  -11.320;  878.060
1140.955;    2.984;  -10.860;  535.380
1141.494;    3.460;  -12.920;  669.280
1142.034;    2.317;  -13.930;  583.520
1142.573;    3.623;  -11.440;  646.280
1143.112;    3.330;  -12.000;  553.480
1143.651;    2.117;  -13.670;  536.480
1144.190;    3.013;  -12.730;  691.640
1144.729;    2.958;  -14.560;  607.420
1145.267;    2.642;  -11.830;  584.900
1145.806;    3.540;  -12.230;  637.040
1146.345;    1.970;  -14.130;  635.020
1146.884;    1.925;  -11.590;  622.500
1147.422;    1.853;  -12.550;  533.060
1147.961;    2.950;  -11.180;  708.460
1148.500;    2.399;  -11.510;  669.720
1149.038;    2.914;  -11.640;  632.500
1149.577;    3.386;  -10.130;  698.640
1150.115;    0.623;  -13.970;  452.280
1150.653;    1.299;  -14.520;  607.340
1151.192;    2.035;  -12.810;  552.920
1151.730;    2.599;   -9.100;  652.560
1152.268;    0.888;  -12.220;  589.520
1152.806;    1.264;  -14.140;  571.180
1153.344;    0.761;  -12.350;  577.640
1153.882;    1.729;   -8.980;  600.060
1154.421;    0.550;  -15.190;  470.620
1154.958;    0.779;  -15.210;  595.240
1155.496;    2.433;  -12.850;  645.280
1156.034;    1.935;   -9.940;  721.880
1156.572;    1.871;  -13.570;  667.060
1157.110;   -0.036;  -14.590;  473.940
1157.647;    1.688;  -13.030;  676.960
1158.185;    0.317;  -12.140;  564.320
1158.723;   -0.876;  -14.390;  509.200
1159.260;    0.492;  -14.090;  701.700
1159.798;    1.019;  -11.920;  658.160
1160.335;    1.371;  -11.110;  631.820

