
Integration time [ms]:   3.276
Averaging Nr. [scans]: 1000
Smoothing Nr. [pixels]: 0
Data measured with spectrometer [name]: 7414430SP
Wave   ;Sample   ;Dark     ;Reference
[nm]   ;[counts] ;[counts] ;[counts] 

288.544;  148.437;    7.793;  793.890
289.143;  152.308;    7.462;  681.602
289.742;  152.776;    8.602;  828.814
290.341;  138.640;    1.321;  789.841
290.940;  128.395;   -0.709;  730.702
291.538;  127.814;    0.881;  881.108
292.137;  128.714;    0.122;  792.581
292.736;  133.906;   -1.929;  975.101
293.335;  131.178;   -8.229;  735.086
293.934;  129.587;   -5.279;  781.677
294.532;  128.964;   -1.369; 1031.958
295.131;  114.590;   -7.641;  834.394
295.730;  115.436;   -8.420;  809.588
296.328;  113.779;   -5.611;  783.442
296.927;  114.319;   -5.781;  779.652
297.525;  116.038;   -6.361;  781.236
298.124;  106.577;  -11.382;  654.009
298.722;  109.292;   -7.641;  761.933
299.321;  108.020;   -6.811;  708.597
299.919;  105.681;   -6.991;  751.918
300.518;  103.306;  -10.362;  689.338
301.116;  104.387;   -9.581;  691.381
301.715;  103.870;   -4.891;  730.222
302.313;  103.847;   -8.801;  704.943
302.911;   99.611;   -8.522;  733.830
303.509;  103.832;   -6.171;  925.627
304.108;  101.406;   -7.311;  760.383
304.706;  101.316;   -8.321;  801.664
305.304;   95.870;  -10.222;  796.707
305.902;  100.540;   -6.021;  784.484
306.500;   96.403;   -4.971;  728.200
307.098;   94.701;   -7.061;  746.560
307.696;   93.912;   -8.801;  780.432
308.294;   92.442;   -6.411;  731.359
308.892;   95.118;   -2.901;  759.769
309.490;   92.258;   -5.041;  712.161
310.088;   90.980;   -5.002;  788.444
310.686;   93.837;   -2.041;  821.749
311.284;   89.753;   -2.351;  766.040
311.882;   87.616;   -4.422;  731.225
312.480;   84.971;   -4.192;  697.167
313.078;   86.240;   -1.172;  808.331
313.675;   87.003;   -2.601;  691.600
314.273;   82.363;   -1.312;  797.837
314.871;   82.885;   -3.942;  589.829
315.468;   79.112;   -2.802;  652.090
316.066;   81.576;   -0.701;  694.427
316.664;   75.685;   -4.362;  656.351
317.261;   78.984;   -2.872;  910.128
317.859;   74.758;   -2.022;  768.735
318.456;   75.253;   -0.531;  830.096
319.054;   71.800;   -3.912;  787.828
319.651;   70.556;   -4.752;  759.928
320.249;   67.959;   -2.602;  810.188
320.846;   67.329;   -0.821;  714.286
321.443;   64.268;   -4.642;  832.135
322.041;   61.226;   -5.002;  812.315
322.638;   57.857;   -3.982;  701.456
323.235;   59.715;   -3.411;  665.683
323.833;   57.383;   -7.361;  740.354
324.430;   52.442;   -8.611;  615.900
325.027;   53.534;   -4.061;  876.855
325.624;   53.315;   -4.031;  644.532
326.221;   50.290;   -7.481;  689.717
326.818;   51.004;   -5.281;  818.332
327.415;   52.836;   -7.460;  748.828
328.012;   52.581;   -5.510;  690.585
328.609;   51.453;   -7.880;  731.389
329.206;   50.133;   -8.331;  778.621
329.803;   49.151;   -5.121;  737.841
330.400;   51.495;   -4.510;  704.260
330.997;   53.295;   -6.441;  817.147
331.594;   52.197;   -8.831;  788.185
332.191;   56.547;   -7.621;  728.722
332.787;   60.144;   -4.591;  844.463
333.384;   59.241;   -7.412;  763.093
333.981;   58.140;   -8.293;  815.687
334.578;   60.259;   -7.052;  708.378
335.174;   64.043;   -3.102;  731.469
335.771;   63.047;   -5.943;  836.456
336.367;   59.514;   -7.393;  710.631
336.964;   63.451;   -4.063;  793.266
337.561;   61.732;   -3.813;  731.112
338.157;   57.469;   -4.654;  911.916
338.754;   55.715;   -7.934;  796.589
339.350;   52.841;   -4.414;  722.493
339.946;   55.401;   -4.664;  773.135
340.543;   46.857;   -6.375;  846.136
341.139;   42.226;   -9.815;  720.836
341.735;   39.024;   -4.526;  772.593
342.332;   37.779;   -4.895;  691.472
342.928;   38.772;   -4.295;  795.394
343.524;   32.959;   -5.476;  761.684
344.120;   28.358;   -5.856;  738.562
344.716;   31.694;   -2.155;  723.717
345.313;   30.091;   -6.275;  795.342
345.909;   24.685;   -8.815;  627.336
346.505;   26.076;   -5.305;  740.247
347.101;   26.610;   -2.674;  827.864
347.697;   27.440;   -4.344;  785.398
348.293;   22.012;   -9.975;  627.244
348.889;   22.062;   -5.774;  745.914
349.485;   21.333;   -5.004;  688.205
350.081;   23.451;   -4.704;  772.592
350.676;   18.198;   -6.635;  691.606
351.272;   21.970;   -4.504;  809.530
351.868;   21.806;   -3.914;  780.497
352.464;   18.660;   -9.044;  723.932
353.059;   15.344;   -8.314;  646.017
353.655;   18.983;   -7.024;  777.063
354.251;   19.181;   -5.343;  759.845
354.846;   14.445;   -8.604;  740.646
355.442;   12.101;   -6.945;  753.071
356.038;   14.191;   -7.564;  751.708
356.633;   13.181;   -5.814;  728.594
357.229;   11.536;   -7.364;  724.757
357.824;   10.679;   -8.024;  703.600
358.420;    8.800;   -9.384;  679.726
359.015;   10.118;   -5.104;  695.357
359.610;   11.190;   -6.854;  763.920
360.206;    5.518;  -10.185;  603.240
360.801;    7.734;   -7.054;  646.503
361.396;    9.631;   -5.034;  725.975
361.992;    5.459;   -8.284;  668.220
362.587;    3.468;   -8.625;  670.160
363.182;    3.759;   -7.674;  689.631
363.777;    5.264;   -5.164;  738.242
364.372;    5.121;   -8.604;  737.314
364.967;    1.906;   -9.055;  680.744
365.563;    4.952;   -6.114;  815.567
366.158;    2.704;   -5.814;  685.161
366.753;    2.994;   -7.854;  649.263
367.348;    1.764;   -7.804;  746.056
367.942;    1.688;   -7.954;  697.298
368.537;    0.245;   -4.984;  754.245
369.132;    0.945;   -8.564;  703.428
369.727;   -2.938;   -8.855;  638.079
370.322;   -2.353;   -6.245;  580.186
370.917;   -2.027;   -6.425;  710.646
371.511;    0.377;   -6.294;  861.834
372.106;   -2.844;   -7.685;  776.964
372.701;   -6.823;   -7.335;  585.988
373.296;   -0.915;   -4.564;  863.135
373.890;   -5.884;  -10.235;  647.840
374.485;   -6.782;   -7.885;  691.199
375.079;   -3.987;   -7.324;  738.685
375.674;   -2.591;   -3.494;  812.970
376.268;   -7.108;   -8.525;  691.759
376.863;  -12.227;  -10.086;  580.327
377.457;   -7.021;   -7.025;  662.490
378.052;   -8.353;   -3.585;  764.884
378.646;   -9.089;   -7.595;  741.167
379.240;   -8.907;   -8.335;  721.176
379.835;   -8.535;   -5.785;  636.978
380.429;  -10.422;   -4.335;  562.557
381.023;  -10.229;   -6.805;  779.205
381.617;  -12.937;   -9.195;  680.106
382.212;   -9.475;   -6.905;  685.303
382.806;   -8.691;   -3.745;  760.690
383.400;  -12.489;   -7.745;  672.281
383.994;  -12.823;   -9.765;  664.870
384.588;   -9.604;   -6.564;  697.701
385.182;   -8.577;   -5.344;  726.624
385.776;  -10.845;   -8.514;  706.875
386.370;  -13.297;   -9.555;  681.968
386.964;  -12.325;   -8.715;  684.155
387.558;  -11.362;   -6.174;  598.360
388.152;  -13.817;   -8.725;  681.959
388.745;  -11.987;   -7.965;  814.707
389.339;  -11.249;   -5.924;  747.642
389.933;   -9.916;   -5.524;  695.370
390.527;  -10.541;   -7.114;  859.029
391.120;  -16.396;  -10.725;  595.318
391.714;  -14.443;   -8.035;  711.633
392.308;  -10.657;   -3.574;  780.253
392.901;  -14.478;   -7.245;  642.460
393.495;  -15.301;   -9.285;  595.414
394.089;  -14.131;   -5.895;  760.452
394.682;  -15.127;   -4.295;  697.188
395.275;  -15.534;   -9.875;  719.927
395.869;  -15.664;   -8.485;  667.314
396.462;  -15.197;   -7.455;  616.609
397.056;  -11.090;   -5.424;  776.621
397.649;  -15.524;   -6.605;  731.575
398.242;  -13.096;   -8.224;  712.645
398.836;  -12.940;   -7.474;  766.408
399.429;  -13.984;   -7.094;  631.041
400.022;  -17.062;   -9.475;  665.902
400.615;  -14.076;   -7.145;  805.609
401.208;  -13.027;   -7.174;  691.451
401.802;  -14.799;   -5.515;  699.329
402.395;  -16.507;   -9.875;  683.502
402.988;  -16.872;   -8.845;  696.627
403.581;  -14.697;   -8.874;  646.878
404.174;  -11.526;   -5.324;  686.568
404.767;  -14.281;   -9.575;  638.583
405.360;  -16.723;  -10.965;  621.445
405.953;  -11.913;   -8.764;  759.034
406.545;  -10.800;   -7.514;  725.342
407.138;  -15.774;  -10.025;  618.350
407.731;  -13.927;  -10.034;  613.303
408.324;  -10.700;   -9.374;  660.554
408.917;  -10.998;   -6.534;  681.864
409.509;  -12.887;   -8.004;  740.396
410.102;  -14.384;   -9.875;  643.948
410.695;   -8.606;   -8.604;  665.758
411.287;   -9.974;   -6.794;  599.821
411.880;  -11.776;   -9.334;  585.421
412.472;  -14.028;  -10.254;  613.092
413.065;  -11.894;   -6.714;  629.408
413.657;   -9.453;   -7.234;  576.678
414.250;   -8.622;  -10.544;  646.681
414.842;  -10.855;   -9.744;  676.353
415.434;   -9.256;   -6.994;  570.463
416.027;   -4.558;   -5.893;  652.196
416.619;   -6.546;   -7.264;  713.400
417.211;   -6.849;  -10.374;  599.352
417.804;   -4.477;   -7.993;  628.499
418.396;   -7.605;   -7.234;  607.643
418.988;   -5.082;   -9.443;  659.238
419.580;   -8.092;  -10.724;  568.276
420.172;   -6.974;  -10.323;  536.196
420.764;   -3.055;   -8.793;  672.482
421.356;   -3.353;  -11.143;  636.898
421.948;   -3.500;   -8.293;  677.661
422.540;   -0.511;   -7.893;  680.027
423.132;   -0.442;   -7.082;  600.641
423.724;   -3.360;   -8.653;  561.267
424.316;   -1.408;  -10.213;  621.345
424.908;    1.570;   -9.762;  591.517
425.500;    3.178;   -5.572;  647.978
426.092;    3.214;   -8.422;  648.268
426.683;    2.692;   -9.283;  684.836
427.275;    4.142;   -7.852;  641.471
427.867;    5.968;   -5.272;  668.948
428.458;    7.490;   -7.682;  732.344
429.050;    5.505;  -10.612;  680.749
429.642;    7.544;   -9.882;  743.124
430.233;    8.355;   -6.962;  569.356
430.825;    9.235;   -6.842;  724.809
431.416;    7.027;   -9.672;  698.241
432.008;   10.018;   -6.552;  651.723
432.599;   11.015;   -6.891;  656.073
433.190;    7.661;  -10.912;  637.670
433.782;    7.391;  -11.172;  590.395
434.373;   13.600;   -6.061;  884.765
434.964;   13.425;   -8.251;  602.920
435.556;   10.836;   -9.722;  634.537
436.147;   14.175;   -9.082;  758.490
436.738;   13.093;   -8.041;  701.099
437.329;   18.564;   -7.341;  721.723
437.920;   11.749;   -8.162;  666.688
438.511;   12.487;  -11.802;  564.526
439.103;   18.683;  -10.191;  623.998
439.694;   20.305;   -7.601;  681.583
440.285;   20.385;   -8.541;  764.432
440.876;   19.121;   -9.751;  845.738
441.466;   18.860;   -9.401;  575.162
442.057;   23.593;   -7.760;  665.814
442.648;   22.682;   -9.971;  746.255
443.239;   21.278;  -11.001;  620.477
443.830;   25.453;   -7.990;  704.958
444.421;   27.356;   -7.910;  655.474
445.011;   24.530;   -8.131;  693.619
445.602;   24.581;   -7.111;  743.126
446.193;   24.765;  -10.920;  488.117
446.783;   30.038;   -6.500;  640.397
447.374;   25.554;   -8.671;  692.759
447.964;   25.692;  -10.781;  713.770
448.555;   33.996;   -9.650;  822.742
449.145;   31.340;   -8.660;  662.853
449.736;   31.957;   -8.990;  803.179
450.326;   32.129;   -9.500;  713.626
450.917;   36.928;   -8.680;  675.324
451.507;   35.190;   -7.520;  600.661
452.097;   36.534;   -8.590;  746.267
452.688;   37.207;  -11.340;  742.160
453.278;   36.608;  -10.100;  566.840
453.868;   41.049;   -6.019;  793.550
454.458;   39.094;   -9.440;  651.141
455.048;   39.950;  -10.560;  711.783
455.639;   40.962;  -11.799;  567.096
456.229;   44.893;   -6.899;  710.694
456.819;   47.039;   -7.389;  751.158
457.409;   46.953;  -11.119;  773.993
457.999;   49.382;   -9.289;  737.505
458.589;   49.354;   -6.139;  686.606
459.179;   49.354;   -8.729;  717.658
459.769;   48.489;   -9.789;  627.099
460.358;   51.963;  -10.259;  797.262
460.948;   51.794;   -7.299;  689.503
461.538;   53.845;  -10.289;  660.677
462.128;   52.243;  -11.269;  664.934
462.717;   58.518;   -9.368;  710.326
463.307;   61.257;   -7.908;  705.846
463.897;   57.096;   -9.599;  656.942
464.486;   57.782;   -9.769;  837.128
465.076;   60.812;   -8.048;  733.776
465.666;   64.344;   -9.358;  652.900
466.255;   62.550;   -7.919;  785.651
466.845;   61.581;  -11.689;  666.749
467.434;   64.474;   -7.818;  725.873
468.023;   64.757;   -7.678;  658.357
468.613;   63.274;  -10.939;  713.946
469.202;   67.334;  -10.118;  646.507
469.791;   71.196;   -9.108;  737.811
470.381;   73.025;   -6.058;  742.813
470.970;   72.269;  -10.428;  711.099
471.559;   72.662;  -10.268;  733.291
472.148;   75.491;   -8.448;  675.737
472.738;   78.112;   -6.917;  765.466
473.327;   78.381;  -11.978;  637.529
473.916;   77.189;  -11.888;  737.446
474.505;   81.960;   -9.437;  751.703
475.094;   84.802;   -6.747;  806.570
475.683;   83.682;   -9.367;  797.699
476.272;   85.024;  -12.637;  730.632
476.861;   87.546;  -10.027;  706.754
477.449;   93.504;   -8.716;  728.487
478.038;   88.755;   -9.577;  692.513
478.627;   89.845;   -9.718;  714.852
479.216;   96.519;   -8.947;  769.441
479.805;   98.494;   -6.256;  783.375
480.393;   98.521;   -7.937; 1008.945
480.982;   98.696;   -7.717;  874.501
481.571;  103.499;   -9.266;  858.333
482.159;  104.959;   -7.636;  705.386
482.748;  105.318;   -9.667;  821.385
483.336;  108.458;  -10.376;  858.209
483.925;  109.685;   -7.147;  774.373
484.513;  115.972;   -7.996;  758.962
485.102;  112.695;  -10.027;  810.965
485.690;  122.639;  -10.446; 1011.050
486.278;  123.124;   -8.446;  979.329
486.867;  123.514;   -6.356;  809.662
487.455;  125.870;   -9.136;  898.229
488.043;  127.227;  -10.646;  748.361
488.631;  135.492;   -7.456; 1005.079
489.220;  138.999;   -6.636;  908.626
489.808;  139.347;  -11.036;  741.415
490.396;  147.415;  -10.246;  914.645
490.984;  153.736;   -8.556;  830.161
491.572;  163.210;   -5.886;  940.315
492.160;  169.493;   -9.486;  919.081
492.748;  180.277;  -10.976;  884.341
493.336;  202.639;   -8.776; 1019.693
493.924;  228.360;   -5.465;  958.077
494.512;  256.187;   -9.986; 1066.638
495.100;  291.960;  -10.636; 1103.280
495.687;  344.745;  -10.885; 1206.373
496.275;  404.410;   -8.126; 1150.796
496.863;  470.385;  -10.586; 1281.171
497.451;  569.014;  -11.926; 1386.805
498.038;  700.114;  -10.885; 1556.729
498.626;  810.337;   -6.315; 1741.407
499.214;  945.664;   -7.326; 2016.609
499.801; 1129.869;  -11.906; 2220.633
500.389; 1383.350;  -10.466; 2312.494
500.976; 1691.921;   -5.236; 2744.849
501.564; 2102.604;   -8.936; 3148.565
502.151; 2459.927;  -13.176; 3515.999
502.738; 2907.510;  -10.646; 3971.274
503.326; 3307.685;   -9.525; 4403.796
503.913; 3671.988;  -10.856; 5161.749
504.500; 3980.339;  -11.586; 5986.420
505.088; 4437.524;  -10.336; 6381.201
505.675; 4949.561;   -6.355; 6925.547
506.262; 5575.621;   -9.046; 7619.060
506.849; 6281.043;  -10.416; 8733.969
507.436; 6711.056;  -10.305; 9790.121
508.023; 7248.008;   -5.496; 9985.472
508.610; 7520.646;   -7.856;10434.618
509.197; 8148.173;  -10.097;11198.435
509.784; 9550.971;  -10.886;12391.194
510.371;10521.102;   -9.315;13603.713
510.958;11251.198;   -9.936;14426.586
511.545;12036.534;   -9.326;15243.775
512.132;12865.683;  -10.075;15945.876
512.719;13390.358;   -7.796;16340.369
513.305;14180.771;  -10.606;18011.766
513.892;14841.597;  -11.486;19754.971
514.479;16361.274;   -9.126;20967.805
515.066;17972.195;   -6.026;22299.793
515.652;19076.539;   -8.466;22908.660
516.239;20161.252;  -10.886;23798.875
516.825;21184.041;  -11.496;25567.275
517.412;22115.383;   -5.796;28154.959
517.998;22942.977;  -10.506;28344.111
518.585;23089.473;  -10.076;27134.219
519.171;23168.492;   -8.315;27268.576
519.758;23897.373;   -8.596;28964.129
520.344;25770.115;   -8.466;30664.494
520.930;26292.660;  -11.006;32550.605
521.516;27762.314;  -10.495;35422.895
522.103;30168.340;   -5.526;38280.004
522.689;30939.832;   -8.746;37835.117
523.275;30564.041;  -11.376;37288.613
523.861;31122.848;  -11.156;37281.395
524.447;31886.734;   -8.135;37846.949
525.033;31208.264;   -7.896;38321.949
525.619;31045.900;  -12.476;38579.285
526.205;31779.936;   -9.516;40622.875
526.791;32407.863;   -6.926;42258.836
527.377;31083.178;   -8.346;42966.902
527.963;33814.355;   -8.717;42018.949
528.549;35405.426;  -11.016;42476.828
529.135;36023.188;   -8.536;41854.852
529.721;36338.395;   -9.666;41237.711
530.306;35840.680;  -10.066;41259.445
530.892;35844.598;  -11.356;41506.047
531.478;37158.555;   -6.596;43559.613
532.063;39287.371;   -8.836;47695.563
532.649;39352.453;  -10.047;50808.324
533.235;40579.137;   -9.746;51787.500
533.820;41598.410;   -6.566;52145.035
534.406;42244.199;  -10.817;51133.488
534.991;41612.711;   -9.416;49996.805
535.576;40454.055;   -9.036;48882.852
536.162;40616.395;   -6.156;46942.285
536.747;41236.074;  -11.607;45711.746
537.333;44168.805;  -11.787;48510.180
537.918;46363.324;  -12.437;50439.891
538.503;43428.426;   -7.196;50863.711
539.088;38227.520;  -10.556;50906.922
539.673;36057.832;   -8.767;52621.965
540.259;36083.773;  -10.026;52368.094
540.844;36326.605;   -7.416;50879.109
541.429;39814.324;   -9.467;52077.777
542.014;45401.578;   -9.527;52716.695
542.599;46597.617;   -9.946;52363.281
543.184;44401.734;   -7.927;53187.137
543.769;45532.520;   -9.297;54697.605
544.354;44855.293;  -10.127;53913.914
544.938;44030.098;   -9.267;49680.164
545.523;46309.691;   -6.506;47386.277
546.108;48636.008;   -9.787;49151.949
546.693;50821.645;  -11.587;51384.637
547.278;50357.730;  -10.986;51853.254
547.862;47103.695;   -8.206;51173.750
548.447;42638.605;  -10.067;51691.395
549.031;41991.684;   -9.637;52456.703
549.616;46477.855;   -9.926;52714.516
550.201;45702.719;   -6.347;52414.598
550.785;46533.867;   -7.917;52355.059
551.370;45967.207;  -10.867;54589.453
551.954;45954.590;   -9.047;58267.348
552.538;47366.465;   -7.827;59062.176
553.123;45631.680;  -10.287;58115.285
553.707;43028.559;  -12.178;56556.285
554.291;43521.094;   -8.717;56201.668
554.876;44932.844;   -7.457;55335.762
555.460;45698.469;  -10.387;54155.703
556.044;47793.402;   -9.618;53721.484
556.628;46396.219;  -11.567;53731.016
557.212;45100.352;   -8.097;54312.531
557.796;43128.797;  -11.077;53797.773
558.380;43300.363;  -11.108;56145.984
558.964;44427.488;   -9.057;57277.930
559.548;45448.145;   -6.977;56459.641
560.132;43501.180;  -11.457;54434.543
560.716;42206.961;  -11.378;54800.617
561.300;42941.719;   -9.577;57606.945
561.884;44162.359;   -7.127;58972.445
562.467;43181.043;   -7.118;57327.570
563.051;42705.113;  -13.358;54962.434
563.635;42922.582;  -10.178;52594.473
564.219;42954.332;   -7.837;50610.410
564.802;43730.578;  -11.398;49551.180
565.386;44250.027;  -12.788;48370.953
565.969;43981.656;   -9.077;48178.871
566.553;43148.156;   -6.207;49957.305
567.136;43260.824;   -8.568;50369.594
567.720;39581.211;  -11.868;49492.004
568.303;37667.230;   -8.268;50616.352
568.887;37571.906;   -8.698;50727.148
569.470;37727.492;   -6.808;51698.379
570.053;36645.242;  -13.188;52122.078
570.637;35637.434;  -12.037;52536.438
571.220;35217.887;   -8.577;51186.098
571.803;35337.113;   -8.498;51032.762
572.386;37162.836;  -10.498;49609.887
572.969;39794.148;   -9.388;48285.926
573.552;38379.652;   -8.338;47624.285
574.135;37311.152;   -8.518;45498.641
574.718;34906.848;  -13.628;41970.434
575.301;33695.863;  -10.893;41447.137
575.884;32484.881;   -8.158;40923.836
576.467;33539.293;  -10.328;45267.723
577.050;35780.984;  -13.058;48175.543
577.633;37479.703;   -9.458;47729.328
578.216;36466.156;   -8.928;47579.793
578.799;35524.875;   -9.358;47820.996
579.381;34123.371;  -11.388;48115.551
579.964;32459.676;  -11.718;47333.766
580.547;33804.070;   -8.588;46668.969
581.129;34703.594;   -8.859;44466.141
581.712;35064.969;  -10.729;44164.922
582.294;35857.250;  -11.118;46477.855
582.877;36121.387;   -5.218;48244.254
583.459;34071.121;   -8.679;47437.895
584.042;32559.650;  -10.709;46943.219
584.624;33235.555;  -11.669;46792.227
585.206;32516.184;   -8.218;46557.250
585.789;32400.744;  -10.569;45793.773
586.371;35282.277;  -11.859;43836.391
586.953;35989.680;  -10.719;42972.492
587.536;36856.465;   -7.198;42487.211
588.118;36925.012;   -8.720;42086.414
588.700;33561.945;  -10.439;43389.930
589.282;32687.613;   -9.198;43646.039
589.864;33399.586;   -9.199;43438.109
590.446;34426.000;  -11.319;43151.926
591.028;34374.719;  -11.159;42781.867
591.610;33466.742;  -11.779;42839.098
592.192;30687.014;   -7.668;42820.402
592.774;29056.508;  -11.949;40724.277
593.356;27840.789;  -12.129;39874.789
593.937;27164.367;  -10.669;39980.648
594.519;28987.271;   -6.509;42069.633
595.101;31313.555;  -10.849;42976.031
595.683;31627.471;  -11.679;44084.441
596.264;32774.500;   -9.049;43478.797
596.846;31732.324;   -8.849;43803.672
597.427;31267.889;   -9.570;42986.934
598.009;33063.348;  -12.620;42832.219
598.591;33563.355;  -10.039;42580.086
599.172;32802.895;  -10.369;43061.805
599.753;32828.977;   -9.140;41691.469
600.335;34454.473;  -11.430;40692.520
600.916;33071.406;   -9.939;39982.422
601.498;30341.639;   -8.479;40318.617
602.079;28894.271;  -10.920;40670.609
602.660;28795.924;  -11.480;41450.898
603.241;30037.990;  -11.699;41137.738
603.823;29152.629;   -9.579;38868.797
604.404;28836.484;  -10.620;38182.785
604.985;30204.301;  -10.450;38078.047
605.566;29518.469;   -9.129;38056.633
606.147;29374.453;   -7.510;37020.418
606.728;31486.053;  -10.660;37883.359
607.309;30676.729;  -11.740;38748.273
607.890;29904.545;   -9.759;38850.230
608.471;29610.479;   -8.250;37457.918
609.051;28844.457;   -9.240;36066.457
609.632;27858.080;  -12.120;35991.074
610.213;28787.703;   -9.110;37402.641
610.794;29404.010;   -8.030;38383.363
611.374;28510.344;   -8.110;40562.387
611.955;28685.105;  -13.560;38533.727
612.536;30201.529;  -11.400;36951.789
613.116;29955.227;   -8.070;37197.891
613.697;30408.910;  -10.830;38411.125
614.277;28952.902;  -11.641;38673.938
614.858;29725.320;  -13.310;37075.863
615.438;29019.725;   -7.460;35092.906
616.019;26315.570;   -7.601;33666.301
616.599;27070.443;  -12.020;34189.023
617.179;29043.852;  -11.780;36952.047
617.760;29869.094;   -8.570;39582.574
618.340;31193.008;  -11.471;38943.977
618.920;32838.938;  -11.170;37594.156
619.500;32328.342;  -11.071;37866.938
620.080;31418.729;   -7.750;37869.043
620.660;32305.455;  -12.711;36868.617
621.241;33013.441;  -10.211;36352.309
621.821;33136.586;  -10.961;35459.520
622.401;32855.207;   -7.720;35207.414
622.980;32047.629;   -8.981;35980.422
623.560;30494.348;   -9.331;37351.328
624.140;29646.750;   -9.850;34388.582
624.720;24871.205;   -7.451;32368.764
625.300;21191.865;   -9.070;32638.629
625.880;24393.590;  -12.601;34599.035
626.459;28110.971;  -11.751;36831.738
627.039;31126.875;   -9.281;38299.098
627.619;31174.986;   -8.801;38289.574
628.198;29527.494;  -12.071;37220.695
628.778;28902.326;   -9.461;37632.563
629.357;29659.059;   -8.491;38003.012
629.937;29422.148;   -9.721;38402.039
630.516;28747.445;   -9.951;37868.801
631.096;28643.912;  -11.731;35760.410
631.675;31352.031;   -8.572;35225.219
632.254;36362.141;  -11.282;35130.289
632.834;35786.926;  -13.322;35794.570
633.413;33989.883;  -10.301;35788.922
633.992;31181.521;   -8.582;34532.863
634.571;32252.156;   -8.352;33590.113
635.151;35294.645;  -11.912;34943.863
635.730;33673.754;  -10.511;35352.523
636.309;30255.596;   -7.731;35366.605
636.888;27602.551;   -9.952;36165.637
637.467;28300.750;  -11.672;37515.902
638.046;30303.027;   -8.901;39288.695
638.625;33340.070;   -7.912;38279.699
639.204;33154.402;  -10.022;37741.598
639.782;31267.652;  -12.252;38364.551
640.361;27745.564;  -10.041;36740.621
640.940;24782.281;  -11.161;34950.082
641.519;25097.238;   -9.701;34137.398
642.097;27694.283;  -11.271;35654.258
642.676;30716.123;   -8.651;35637.957
643.255;31682.307;   -8.711;36567.074
643.833;30720.131;   -9.581;37809.434
644.412;30999.840;  -13.711;37337.293
644.990;30390.953;  -11.811;37018.531
645.569;30132.553;   -9.411;36518.469
646.147;28944.846;  -10.291;36186.430
646.726;28304.711;  -12.401;36267.688
647.304;29804.846;  -10.411;36647.625
647.882;31709.176;   -9.651;39286.742
648.461;33098.309;   -9.631;39157.703
649.039;31699.844;  -11.881;35412.883
649.617;31364.740;   -9.661;34744.918
650.195;31242.195;   -9.301;35403.098
650.773;30097.158;  -10.511;35053.797
651.352;27290.980;  -11.521;33756.816
651.930;24931.928;  -12.211;31868.773
652.508;23448.783;   -9.171;33121.551
653.086;27106.941;   -9.371;33564.793
653.663;30053.762;  -13.161;34054.668
654.241;28880.934;  -13.031;35693.309
654.819;30611.590;   -9.371;36422.906
655.397;30780.426;  -10.511;38213.484
655.975;30553.426;  -10.371;39507.625
656.553;30695.018;  -10.051;39498.223
657.130;28950.623;  -10.061;40395.480
657.708;28080.973;   -9.561;39242.020
658.286;27961.756;  -11.511;38920.020
658.863;29284.717;  -10.261;40202.898
659.441;31925.824;   -7.531;39677.938
660.018;30988.408;   -9.501;40413.355
660.596;30054.479;  -13.301;39931.414
661.173;32263.559;  -11.211;39604.531
661.750;32205.963;   -9.951;39700.070
662.328;30939.623;   -9.390;39292.809
662.905;30303.008;  -11.330;38235.648
663.482;26342.898;   -9.050;36212.305
664.060;24350.793;   -8.240;35944.945
664.637;26786.457;  -10.050;35170.785
665.214;28755.777;  -11.760;34197.523
665.791;30575.121;  -10.530;34549.520
666.368;29216.398;   -9.690;35118.578
666.945;29610.225;   -9.320;36019.418
667.522;31242.996;  -11.860;36048.438
668.099;31641.254;  -10.770;36243.914
668.676;31169.035;   -6.260;35958.875
669.253;29515.672;   -7.000;37384.730
669.830;29952.678;  -10.190;36779.629
670.407;29520.135;   -9.550;35231.289
670.984;29561.018;   -9.260;35544.270
671.560;29869.100;   -9.280;35466.867
672.137;28666.008;  -11.810;34280.863
672.714;29389.049;  -11.490;34632.863
673.290;29519.199;   -7.740;35135.422
673.867;29609.734;  -10.660;36114.480
674.443;30072.500;  -12.230;36152.859
675.020;28614.625;  -10.450;35327.238
675.596;29550.080;   -9.260;35795.176
676.173;29943.229;  -10.780;35430.355
676.749;29693.389;  -13.690;33549.516
677.326;30032.256;  -11.980;32210.012
677.902;30282.199;   -8.630;32068.871
678.478;29423.473;  -10.730;32583.891
679.054;29071.596;  -10.520;32088.928
679.631;29847.686;  -11.920;30978.848
680.207;30849.816;   -7.490;33160.887
680.783;32134.385;   -9.860;35570.363
681.359;31337.766;  -13.380;36125.184
681.935;30323.822;  -12.480;35240.922
682.511;28921.857;   -7.900;34429.961
683.087;28702.295;   -7.710;34463.680
683.663;28668.898;  -11.480;34648.898
684.239;28043.670;  -14.090;34546.457
684.815;27790.412;   -7.560;35586.375
685.390;28228.678;   -9.910;35821.895
685.966;28815.059;  -11.159;35085.871
686.542;31505.869;  -11.169;34198.230
687.118;33494.270;   -5.959;32847.707
687.693;33493.586;  -10.329;32794.027
688.269;32753.207;  -12.059;33072.367
688.844;30751.477;  -10.909;33141.664
689.420;28745.102;   -8.019;33965.742
689.995;26353.422;   -8.399;34655.523
690.571;25136.250;  -10.949;33576.742
691.146;25768.582;   -9.619;32657.219
691.722;25076.295;   -8.999;32526.979
692.297;24789.957;  -11.589;33014.617
692.872;26906.564;  -11.739;34012.254
693.448;26449.756;  -11.059;34237.434
694.023;25647.586;  -10.139;34142.672
694.598;27641.332;   -9.029;34132.031
695.173;27780.035;  -13.319;34205.250
695.748;27384.098;  -10.169;32882.488
696.323;27468.953;   -8.339;32864.906
696.898;27476.008;   -8.169;33170.004
697.473;27068.559;  -12.309;32432.984
698.048;26848.775;  -10.989;31649.303
698.623;27331.303;   -9.329;30778.141
699.198;29317.988;   -9.849;31140.119
699.773;30042.738;  -12.329;31764.299
700.348;28358.502;  -10.389;31780.816
700.922;28499.619;   -9.269;32046.375
701.497;29015.154;   -9.329;32603.574
702.072;29179.760;  -10.789;34799.871
702.646;28226.068;  -10.839;35793.172
703.221;26040.375;   -9.099;35201.590
703.795;28111.990;  -10.939;34764.527
704.370;28764.273;  -12.859;34307.367
704.944;29273.928;  -11.559;33509.887
705.519;30354.271;   -7.939;31388.584
706.093;31411.373;  -10.499;31340.104
706.668;31545.760;  -11.289;32630.281
707.242;30043.822;  -11.509;32728.779
707.816;28330.580;   -9.639;32947.238
708.390;27103.535;  -11.429;33277.855
708.965;28030.564;  -11.869;33834.336
709.539;28564.764;  -11.689;33709.273
710.113;29282.980;  -10.478;33044.313
710.687;28705.848;  -10.228;31953.992
711.261;26511.330;  -13.698;30505.949
711.835;26146.148;  -13.378;30262.369
712.409;27151.268;   -9.698;31254.447
712.983;28672.012;  -11.898;32754.986
713.557;29496.555;  -15.138;34018.824
714.131;29246.424;  -14.098;34579.625
714.704;28306.947;   -9.958;33890.262
715.278;25887.262;  -10.028;33531.102
715.852;25213.666;  -11.148;33601.660
716.425;26050.436;   -9.068;33515.117
716.999;26471.877;  -10.038;33185.555
717.573;27473.891;   -9.798;33905.996
718.146;28742.648;  -12.378;35199.293
718.720;28365.875;  -11.918;35060.551
719.293;27719.289;   -8.088;34973.230
719.867;30662.959;  -10.888;36394.449
720.440;30784.984;  -11.938;36663.008
721.013;29408.416;  -12.818;35102.426
721.587;27921.361;  -10.298;33985.266
722.160;26114.703;  -10.048;33524.965
722.733;25084.854;  -12.108;32987.043
723.306;25813.275;  -10.818;33066.301
723.880;28137.014;   -8.908;33399.500
724.453;30069.176;   -9.878;33468.297
725.026;29020.258;  -11.188;33816.637
725.599;26294.857;  -11.678;32797.996
726.172;26716.801;   -9.618;33187.434
726.745;28082.404;   -8.258;35136.613
727.318;29791.309;  -12.978;35751.730
727.891;30495.664;  -12.148;35890.430
728.463;30351.414;   -8.968;34822.090
729.036;29284.068;  -10.188;32895.086
729.609;29479.949;  -11.788;31823.225
730.182;26133.699;  -11.788;31445.283
730.754;23577.102;  -10.268;32373.223
731.327;23537.102;   -9.998;33676.820
731.900;23560.268;  -12.228;33417.000
732.472;25158.012;  -13.848;31978.498
733.045;27477.680;   -8.698;30368.777
733.617;27455.557;  -10.607;30574.215
734.190;26800.039;  -11.507;31280.975
734.762;23922.396;  -13.647;31674.412
735.334;22353.482;   -9.767;31247.291
735.907;22814.717;   -9.897;29876.211
736.479;22554.039;  -11.637;29808.488
737.051;22231.842;   -9.567;30233.547
737.623;23790.201;   -8.187;31469.086
738.195;24954.510;  -11.187;31784.225
738.768;26556.295;  -12.337;32120.523
739.340;26304.816;  -12.227;32094.342
739.912;25040.406;  -11.057;31312.680
740.484;23885.738;  -10.207;31946.238
741.056;22944.686;  -10.047;32984.059
741.628;24852.654;  -13.627;33897.715
742.199;27234.090;   -7.177;33213.016
742.771;25442.129;  -10.797;31369.113
743.343;22947.338;  -11.997;31865.473
743.915;21709.334;  -12.867;32388.631
744.487;21925.938;   -7.617;31079.568
745.058;22248.010;   -9.557;30570.107
745.630;23000.072;   -9.877;29970.127
746.201;23850.502;  -14.177;29186.766
746.773;24079.867;   -9.237;28805.723
747.344;23852.088;   -9.847;29591.223
747.916;22399.672;  -11.657;31412.201
748.487;22247.158;  -10.587;32194.898
749.059;23515.115;   -8.707;32533.719
749.630;24637.227;  -10.537;32158.518
750.201;23604.656;  -11.687;30855.395
750.773;21834.648;  -11.647;28622.555
751.344;22035.963;   -7.147;28405.732
751.915;23137.256;   -9.757;28461.551
752.486;22293.902;  -12.427;27842.850
753.057;19895.494;  -12.227;27845.008
753.628;18773.344;  -10.417;27728.107
754.199;20101.689;  -11.767;27381.086
754.770;21348.395;  -11.187;25882.203
755.341;21311.223;  -10.507;25886.184
755.912;21478.836;   -9.387;26050.861
756.483;20742.658;  -10.647;26798.779
757.054;18877.840;  -11.837;27048.238
757.625;17697.211;  -12.716;26294.838
758.195;17389.025;   -9.666;26142.076
758.766;17024.354;   -8.656;26392.234
759.337;18000.131;  -12.856;26334.594
759.907;20071.385;  -13.366;27579.652
760.478;21017.627;   -8.576;28352.770
761.048;20500.941;  -10.526;27325.088
761.619;19768.850;  -11.116;26460.428
762.189;19508.150;  -12.136;26029.826
762.760;20300.264;   -9.456;26430.145
763.330;21502.480;   -7.136;26670.902
763.900;20859.215;  -11.786;26603.021
764.471;18082.340;  -11.546;25542.740
765.041;16923.514;   -8.096;24358.459
765.611;17295.670;   -8.876;23991.297
766.181;17853.574;  -12.196;24470.236
766.751;18519.070;  -11.636;24845.975
767.321;18369.719;  -10.156;24533.633
767.891;16574.891;  -11.766;24916.492
768.461;16057.135;  -14.936;24776.771
769.031;16499.162;  -12.356;24757.988
769.601;18207.924;   -7.526;24181.088
770.171;18106.674;  -10.766;23670.387
770.741;17110.928;  -13.176;22960.045
771.311;17204.895;  -10.616;22917.523
771.880;17431.613;   -9.576;23562.941
772.450;16808.219;  -10.336;24216.500
773.020;16792.010;  -13.516;24140.398
773.589;16600.842;  -13.466;24414.857
774.159;16227.922;   -8.686;23858.717
774.729;15821.078;   -9.476;22942.135
775.298;15253.142;  -13.666;22324.033
775.867;14862.314;  -11.716;21140.313
776.437;14857.190;   -9.906;20838.092
777.006;14498.922;  -12.166;20599.510
777.576;14521.856;  -12.356;20508.809
778.145;14745.341;  -11.646;20732.947
778.714;14588.431;   -8.226;21062.465
779.283;13681.934;   -9.556;20949.664
779.853;13287.948;  -14.116;20508.623
780.422;13769.136;  -11.506;20649.082
780.991;13328.868;   -9.556;21527.520
781.560;12313.931;   -9.095;22632.658
782.129;12192.383;  -12.135;23048.277
782.698;12228.533;  -10.865;23438.555
783.267;11860.516;   -9.335;23267.734
783.836;11757.689;  -11.045;22415.133
784.404;12746.183;  -13.865;20443.152
784.973;13165.003;  -13.095;19699.150
785.542;12938.080;  -11.575;19763.828
786.111;12800.689;   -9.705;20341.408
786.679;12436.380;  -12.105;20207.967
787.248;12235.142;  -12.455;19516.465
787.817;12045.708;  -11.535;18900.363
788.385;11627.704;   -9.765;17879.121
788.954;10967.962;  -14.005;17658.301
789.522;10516.552;  -11.955;17788.879
790.090;11125.976;  -10.135;18118.277
790.659;11474.235;  -10.975;18338.736
791.227;10883.132;  -13.375;18508.615
791.795;11334.717;  -12.375;17898.254
792.364;11769.483;  -10.725;17295.133
792.932;12081.328;   -9.715;16822.051
793.500;12224.377;  -12.675;17040.148
794.068;12454.510;  -13.495;17179.787
794.636;12614.642;  -10.885;16664.246
795.204;12129.298;  -11.045;16524.545
795.772;12149.906;  -13.175;17274.564
796.340;11654.537;  -12.445;17891.002
796.908;11499.227;   -9.735;17648.561
797.476;11487.258;   -9.815;17064.080
798.044;11062.727;  -13.985;16672.777
798.612;10179.174;  -13.115;17023.996
799.180; 9822.836;  -10.185;16561.615
799.747; 9722.417;   -9.055;15962.773
800.315; 9396.479;  -12.385;15296.992
800.883; 9072.409;  -15.035;14801.771
801.450; 9028.474;  -10.365;14534.430
802.018; 9042.260;   -9.855;14173.248
802.585; 9117.876;  -11.905;14029.547
803.153; 9191.932;  -11.585;13836.846
803.720; 9114.059;   -9.095;13567.324
804.287; 8804.305;   -9.135;13360.622
804.855; 8365.818;  -11.604;13681.981
805.422; 8195.461;  -11.794;13536.560
805.989; 8147.516;  -10.734;13355.958
806.556; 8273.426;  -10.444;13747.896
807.124; 8532.831;  -12.764;13987.376
807.691; 8457.566;  -12.964;14038.674
808.258; 8285.197;  -11.134;14120.152
808.825; 8007.560;   -9.854;13860.111
809.392; 8059.039;  -10.504;13268.790
809.959; 7556.959;  -13.054;12680.389
810.526; 7140.690;   -8.294;12427.308
811.093; 7194.607;   -8.394;12030.105
811.659; 7794.278;  -12.304;11653.664
812.226; 8240.530;  -13.944;11637.183
812.793; 7921.722;  -10.484;11611.521
813.360; 7299.262;  -10.144;11885.181
813.926; 6911.906;  -11.684;12770.539
814.493; 6616.869;  -13.644;12677.638
815.060; 6250.215;   -9.724;11974.336
815.626; 6345.251;   -9.854;11594.715
816.193; 6816.304;  -13.254;11579.474
816.759; 6847.345;  -13.204;11666.972
817.325; 6953.597;   -9.434;11325.530
817.892; 7295.481;  -10.134;11105.369
818.458; 7680.844;  -13.474;10843.928
819.024; 7340.191;  -11.854;10714.406
819.591; 6976.827;  -10.244;10469.165
820.157; 6693.184;  -10.704;10235.523
820.723; 6158.393;  -12.324;10847.563
821.289; 5892.884;   -9.444;11040.980
821.855; 5858.643;   -8.374;10357.100
822.421; 5928.985;  -10.234; 9978.918
822.987; 5914.243;  -13.294; 9754.177
823.553; 5599.472;  -10.884;10065.755
824.119; 5424.550;   -8.884;10036.294
824.685; 5489.707;   -6.784;10029.192
825.251; 5553.781;  -12.004;10199.230
825.816; 5495.706;  -11.474; 9820.189
826.382; 5292.565;   -9.174; 9297.248
826.948; 5502.277;   -9.214; 9381.347
827.513; 5918.323;  -10.774; 9450.726
828.079; 5742.960;  -11.924; 9472.444
828.645; 5155.166;  -10.543; 9292.643
829.210; 5061.092;  -10.533; 9065.341
829.776; 5037.448;  -10.753; 9132.620
830.341; 4907.838;  -10.173; 9092.878
830.906; 5087.742;  -10.743; 9078.557
831.472; 5453.706;  -11.113; 8534.535
832.037; 5217.990;  -10.603; 8677.874
832.602; 4653.749;  -13.323; 8628.692
833.167; 4323.195;  -10.823; 8879.031
833.733; 4252.151;  -10.113; 9189.790
834.298; 4360.643;  -13.583; 9052.608
834.863; 4376.467;  -12.703; 8895.087
835.428; 4332.541;  -10.523; 8824.266
835.993; 4240.893;   -6.963; 8845.385
836.558; 4130.125;  -10.763; 8888.563
837.123; 4270.448;   -9.903; 8966.582
837.688; 4475.384;   -9.913; 8617.860
838.253; 4675.857;  -10.283; 8590.699
838.817; 4873.088;  -12.963; 8443.797
839.382; 4794.351;  -14.243; 8799.356
839.947; 4483.602;  -10.733; 8810.595
840.511; 4176.205;   -9.383; 8796.394
841.076; 3820.660;  -12.563; 8347.231
841.641; 3874.083;  -12.953; 8224.330
842.205; 3951.746;   -7.043; 8223.349
842.770; 4086.765;   -8.163; 8622.107
843.334; 4324.275;  -12.503; 8410.386
843.898; 4300.076;  -11.693; 8337.465
844.463; 4335.640;  -10.203; 8506.283
845.027; 4088.834;   -9.533; 8280.962
845.591; 3895.010;  -13.443; 8231.141
846.156; 3903.097;  -13.143; 7969.179
846.720; 3761.218;   -9.433; 7768.278
847.284; 3639.461;  -11.033; 7630.957
847.848; 3473.203;  -10.403; 7472.395
848.412; 3387.156;  -11.553; 7437.394
848.976; 3454.785;   -8.393; 7674.592
849.540; 3408.510;   -8.713; 7836.011
850.104; 3508.044;  -12.463; 7913.669
850.668; 3854.845;  -12.973; 7694.508
851.232; 3960.470;  -10.793; 7756.887
851.796; 3781.041;  -10.662; 7926.545
852.359; 3477.760;  -13.082; 7827.844
852.923; 3320.194;  -12.192; 7641.163
853.487; 3132.797;  -11.912; 7342.501
854.050; 3058.042;  -10.892; 7042.820
854.614; 3205.942;  -13.992; 7151.338
855.177; 3338.001;  -11.732; 7105.077
855.741; 3398.485;   -8.962; 6989.675
856.304; 3290.791;   -9.442; 6596.634
856.868; 3206.515;  -14.192; 6356.272
857.431; 3311.123;  -12.702; 6468.571
857.995; 3423.593;   -9.942; 6373.210
858.558; 3436.223;   -9.112; 6324.448
859.121; 3178.026;  -12.932; 6408.327
859.684; 3072.802;  -13.442; 6347.886
860.247; 3207.641;  -10.632; 6321.264
860.810; 3187.344;  -11.272; 6301.903
861.374; 2938.960;   -9.832; 6607.881
861.937; 2684.202;  -11.762; 6408.200
862.500; 2646.442;   -9.722; 6572.639
863.062; 2806.312;  -10.512; 6387.297
863.625; 2997.921;  -11.232; 6190.836
864.188; 3155.893;  -14.112; 5807.254
864.751; 3191.732;  -11.302; 5682.413
865.314; 3068.249;  -10.112; 5547.492
865.876; 2892.742;  -12.182; 5500.150
866.439; 2910.278;  -10.722; 5415.909
867.002; 2868.759;   -9.252; 5501.567
867.564; 2643.923;   -9.572; 5413.946
868.127; 2420.963;  -13.142; 5160.325
868.689; 2345.435;  -12.902; 5133.183
869.252; 2288.513;   -9.732; 5252.382
869.814; 2211.349;   -9.432; 5297.141
870.377; 2225.258;  -11.552; 5390.919
870.939; 2294.671;   -9.052; 5599.898
871.501; 2341.676;  -10.982; 5248.336
872.063; 2340.103;  -12.292; 4854.235
872.626; 2307.067;  -14.912; 4817.074
873.188; 2321.502;  -13.112; 4987.732
873.750; 2270.030;  -13.442; 4868.651
874.312; 2158.719;   -9.402; 4779.330
874.874; 2073.749;  -11.062; 4866.348
875.436; 2004.482;  -13.931; 4718.887
875.998; 2003.305;   -9.561; 4660.005
876.560; 2010.140;  -11.321; 4462.964
877.122; 1937.528;  -12.221; 4145.042
877.683; 1837.332;  -12.191; 4056.481
878.245; 1788.814;  -12.101; 3950.740
878.807; 1892.062;   -8.971; 4058.958
879.369; 2019.352;  -12.071; 3954.677
879.930; 1979.360;  -14.621; 3941.495
880.492; 1856.325;  -10.311; 4067.014
881.053; 1604.054;  -10.901; 3859.633
881.615; 1201.951;  -14.411; 3776.071
882.176;  913.807;  -13.761; 3734.750
882.738;  831.649;   -9.181; 3678.489
883.299;  855.988;  -11.791; 3405.407
883.860;  919.600;  -13.121; 3351.106
884.422;  987.158;  -11.211; 3394.044
884.983; 1010.004;  -10.091; 3166.443
885.544;  984.511;   -8.461; 3189.802
886.105;  951.542;  -12.361; 3160.360
886.666;  918.683;  -14.141; 3093.059
887.227;  885.730;  -11.361; 2941.957
887.788;  837.860;  -11.401; 2974.836
888.349;  793.127;  -13.791; 2721.214
888.910;  800.906;  -13.191; 2696.493
889.471;  818.591;   -9.881; 2560.172
890.032;  809.905;   -9.881; 2558.190
890.593;  789.598;  -10.371; 2567.669
891.153;  765.875;  -13.301; 2460.307
891.714;  722.219;  -11.431; 2372.046
892.275;  689.058;  -11.291; 2309.505
892.835;  655.288;  -11.471; 2382.543
893.396;  603.361;  -11.541; 2295.502
893.956;  553.095;  -11.181; 2162.420
894.517;  519.213;  -11.741; 2125.439
895.077;  514.232;  -11.671; 2086.978
895.638;  512.539;  -11.311; 2126.316
896.198;  485.150;   -9.831; 1838.275
896.758;  442.776;   -8.421; 1892.813
897.319;  412.086;  -12.351; 1792.232
897.879;  395.837;  -13.511; 1762.751
898.439;  370.275;  -12.001; 1661.149
898.999;  346.638;  -10.180; 1781.468
899.559;  338.641;  -12.030; 1703.347
900.119;  334.613;  -15.710; 1537.525
900.679;  331.211;   -8.900; 1638.384
901.239;  318.826;   -8.340; 1527.902
901.799;  309.412;  -13.910; 1456.441
902.359;  302.075;  -13.460; 1357.140
902.919;  294.668;  -11.490; 1331.118
903.479;  281.869;  -12.110; 1317.257
904.038;  260.257;  -11.720; 1262.595
904.598;  244.262;  -13.610; 1152.034
905.158;  239.237;  -11.040; 1240.893
905.717;  233.881;  -10.900; 1233.691
906.277;  222.642;  -15.080; 1217.330
906.836;  213.601;  -13.380; 1222.408
907.396;  205.613;  -10.780; 1193.047
907.955;  199.565;   -8.500; 1182.526
908.515;  194.351;  -12.760; 1099.364
909.074;  187.698;  -11.900; 1092.863
909.633;  181.652;   -8.950; 1069.121
910.192;  176.917;   -8.770; 1196.460
910.752;  171.516;  -12.390; 1029.960
911.311;  165.858;  -13.680; 1009.780
911.870;  162.241;  -12.370;  971.460
912.429;  161.518;  -10.900; 1094.080
912.988;  157.488;  -11.690; 1081.060
913.547;  153.301;  -13.240;  940.380
914.106;  149.892;  -11.990;  999.420
914.665;  148.092;   -9.990;  984.020
915.224;  147.043;  -12.880; 1035.760
915.782;  147.530;  -12.350;  922.560
916.341;  146.483;   -9.110; 1049.840
916.900;  143.487;   -9.270;  925.260
917.458;  142.184;  -13.240;  884.220
918.017;  141.999;  -13.550;  942.600
918.576;  141.102;  -12.320;  904.440
919.134;  139.991;  -11.490;  837.980
919.693;  138.072;  -13.670;  893.060
920.251;  136.314;  -15.470;  876.500
920.809;  134.796;  -11.290;  839.580
921.368;  134.256;  -10.210;  885.360
921.926;  134.543;  -12.140;  842.940
922.484;  133.247;  -13.080;  903.360
923.042;  132.079;  -11.720;  880.340
923.601;  133.920;   -7.480;  998.680
924.159;  133.658;  -11.570;  935.560
924.717;  130.198;  -13.840;  841.080
925.275;  130.098;  -10.640;  903.240
925.833;  130.282;  -11.540;  779.320
926.391;  131.366;  -12.960;  938.380
926.949;  129.500;  -14.130;  857.680
927.506;  129.666;  -11.750;  903.500
928.064;  129.356;  -10.250;  877.580
928.622;  129.313;  -13.030;  880.100
929.180;  128.410;  -13.400;  814.180
929.737;  129.770;  -10.700;  808.540
930.295;  132.922;  -10.070;  928.480
930.853;  134.807;  -11.960;  849.100
931.410;  135.351;  -13.120;  821.120
931.968;  133.971;  -10.770;  940.660
932.525;  135.106;  -10.680;  909.380
933.082;  134.421;  -13.130;  811.440
933.640;  137.054;  -13.210;  925.900
934.197;  133.545;  -11.060;  886.360
934.754;  134.617;   -9.580;  897.780
935.312;  137.739;  -14.000;  863.340
935.869;  141.919;  -10.710; 1012.980
936.426;  141.405;   -9.860;  872.800
936.983;  142.893;   -9.710;  889.020
937.540;  142.302;  -13.990;  838.280
938.097;  141.514;  -14.040;  940.120
938.654;  141.010;  -10.310;  898.860
939.211;  143.630;  -10.560;  952.480
939.768;  147.594;  -13.900;  915.420
940.324;  150.658;  -14.760;  904.200
940.881;  151.175;  -10.370;  878.500
941.438;  151.750;   -8.260; 1021.200
941.995;  148.240;  -12.540;  992.560
942.551;  145.471;  -14.670;  875.620
943.108;  146.217;  -10.450;  937.920
943.664;  148.877;  -10.750;  869.340
944.221;  151.859;  -11.550; 1088.140
944.777;  149.327;  -14.770;  869.680
945.334;  151.446;  -12.820;  884.840
945.890;  153.333;  -10.130;  946.480
946.446;  153.823;  -13.470;  947.020
947.003;  154.256;  -12.120;  964.940
947.559;  157.083;   -9.980; 1063.040
948.115;  155.960;   -9.080; 1026.540
948.671;  154.280;  -10.830;  967.300
949.227;  150.426;  -12.440;  859.560
949.783;  147.277;  -12.910;  858.900
950.339;  149.919;  -10.270;  991.000
950.895;  149.549;  -13.630; 1023.840
951.451;  150.180;  -15.100;  925.280
952.007;  150.976;  -11.330;  998.540
952.563;  151.874;  -10.580;  937.780
953.118;  151.973;  -13.440;  904.940
953.674;  151.262;  -12.710;  935.780
954.230;  150.456;  -10.350;  949.640
954.785;  148.350;   -9.190;  936.640
955.341;  145.751;  -11.200;  998.160
955.897;  144.319;  -16.560;  834.660
956.452;  144.368;  -12.570;  953.840
957.008;  143.152;   -7.970; 1083.640
957.563;  140.753;  -11.940; 1009.540
958.118;  136.396;  -13.450;  877.700
958.674;  136.444;  -12.030;  946.780
959.229;  138.382;   -9.410; 1013.980
959.784;  135.056;  -12.000;  832.400
960.339;  134.571;  -14.780; 1001.280
960.894;  130.908;   -9.860;  963.760
961.449;  128.015;   -9.970;  859.960
962.004;  128.603;  -10.900; 1212.840
962.559;  122.655;  -13.150;  860.140
963.114;  121.113;  -13.740;  742.480
963.669;  120.719;   -9.820;  915.500
964.224;  119.445;  -13.890;  874.340
964.779;  118.799;  -12.600;  828.420
965.334;  119.709;  -10.950; 1017.860
965.888;  118.580;  -11.170;  875.360
966.443;  121.242;  -12.540;  972.380
966.998;  120.051;  -15.780;  819.460
967.552;  119.239;   -9.760;  908.380
968.107;  115.443;   -9.060;  868.300
968.661;  116.842;  -11.950;  922.440
969.216;  117.883;  -12.800;  856.280
969.770;  117.398;  -11.210;  917.200
970.324;  116.998;  -11.610;  923.140
970.879;  113.534;  -11.370;  947.180
971.433;  109.975;  -12.540;  952.720
971.987;  105.066;  -11.320;  895.340
972.541;  103.097;  -10.720;  917.100
973.095;  102.208;   -9.680; 1009.460
973.649;  100.961;  -11.440;  809.480
974.203;  100.038;  -11.210;  829.040
974.757;  100.297;  -10.240;  855.220
975.311;  100.098;  -13.720;  872.600
975.865;   99.488;  -13.770;  881.820
976.419;   97.512;  -11.690;  857.400
976.973;   97.594;   -9.510;  849.620
977.526;   99.612;  -12.620;  949.920
978.080;   99.415;  -12.010;  796.780
978.634;  100.649;  -10.170;  921.320
979.187;   97.978;   -9.020;  905.400
979.741;   95.739;   -9.820; 1018.380
980.294;   90.793;  -14.870;  789.160
980.848;   87.563;  -12.380;  717.220
981.401;   90.748;  -10.350;  816.540
981.955;   93.093;  -13.720;  844.300
982.508;   92.086;  -11.490;  746.340
983.061;   92.023;  -10.000;  915.260
983.615;   88.601;  -11.480;  798.800
984.168;   85.496;  -13.220;  770.080
984.721;   84.059;  -13.960;  880.760
985.274;   83.797;  -10.870;  867.500
985.827;   82.619;   -9.790;  834.220
986.380;   79.741;  -13.120;  721.340
986.933;   79.175;  -12.450;  864.800
987.486;   76.489;  -10.210;  861.920
988.039;   76.590;   -8.430;  863.100
988.591;   75.129;  -10.520;  893.260
989.144;   72.266;  -14.860;  737.260
989.697;   70.394;  -13.080;  758.740
990.250;   71.807;  -10.150;  858.100
990.802;   71.499;  -13.430;  755.860
991.355;   71.752;  -12.750;  974.880
991.907;   69.568;  -12.040;  864.320
992.460;   67.384;  -11.330;  753.760
993.012;   66.487;  -13.610;  749.540
993.565;   65.895;  -13.460;  711.360
994.117;   66.322;   -9.360;  950.780
994.669;   63.285;  -11.300;  701.320
995.221;   61.589;  -13.540;  791.920
995.774;   59.698;  -13.430;  787.580
996.326;   57.534;  -12.520;  740.220
996.878;   57.754;  -10.950;  838.420
997.430;   56.056;  -14.300;  699.860
997.982;   54.671;  -13.760;  750.140
998.534;   53.698;  -11.530;  739.060
999.086;   52.788;  -10.310;  738.220
999.638;   51.980;  -12.530;  661.380
1000.190;   51.911;  -11.840;  699.320
1000.741;   50.606;  -10.260;  742.700
1001.293;   50.489;   -8.860;  686.020
1001.845;   49.030;  -13.700;  676.640
1002.396;   49.206;  -12.100;  743.400
1002.948;   47.833;  -12.760;  737.400
1003.500;   47.388;  -10.380;  723.780
1004.051;   47.889;  -11.900;  907.580
1004.603;   46.367;  -12.250;  791.820
1005.154;   41.323;  -13.210;  608.980
1005.705;   41.167;  -10.950;  723.960
1006.257;   40.700;  -13.880;  707.220
1006.808;   40.434;  -12.840;  685.460
1007.359;   39.796;  -10.570;  763.240
1007.910;   39.048;   -9.620;  646.640
1008.461;   38.399;  -13.630;  732.940
1009.013;   37.875;  -17.200;  588.340
1009.564;   37.788;  -10.200;  793.520
1010.115;   36.679;  -12.570;  597.040
1010.665;   36.842;  -15.150;  602.160
1011.216;   36.258;  -14.480;  667.920
1011.767;   35.189;  -11.340;  697.920
1012.318;   36.287;   -9.780;  736.980
1012.869;   34.804;  -12.380;  679.000
1013.419;   33.761;  -15.560;  603.120
1013.970;   34.517;  -11.010;  666.640
1014.521;   33.504;  -11.610;  620.620
1015.071;   35.008;  -13.450;  670.380
1015.622;   34.548;  -13.870;  635.460
1016.172;   32.821;  -11.610;  596.820
1016.723;   33.182;  -12.120;  614.380
1017.273;   32.901;  -13.620;  604.160
1017.823;   33.072;  -14.140;  650.340
1018.374;   31.671;  -12.800;  611.760
1018.924;   32.471;  -12.340;  716.880
1019.474;   32.975;  -11.410;  718.880
1020.024;   31.528;  -14.770;  657.580
1020.574;   31.497;   -9.780;  726.160
1021.124;   31.841;   -8.560;  673.580
1021.674;   30.492;  -15.190;  559.120
1022.224;   32.318;  -13.530;  708.940
1022.774;   31.783;  -13.280;  668.820
1023.324;   31.558;  -10.690;  753.520
1023.874;   32.532;  -10.240;  875.760
1024.423;   30.687;  -12.540;  613.700
1024.973;   29.574;  -10.010;  610.760
1025.523;   28.918;  -10.550;  620.960
1026.072;   29.120;  -13.560;  606.420
1026.622;   28.686;  -15.120;  675.740
1027.172;   30.037;  -11.260;  715.660
1027.721;   28.477;  -11.410;  601.220
1028.270;   28.775;  -13.530;  663.400
1028.820;   28.734;  -13.680;  638.080
1029.369;   27.819;  -13.520;  612.700
1029.918;   28.465;  -10.980;  649.840
1030.468;   28.191;  -13.530;  564.780
1031.017;   27.808;  -13.170;  634.800
1031.566;   26.579;  -12.200;  608.900
1032.115;   27.315;   -9.960;  694.500
1032.664;   26.564;  -13.210;  596.480
1033.213;   27.866;  -12.500;  735.420
1033.762;   26.390;  -11.910;  635.620
1034.311;   26.483;   -9.640;  677.220
1034.860;   27.144;  -13.310;  691.000
1035.408;   26.634;  -11.830;  722.720
1035.957;   27.464;  -12.000;  719.540
1036.506;   25.148;  -11.690;  530.800
1037.055;   27.582;  -10.990;  844.320
1037.603;   25.580;  -15.120;  664.000
1038.152;   24.127;  -12.450;  534.760
1038.700;   24.830;  -10.560;  585.740
1039.249;   24.965;  -11.080;  681.220
1039.797;   24.891;  -12.540;  633.360
1040.345;   24.319;  -11.920;  705.420
1040.894;   24.363;  -11.410;  625.300
1041.442;   24.046;  -14.320;  632.200
1041.990;   23.590;  -16.240;  559.160
1042.538;   22.543;  -11.680;  536.180
1043.087;   23.707;  -10.760;  570.860
1043.635;   24.198;  -11.850;  670.500
1044.183;   23.062;  -15.480;  586.400
1044.731;   22.492;  -11.770;  576.000
1045.279;   22.789;  -13.090;  674.920
1045.827;   24.547;  -12.440;  892.400
1046.374;   21.771;  -13.840;  515.420
1046.922;   20.996;  -13.220;  590.580
1047.470;   22.898;  -10.230;  691.300
1048.018;   22.271;  -14.590;  647.960
1048.565;   23.196;  -12.050;  708.600
1049.113;   20.888;  -11.650;  557.000
1049.660;   21.162;  -10.510;  629.660
1050.208;   21.925;  -13.310;  675.640
1050.755;   21.422;  -15.900;  606.580
1051.303;   21.451;  -11.430;  686.820
1051.850;   20.474;   -8.480;  635.120
1052.397;   19.733;  -15.010;  473.960
1052.945;   20.538;  -13.960;  617.760
1053.492;   21.829;  -13.150;  741.840
1054.039;   21.197;   -9.630;  720.180
1054.586;   20.608;  -13.680;  557.240
1055.133;   20.865;  -14.570;  693.140
1055.680;   20.452;  -13.820;  646.620
1056.227;   18.651;  -11.730;  542.780
1056.774;   21.319;  -12.480;  794.980
1057.321;   18.631;  -13.930;  523.260
1057.868;   19.355;  -11.690;  651.320
1058.415;   18.685;   -9.520;  651.980
1058.961;   19.481;  -13.160;  678.940
1059.508;   19.021;  -12.920;  643.820
1060.055;   18.542;  -11.920;  581.780
1060.601;   19.672;  -11.500;  624.300
1061.148;   18.976;  -14.330;  616.820
1061.694;   18.089;  -16.870;  592.580
1062.241;   18.555;  -10.330;  596.320
1062.787;   19.270;  -10.620;  663.140
1063.334;   19.829;  -10.110;  808.560
1063.880;   18.691;  -13.400;  668.360
1064.426;   17.687;  -10.680;  706.820
1064.972;   17.213;   -9.920;  601.340
1065.518;   16.745;  -10.980;  566.640
1066.065;   17.962;  -14.890;  624.460
1066.611;   16.292;  -12.870;  598.800
1067.157;   17.474;  -12.950;  641.860
1067.703;   16.911;  -13.540;  668.480
1068.249;   17.131;  -13.540;  605.220
1068.794;   16.532;  -12.600;  626.880
1069.340;   15.507;  -10.620;  578.960
1069.886;   16.400;  -12.830;  590.700
1070.432;   15.848;  -14.870;  541.720
1070.977;   16.000;  -11.980;  601.080
1071.523;   16.406;   -8.200;  573.060
1072.068;   16.573;  -12.330;  582.000
1072.614;   16.587;  -16.370;  527.760
1073.160;   16.207;  -11.100;  687.040
1073.705;   14.641;  -10.480;  572.520
1074.250;   15.757;  -14.520;  559.900
1074.796;   16.080;  -11.460;  655.160
1075.341;   15.572;  -11.950;  664.100
1075.886;   15.476;  -11.460;  594.240
1076.431;   14.585;  -13.770;  649.880
1076.976;   15.174;  -12.680;  639.220
1077.521;   13.932;  -13.170;  583.080
1078.067;   13.747;  -10.860;  579.400
1078.612;   14.739;  -13.920;  661.620
1079.156;   14.727;  -13.880;  601.540
1079.701;   14.777;  -13.120;  693.260
1080.246;   15.267;   -9.940;  696.300
1080.791;   14.744;  -14.740;  625.020
1081.336;   14.124;  -13.750;  659.320
1081.880;   13.677;  -13.400;  649.680
1082.425;   13.670;  -12.220;  573.480
1082.970;   15.013;  -11.610;  717.040
1083.514;   13.698;  -13.580;  597.000
1084.059;   12.475;  -12.810;  586.720
1084.603;   12.703;  -12.320;  565.840
1085.147;   13.043;  -13.190;  645.220
1085.692;   14.046;  -12.480;  716.800
1086.236;   11.526;  -13.020;  503.140
1086.780;   13.709;   -9.190;  751.440
1087.325;   13.137;  -12.480;  654.620
1087.869;   13.207;  -12.450;  610.700
1088.413;   12.691;  -12.240;  705.040
1088.957;   10.838;   -9.020;  543.400
1089.501;   12.988;  -10.320;  766.640
1090.045;   12.204;  -12.720;  726.480
1090.589;   10.373;  -13.690;  569.920
1091.133;   12.241;  -10.020;  673.340
1091.676;   11.934;  -12.330;  591.940
1092.220;   11.436;  -14.970;  600.920
1092.764;   11.931;  -12.430;  706.960
1093.307;   12.537;   -9.800;  673.780
1093.851;   10.660;  -14.970;  556.540
1094.395;   11.964;  -15.310;  683.140
1094.938;   10.929;  -10.370;  632.520
1095.482;   11.163;  -11.050;  559.800
1096.025;   11.365;  -11.840;  710.880
1096.568;   11.788;  -12.840;  779.280
1097.112;    9.299;  -14.700;  508.180
1097.655;   10.983;   -8.720;  603.000
1098.198;    9.901;  -13.610;  600.180
1098.741;    9.304;  -13.350;  612.860
1099.285;   10.057;  -11.230;  657.300
1099.828;    8.487;  -11.840;  439.400
1100.371;    9.908;  -10.840;  608.160
1100.914;    9.351;  -14.190;  682.660
1101.457;    9.559;  -11.240;  679.900
1101.999;    8.059;  -11.270;  584.680
1102.542;    9.563;  -11.480;  641.440
1103.085;    9.157;  -11.750;  658.500
1103.628;    9.300;  -11.400;  762.060
1104.170;    8.579;  -10.490;  588.280
1104.713;    9.172;  -10.600;  646.700
1105.256;    8.657;  -14.360;  557.440
1105.798;    7.398;  -13.210;  499.980
1106.341;    9.079;  -10.270;  728.900
1106.883;    8.100;  -12.200;  521.340
1107.425;    9.005;  -13.110;  668.180
1107.968;    8.189;  -12.840;  612.380
1108.510;    8.629;   -6.480;  684.960
1109.052;    7.338;  -13.940;  612.620
1109.594;    7.708;  -13.690;  554.440
1110.136;    8.441;  -11.880;  643.220
1110.679;    7.423;   -9.500;  633.080
1111.221;    7.990;  -14.160;  604.460
1111.763;    7.502;  -13.980;  559.220
1112.304;    6.440;  -13.880;  547.140
1112.846;    7.762;  -12.210;  666.240
1113.388;    9.840;  -11.390;  942.180
1113.930;    7.367;  -14.540;  694.200
1114.472;    6.070;  -12.640;  606.540
1115.013;    5.882;  -11.620;  551.280
1115.555;    5.881;  -13.640;  587.100
1116.097;    5.172;  -15.380;  579.480
1116.638;    6.887;  -12.640;  684.600
1117.180;    6.721;   -9.850;  667.740
1117.721;    6.213;  -13.690;  568.580
1118.262;    7.287;  -12.680;  677.960
1118.804;    7.023;  -12.530;  637.340
1119.345;    5.813;  -11.690;  578.400
1119.886;    7.160;  -13.380;  704.040
1120.427;    5.865;  -14.070;  589.020
1120.969;    4.895;  -13.500;  597.920
1121.510;    4.979;  -11.480;  563.060
1122.051;    5.794;  -12.830;  723.580
1122.592;    5.397;  -14.290;  655.420
1123.133;    3.456;  -12.400;  547.940
1123.673;    6.027;  -10.130;  706.480
1124.214;    4.803;  -12.930;  612.460
1124.755;    5.928;  -14.380;  639.460
1125.296;    4.980;  -14.000;  627.320
1125.836;    5.529;  -10.070;  691.500
1126.377;    4.740;  -12.640;  599.660
1126.918;    5.424;  -12.960;  614.980
1127.458;    4.056;  -13.350;  622.220
1127.999;    5.446;  -10.750;  656.980
1128.539;    5.331;  -12.350;  694.240
1129.079;    4.344;  -14.860;  632.720
1129.620;    3.569;  -13.840;  558.100
1130.160;    4.008;  -12.330;  539.480
1130.700;    4.862;  -14.530;  640.840
1131.240;    5.122;  -12.530;  643.700
1131.781;    3.173;  -14.450;  619.680
1132.321;    3.216;   -9.790;  599.120
1132.861;    3.094;  -14.860;  564.200
1133.401;    2.915;  -14.290;  593.940
1133.941;    2.801;  -11.750;  626.280
1134.481;    3.054;   -9.920;  597.580
1135.020;    3.319;  -12.290;  609.160
1135.560;    3.639;  -11.650;  674.940
1136.100;    2.744;  -16.270;  501.160
1136.640;    2.236;  -10.890;  510.480
1137.179;    2.945;  -14.180;  537.960
1137.719;    3.570;  -16.250;  605.400
1138.258;    2.980;  -14.230;  587.360
1138.798;    3.364;   -9.090;  663.780
1139.337;    1.811;  -15.130;  482.840
1139.877;    2.896;  -13.680;  642.360
1140.416;    4.697;  -11.320;  878.060
1140.955;    1.622;  -10.860;  535.380
1141.494;    2.461;  -12.920;  669.280
1142.034;    2.241;  -13.930;  583.520
1142.573;    2.162;  -11.440;  646.280
1143.112;    2.119;  -12.000;  553.480
1143.651;    2.305;  -13.670;  536.480
1144.190;    3.218;  -12.730;  691.640
1144.729;    2.240;  -14.560;  607.420
1145.267;    2.168;  -11.830;  584.900
1145.806;    2.825;  -12.230;  637.040
1146.345;    1.796;  -14.130;  635.020
1146.884;    1.658;  -11.590;  622.500
1147.422;    0.680;  -12.550;  533.060
1147.961;    2.802;  -11.180;  708.460
1148.500;    2.829;  -11.510;  669.720
1149.038;    1.958;  -11.640;  632.500
1149.577;    2.266;  -10.130;  698.640
1150.115;    0.148;  -13.970;  452.280
1150.653;    1.569;  -14.520;  607.340
1151.192;    0.877;  -12.810;  552.920
1151.730;    1.136;   -9.100;  652.560
1152.268;    0.785;  -12.220;  589.520
1152.806;    0.633;  -14.140;  571.180
1153.344;   -0.541;  -12.350;  577.640
1153.882;    0.556;   -8.980;  600.060
1154.421;   -0.710;  -15.190;  470.620
1154.958;    0.370;  -15.210;  595.240
1155.496;    0.866;  -12.850;  645.280
1156.034;    0.730;   -9.940;  721.880
1156.572;    1.591;  -13.570;  667.060
1157.110;    0.131;  -14.590;  473.940
1157.647;    0.509;  -13.030;  676.960
1158.185;   -0.022;  -12.140;  564.320
1158.723;   -0.870;  -14.390;  509.200
1159.260;    0.087;  -14.090;  701.700
1159.798;    0.408;  -11.920;  658.160
1160.335;   -0.045;  -11.110;  631.820

