
Integration time [ms]:   3.882
Averaging Nr. [scans]: 1000
Smoothing Nr. [pixels]: 0
Data measured with spectrometer [name]: 7414430SP
Wave   ;Sample   ;Dark     ;Reference
[nm]   ;[counts] ;[counts] ;[counts] 

288.544;  139.259;    7.153;  793.890
289.143;  143.737;    8.402;  681.602
289.742;  145.396;    7.062;  828.814
290.341;  132.235;    0.191;  789.841
290.940;  121.769;    0.321;  730.702
291.538;  123.164;    3.811;  881.108
292.137;  121.776;   -3.438;  792.581
292.736;  125.312;   -2.809;  975.101
293.335;  122.518;   -5.239;  735.086
293.934;  123.177;   -4.939;  781.677
294.532;  124.176;   -2.199; 1031.958
295.131;  109.824;   -6.831;  834.394
295.730;  109.122;   -6.620;  809.588
296.328;  106.932;   -6.471;  783.442
296.927;  105.589;   -6.571;  779.652
297.525;  108.028;   -7.391;  781.236
298.124;   98.539;   -9.402;  654.009
298.722;  103.832;   -5.781;  761.933
299.321;  102.287;   -6.351;  708.597
299.919;   98.849;   -8.661;  751.918
300.518;   94.800;  -11.922;  689.338
301.116;   96.636;   -6.941;  691.381
301.715;   97.278;   -5.471;  730.222
302.313;   96.307;   -8.361;  704.943
302.911;   91.499;   -9.082;  733.830
303.509;   97.555;   -4.571;  925.627
304.108;   94.751;   -7.111;  760.383
304.706;   94.064;   -7.681;  801.664
305.304;   89.021;   -9.162;  796.707
305.902;   93.743;   -6.761;  784.484
306.500;   89.215;   -6.921;  728.200
307.098;   89.003;   -6.491;  746.560
307.696;   86.902;   -6.941;  780.432
308.294;   86.613;   -6.301;  731.359
308.892;   89.297;   -4.771;  759.769
309.490;   85.461;   -5.141;  712.161
310.088;   83.471;   -2.912;  788.444
310.686;   87.156;   -0.421;  821.749
311.284;   84.164;   -3.461;  766.040
311.882;   81.296;   -6.282;  731.225
312.480;   79.082;   -3.632;  697.167
313.078;   80.460;   -2.112;  808.331
313.675;   80.769;   -1.931;  691.600
314.273;   76.599;   -1.442;  797.837
314.871;   75.483;   -3.002;  589.829
315.468;   72.859;   -2.252;  652.090
316.066;   76.528;   -1.091;  694.427
316.664;   69.722;   -4.512;  656.351
317.261;   73.676;   -0.062;  910.128
317.859;   69.504;   -0.952;  768.735
318.456;   71.061;    0.719;  830.096
319.054;   65.980;   -4.002;  787.828
319.651;   65.505;   -4.972;  759.928
320.249;   64.363;   -1.162;  810.188
320.846;   62.454;   -2.651;  714.286
321.443;   59.726;   -3.832;  832.135
322.041;   56.672;   -4.312;  812.315
322.638;   55.170;   -3.872;  701.456
323.235;   56.557;   -4.361;  665.683
323.833;   54.396;   -4.821;  740.354
324.430;   49.452;   -6.971;  615.900
325.027;   51.538;   -4.361;  876.855
325.624;   51.228;   -5.581;  644.532
326.221;   47.846;   -6.601;  689.717
326.818;   47.616;   -7.301;  818.332
327.415;   49.934;   -6.180;  748.828
328.012;   49.888;   -5.920;  690.585
328.609;   47.628;   -8.390;  731.389
329.206;   45.499;   -6.121;  778.621
329.803;   45.572;   -5.241;  737.841
330.400;   48.633;   -7.420;  704.260
330.997;   48.265;   -5.931;  817.147
331.594;   45.111;   -5.641;  788.185
332.191;   51.384;   -6.451;  728.722
332.787;   55.115;   -4.651;  844.463
333.384;   53.054;   -5.472;  763.093
333.981;   49.504;   -6.303;  815.687
334.578;   52.657;   -5.892;  708.378
335.174;   54.778;   -4.102;  731.469
335.771;   54.984;   -8.053;  836.456
336.367;   51.630;   -7.363;  710.631
336.964;   56.109;   -6.243;  793.266
337.561;   55.392;   -5.653;  731.112
338.157;   50.639;   -7.074;  911.916
338.754;   48.083;   -5.474;  796.589
339.350;   47.655;   -5.624;  722.493
339.946;   49.252;   -5.054;  773.135
340.543;   41.330;   -6.695;  846.136
341.139;   35.999;   -6.215;  720.836
341.735;   34.958;   -5.746;  772.593
342.332;   33.177;   -7.335;  691.472
342.928;   33.192;   -4.835;  795.394
343.524;   27.502;   -4.586;  761.684
344.120;   25.023;   -3.946;  738.562
344.716;   28.119;   -4.835;  723.717
345.313;   25.161;   -5.325;  795.342
345.909;   20.507;   -6.535;  627.336
346.505;   21.799;   -4.725;  740.247
347.101;   22.680;   -4.164;  827.864
347.697;   23.788;   -5.274;  785.398
348.293;   17.287;   -7.145;  627.244
348.889;   18.598;   -4.364;  745.914
349.485;   18.162;   -6.404;  688.205
350.081;   18.622;   -7.534;  772.592
350.676;   14.703;   -6.995;  691.606
351.272;   19.073;   -3.544;  809.530
351.868;   18.580;   -5.324;  780.497
352.464;   15.517;   -7.204;  723.932
353.059;   12.366;   -6.894;  646.017
353.655;   15.179;   -3.754;  777.063
354.251;   16.316;   -6.143;  759.845
354.846;   10.806;   -9.464;  740.646
355.442;    8.565;   -7.555;  753.071
356.038;   10.568;   -5.474;  751.708
356.633;   11.080;   -5.914;  728.594
357.229;    8.534;   -8.944;  724.757
357.824;    7.654;   -6.794;  703.600
358.420;    6.022;   -5.754;  679.726
359.015;    7.101;   -5.664;  695.357
359.610;    7.879;   -8.004;  763.920
360.206;    1.126;   -8.815;  603.240
360.801;    4.540;   -8.834;  646.503
361.396;    6.876;   -6.274;  725.975
361.992;    2.433;   -8.574;  668.220
362.587;   -0.227;   -9.265;  670.160
363.182;    1.656;   -5.484;  689.631
363.777;    3.538;   -5.164;  738.242
364.372;    3.073;   -6.954;  737.314
364.967;   -1.165;   -7.065;  680.744
365.563;    2.810;   -5.684;  815.567
366.158;    0.784;   -6.484;  685.161
366.753;    0.539;   -8.004;  649.263
367.348;   -1.041;  -10.114;  746.056
367.942;   -1.387;   -7.764;  697.298
368.537;   -1.430;   -4.554;  754.245
369.132;   -1.181;   -7.664;  703.428
369.727;   -6.361;   -8.905;  638.079
370.322;   -4.351;   -4.945;  580.186
370.917;   -4.766;   -7.095;  710.646
371.511;   -0.881;   -6.574;  861.834
372.106;   -5.006;   -6.515;  776.964
372.701;   -8.732;   -8.225;  585.988
373.296;   -3.155;   -4.494;  863.135
373.890;   -7.243;   -7.965;  647.840
374.485;   -9.726;   -9.745;  691.199
375.079;   -5.610;   -5.554;  738.685
375.674;   -3.924;   -4.724;  812.970
376.268;   -8.811;   -8.365;  691.759
376.863;  -14.575;   -8.126;  580.327
377.457;   -7.844;   -6.045;  662.490
378.052;   -9.208;   -6.835;  764.884
378.646;  -10.724;   -9.375;  741.167
379.240;  -11.276;   -6.185;  721.176
379.835;   -9.770;   -6.135;  636.978
380.429;  -11.842;   -8.365;  562.557
381.023;  -11.466;   -7.935;  779.205
381.617;  -14.003;   -8.325;  680.106
382.212;  -10.871;   -7.405;  685.303
382.806;   -9.960;   -4.155;  760.690
383.400;  -14.667;   -8.945;  672.281
383.994;  -15.621;   -8.365;  664.870
384.588;  -10.638;   -7.824;  697.701
385.182;   -9.184;   -7.984;  726.624
385.776;  -11.362;  -10.404;  706.875
386.370;  -14.466;   -7.335;  681.968
386.964;  -12.976;   -7.485;  684.155
387.558;  -10.860;   -8.174;  598.360
388.152;  -14.946;  -10.415;  681.959
388.745;  -13.163;   -9.595;  814.707
389.339;  -10.955;   -6.454;  747.642
389.933;  -10.471;   -5.804;  695.370
390.527;  -11.864;   -6.854;  859.029
391.120;  -18.459;   -7.665;  595.318
391.714;  -14.748;   -7.245;  711.633
392.308;  -11.275;   -4.514;  780.253
392.901;  -14.614;   -7.935;  642.460
393.495;  -17.443;   -8.585;  595.414
394.089;  -14.882;   -5.245;  760.452
394.682;  -15.909;   -6.305;  697.188
395.275;  -15.579;   -9.335;  719.927
395.869;  -18.181;   -7.375;  667.314
396.462;  -15.798;   -7.055;  616.609
397.056;  -12.234;   -5.434;  776.621
397.649;  -16.276;   -9.525;  731.575
398.242;  -13.971;   -7.574;  712.645
398.836;  -12.942;   -5.134;  766.408
399.429;  -14.378;   -6.544;  631.041
400.022;  -18.183;   -9.215;  665.902
400.615;  -15.571;   -8.105;  805.609
401.208;  -13.142;   -7.614;  691.451
401.802;  -15.294;   -8.085;  699.329
402.395;  -17.214;   -9.575;  683.502
402.988;  -18.020;   -9.285;  696.627
403.581;  -14.972;   -7.514;  646.878
404.174;  -12.138;   -6.404;  686.568
404.767;  -15.230;   -8.775;  638.583
405.360;  -17.952;   -7.415;  621.445
405.953;  -11.638;   -5.624;  759.034
406.545;  -11.757;   -6.474;  725.342
407.138;  -16.629;   -8.445;  618.350
407.731;  -15.043;  -10.044;  613.303
408.324;  -10.269;   -8.484;  660.554
408.917;  -11.450;   -7.624;  681.864
409.509;  -13.886;   -8.304;  740.396
410.102;  -15.618;   -8.495;  643.948
410.695;   -9.749;   -7.824;  665.758
411.287;  -10.682;   -7.754;  599.821
411.880;  -11.134;   -9.294;  585.421
412.472;  -14.564;   -8.814;  613.092
413.065;  -12.127;   -6.674;  629.408
413.657;  -10.252;   -9.664;  576.678
414.250;   -9.620;  -10.264;  646.681
414.842;  -11.328;   -8.664;  676.353
415.434;   -9.441;   -8.584;  570.463
416.027;   -4.848;   -9.423;  652.196
416.619;   -7.152;  -10.764;  713.400
417.211;   -8.016;   -7.404;  599.352
417.804;   -3.302;   -7.383;  628.499
418.396;   -7.612;   -8.334;  607.643
418.988;   -6.019;   -9.633;  659.238
419.580;   -9.112;  -10.554;  568.276
420.172;   -7.005;   -8.683;  536.196
420.764;   -1.824;   -9.713;  672.482
421.356;   -4.155;  -11.303;  636.898
421.948;   -4.766;   -8.453;  677.661
422.540;    1.145;   -5.793;  680.027
423.132;   -0.704;   -7.162;  600.641
423.724;   -4.395;   -7.933;  561.267
424.316;   -2.234;   -9.083;  621.345
424.908;    1.177;   -8.392;  591.517
425.500;    3.126;   -8.062;  647.978
426.092;    3.636;   -9.692;  648.268
426.683;    1.674;   -8.223;  684.836
427.275;    4.682;   -8.602;  641.471
427.867;    6.318;   -8.382;  668.948
428.458;    6.909;  -10.472;  732.344
429.050;    5.612;   -9.112;  680.749
429.642;    8.242;   -7.752;  743.124
430.233;    7.745;   -8.832;  569.356
430.825;    8.678;   -8.292;  724.809
431.416;    6.747;   -7.522;  698.241
432.008;   10.563;   -9.262;  651.723
432.599;   10.357;   -6.441;  656.073
433.190;    8.015;   -9.222;  637.670
433.782;    6.693;  -11.832;  590.395
434.373;   15.248;   -7.121;  884.765
434.964;   12.475;   -9.141;  602.920
435.556;   10.912;   -9.332;  634.537
436.147;   13.547;   -8.892;  758.490
436.738;   14.033;   -8.151;  701.099
437.329;   19.400;   -8.281;  721.723
437.920;   11.840;   -9.062;  666.688
438.511;   11.187;  -11.182;  564.526
439.103;   18.662;   -7.461;  623.998
439.694;   20.679;   -8.541;  681.583
440.285;   21.881;   -7.351;  764.432
440.876;   19.453;   -8.201;  845.738
441.466;   18.316;  -10.381;  575.162
442.057;   23.997;   -7.620;  665.814
442.648;   22.710;   -8.461;  746.255
443.239;   20.044;   -8.991;  620.477
443.830;   25.387;   -7.910;  704.958
444.421;   27.576;   -7.340;  655.474
445.011;   24.019;   -8.981;  693.619
445.602;   24.112;   -9.341;  743.126
446.193;   25.204;  -11.390;  488.117
446.783;   30.503;  -11.240;  640.397
447.374;   25.376;   -8.471;  692.759
447.964;   25.904;   -8.471;  713.770
448.555;   34.618;   -6.590;  822.742
449.145;   30.935;   -8.200;  662.853
449.736;   31.541;  -11.040;  803.179
450.326;   31.468;   -9.640;  713.626
450.917;   36.774;   -9.480;  675.324
451.507;   35.204;   -8.020;  600.661
452.097;   36.543;  -10.210;  746.267
452.688;   37.426;   -7.810;  742.160
453.278;   37.264;   -9.360;  566.840
453.868;   41.683;   -8.669;  793.550
454.458;   39.759;  -10.950;  651.141
455.048;   39.267;  -10.200;  711.783
455.639;   41.614;   -9.369;  567.096
456.229;   45.078;   -7.739;  710.694
456.819;   47.219;   -8.939;  751.158
457.409;   47.594;   -7.169;  773.993
457.999;   49.204;   -7.779;  737.505
458.589;   49.538;   -7.039;  686.606
459.179;   49.589;   -9.019;  717.658
459.769;   47.743;   -8.909;  627.099
460.358;   52.429;   -8.659;  797.262
460.948;   52.065;   -8.209;  689.503
461.538;   53.723;   -9.879;  660.677
462.128;   52.166;   -9.379;  664.934
462.717;   59.264;   -9.158;  710.326
463.307;   61.631;   -8.638;  705.846
463.897;   57.042;   -8.869;  656.942
464.486;   56.238;   -7.409;  837.128
465.076;   61.135;   -9.618;  733.776
465.666;   64.480;   -7.578;  652.900
466.255;   62.155;   -9.369;  785.651
466.845;   60.710;  -10.049;  666.749
467.434;   64.979;   -8.168;  725.873
468.023;   65.060;   -9.188;  658.357
468.613;   63.377;   -9.849;  713.946
469.202;   67.136;  -12.958;  646.507
469.791;   71.348;   -9.488;  737.811
470.381;   74.079;   -6.468;  742.813
470.970;   73.069;  -10.248;  711.099
471.559;   72.463;  -11.428;  733.291
472.148;   75.768;   -9.738;  675.737
472.738;   77.876;   -7.877;  765.466
473.327;   78.189;  -11.868;  637.529
473.916;   77.627;   -8.578;  737.446
474.505;   81.797;  -11.137;  751.703
475.094;   84.447;   -9.407;  806.570
475.683;   83.861;   -9.977;  797.699
476.272;   84.451;  -10.807;  730.632
476.861;   87.858;  -11.017;  706.754
477.449;   94.075;  -10.316;  728.487
478.038;   88.180;  -10.187;  692.513
478.627;   90.197;  -12.458;  714.852
479.216;   96.557;  -10.127;  769.441
479.805;   99.479;   -6.256;  783.375
480.393;   98.858;   -8.737; 1008.945
480.982;   98.455;   -9.087;  874.501
481.571;  104.065;   -7.806;  858.333
482.159;  104.328;  -10.596;  705.386
482.748;  104.245;  -11.507;  821.385
483.336;  108.011;   -8.366;  858.209
483.925;  109.077;   -7.497;  774.373
484.513;  115.582;   -8.326;  758.962
485.102;  111.987;  -10.277;  810.965
485.690;  120.953;   -8.256; 1011.050
486.278;  122.964;   -7.146;  979.329
486.867;  123.285;   -7.986;  809.662
487.455;  124.592;   -9.926;  898.229
488.043;  126.118;  -10.026;  748.361
488.631;  135.057;   -7.226; 1005.079
489.220;  139.513;   -8.696;  908.626
489.808;  139.470;  -12.276;  741.415
490.396;  146.290;   -9.386;  914.645
490.984;  151.766;   -8.506;  830.161
491.572;  161.496;   -8.226;  940.315
492.160;  167.229;   -9.836;  919.081
492.748;  178.373;  -10.316;  884.341
493.336;  197.284;   -7.146; 1019.693
493.924;  220.635;   -7.965;  958.077
494.512;  248.742;  -10.316; 1066.638
495.100;  283.717;  -10.186; 1103.280
495.687;  340.964;   -7.805; 1206.373
496.275;  401.568;   -9.686; 1150.796
496.863;  485.208;  -11.566; 1281.171
497.451;  567.954;  -11.406; 1386.805
498.038;  671.297;   -8.235; 1556.729
498.626;  795.468;   -7.485; 1741.407
499.214;  957.924;   -8.646; 2016.609
499.801; 1207.984;   -9.936; 2220.633
500.389; 1427.562;   -8.056; 2312.494
500.976; 1573.326;   -6.166; 2744.849
501.564; 1758.641;   -9.126; 3148.565
502.151; 2040.667;  -12.456; 3515.999
502.738; 2427.913;  -10.056; 3971.274
503.326; 2851.566;  -10.605; 4403.796
503.913; 3239.685;  -10.576; 5161.749
504.500; 3700.146;   -9.056; 5986.420
505.088; 4231.267;  -10.136; 6381.201
505.675; 4900.197;   -9.075; 6925.547
506.262; 5355.400;  -11.346; 7619.060
506.849; 6216.232;   -9.376; 8733.969
507.436; 6983.236;   -7.365; 9790.121
508.023; 6941.605;   -8.686; 9985.472
508.610; 7108.730;   -8.846;10434.618
509.197; 7867.374;   -9.077;11198.435
509.784; 9320.955;  -10.246;12391.194
510.371;10594.561;   -9.825;13603.713
510.958;11677.809;  -10.896;14426.586
511.545;12342.860;   -9.006;15243.775
512.132;12115.411;   -8.765;15945.876
512.719;12574.595;   -8.286;16340.369
513.305;14582.083;   -9.256;18011.766
513.892;16669.035;  -11.106;19754.971
514.479;19588.781;   -8.576;20967.805
515.066;22445.639;   -9.046;22299.793
515.652;23255.479;  -10.676;22908.660
516.239;23829.594;  -10.166;23798.875
516.825;23246.785;  -11.266;25567.275
517.412;22509.658;   -7.446;28154.959
517.998;22094.570;  -10.916;28344.111
518.585;21744.057;   -9.166;27134.219
519.171;21136.734;  -10.135;27268.576
519.758;22096.910;   -8.806;28964.129
520.344;24902.227;   -6.716;30664.494
520.930;27523.324;  -10.166;32550.605
521.516;27620.518;   -9.615;35422.895
522.103;29941.350;   -8.656;38280.004
522.689;30824.609;   -9.646;37835.117
523.275;29990.508;  -10.786;37288.613
523.861;32165.117;   -9.266;37281.395
524.447;32948.504;   -8.285;37846.949
525.033;32033.441;   -9.426;38321.949
525.619;31622.281;   -9.836;38579.285
526.205;32242.303;   -8.136;40622.875
526.791;30865.936;   -9.986;42258.836
527.377;30350.309;   -8.236;42966.902
527.963;32222.697;  -12.117;42018.949
528.549;33614.449;   -8.376;42476.828
529.135;36041.594;   -8.696;41854.852
529.721;38773.848;   -9.686;41237.711
530.306;41167.152;   -8.616;41259.445
530.892;43659.469;   -9.396;41506.047
531.478;44574.500;   -9.926;43559.613
532.063;44774.656;  -10.236;47695.563
532.649;45678.375;   -8.257;50808.324
533.235;46677.000;  -11.476;51787.500
533.820;46631.488;   -8.156;52145.035
534.406;47531.734;  -12.257;51133.488
534.991;44301.242;   -8.686;49996.805
535.576;41405.840;   -9.426;48882.852
536.162;41034.473;   -8.436;46942.285
536.747;41409.625;  -10.957;45711.746
537.333;40621.594;  -13.147;48510.180
537.918;41878.328;   -9.027;50439.891
538.503;43351.777;   -8.256;50863.711
539.088;42540.316;  -10.576;50906.922
539.673;40928.957;  -10.907;52621.965
540.259;39834.617;   -9.126;52368.094
540.844;39909.094;   -9.026;50879.109
541.429;43446.805;   -9.597;52077.777
542.014;49963.945;  -11.447;52716.695
542.599;53847.379;   -9.236;52363.281
543.184;54553.293;  -12.267;53187.137
543.769;55540.098;  -10.367;54697.605
544.354;55353.164;  -10.887;53913.914
544.938;48872.074;  -11.687;49680.164
545.523;44196.664;   -8.286;47386.277
546.108;44918.320;   -9.317;49151.949
546.693;45982.801;  -10.187;51384.637
547.278;43853.273;   -9.926;51853.254
547.862;42910.965;   -9.196;51173.750
548.447;42350.297;   -9.657;51691.395
549.031;44025.301;   -9.127;52456.703
549.616;46570.750;  -10.836;52714.516
550.201;47422.566;   -8.507;52414.598
550.785;48141.828;  -10.537;52355.059
551.370;51398.336;  -11.727;54589.453
551.954;50632.984;   -9.457;58267.348
552.538;48907.652;   -8.147;59062.176
553.123;48610.656;   -9.397;58115.285
553.707;50195.957;   -9.558;56556.285
554.291;49635.938;   -9.417;56201.668
554.876;51529.059;   -7.627;55335.762
555.460;49762.688;  -10.457;54155.703
556.044;44938.246;  -10.078;53721.484
556.628;44032.590;   -9.407;53731.016
557.212;43032.844;   -7.957;54312.531
557.796;42412.402;  -11.327;53797.773
558.380;46528.547;  -10.868;56145.984
558.964;46716.785;   -9.637;57277.930
559.548;44811.125;   -8.807;56459.641
560.132;47042.945;  -10.187;54434.543
560.716;48000.488;   -9.868;54800.617
561.300;49529.480;  -10.217;57606.945
561.884;49645.672;   -4.947;58972.445
562.467;46795.258;   -9.588;57327.570
563.051;42518.730;  -11.138;54962.434
563.635;43000.602;   -9.358;52594.473
564.219;43731.227;   -9.797;50610.410
564.802;42170.758;   -9.918;49551.180
565.386;41193.109;  -10.838;48370.953
565.969;40617.965;   -8.037;48178.871
566.553;39430.188;   -5.667;49957.305
567.136;39362.324;   -8.258;50369.594
567.720;39918.613;  -11.278;49492.004
568.303;37955.742;   -9.028;50616.352
568.887;36507.414;   -7.508;50727.148
569.470;35496.277;  -11.068;51698.379
570.053;37564.219;  -10.028;52122.078
570.637;37804.734;  -11.077;52536.438
571.220;39313.887;   -8.747;51186.098
571.803;41750.301;   -8.868;51032.762
572.386;42925.484;  -10.608;49609.887
572.969;42189.965;  -10.548;48285.926
573.552;39670.297;   -7.898;47624.285
574.135;38989.273;   -9.918;45498.641
574.718;34623.367;  -10.328;41970.434
575.301;31980.029;   -9.548;41447.137
575.884;29336.688;   -8.768;40923.836
576.467;34709.738;   -9.858;45267.723
577.050;35602.121;  -11.018;48175.543
577.633;37044.371;  -10.048;47729.328
578.216;36038.172;  -10.268;47579.793
578.799;33945.453;  -11.808;47820.996
579.381;33065.184;   -7.338;48115.551
579.964;34797.145;   -9.728;47333.766
580.547;35250.531;   -8.928;46668.969
581.129;35001.945;   -9.149;44466.141
581.712;36575.188;  -11.359;44164.922
582.294;36611.688;  -10.738;46477.855
582.877;34742.168;   -8.788;48244.254
583.459;33663.219;   -9.859;47437.895
584.042;34644.176;   -9.649;46943.219
584.624;35078.273;  -10.529;46792.227
585.206;33562.707;  -10.298;46557.250
585.789;31784.170;  -11.029;45793.773
586.371;31929.449;   -9.359;43836.391
586.953;32611.232;   -8.799;42972.492
587.536;32680.148;   -8.928;42487.211
588.118;32088.873;   -9.180;42086.414
588.700;30561.027;  -10.519;43389.930
589.282;29591.998;   -8.098;43646.039
589.864;29690.689;   -8.139;43438.109
590.446;31227.223;  -10.509;43151.926
591.028;33978.645;  -11.119;42781.867
591.610;34776.871;  -10.019;42839.098
592.192;33117.609;   -8.838;42820.402
592.774;30877.246;  -11.549;40724.277
593.356;28601.656;  -11.609;39874.789
593.937;29121.252;  -10.019;39980.648
594.519;31735.389;   -7.839;42069.633
595.101;32976.699;  -10.779;42976.031
595.683;34193.699;  -10.049;44084.441
596.264;34381.797;   -9.969;43478.797
596.846;32956.383;   -9.699;43803.672
597.427;32155.563;  -10.970;42986.934
598.009;33194.738;  -13.090;42832.219
598.591;33438.160;   -9.509;42580.086
599.172;31706.674;   -9.019;43061.805
599.753;29239.314;  -13.310;41691.469
600.335;29431.021;  -11.010;40692.520
600.916;30302.137;  -10.309;39982.422
601.498;30575.027;   -8.209;40318.617
602.079;30649.563;  -11.440;40670.609
602.660;31950.525;   -8.690;41450.898
603.241;33344.367;  -12.759;41137.738
603.823;31671.205;  -10.409;38868.797
604.404;31673.311;  -11.790;38182.785
604.985;30151.268;  -10.280;38078.047
605.566;30719.701;   -8.059;38056.633
606.147;31257.736;   -8.960;37020.418
606.728;31049.713;  -10.710;37883.359
607.309;30125.367;  -12.760;38748.273
607.890;28075.777;   -9.959;38850.230
608.471;26522.979;   -9.780;37457.918
609.051;28279.891;   -8.940;36066.457
609.632;31148.102;  -12.070;35991.074
610.213;33165.453;   -9.610;37402.641
610.794;33390.457;   -8.750;38383.363
611.374;32457.496;  -11.100;40562.387
611.955;32872.320;  -12.200;38533.727
612.536;32532.461;  -10.410;36951.789
613.116;32588.363;  -10.010;37197.891
613.697;31767.502;  -10.480;38411.125
614.277;30169.381;  -12.751;38673.938
614.858;30108.652;  -11.600;37075.863
615.438;29583.785;   -8.190;35092.906
616.019;28123.490;   -8.941;33666.301
616.599;29234.152;  -13.540;34189.023
617.179;29789.391;  -10.890;36952.047
617.760;30434.213;   -7.610;39582.574
618.340;29801.340;  -14.441;38943.977
618.920;29146.533;   -9.180;37594.156
619.500;29178.936;  -11.881;37866.938
620.080;31152.680;   -9.870;37869.043
620.660;31198.539;  -13.211;36868.617
621.241;30072.586;  -11.921;36352.309
621.821;28958.131;  -10.271;35459.520
622.401;28668.174;   -8.200;35207.414
622.980;29621.625;  -11.141;35980.422
623.560;31128.918;  -14.321;37351.328
624.140;30829.701;   -9.360;34388.582
624.720;27353.867;   -7.481;32368.764
625.300;24121.139;  -12.730;32638.629
625.880;28937.777;  -11.441;34599.035
626.459;32635.916;  -10.971;36831.738
627.039;34143.590;   -9.011;38299.098
627.619;33973.559;   -8.521;38289.574
628.198;35006.773;   -9.861;37220.695
628.778;34732.277;   -8.841;37632.563
629.357;33296.316;   -9.891;38003.012
629.937;31009.881;  -11.871;38402.039
630.516;29892.168;  -10.641;37868.801
631.096;32153.467;  -11.391;35760.410
631.675;33698.141;   -6.622;35225.219
632.254;31654.705;  -13.002;35130.289
632.834;30049.146;  -11.622;35794.570
633.413;31961.496;   -8.321;35788.922
633.992;30269.967;   -7.732;34532.863
634.571;29723.697;  -10.992;33590.113
635.151;31198.053;  -10.422;34943.863
635.730;31545.959;  -11.511;35352.523
636.309;30675.439;   -7.901;35366.605
636.888;29774.781;  -11.452;36165.637
637.467;29419.920;  -10.672;37515.902
638.046;29494.273;   -9.301;39288.695
638.625;30553.797;  -11.452;38279.699
639.204;32074.172;  -12.262;37741.598
639.782;31610.141;  -11.892;38364.551
640.361;30229.574;  -11.411;36740.621
640.940;27084.006;  -11.501;34950.082
641.519;27349.949;  -10.921;34137.398
642.097;30547.520;  -10.101;35654.258
642.676;31052.656;  -10.821;35637.957
643.255;33428.727;   -8.631;36567.074
643.833;35636.770;  -11.411;37809.434
644.412;36777.293;  -12.021;37337.293
644.990;36478.316;  -12.271;37018.531
645.569;35502.516;   -9.741;36518.469
646.147;34296.906;   -9.051;36186.430
646.726;32391.795;  -13.861;36267.688
647.304;32365.988;   -9.461;36647.625
647.882;31368.580;  -13.171;39286.742
648.461;31418.205;  -11.911;39157.703
649.039;31798.535;   -9.541;35412.883
649.617;33720.012;   -8.901;34744.918
650.195;31966.598;   -8.591;35403.098
650.773;30408.500;  -13.031;35053.797
651.352;28770.139;  -12.211;33756.816
651.930;25795.012;  -11.361;31868.773
652.508;23206.035;   -8.601;33121.551
653.086;26855.887;   -9.991;33564.793
653.663;31179.975;  -11.931;34054.668
654.241;32942.734;  -10.821;35693.309
654.819;33471.652;   -9.341;36422.906
655.397;31321.941;  -10.851;38213.484
655.975;29668.246;  -11.461;39507.625
656.553;30333.357;   -8.841;39498.223
657.130;29871.150;  -10.371;40395.480
657.708;28771.602;  -11.071;39242.020
658.286;28663.945;  -11.141;38920.020
658.863;31142.396;  -10.861;40202.898
659.441;36778.086;  -11.181;39677.938
660.018;38243.570;  -10.851;40413.355
660.596;37121.852;  -12.571;39931.414
661.173;37725.609;  -12.141;39604.531
661.750;34324.922;  -11.571;39700.070
662.328;31072.629;  -10.780;39292.809
662.905;29934.080;  -10.750;38235.648
663.482;27084.926;  -11.320;36212.305
664.060;26089.932;  -10.160;35944.945
664.637;31760.648;  -13.120;35170.785
665.214;34325.328;  -11.500;34197.523
665.791;32215.688;  -12.430;34549.520
666.368;29771.967;   -9.840;35118.578
666.945;28637.332;  -11.290;36019.418
667.522;29003.250;  -13.540;36048.438
668.099;29782.352;  -10.250;36243.914
668.676;28852.902;  -11.270;35958.875
669.253;28256.553;   -8.210;37384.730
669.830;26959.652;   -9.710;36779.629
670.407;26400.373;   -9.700;35231.289
670.984;26163.455;   -9.190;35544.270
671.560;24956.365;   -9.560;35466.867
672.137;24751.461;  -11.820;34280.863
672.714;27709.285;  -12.460;34632.863
673.290;31932.535;  -10.940;35135.422
673.867;33176.910;  -10.510;36114.480
674.443;31369.457;  -12.110;36152.859
675.020;31358.555;  -11.760;35327.238
675.596;32021.650;   -9.380;35795.176
676.173;31288.287;  -11.120;35430.355
676.749;30303.777;  -13.390;33549.516
677.326;29199.275;  -12.600;32210.012
677.902;28270.707;  -10.830;32068.871
678.478;27630.930;  -12.400;32583.891
679.054;28952.479;   -8.610;32088.928
679.631;30368.342;  -11.640;30978.848
680.207;31113.279;   -8.140;33160.887
680.783;30873.047;  -12.300;35570.363
681.359;29478.611;  -10.910;36125.184
681.935;28619.313;  -11.040;35240.922
682.511;29082.814;  -11.130;34429.961
683.087;29294.172;  -11.080;34463.680
683.663;31031.832;  -10.530;34648.898
684.239;31451.240;  -12.120;34546.457
684.815;30370.715;   -8.870;35586.375
685.390;28990.328;   -8.940;35821.895
685.966;27945.990;  -12.109;35085.871
686.542;26660.695;  -13.539;34198.230
687.118;25863.980;  -10.379;32847.707
687.693;26701.979;  -10.189;32794.027
688.269;26123.889;  -12.939;33072.367
688.844;24956.061;   -8.679;33141.664
689.420;25814.799;  -10.919;33965.742
689.995;26382.887;   -7.489;34655.523
690.571;25807.332;  -12.199;33576.742
691.146;26127.674;   -8.979;32657.219
691.722;27659.631;   -9.119;32526.979
692.297;27707.969;  -10.519;33014.617
692.872;27672.686;  -10.629;34012.254
693.448;27923.949;  -12.119;34237.434
694.023;27220.873;   -8.219;34142.672
694.598;25484.453;  -13.209;34132.031
695.173;24238.184;  -11.879;34205.250
695.748;24762.549;  -12.039;32882.488
696.323;25849.115;  -11.779;32864.906
696.898;26351.627;  -10.219;33170.004
697.473;27805.023;  -13.639;32432.984
698.048;28492.225;  -11.239;31649.303
698.623;30463.898;  -10.859;30778.141
699.198;32463.004;  -13.379;31140.119
699.773;32779.188;  -13.409;31764.299
700.348;31745.061;  -12.329;31780.816
700.922;31700.543;   -8.749;32046.375
701.497;31673.273;  -12.449;32603.574
702.072;30071.643;   -8.879;34799.871
702.646;28115.813;  -10.719;35793.172
703.221;27501.109;   -8.469;35201.590
703.795;28304.262;  -11.389;34764.527
704.370;27275.461;  -12.499;34307.367
704.944;25876.502;  -11.449;33509.887
705.519;25788.754;  -10.659;31388.584
706.093;25120.988;  -12.909;31340.104
706.668;25501.500;  -13.509;32630.281
707.242;26496.328;  -10.049;32728.779
707.816;26391.178;  -10.629;32947.238
708.390;25578.449;  -11.829;33277.855
708.965;24236.240;  -11.159;33834.336
709.539;24509.094;  -11.069;33709.273
710.113;24264.576;  -10.908;33044.313
710.687;22520.539;   -9.488;31953.992
711.261;22801.432;  -13.068;30505.949
711.835;25395.006;  -12.748;30262.369
712.409;27627.084;  -10.678;31254.447
712.983;27182.797;  -11.658;32754.986
713.557;26574.152;  -13.718;34018.824
714.131;27286.236;  -13.388;34579.625
714.704;29936.545;   -9.818;33890.262
715.278;31978.936;  -11.818;33531.102
715.852;32074.775;  -11.328;33601.660
716.425;32500.467;   -9.118;33515.117
716.999;32664.465;  -10.188;33185.555
717.573;31720.018;   -9.808;33905.996
718.146;30554.275;  -11.478;35199.293
718.720;29270.291;  -10.998;35060.551
719.293;28531.098;   -9.508;34973.230
719.867;29644.920;  -12.138;36394.449
720.440;29134.965;  -11.288;36663.008
721.013;30905.377;  -11.428;35102.426
721.587;32140.654;  -11.698;33985.266
722.160;33343.969;  -11.608;33524.965
722.733;33744.262;  -11.428;32987.043
723.306;30901.691;  -12.518;33066.301
723.880;29602.646;   -7.408;33399.500
724.453;29431.482;  -11.048;33468.297
725.026;28229.172;  -11.678;33816.637
725.599;26793.537;  -10.978;32797.996
726.172;25121.930;   -8.838;33187.434
726.745;24951.156;  -11.438;35136.613
727.318;26447.477;   -9.828;35751.730
727.891;27203.855;  -10.868;35890.430
728.463;27138.225;  -11.348;34822.090
729.036;25978.131;  -11.608;32895.086
729.609;25619.916;  -14.738;31823.225
730.182;25931.199;   -8.448;31445.283
730.754;26748.518;  -11.228;32373.223
731.327;27068.691;  -12.018;33676.820
731.900;28992.734;  -13.748;33417.000
732.472;30114.016;  -10.928;31978.498
733.045;29618.281;   -9.478;30368.777
733.617;27742.783;  -12.967;30574.215
734.190;26980.441;  -11.707;31280.975
734.762;26359.383;  -11.067;31674.412
735.334;25415.201;  -10.587;31247.291
735.907;24368.633;  -11.947;29876.211
736.479;24782.035;  -11.667;29808.488
737.051;26413.553;  -10.187;30233.547
737.623;27058.580;   -6.887;31469.086
738.195;28340.201;  -12.117;31784.225
738.768;30463.414;  -14.077;32120.523
739.340;29923.098;  -12.207;32094.342
739.912;27479.816;   -8.977;31312.680
740.484;25989.203;  -11.017;31946.238
741.056;27900.654;  -13.517;32984.059
741.628;30510.891;  -11.507;33897.715
742.199;31001.320;   -7.597;33213.016
742.771;30500.402;  -12.227;31369.113
743.343;29061.574;  -12.427;31865.473
743.915;27166.012;   -9.827;32388.631
744.487;26010.170;  -10.007;31079.568
745.058;25128.240;  -11.887;30570.107
745.630;24064.623;  -10.787;29970.127
746.201;23591.994;  -10.887;29186.766
746.773;25208.391;   -9.707;28805.723
747.344;26406.984;  -11.137;29591.223
747.916;25798.984;  -11.887;31412.201
748.487;25096.801;   -9.707;32194.898
749.059;24626.006;  -10.027;32533.719
749.630;23958.699;  -11.787;32158.518
750.201;22673.297;  -12.767;30855.395
750.773;20760.471;  -11.497;28622.555
751.344;21545.910;   -9.937;28405.732
751.915;21507.689;  -11.567;28461.551
752.486;19382.273;  -13.267;27842.850
753.057;18243.379;  -10.627;27845.008
753.628;18173.928;  -11.657;27728.107
754.199;20457.836;  -12.097;27381.086
754.770;22019.629;  -11.447;25882.203
755.341;22497.703;  -11.997;25886.184
755.912;21008.469;  -10.207;26050.861
756.483;19201.576;  -10.937;26798.779
757.054;19584.363;  -11.527;27048.238
757.625;19792.563;  -12.886;26294.838
758.195;19304.566;  -11.226;26142.076
758.766;19711.953;  -12.366;26392.234
759.337;18583.336;  -11.946;26334.594
759.907;18155.473;  -13.856;27579.652
760.478;19448.850;   -9.606;28352.770
761.048;20982.773;  -11.606;27325.088
761.619;21573.824;  -11.036;26460.428
762.189;19937.025;  -12.206;26029.826
762.760;19109.463;   -9.666;26430.145
763.330;20074.922;   -9.796;26670.902
763.900;19912.486;  -10.896;26603.021
764.471;19428.141;  -11.726;25542.740
765.041;20142.156;   -9.656;24358.459
765.611;20586.879;  -11.276;23991.297
766.181;20096.385;  -12.116;24470.236
766.751;19889.275;  -12.376;24845.975
767.321;20190.211;  -11.626;24533.633
767.891;19967.059;  -10.426;24916.492
768.461;18289.066;  -13.456;24776.771
769.031;15872.486;  -11.616;24757.988
769.601;14916.151;  -11.356;24181.088
770.171;14880.524;  -11.586;23670.387
770.741;15490.905;  -12.696;22960.045
771.311;17200.643;  -10.226;22917.523
771.880;17902.803;  -11.146;23562.941
772.450;18278.158;  -11.716;24216.500
773.020;18163.170;  -13.226;24140.398
773.589;17101.955;  -12.586;24414.857
774.159;16702.664;  -10.246;23858.717
774.729;16099.291;  -11.586;22942.135
775.298;15916.250;  -15.926;22324.033
775.867;15861.099;  -10.426;21140.313
776.437;15429.646;  -11.416;20838.092
777.006;13624.227;  -12.766;20599.510
777.576;13621.844;  -13.666;20508.809
778.145;15026.518;  -10.066;20732.947
778.714;15288.548;  -10.276;21062.465
779.283;14727.830;  -12.086;20949.664
779.853;14475.712;  -14.016;20508.623
780.422;14320.335;  -12.376;20649.082
780.991;13692.250;   -9.246;21527.520
781.560;13429.640;   -9.775;22632.658
782.129;13724.192;  -12.495;23048.277
782.698;13798.317;  -11.775;23438.555
783.267;13704.299;  -10.065;23267.734
783.836;14575.949;  -12.455;22415.133
784.404;15081.586;  -13.385;20443.152
784.973;14962.508;  -11.045;19699.150
785.542;14499.847;   -9.505;19763.828
786.111;13797.465;   -9.385;20341.408
786.679;13569.215;  -13.475;20207.967
787.248;13525.469;  -11.245;19516.465
787.817;12080.221;  -12.485;18900.363
788.385;10577.958;  -11.165;17879.121
788.954;11104.589;  -11.755;17658.301
789.522;12103.566;   -9.625;17788.879
790.090;12449.635;   -9.665;18118.277
790.659;11795.143;   -9.295;18338.736
791.227;11763.974;  -12.175;18508.615
791.795;12557.036;  -12.145;17898.254
792.364;12564.247;  -11.575;17295.133
792.932;11991.169;  -11.085;16822.051
793.500;11612.312;  -11.345;17040.148
794.068;11247.159;  -12.565;17179.787
794.636;11816.550;  -12.105;16664.246
795.204;12892.448;  -11.995;16524.545
795.772;12837.914;  -12.615;17274.564
796.340;12260.827;  -12.425;17891.002
796.908;11827.328;  -11.455;17648.561
797.476;10974.494;  -12.165;17064.080
798.044; 9851.365;  -15.795;16672.777
798.612; 9363.946;  -10.985;17023.996
799.180; 9964.865;  -12.055;16561.615
799.747;10509.865;  -12.525;15962.773
800.315; 9702.078;  -14.765;15296.992
800.883; 8518.649;  -12.435;14801.771
801.450; 8395.379;  -11.295;14534.430
802.018; 8832.340;  -11.185;14173.248
802.585; 9003.063;  -11.625;14029.547
803.153; 8332.167;  -10.665;13836.846
803.720; 7824.938;  -10.275;13567.324
804.287; 7984.614;  -12.865;13360.622
804.855; 8254.400;  -12.324;13681.981
805.422; 8223.302;  -11.574;13536.560
805.989; 7871.785;  -11.004;13355.958
806.556; 8078.417;  -12.214;13747.896
807.124; 8460.218;  -13.304;13987.376
807.691; 8383.318;  -12.034;14038.674
808.258; 8200.168;  -11.014;14120.152
808.825; 8085.019;  -11.804;13860.111
809.392; 7849.274;  -11.544;13268.790
809.959; 7670.115;  -14.954;12680.389
810.526; 7966.764;  -10.214;12427.308
811.093; 7998.861;  -10.754;12030.105
811.659; 7579.620;  -12.194;11653.664
812.226; 6845.705;   -9.194;11637.183
812.793; 6679.209;   -9.644;11611.521
813.360; 7353.938;  -11.544;11885.181
813.926; 8347.489;  -12.814;12770.539
814.493; 8415.688;  -11.524;12677.638
815.060; 8184.179;  -12.254;11974.336
815.626; 7991.491;  -12.114;11594.715
816.193; 7452.001;  -11.994;11579.474
816.759; 6892.733;  -11.464;11666.972
817.325; 6444.246;  -10.444;11325.530
817.892; 6158.559;  -11.124;11105.369
818.458; 6180.125;  -11.864;10843.928
819.024; 6696.794;  -10.634;10714.406
819.591; 6901.500;  -10.554;10469.165
820.157; 6950.740;  -13.334;10235.523
820.723; 6979.154;  -13.044;10847.563
821.289; 6850.694;   -9.664;11040.980
821.855; 6925.675;  -10.994;10357.100
822.421; 7195.427;  -11.784; 9978.918
822.987; 7372.709;  -12.554; 9754.177
823.553; 7378.191;  -12.554;10065.755
824.119; 7007.268;   -8.544;10036.294
824.685; 6219.045;  -12.144;10029.192
825.251; 5870.232;  -12.754;10199.230
825.816; 5554.364;  -11.354; 9820.189
826.382; 5171.350;  -11.004; 9297.248
826.948; 5139.968;  -11.004; 9381.347
827.513; 5346.734;  -12.474; 9450.726
828.079; 5436.901;  -13.084; 9472.444
828.645; 5569.727;  -10.813; 9292.643
829.210; 5419.043;  -11.593; 9065.341
829.776; 5438.104;  -12.633; 9132.620
830.341; 5726.798;  -10.473; 9092.878
830.906; 5636.307;   -8.763; 9078.557
831.472; 4954.531;  -13.453; 8534.535
832.037; 4018.958;  -12.173; 8677.874
832.602; 3714.407;  -14.093; 8628.692
833.167; 4062.382;  -13.593; 8879.031
833.733; 4653.974;  -10.793; 9189.790
834.298; 5026.905;  -14.783; 9052.608
834.863; 4689.808;  -11.023; 8895.087
835.428; 4355.202;  -11.113; 8824.266
835.993; 4668.478;   -9.983; 8845.385
836.558; 4921.596;  -13.003; 8888.563
837.123; 4825.732;  -10.733; 8966.582
837.688; 4482.026;   -9.683; 8617.860
838.253; 4250.163;  -12.253; 8590.699
838.817; 4422.912;  -11.643; 8443.797
839.382; 4634.616;  -11.953; 8799.356
839.947; 4602.985;  -11.443; 8810.595
840.511; 4453.683;  -10.843; 8796.394
841.076; 4443.308;  -13.533; 8347.231
841.641; 4558.132;  -11.743; 8224.330
842.205; 4414.757;  -10.013; 8223.349
842.770; 4273.748;  -11.023; 8622.107
843.334; 4270.884;  -14.273; 8410.386
843.898; 4423.936;  -11.323; 8337.465
844.463; 4796.115;  -10.263; 8506.283
845.027; 4973.109;  -10.353; 8280.962
845.591; 4903.817;  -12.163; 8231.141
846.156; 4703.835;  -12.263; 7969.179
846.720; 4686.049;  -11.553; 7768.278
847.284; 4591.200;  -12.393; 7630.957
847.848; 3979.750;  -12.623; 7472.395
848.412; 3422.622;  -11.863; 7437.394
848.976; 3330.083;  -10.203; 7674.592
849.540; 3414.458;  -10.603; 7836.011
850.104; 3540.131;  -12.423; 7913.669
850.668; 3610.462;  -14.613; 7694.508
851.232; 3555.456;  -12.873; 7756.887
851.796; 3575.207;  -14.192; 7926.545
852.359; 3719.614;  -13.652; 7827.844
852.923; 3698.192;  -11.402; 7641.163
853.487; 3577.402;  -12.022; 7342.501
854.050; 3440.669;  -15.202; 7042.820
854.614; 3434.393;  -14.592; 7151.338
855.177; 3396.618;  -12.572; 7105.077
855.741; 3412.433;   -9.932; 6989.675
856.304; 3577.568;  -12.192; 6596.634
856.868; 3621.320;  -13.462; 6356.272
857.431; 3575.817;  -11.542; 6468.571
857.995; 3595.794;  -12.062; 6373.210
858.558; 3359.903;  -11.142; 6324.448
859.121; 3065.092;  -11.742; 6408.327
859.684; 2894.474;  -10.332; 6347.886
860.247; 2876.783;  -11.962; 6321.264
860.810; 3007.592;  -12.332; 6301.903
861.374; 3053.397;  -10.292; 6607.881
861.937; 2981.060;  -12.062; 6408.200
862.500; 3061.440;  -11.702; 6572.639
863.062; 3229.047;  -13.852; 6387.297
863.625; 3330.445;  -12.972; 6190.836
864.188; 3244.485;  -10.292; 5807.254
864.751; 3112.663;  -12.382; 5682.413
865.314; 2932.750;  -13.232; 5547.492
865.876; 2721.676;  -12.772; 5500.150
866.439; 2552.092;  -11.952; 5415.909
867.002; 2526.141;   -9.332; 5501.567
867.564; 2734.597;  -11.712; 5413.946
868.127; 2915.114;  -12.012; 5160.325
868.689; 2713.646;  -11.882; 5133.183
869.252; 2393.094;  -11.572; 5252.382
869.814; 2263.237;  -10.692; 5297.141
870.377; 2359.289;  -12.392; 5390.919
870.939; 2492.277;  -10.582; 5599.898
871.501; 2514.388;  -12.782; 5248.336
872.063; 2462.944;  -15.612; 4854.235
872.626; 2455.889;  -13.922; 4817.074
873.188; 2358.152;  -13.832; 4987.732
873.750; 2227.058;  -10.962; 4868.651
874.312; 2272.164;  -11.022; 4779.330
874.874; 2316.764;  -13.152; 4866.348
875.436; 2289.191;  -13.401; 4718.887
875.998; 2237.875;   -8.891; 4660.005
876.560; 2167.844;  -12.591; 4462.964
877.122; 2099.568;  -14.531; 4145.042
877.683; 2062.232;  -10.781; 4056.481
878.245; 2107.498;  -14.281; 3950.740
878.807; 2271.343;  -10.311; 4058.958
879.369; 2258.136;  -13.201; 3954.677
879.930; 2063.235;  -12.061; 3941.495
880.492; 1724.268;   -9.181; 4067.014
881.053; 1342.527;  -12.051; 3859.633
881.615; 1053.632;  -11.501; 3776.071
882.176;  945.045;  -12.221; 3734.750
882.738;  952.169;   -8.931; 3678.489
883.299;  974.614;  -13.571; 3405.407
883.860; 1041.261;  -12.331; 3351.106
884.422; 1070.721;  -10.201; 3394.044
884.983; 1016.100;  -12.521; 3166.443
885.544;  965.131;  -12.291; 3189.802
886.105;  962.052;  -12.991; 3160.360
886.666;  979.729;  -12.901; 3093.059
887.227;  972.241;  -12.061; 2941.957
887.788;  937.113;  -11.641; 2974.836
888.349;  898.449;  -14.691; 2721.214
888.910;  860.448;   -9.681; 2696.493
889.471;  842.040;   -9.971; 2560.172
890.032;  830.215;  -13.151; 2558.190
890.593;  810.226;  -12.051; 2567.669
891.153;  783.192;  -12.841; 2460.307
891.714;  763.524;  -13.561; 2372.046
892.275;  748.051;  -12.401; 2309.505
892.835;  718.479;  -13.191; 2382.543
893.396;  675.914;  -12.551; 2295.502
893.956;  660.591;  -11.981; 2162.420
894.517;  666.243;  -12.221; 2125.439
895.077;  641.925;  -12.021; 2086.978
895.638;  575.420;  -10.891; 2126.316
896.198;  517.888;  -13.171; 1838.275
896.758;  477.596;  -11.891; 1892.813
897.319;  437.721;  -12.491; 1792.232
897.879;  416.770;  -12.401; 1762.751
898.439;  391.421;  -13.431; 1661.149
898.999;  373.340;  -11.340; 1781.468
899.559;  366.084;  -13.930; 1703.347
900.119;  350.134;  -13.730; 1537.525
900.679;  335.574;   -9.210; 1638.384
901.239;  321.062;  -10.860; 1527.902
901.799;  303.539;  -11.450; 1456.441
902.359;  281.534;  -13.800; 1357.140
902.919;  271.627;  -12.130; 1331.118
903.479;  268.744;  -12.650; 1317.257
904.038;  258.236;  -16.110; 1262.595
904.598;  241.513;  -13.690; 1152.034
905.158;  228.444;  -10.290; 1240.893
905.717;  219.834;  -10.670; 1233.691
906.277;  218.248;  -14.040; 1217.330
906.836;  217.201;  -13.510; 1222.408
907.396;  213.339;  -11.530; 1193.047
907.955;  203.560;  -13.190; 1182.526
908.515;  191.765;  -12.950; 1099.364
909.074;  183.140;  -12.390; 1092.863
909.633;  178.157;  -10.340; 1069.121
910.192;  177.250;  -11.170; 1196.460
910.752;  172.727;  -14.200; 1029.960
911.311;  169.353;  -13.810; 1009.780
911.870;  166.964;  -12.750;  971.460
912.429;  165.663;  -12.380; 1094.080
912.988;  161.663;  -11.930; 1081.060
913.547;  155.029;  -10.990;  940.380
914.106;  151.190;  -11.200;  999.420
914.665;  150.104;  -13.150;  984.020
915.224;  148.279;  -13.310; 1035.760
915.782;  146.377;  -13.340;  922.560
916.341;  147.916;  -10.710; 1049.840
916.900;  145.283;  -12.980;  925.260
917.458;  143.365;  -13.060;  884.220
918.017;  141.475;  -10.900;  942.600
918.576;  141.349;  -11.630;  904.440
919.134;  141.255;  -12.860;  837.980
919.693;  141.477;  -15.160;  893.060
920.251;  139.908;  -13.470;  876.500
920.809;  140.521;  -13.700;  839.580
921.368;  140.152;  -13.420;  885.360
921.926;  140.642;  -14.710;  842.940
922.484;  141.045;  -12.560;  903.360
923.042;  142.164;  -11.930;  880.340
923.601;  143.170;  -10.270;  998.680
924.159;  139.947;  -12.960;  935.560
924.717;  137.741;  -13.040;  841.080
925.275;  139.437;  -12.560;  903.240
925.833;  140.560;  -13.040;  779.320
926.391;  143.076;  -13.360;  938.380
926.949;  142.442;  -13.940;  857.680
927.506;  142.797;   -9.400;  903.500
928.064;  142.066;  -10.940;  877.580
928.622;  141.931;  -13.180;  880.100
929.180;  142.413;  -12.730;  814.180
929.737;  142.047;  -12.840;  808.540
930.295;  146.048;  -11.810;  928.480
930.853;  151.467;  -13.650;  849.100
931.410;  154.507;  -13.580;  821.120
931.968;  157.109;  -12.020;  940.660
932.525;  157.134;  -13.320;  909.380
933.082;  156.671;  -13.800;  811.440
933.640;  159.972;  -11.380;  925.900
934.197;  162.333;  -11.480;  886.360
934.754;  165.145;  -13.220;  897.780
935.312;  163.883;  -14.950;  863.340
935.869;  161.375;  -10.940; 1012.980
936.426;  155.759;  -12.100;  872.800
936.983;  156.084;  -12.930;  889.020
937.540;  156.888;  -14.250;  838.280
938.097;  162.812;  -12.600;  940.120
938.654;  169.380;  -11.260;  898.860
939.211;  172.906;  -13.020;  952.480
939.768;  173.824;  -15.760;  915.420
940.324;  177.253;  -13.920;  904.200
940.881;  176.354;  -11.620;  878.500
941.438;  172.549;   -9.870; 1021.200
941.995;  169.234;  -13.920;  992.560
942.551;  166.252;  -12.830;  875.620
943.108;  166.483;  -11.980;  937.920
943.664;  170.379;  -13.740;  869.340
944.221;  178.822;  -12.670; 1088.140
944.777;  178.326;  -13.250;  869.680
945.334;  174.067;  -13.000;  884.840
945.890;  173.466;  -13.020;  946.480
946.446;  171.270;  -13.880;  947.020
947.003;  172.773;  -12.660;  964.940
947.559;  173.300;   -8.730; 1063.040
948.115;  171.809;  -11.960; 1026.540
948.671;  165.811;  -12.360;  967.300
949.227;  161.340;  -12.700;  859.560
949.783;  158.624;  -13.450;  858.900
950.339;  158.382;  -10.620;  991.000
950.895;  155.471;  -14.770; 1023.840
951.451;  152.663;  -13.650;  925.280
952.007;  155.027;  -11.180;  998.540
952.563;  153.514;  -11.680;  937.780
953.118;  152.665;  -13.280;  904.940
953.674;  152.930;  -12.510;  935.780
954.230;  153.812;  -12.220;  949.640
954.785;  150.811;  -12.190;  936.640
955.341;  146.681;  -12.270;  998.160
955.897;  143.538;  -14.900;  834.660
956.452;  145.359;  -12.520;  953.840
957.008;  144.716;   -9.410; 1083.640
957.563;  141.329;  -11.280; 1009.540
958.118;  138.199;  -13.470;  877.700
958.674;  139.621;  -12.190;  946.780
959.229;  140.665;  -12.760; 1013.980
959.784;  144.069;  -15.710;  832.400
960.339;  149.508;  -12.540; 1001.280
960.894;  149.077;  -11.680;  963.760
961.449;  144.813;  -11.410;  859.960
962.004;  143.698;  -10.430; 1212.840
962.559;  135.966;  -14.040;  860.140
963.114;  131.284;  -14.270;  742.480
963.669;  132.500;  -11.320;  915.500
964.224;  131.538;  -14.620;  874.340
964.779;  129.988;  -14.150;  828.420
965.334;  130.835;  -10.850; 1017.860
965.888;  130.950;  -14.530;  875.360
966.443;  131.575;  -13.520;  972.380
966.998;  129.051;  -13.370;  819.460
967.552;  126.664;   -9.960;  908.380
968.107;  123.921;  -12.360;  868.300
968.661;  123.965;  -12.270;  922.440
969.216;  122.242;  -12.140;  856.280
969.770;  122.018;  -11.860;  917.200
970.324;  122.293;  -12.170;  923.140
970.879;  121.342;  -14.160;  947.180
971.433;  119.423;  -12.940;  952.720
971.987;  116.677;  -10.180;  895.340
972.541;  115.452;  -12.130;  917.100
973.095;  115.397;  -14.980; 1009.460
973.649;  113.775;  -14.480;  809.480
974.203;  115.235;  -13.530;  829.040
974.757;  117.482;  -12.060;  855.220
975.311;  115.586;  -13.240;  872.600
975.865;  113.121;  -12.550;  881.820
976.419;  112.459;  -13.180;  857.400
976.973;  112.267;  -14.100;  849.620
977.526;  111.022;  -13.330;  949.920
978.080;  106.659;  -15.390;  796.780
978.634;  105.968;  -11.670;  921.320
979.187;  102.215;  -10.640;  905.400
979.741;  102.635;  -13.330; 1018.380
980.294;  101.057;  -14.480;  789.160
980.848;  100.089;  -13.420;  717.220
981.401;   98.691;  -12.360;  816.540
981.955;   95.098;  -12.480;  844.300
982.508;   90.839;  -14.000;  746.340
983.061;   90.579;  -10.440;  915.260
983.615;   87.980;  -14.340;  798.800
984.168;   84.917;  -14.950;  770.080
984.721;   85.697;  -13.270;  880.760
985.274;   83.645;  -12.240;  867.500
985.827;   81.591;  -12.720;  834.220
986.380;   78.284;  -14.920;  721.340
986.933;   78.058;  -12.860;  864.800
987.486;   76.852;  -10.440;  861.920
988.039;   75.603;  -11.820;  863.100
988.591;   73.610;  -13.760;  893.260
989.144;   72.410;  -14.080;  737.260
989.697;   72.084;  -13.440;  758.740
990.250;   72.139;  -12.050;  858.100
990.802;   70.366;  -14.550;  755.860
991.355;   71.514;  -10.770;  974.880
991.907;   69.728;  -11.710;  864.320
992.460;   67.942;  -12.650;  753.760
993.012;   66.601;  -13.860;  749.540
993.565;   64.515;  -14.310;  711.360
994.117;   64.914;   -9.920;  950.780
994.669;   61.301;  -13.420;  701.320
995.221;   60.359;  -14.200;  791.920
995.774;   59.647;  -13.400;  787.580
996.326;   58.327;  -11.850;  740.220
996.878;   58.357;  -12.230;  838.420
997.430;   56.470;  -14.260;  699.860
997.982;   55.755;  -11.430;  750.140
998.534;   56.624;  -11.590;  739.060
999.086;   55.504;  -11.960;  738.220
999.638;   53.668;  -13.640;  661.380
1000.190;   53.448;  -13.660;  699.320
1000.741;   52.609;   -9.980;  742.700
1001.293;   51.859;  -11.860;  686.020
1001.845;   50.774;  -14.280;  676.640
1002.396;   50.954;  -12.270;  743.400
1002.948;   51.093;  -13.670;  737.400
1003.500;   49.905;  -12.010;  723.780
1004.051;   50.507;  -11.890;  907.580
1004.603;   49.315;  -11.220;  791.820
1005.154;   45.910;  -13.210;  608.980
1005.705;   45.699;  -11.850;  723.960
1006.257;   44.535;  -13.670;  707.220
1006.808;   43.497;  -12.060;  685.460
1007.359;   43.415;  -10.250;  763.240
1007.910;   41.510;  -13.440;  646.640
1008.461;   41.667;  -13.170;  732.940
1009.013;   40.227;  -14.590;  588.340
1009.564;   42.674;  -12.100;  793.520
1010.115;   39.183;  -14.000;  597.040
1010.665;   38.786;  -15.020;  602.160
1011.216;   39.337;  -12.560;  667.920
1011.767;   39.136;  -11.330;  697.920
1012.318;   38.929;  -11.450;  736.980
1012.869;   38.322;  -11.000;  679.000
1013.419;   37.658;  -11.760;  603.120
1013.970;   39.001;  -11.800;  666.640
1014.521;   37.700;  -14.750;  620.620
1015.071;   36.823;  -14.430;  670.380
1015.622;   36.822;  -14.170;  635.460
1016.172;   36.436;  -11.700;  596.820
1016.723;   35.833;  -13.230;  614.380
1017.273;   35.356;  -16.120;  604.160
1017.823;   35.711;  -13.360;  650.340
1018.374;   35.375;  -13.710;  611.760
1018.924;   35.780;  -11.050;  716.880
1019.474;   35.631;  -14.120;  718.880
1020.024;   33.626;  -12.990;  657.580
1020.574;   35.625;  -12.010;  726.160
1021.124;   35.135;  -12.080;  673.580
1021.674;   32.763;  -15.860;  559.120
1022.224;   34.555;  -11.710;  708.940
1022.774;   33.712;  -13.030;  668.820
1023.324;   34.524;  -11.000;  753.520
1023.874;   35.536;  -13.270;  875.760
1024.423;   32.832;  -14.570;  613.700
1024.973;   32.440;  -12.620;  610.760
1025.523;   31.115;  -12.630;  620.960
1026.072;   31.559;  -14.110;  606.420
1026.622;   31.509;  -15.390;  675.740
1027.172;   33.228;   -9.090;  715.660
1027.721;   30.650;  -12.250;  601.220
1028.270;   31.697;  -15.590;  663.400
1028.820;   31.081;  -13.840;  638.080
1029.369;   30.777;  -13.170;  612.700
1029.918;   30.814;  -14.080;  649.840
1030.468;   30.237;  -13.860;  564.780
1031.017;   30.375;  -12.970;  634.800
1031.566;   29.763;  -12.320;  608.900
1032.115;   30.754;  -13.140;  694.500
1032.664;   28.752;  -14.560;  596.480
1033.213;   30.859;  -11.620;  735.420
1033.762;   29.882;  -13.190;  635.620
1034.311;   29.069;  -13.460;  677.220
1034.860;   28.834;  -15.770;  691.000
1035.408;   29.500;  -13.100;  722.720
1035.957;   29.078;  -12.880;  719.540
1036.506;   26.819;  -13.640;  530.800
1037.055;   30.355;  -12.420;  844.320
1037.603;   27.682;  -13.740;  664.000
1038.152;   25.998;  -13.840;  534.760
1038.700;   26.866;  -10.770;  585.740
1039.249;   27.290;  -13.520;  681.220
1039.797;   26.774;  -13.060;  633.360
1040.345;   27.613;  -11.760;  705.420
1040.894;   26.756;  -10.790;  625.300
1041.442;   26.858;  -15.420;  632.200
1041.990;   25.892;  -14.550;  559.160
1042.538;   24.623;  -15.620;  536.180
1043.087;   25.769;  -14.940;  570.860
1043.635;   26.710;  -12.100;  670.500
1044.183;   25.308;  -13.200;  586.400
1044.731;   25.802;  -11.630;  576.000
1045.279;   25.419;  -14.200;  674.920
1045.827;   27.531;  -12.510;  892.400
1046.374;   23.716;  -14.960;  515.420
1046.922;   23.578;  -11.850;  590.580
1047.470;   25.061;  -13.770;  691.300
1048.018;   24.462;  -15.380;  647.960
1048.565;   25.254;  -14.010;  708.600
1049.113;   23.668;  -14.620;  557.000
1049.660;   24.209;  -14.940;  629.660
1050.208;   24.376;  -14.540;  675.640
1050.755;   22.594;  -13.710;  606.580
1051.303;   24.311;  -11.880;  686.820
1051.850;   23.227;  -12.160;  635.120
1052.397;   20.960;  -15.110;  473.960
1052.945;   21.623;  -14.770;  617.760
1053.492;   23.497;  -12.320;  741.840
1054.039;   24.044;  -13.290;  720.180
1054.586;   22.628;  -15.210;  557.240
1055.133;   22.498;  -12.920;  693.140
1055.680;   22.663;  -12.610;  646.620
1056.227;   21.568;  -12.620;  542.780
1056.774;   23.570;  -13.010;  794.980
1057.321;   20.986;  -16.180;  523.260
1057.868;   22.216;  -11.230;  651.320
1058.415;   21.675;  -10.890;  651.980
1058.961;   22.186;  -12.530;  678.940
1059.508;   20.987;  -14.120;  643.820
1060.055;   21.437;  -13.340;  581.780
1060.601;   20.999;  -12.920;  624.300
1061.148;   20.372;  -14.430;  616.820
1061.694;   20.946;  -14.140;  592.580
1062.241;   20.809;  -12.550;  596.320
1062.787;   20.787;  -13.370;  663.140
1063.334;   22.151;  -12.260;  808.560
1063.880;   21.048;  -10.800;  668.360
1064.426;   20.967;   -9.920;  706.820
1064.972;   19.755;  -12.970;  601.340
1065.518;   19.079;  -14.440;  566.640
1066.065;   18.705;  -12.680;  624.460
1066.611;   18.882;  -13.520;  598.800
1067.157;   20.398;  -11.100;  641.860
1067.703;   19.530;  -14.100;  668.480
1068.249;   18.647;  -13.750;  605.220
1068.794;   18.969;  -11.070;  626.880
1069.340;   18.262;  -13.210;  578.960
1069.886;   19.055;  -14.850;  590.700
1070.432;   17.896;  -14.580;  541.720
1070.977;   17.733;  -12.930;  601.080
1071.523;   17.482;  -11.970;  573.060
1072.068;   18.199;  -13.730;  582.000
1072.614;   17.412;  -14.550;  527.760
1073.160;   18.470;  -13.690;  687.040
1073.705;   16.752;  -14.780;  572.520
1074.250;   17.011;  -15.430;  559.900
1074.796;   18.134;  -11.620;  655.160
1075.341;   18.048;  -11.580;  664.100
1075.886;   17.362;  -13.190;  594.240
1076.431;   17.659;  -13.630;  649.880
1076.976;   16.577;  -11.670;  639.220
1077.521;   16.470;  -11.600;  583.080
1078.067;   15.517;  -13.920;  579.400
1078.612;   16.734;  -12.910;  661.620
1079.156;   16.072;  -15.340;  601.540
1079.701;   16.738;  -12.560;  693.260
1080.246;   17.352;  -12.490;  696.300
1080.791;   15.830;  -14.550;  625.020
1081.336;   16.435;  -15.210;  659.320
1081.880;   15.933;  -11.280;  649.680
1082.425;   15.390;  -12.830;  573.480
1082.970;   16.832;  -11.680;  717.040
1083.514;   15.692;  -15.500;  597.000
1084.059;   15.030;  -11.770;  586.720
1084.603;   14.478;  -13.480;  565.840
1085.147;   14.589;  -13.940;  645.220
1085.692;   15.472;  -13.170;  716.800
1086.236;   12.894;  -15.740;  503.140
1086.780;   15.967;  -10.750;  751.440
1087.325;   15.295;  -14.900;  654.620
1087.869;   14.840;  -15.160;  610.700
1088.413;   14.802;  -11.030;  705.040
1088.957;   13.320;  -15.210;  543.400
1089.501;   15.139;  -12.310;  766.640
1090.045;   14.715;  -12.790;  726.480
1090.589;   12.614;  -14.040;  569.920
1091.133;   14.715;  -12.800;  673.340
1091.676;   13.732;  -13.600;  591.940
1092.220;   12.739;  -12.960;  600.920
1092.764;   14.173;  -10.830;  706.960
1093.307;   13.748;  -12.390;  673.780
1093.851;   12.130;  -15.850;  556.540
1094.395;   13.431;  -12.980;  683.140
1094.938;   13.008;  -13.670;  632.520
1095.482;   12.894;  -12.740;  559.800
1096.025;   13.261;  -13.340;  710.880
1096.568;   14.057;  -10.500;  779.280
1097.112;   10.712;  -13.500;  508.180
1097.655;   12.295;  -13.060;  603.000
1098.198;   11.095;  -13.240;  600.180
1098.741;   11.019;  -15.490;  612.860
1099.285;   12.320;  -13.410;  657.300
1099.828;   10.287;  -15.640;  439.400
1100.371;   12.030;  -13.980;  608.160
1100.914;   11.056;  -13.990;  682.660
1101.457;   12.088;  -15.030;  679.900
1101.999;    9.868;  -12.480;  584.680
1102.542;   12.097;  -12.410;  641.440
1103.085;   10.485;  -14.730;  658.500
1103.628;   12.264;  -12.190;  762.060
1104.170;   10.540;  -12.360;  588.280
1104.713;   10.899;  -13.350;  646.700
1105.256;   10.051;  -14.930;  557.440
1105.798;    8.760;  -15.150;  499.980
1106.341;   11.553;  -13.230;  728.900
1106.883;    9.225;  -14.680;  521.340
1107.425;    9.969;  -14.810;  668.180
1107.968;    9.781;  -12.940;  612.380
1108.510;   10.568;  -10.550;  684.960
1109.052;    8.939;  -15.640;  612.620
1109.594;    9.001;  -14.440;  554.440
1110.136;   10.337;  -11.380;  643.220
1110.679;    9.216;  -13.090;  633.080
1111.221;    8.886;  -14.230;  604.460
1111.763;    8.453;  -14.260;  559.220
1112.304;    9.046;  -14.510;  547.140
1112.846;    8.973;  -14.700;  666.240
1113.388;   12.130;  -12.270;  942.180
1113.930;    9.349;  -13.340;  694.200
1114.472;    8.676;  -12.560;  606.540
1115.013;    6.992;  -14.280;  551.280
1115.555;    7.695;  -14.010;  587.100
1116.097;    6.994;  -14.730;  579.480
1116.638;    8.687;  -12.160;  684.600
1117.180;    8.784;  -14.320;  667.740
1117.721;    7.967;  -15.730;  568.580
1118.262;    8.619;  -13.480;  677.960
1118.804;    8.075;  -11.530;  637.340
1119.345;    7.918;  -13.540;  578.400
1119.886;    8.709;  -14.470;  704.040
1120.427;    6.970;  -13.030;  589.020
1120.969;    6.829;  -13.150;  597.920
1121.510;    6.351;  -13.940;  563.060
1122.051;    7.584;  -12.310;  723.580
1122.592;    6.390;  -13.870;  655.420
1123.133;    6.098;  -12.890;  547.940
1123.673;    7.619;  -13.300;  706.480
1124.214;    6.263;  -14.000;  612.460
1124.755;    7.170;  -13.210;  639.460
1125.296;    6.872;  -13.450;  627.320
1125.836;    7.772;  -12.610;  691.500
1126.377;    6.310;  -15.840;  599.660
1126.918;    6.743;  -11.830;  614.980
1127.458;    6.547;  -11.830;  622.220
1127.999;    6.609;  -11.490;  656.980
1128.539;    7.198;  -12.900;  694.240
1129.079;    5.872;  -14.910;  632.720
1129.620;    5.452;  -12.920;  558.100
1130.160;    4.829;  -14.640;  539.480
1130.700;    6.324;  -13.270;  640.840
1131.240;    6.094;  -14.110;  643.700
1131.781;    5.049;  -13.130;  619.680
1132.321;    5.448;  -15.220;  599.120
1132.861;    4.180;  -15.670;  564.200
1133.401;    4.491;  -13.970;  593.940
1133.941;    5.007;  -13.740;  626.280
1134.481;    4.852;  -13.200;  597.580
1135.020;    4.454;  -14.830;  609.160
1135.560;    4.954;  -14.590;  674.940
1136.100;    3.550;  -13.730;  501.160
1136.640;    3.519;  -15.240;  510.480
1137.179;    4.024;  -14.710;  537.960
1137.719;    4.832;  -14.090;  605.400
1138.258;    4.401;  -12.470;  587.360
1138.798;    5.004;  -12.580;  663.780
1139.337;    3.638;  -16.480;  482.840
1139.877;    4.110;  -13.970;  642.360
1140.416;    6.698;   -9.870;  878.060
1140.955;    3.748;  -14.860;  535.380
1141.494;    3.586;  -14.530;  669.280
1142.034;    2.344;  -13.940;  583.520
1142.573;    4.329;  -11.160;  646.280
1143.112;    2.749;  -15.050;  553.480
1143.651;    3.577;  -15.390;  536.480
1144.190;    4.115;  -12.990;  691.640
1144.729;    3.215;  -12.220;  607.420
1145.267;    3.581;  -14.020;  584.900
1145.806;    3.892;  -12.740;  637.040
1146.345;    3.067;  -14.810;  635.020
1146.884;    3.258;  -12.920;  622.500
1147.422;    2.370;  -13.930;  533.060
1147.961;    4.623;  -11.830;  708.460
1148.500;    3.062;  -12.710;  669.720
1149.038;    3.523;  -14.420;  632.500
1149.577;    3.479;  -13.920;  698.640
1150.115;    0.403;  -17.050;  452.280
1150.653;    2.681;  -14.890;  607.340
1151.192;    2.249;  -15.270;  552.920
1151.730;    2.110;  -13.160;  652.560
1152.268;    2.289;  -15.430;  589.520
1152.806;    1.999;  -15.880;  571.180
1153.344;    0.437;  -13.240;  577.640
1153.882;    2.587;  -13.010;  600.060
1154.421;   -0.170;  -16.180;  470.620
1154.958;    1.296;  -13.880;  595.240
1155.496;    2.180;  -13.590;  645.280
1156.034;    2.075;  -11.910;  721.880
1156.572;    2.827;  -12.010;  667.060
1157.110;    0.813;  -16.250;  473.940
1157.647;    2.384;  -15.230;  676.960
1158.185;    0.695;  -13.770;  564.320
1158.723;    0.490;  -15.300;  509.200
1159.260;    2.189;  -13.130;  701.700
1159.798;    2.453;  -11.300;  658.160
1160.335;    1.193;  -13.210;  631.820

