
Integration time [ms]:   3.882
Averaging Nr. [scans]: 1000
Smoothing Nr. [pixels]: 0
Data measured with spectrometer [name]: 7414430SP
Wave   ;Sample   ;Dark     ;Reference
[nm]   ;[counts] ;[counts] ;[counts] 

288.544;  138.831;    7.153;  793.890
289.143;  143.124;    8.402;  681.602
289.742;  144.705;    7.062;  828.814
290.341;  132.178;    0.191;  789.841
290.940;  122.765;    0.321;  730.702
291.538;  122.641;    3.811;  881.108
292.137;  121.403;   -3.438;  792.581
292.736;  124.560;   -2.809;  975.101
293.335;  121.351;   -5.239;  735.086
293.934;  122.265;   -4.939;  781.677
294.532;  123.663;   -2.199; 1031.958
295.131;  109.928;   -6.831;  834.394
295.730;  108.794;   -6.620;  809.588
296.328;  105.825;   -6.471;  783.442
296.927;  105.503;   -6.571;  779.652
297.525;  107.556;   -7.391;  781.236
298.124;   99.272;   -9.402;  654.009
298.722;  103.631;   -5.781;  761.933
299.321;  101.631;   -6.351;  708.597
299.919;   98.194;   -8.661;  751.918
300.518;   95.303;  -11.922;  689.338
301.116;   95.495;   -6.941;  691.381
301.715;   96.652;   -5.471;  730.222
302.313;   96.195;   -8.361;  704.943
302.911;   91.890;   -9.082;  733.830
303.509;   95.772;   -4.571;  925.627
304.108;   93.501;   -7.111;  760.383
304.706;   93.903;   -7.681;  801.664
305.304;   88.808;   -9.162;  796.707
305.902;   93.098;   -6.761;  784.484
306.500;   88.958;   -6.921;  728.200
307.098;   87.582;   -6.491;  746.560
307.696;   86.013;   -6.941;  780.432
308.294;   86.727;   -6.301;  731.359
308.892;   87.717;   -4.771;  759.769
309.490;   84.782;   -5.141;  712.161
310.088;   83.843;   -2.912;  788.444
310.686;   86.867;   -0.421;  821.749
311.284;   82.884;   -3.461;  766.040
311.882;   80.628;   -6.282;  731.225
312.480;   78.505;   -3.632;  697.167
313.078;   80.114;   -2.112;  808.331
313.675;   79.847;   -1.931;  691.600
314.273;   75.271;   -1.442;  797.837
314.871;   75.286;   -3.002;  589.829
315.468;   73.281;   -2.252;  652.090
316.066;   75.509;   -1.091;  694.427
316.664;   68.493;   -4.512;  656.351
317.261;   73.931;   -0.062;  910.128
317.859;   68.707;   -0.952;  768.735
318.456;   69.576;    0.719;  830.096
319.054;   65.648;   -4.002;  787.828
319.651;   65.240;   -4.972;  759.928
320.249;   64.237;   -1.162;  810.188
320.846;   61.157;   -2.651;  714.286
321.443;   59.070;   -3.832;  832.135
322.041;   56.665;   -4.312;  812.315
322.638;   54.761;   -3.872;  701.456
323.235;   55.967;   -4.361;  665.683
323.833;   54.206;   -4.821;  740.354
324.430;   49.877;   -6.971;  615.900
325.027;   50.819;   -4.361;  876.855
325.624;   50.037;   -5.581;  644.532
326.221;   47.384;   -6.601;  689.717
326.818;   46.494;   -7.301;  818.332
327.415;   49.366;   -6.180;  748.828
328.012;   48.586;   -5.920;  690.585
328.609;   47.104;   -8.390;  731.389
329.206;   45.814;   -6.121;  778.621
329.803;   45.059;   -5.241;  737.841
330.400;   46.417;   -7.420;  704.260
330.997;   47.411;   -5.931;  817.147
331.594;   45.119;   -5.641;  788.185
332.191;   50.607;   -6.451;  728.722
332.787;   53.765;   -4.651;  844.463
333.384;   51.747;   -5.472;  763.093
333.981;   49.576;   -6.303;  815.687
334.578;   52.024;   -5.892;  708.378
335.174;   54.489;   -4.102;  731.469
335.771;   54.744;   -8.053;  836.456
336.367;   52.183;   -7.363;  710.631
336.964;   54.948;   -6.243;  793.266
337.561;   53.171;   -5.653;  731.112
338.157;   49.873;   -7.074;  911.916
338.754;   47.581;   -5.474;  796.589
339.350;   46.611;   -5.624;  722.493
339.946;   48.275;   -5.054;  773.135
340.543;   40.349;   -6.695;  846.136
341.139;   35.202;   -6.215;  720.836
341.735;   34.226;   -5.746;  772.593
342.332;   32.068;   -7.335;  691.472
342.928;   32.349;   -4.835;  795.394
343.524;   27.128;   -4.586;  761.684
344.120;   24.059;   -3.946;  738.562
344.716;   26.199;   -4.835;  723.717
345.313;   24.563;   -5.325;  795.342
345.909;   19.744;   -6.535;  627.336
346.505;   21.771;   -4.725;  740.247
347.101;   22.837;   -4.164;  827.864
347.697;   22.445;   -5.274;  785.398
348.293;   16.832;   -7.145;  627.244
348.889;   17.988;   -4.364;  745.914
349.485;   16.886;   -6.404;  688.205
350.081;   17.973;   -7.534;  772.592
350.676;   13.937;   -6.995;  691.606
351.272;   18.127;   -3.544;  809.530
351.868;   17.409;   -5.324;  780.497
352.464;   14.370;   -7.204;  723.932
353.059;   11.060;   -6.894;  646.017
353.655;   14.845;   -3.754;  777.063
354.251;   16.034;   -6.143;  759.845
354.846;    9.674;   -9.464;  740.646
355.442;    8.042;   -7.555;  753.071
356.038;    9.923;   -5.474;  751.708
356.633;    9.234;   -5.914;  728.594
357.229;    7.307;   -8.944;  724.757
357.824;    6.221;   -6.794;  703.600
358.420;    5.660;   -5.754;  679.726
359.015;    5.907;   -5.664;  695.357
359.610;    7.410;   -8.004;  763.920
360.206;    0.710;   -8.815;  603.240
360.801;    4.309;   -8.834;  646.503
361.396;    6.461;   -6.274;  725.975
361.992;    1.277;   -8.574;  668.220
362.587;   -0.868;   -9.265;  670.160
363.182;    0.704;   -5.484;  689.631
363.777;    1.774;   -5.164;  738.242
364.372;    1.470;   -6.954;  737.314
364.967;   -1.117;   -7.065;  680.744
365.563;    2.056;   -5.684;  815.567
366.158;   -0.923;   -6.484;  685.161
366.753;   -0.015;   -8.004;  649.263
367.348;   -0.868;  -10.114;  746.056
367.942;   -1.881;   -7.764;  697.298
368.537;   -2.529;   -4.554;  754.245
369.132;   -2.964;   -7.664;  703.428
369.727;   -6.184;   -8.905;  638.079
370.322;   -6.125;   -4.945;  580.186
370.917;   -5.456;   -7.095;  710.646
371.511;   -2.187;   -6.574;  861.834
372.106;   -5.607;   -6.515;  776.964
372.701;   -9.255;   -8.225;  585.988
373.296;   -3.508;   -4.494;  863.135
373.890;   -7.781;   -7.965;  647.840
374.485;  -10.145;   -9.745;  691.199
375.079;   -6.545;   -5.554;  738.685
375.674;   -5.262;   -4.724;  812.970
376.268;   -9.339;   -8.365;  691.759
376.863;  -14.684;   -8.126;  580.327
377.457;   -9.032;   -6.045;  662.490
378.052;  -10.582;   -6.835;  764.884
378.646;  -11.303;   -9.375;  741.167
379.240;  -11.458;   -6.185;  721.176
379.835;  -10.913;   -6.135;  636.978
380.429;  -12.944;   -8.365;  562.557
381.023;  -12.685;   -7.935;  779.205
381.617;  -14.702;   -8.325;  680.106
382.212;  -11.992;   -7.405;  685.303
382.806;  -11.071;   -4.155;  760.690
383.400;  -14.987;   -8.945;  672.281
383.994;  -15.650;   -8.365;  664.870
384.588;  -11.813;   -7.824;  697.701
385.182;  -10.217;   -7.984;  726.624
385.776;  -12.458;  -10.404;  706.875
386.370;  -15.902;   -7.335;  681.968
386.964;  -14.142;   -7.485;  684.155
387.558;  -12.484;   -8.174;  598.360
388.152;  -15.365;  -10.415;  681.959
388.745;  -13.263;   -9.595;  814.707
389.339;  -12.229;   -6.454;  747.642
389.933;  -12.103;   -5.804;  695.370
390.527;  -12.530;   -6.854;  859.029
391.120;  -18.721;   -7.665;  595.318
391.714;  -15.680;   -7.245;  711.633
392.308;  -12.466;   -4.514;  780.253
392.901;  -17.037;   -7.935;  642.460
393.495;  -17.540;   -8.585;  595.414
394.089;  -15.823;   -5.245;  760.452
394.682;  -16.216;   -6.305;  697.188
395.275;  -17.303;   -9.335;  719.927
395.869;  -18.025;   -7.375;  667.314
396.462;  -16.710;   -7.055;  616.609
397.056;  -12.495;   -5.434;  776.621
397.649;  -17.030;   -9.525;  731.575
398.242;  -14.077;   -7.574;  712.645
398.836;  -14.054;   -5.134;  766.408
399.429;  -14.844;   -6.544;  631.041
400.022;  -19.159;   -9.215;  665.902
400.615;  -15.316;   -8.105;  805.609
401.208;  -13.816;   -7.614;  691.451
401.802;  -16.789;   -8.085;  699.329
402.395;  -17.632;   -9.575;  683.502
402.988;  -18.263;   -9.285;  696.627
403.581;  -15.036;   -7.514;  646.878
404.174;  -13.583;   -6.404;  686.568
404.767;  -16.434;   -8.775;  638.583
405.360;  -18.134;   -7.415;  621.445
405.953;  -12.836;   -5.624;  759.034
406.545;  -12.507;   -6.474;  725.342
407.138;  -17.877;   -8.445;  618.350
407.731;  -15.527;  -10.044;  613.303
408.324;  -11.649;   -8.484;  660.554
408.917;  -12.578;   -7.624;  681.864
409.509;  -14.568;   -8.304;  740.396
410.102;  -15.699;   -8.495;  643.948
410.695;   -9.759;   -7.824;  665.758
411.287;  -11.547;   -7.754;  599.821
411.880;  -12.381;   -9.294;  585.421
412.472;  -15.329;   -8.814;  613.092
413.065;  -12.483;   -6.674;  629.408
413.657;  -10.032;   -9.664;  576.678
414.250;  -10.167;  -10.264;  646.681
414.842;  -11.715;   -8.664;  676.353
415.434;   -9.723;   -8.584;  570.463
416.027;   -6.429;   -9.423;  652.196
416.619;   -7.807;  -10.764;  713.400
417.211;   -9.068;   -7.404;  599.352
417.804;   -4.647;   -7.383;  628.499
418.396;   -9.461;   -8.334;  607.643
418.988;   -6.099;   -9.633;  659.238
419.580;  -10.050;  -10.554;  568.276
420.172;   -7.343;   -8.683;  536.196
420.764;   -4.038;   -9.713;  672.482
421.356;   -4.781;  -11.303;  636.898
421.948;   -4.940;   -8.453;  677.661
422.540;   -0.425;   -5.793;  680.027
423.132;   -1.279;   -7.162;  600.641
423.724;   -4.841;   -7.933;  561.267
424.316;   -1.832;   -9.083;  621.345
424.908;    0.826;   -8.392;  591.517
425.500;    1.426;   -8.062;  647.978
426.092;    2.303;   -9.692;  648.268
426.683;    1.672;   -8.223;  684.836
427.275;    3.716;   -8.602;  641.471
427.867;    4.912;   -8.382;  668.948
428.458;    6.361;  -10.472;  732.344
429.050;    4.227;   -9.112;  680.749
429.642;    6.794;   -7.752;  743.124
430.233;    6.448;   -8.832;  569.356
430.825;    9.209;   -8.292;  724.809
431.416;    6.039;   -7.522;  698.241
432.008;    9.012;   -9.262;  651.723
432.599;    9.185;   -6.441;  656.073
433.190;    6.374;   -9.222;  637.670
433.782;    6.381;  -11.832;  590.395
434.373;   14.328;   -7.121;  884.765
434.964;   12.323;   -9.141;  602.920
435.556;    9.368;   -9.332;  634.537
436.147;   13.696;   -8.892;  758.490
436.738;   12.272;   -8.151;  701.099
437.329;   18.037;   -8.281;  721.723
437.920;   10.769;   -9.062;  666.688
438.511;   10.968;  -11.182;  564.526
439.103;   17.209;   -7.461;  623.998
439.694;   19.308;   -8.541;  681.583
440.285;   20.157;   -7.351;  764.432
440.876;   18.725;   -8.201;  845.738
441.466;   17.323;  -10.381;  575.162
442.057;   23.564;   -7.620;  665.814
442.648;   21.692;   -8.461;  746.255
443.239;   19.905;   -8.991;  620.477
443.830;   24.944;   -7.910;  704.958
444.421;   26.762;   -7.340;  655.474
445.011;   23.419;   -8.981;  693.619
445.602;   23.183;   -9.341;  743.126
446.193;   25.168;  -11.390;  488.117
446.783;   28.149;  -11.240;  640.397
447.374;   24.472;   -8.471;  692.759
447.964;   24.910;   -8.471;  713.770
448.555;   33.726;   -6.590;  822.742
449.145;   29.038;   -8.200;  662.853
449.736;   30.594;  -11.040;  803.179
450.326;   31.212;   -9.640;  713.626
450.917;   35.327;   -9.480;  675.324
451.507;   34.433;   -8.020;  600.661
452.097;   35.364;  -10.210;  746.267
452.688;   36.399;   -7.810;  742.160
453.278;   37.148;   -9.360;  566.840
453.868;   40.615;   -8.669;  793.550
454.458;   37.892;  -10.950;  651.141
455.048;   39.491;  -10.200;  711.783
455.639;   40.459;   -9.369;  567.096
456.229;   43.907;   -7.739;  710.694
456.819;   45.750;   -8.939;  751.158
457.409;   46.420;   -7.169;  773.993
457.999;   49.006;   -7.779;  737.505
458.589;   48.179;   -7.039;  686.606
459.179;   48.419;   -9.019;  717.658
459.769;   46.503;   -8.909;  627.099
460.358;   51.958;   -8.659;  797.262
460.948;   51.278;   -8.209;  689.503
461.538;   52.799;   -9.879;  660.677
462.128;   50.480;   -9.379;  664.934
462.717;   58.710;   -9.158;  710.326
463.307;   60.420;   -8.638;  705.846
463.897;   56.116;   -8.869;  656.942
464.486;   56.170;   -7.409;  837.128
465.076;   60.525;   -9.618;  733.776
465.666;   63.701;   -7.578;  652.900
466.255;   61.485;   -9.369;  785.651
466.845;   60.706;  -10.049;  666.749
467.434;   63.507;   -8.168;  725.873
468.023;   64.428;   -9.188;  658.357
468.613;   61.661;   -9.849;  713.946
469.202;   66.742;  -12.958;  646.507
469.791;   71.114;   -9.488;  737.811
470.381;   72.439;   -6.468;  742.813
470.970;   71.701;  -10.248;  711.099
471.559;   72.208;  -11.428;  733.291
472.148;   74.001;   -9.738;  675.737
472.738;   76.966;   -7.877;  765.466
473.327;   76.470;  -11.868;  637.529
473.916;   76.810;   -8.578;  737.446
474.505;   80.763;  -11.137;  751.703
475.094;   83.561;   -9.407;  806.570
475.683;   83.624;   -9.977;  797.699
476.272;   83.611;  -10.807;  730.632
476.861;   86.688;  -11.017;  706.754
477.449;   92.930;  -10.316;  728.487
478.038;   87.720;  -10.187;  692.513
478.627;   88.267;  -12.458;  714.852
479.216;   94.751;  -10.127;  769.441
479.805;   98.066;   -6.256;  783.375
480.393;   97.243;   -8.737; 1008.945
480.982;   96.352;   -9.087;  874.501
481.571;  103.137;   -7.806;  858.333
482.159;  103.104;  -10.596;  705.386
482.748;  101.819;  -11.507;  821.385
483.336;  107.794;   -8.366;  858.209
483.925;  107.821;   -7.497;  774.373
484.513;  113.673;   -8.326;  758.962
485.102;  110.903;  -10.277;  810.965
485.690;  120.017;   -8.256; 1011.050
486.278;  121.106;   -7.146;  979.329
486.867;  122.150;   -7.986;  809.662
487.455;  123.307;   -9.926;  898.229
488.043;  125.153;  -10.026;  748.361
488.631;  134.284;   -7.226; 1005.079
489.220;  137.201;   -8.696;  908.626
489.808;  136.815;  -12.276;  741.415
490.396;  144.359;   -9.386;  914.645
490.984;  150.417;   -8.506;  830.161
491.572;  160.031;   -8.226;  940.315
492.160;  164.842;   -9.836;  919.081
492.748;  175.210;  -10.316;  884.341
493.336;  194.904;   -7.146; 1019.693
493.924;  217.868;   -7.965;  958.077
494.512;  245.720;  -10.316; 1066.638
495.100;  280.102;  -10.186; 1103.280
495.687;  335.653;   -7.805; 1206.373
496.275;  393.724;   -9.686; 1150.796
496.863;  475.579;  -11.566; 1281.171
497.451;  559.028;  -11.406; 1386.805
498.038;  659.356;   -8.235; 1556.729
498.626;  780.197;   -7.485; 1741.407
499.214;  939.706;   -8.646; 2016.609
499.801; 1184.759;   -9.936; 2220.633
500.389; 1394.517;   -8.056; 2312.494
500.976; 1537.157;   -6.166; 2744.849
501.564; 1717.765;   -9.126; 3148.565
502.151; 1998.536;  -12.456; 3515.999
502.738; 2383.786;  -10.056; 3971.274
503.326; 2798.220;  -10.605; 4403.796
503.913; 3183.249;  -10.576; 5161.749
504.500; 3641.252;   -9.056; 5986.420
505.088; 4153.452;  -10.136; 6381.201
505.675; 4814.615;   -9.075; 6925.547
506.262; 5269.839;  -11.346; 7619.060
506.849; 6099.651;   -9.376; 8733.969
507.436; 6864.076;   -7.365; 9790.121
508.023; 6840.794;   -8.686; 9985.472
508.610; 6998.646;   -8.846;10434.618
509.197; 7728.813;   -9.077;11198.435
509.784; 9157.715;  -10.246;12391.194
510.371;10418.552;   -9.825;13603.713
510.958;11474.727;  -10.896;14426.586
511.545;12146.083;   -9.006;15243.775
512.132;11930.092;   -8.765;15945.876
512.719;12425.125;   -8.286;16340.369
513.305;14412.267;   -9.256;18011.766
513.892;16490.963;  -11.106;19754.971
514.479;19409.268;   -8.576;20967.805
515.066;22153.348;   -9.046;22299.793
515.652;22898.186;  -10.676;22908.660
516.239;23518.713;  -10.166;23798.875
516.825;23006.564;  -11.266;25567.275
517.412;22345.459;   -7.446;28154.959
517.998;22003.494;  -10.916;28344.111
518.585;21624.160;   -9.166;27134.219
519.171;21034.848;  -10.135;27268.576
519.758;21978.490;   -8.806;28964.129
520.344;24775.338;   -6.716;30664.494
520.930;27397.725;  -10.166;32550.605
521.516;27585.152;   -9.615;35422.895
522.103;29968.941;   -8.656;38280.004
522.689;30949.363;   -9.646;37835.117
523.275;30312.506;  -10.786;37288.613
523.861;32759.166;   -9.266;37281.395
524.447;33795.129;   -8.285;37846.949
525.033;33154.539;   -9.426;38321.949
525.619;33414.754;   -9.836;38579.285
526.205;35900.086;   -8.136;40622.875
526.791;36720.453;   -9.986;42258.836
527.377;36404.875;   -8.236;42966.902
527.963;35596.805;  -12.117;42018.949
528.549;33993.211;   -8.376;42476.828
529.135;34974.723;   -8.696;41854.852
529.721;37479.758;   -9.686;41237.711
530.306;39819.402;   -8.616;41259.445
530.892;42298.582;   -9.396;41506.047
531.478;43337.555;   -9.926;43559.613
532.063;43620.098;  -10.236;47695.563
532.649;44642.301;   -8.257;50808.324
533.235;45875.262;  -11.476;51787.500
533.820;45935.922;   -8.156;52145.035
534.406;47000.355;  -12.257;51133.488
534.991;43932.527;   -8.686;49996.805
535.576;41173.645;   -9.426;48882.852
536.162;41059.441;   -8.436;46942.285
536.747;41614.406;  -10.957;45711.746
537.333;40983.344;  -13.147;48510.180
537.918;42986.684;   -9.027;50439.891
538.503;45429.891;   -8.256;50863.711
539.088;46349.992;  -10.576;50906.922
539.673;47514.297;  -10.907;52621.965
540.259;48973.758;   -9.126;52368.094
540.844;48539.961;   -9.026;50879.109
541.429;48816.211;   -9.597;52077.777
542.014;51591.199;  -11.447;52716.695
542.599;52853.527;   -9.236;52363.281
543.184;52287.297;  -12.267;53187.137
543.769;52896.477;  -10.367;54697.605
544.354;52874.074;  -10.887;53913.914
544.938;46718.102;  -11.687;49680.164
545.523;42177.359;   -8.286;47386.277
546.108;42971.059;   -9.317;49151.949
546.693;43994.668;  -10.187;51384.637
547.278;42024.457;   -9.926;51853.254
547.862;41264.180;   -9.196;51173.750
548.447;40809.305;   -9.657;51691.395
549.031;42578.309;   -9.127;52456.703
549.616;44970.734;  -10.836;52714.516
550.201;45800.727;   -8.507;52414.598
550.785;46736.074;  -10.537;52355.059
551.370;50080.625;  -11.727;54589.453
551.954;49347.117;   -9.457;58267.348
552.538;47552.648;   -8.147;59062.176
553.123;47193.430;   -9.397;58115.285
553.707;48811.984;   -9.558;56556.285
554.291;48170.988;   -9.417;56201.668
554.876;49898.203;   -7.627;55335.762
555.460;48173.082;  -10.457;54155.703
556.044;43737.539;  -10.078;53721.484
556.628;42938.980;   -9.407;53731.016
557.212;41887.512;   -7.957;54312.531
557.796;41303.957;  -11.327;53797.773
558.380;45397.484;  -10.868;56145.984
558.964;45559.684;   -9.637;57277.930
559.548;43724.324;   -8.807;56459.641
560.132;45814.945;  -10.187;54434.543
560.716;46523.145;   -9.868;54800.617
561.300;47859.504;  -10.217;57606.945
561.884;48143.512;   -4.947;58972.445
562.467;45677.602;   -9.588;57327.570
563.051;41561.535;  -11.138;54962.434
563.635;41930.473;   -9.358;52594.473
564.219;42438.484;   -9.797;50610.410
564.802;40981.949;   -9.918;49551.180
565.386;40085.313;  -10.838;48370.953
565.969;39583.539;   -8.037;48178.871
566.553;38362.215;   -5.667;49957.305
567.136;38264.117;   -8.258;50369.594
567.720;38692.375;  -11.278;49492.004
568.303;36742.949;   -9.028;50616.352
568.887;35547.082;   -7.508;50727.148
569.470;34593.746;  -11.068;51698.379
570.053;36489.855;  -10.028;52122.078
570.637;36677.801;  -11.077;52536.438
571.220;38107.078;   -8.747;51186.098
571.803;40380.305;   -8.868;51032.762
572.386;41365.402;  -10.608;49609.887
572.969;40551.645;  -10.548;48285.926
573.552;37902.301;   -7.898;47624.285
574.135;37076.836;   -9.918;45498.641
574.718;32545.340;  -10.328;41970.434
575.301;29359.541;   -9.548;41447.137
575.884;26173.742;   -8.768;40923.836
576.467;31385.623;   -9.858;45267.723
577.050;33471.430;  -11.018;48175.543
577.633;35717.902;  -10.048;47729.328
578.216;35118.984;  -10.268;47579.793
578.799;33256.348;  -11.808;47820.996
579.381;32420.762;   -7.338;48115.551
579.964;34137.160;   -9.728;47333.766
580.547;34650.879;   -8.928;46668.969
581.129;34439.914;   -9.149;44466.141
581.712;35875.898;  -11.359;44164.922
582.294;35813.887;  -10.738;46477.855
582.877;33986.195;   -8.788;48244.254
583.459;32974.645;   -9.859;47437.895
584.042;33976.957;   -9.649;46943.219
584.624;34296.395;  -10.529;46792.227
585.206;32666.166;  -10.298;46557.250
585.789;30882.639;  -11.029;45793.773
586.371;31082.320;   -9.359;43836.391
586.953;31715.941;   -8.799;42972.492
587.536;31605.926;   -8.928;42487.211
588.118;30999.439;   -9.180;42086.414
588.700;29495.109;  -10.519;43389.930
589.282;28353.365;   -8.098;43646.039
589.864;28145.535;   -8.139;43438.109
590.446;28991.305;  -10.509;43151.926
591.028;30224.750;  -11.119;42781.867
591.610;29245.186;  -10.019;42839.098
592.192;27172.836;   -8.838;42820.402
592.774;26478.654;  -11.549;40724.277
593.356;26532.889;  -11.609;39874.789
593.937;28355.240;  -10.019;39980.648
594.519;31375.814;   -7.839;42069.633
595.101;32844.461;  -10.779;42976.031
595.683;34102.086;  -10.049;44084.441
596.264;34263.945;   -9.969;43478.797
596.846;32804.738;   -9.699;43803.672
597.427;32026.688;  -10.970;42986.934
598.009;33029.313;  -13.090;42832.219
598.591;33194.395;   -9.509;42580.086
599.172;31472.027;   -9.019;43061.805
599.753;29056.430;  -13.310;41691.469
600.335;29285.959;  -11.010;40692.520
600.916;30163.564;  -10.309;39982.422
601.498;30433.402;   -8.209;40318.617
602.079;30445.822;  -11.440;40670.609
602.660;31714.426;   -8.690;41450.898
603.241;33067.480;  -12.759;41137.738
603.823;31396.514;  -10.409;38868.797
604.404;31421.857;  -11.790;38182.785
604.985;29927.578;  -10.280;38078.047
605.566;30546.414;   -8.059;38056.633
606.147;31039.363;   -8.960;37020.418
606.728;30847.195;  -10.710;37883.359
607.309;30014.721;  -12.760;38748.273
607.890;27994.926;   -9.959;38850.230
608.471;26440.777;   -9.780;37457.918
609.051;28064.283;   -8.940;36066.457
609.632;30853.408;  -12.070;35991.074
610.213;32796.172;   -9.610;37402.641
610.794;32912.320;   -8.750;38383.363
611.374;32078.637;  -11.100;40562.387
611.955;32561.516;  -12.200;38533.727
612.536;32199.230;  -10.410;36951.789
613.116;32150.926;  -10.010;37197.891
613.697;31334.021;  -10.480;38411.125
614.277;29843.027;  -12.751;38673.938
614.858;29807.525;  -11.600;37075.863
615.438;29291.838;   -8.190;35092.906
616.019;27884.820;   -8.941;33666.301
616.599;28943.117;  -13.540;34189.023
617.179;29513.834;  -10.890;36952.047
617.760;30192.111;   -7.610;39582.574
618.340;29566.936;  -14.441;38943.977
618.920;28974.715;   -9.180;37594.156
619.500;29117.393;  -11.881;37866.938
620.080;31042.752;   -9.870;37869.043
620.660;30953.150;  -13.211;36868.617
621.241;29870.838;  -11.921;36352.309
621.821;28729.520;  -10.271;35459.520
622.401;28418.537;   -8.200;35207.414
622.980;29334.445;  -11.141;35980.422
623.560;30869.803;  -14.321;37351.328
624.140;30594.725;   -9.360;34388.582
624.720;27109.992;   -7.481;32368.764
625.300;23965.059;  -12.730;32638.629
625.880;28829.377;  -11.441;34599.035
626.459;32469.137;  -10.971;36831.738
627.039;34025.836;   -9.011;38299.098
627.619;33825.945;   -8.521;38289.574
628.198;34777.316;   -9.861;37220.695
628.778;34579.164;   -8.841;37632.563
629.357;33212.020;   -9.891;38003.012
629.937;30912.924;  -11.871;38402.039
630.516;29810.643;  -10.641;37868.801
631.096;32083.055;  -11.391;35760.410
631.675;33539.453;   -6.622;35225.219
632.254;31547.182;  -13.002;35130.289
632.834;30025.953;  -11.622;35794.570
633.413;31874.395;   -8.321;35788.922
633.992;30114.945;   -7.732;34532.863
634.571;29536.750;  -10.992;33590.113
635.151;30976.652;  -10.422;34943.863
635.730;31348.750;  -11.511;35352.523
636.309;30433.564;   -7.901;35366.605
636.888;29475.477;  -11.452;36165.637
637.467;29179.029;  -10.672;37515.902
638.046;29322.033;   -9.301;39288.695
638.625;30369.625;  -11.452;38279.699
639.204;31875.707;  -12.262;37741.598
639.782;31496.709;  -11.892;38364.551
640.361;30116.139;  -11.411;36740.621
640.940;26960.602;  -11.501;34950.082
641.519;27290.957;  -10.921;34137.398
642.097;30484.535;  -10.101;35654.258
642.676;30927.154;  -10.821;35637.957
643.255;33260.254;   -8.631;36567.074
643.833;35472.742;  -11.411;37809.434
644.412;36757.930;  -12.021;37337.293
644.990;36505.434;  -12.271;37018.531
645.569;35458.477;   -9.741;36518.469
646.147;34186.910;   -9.051;36186.430
646.726;32338.029;  -13.861;36267.688
647.304;32296.471;   -9.461;36647.625
647.882;31353.334;  -13.171;39286.742
648.461;31412.818;  -11.911;39157.703
649.039;31739.158;   -9.541;35412.883
649.617;33654.703;   -8.901;34744.918
650.195;31887.617;   -8.591;35403.098
650.773;30344.084;  -13.031;35053.797
651.352;28733.020;  -12.211;33756.816
651.930;25748.900;  -11.361;31868.773
652.508;23169.615;   -8.601;33121.551
653.086;26807.086;   -9.991;33564.793
653.663;31045.588;  -11.931;34054.668
654.241;32877.398;  -10.821;35693.309
654.819;33498.266;   -9.341;36422.906
655.397;31352.813;  -10.851;38213.484
655.975;29709.715;  -11.461;39507.625
656.553;30439.141;   -8.841;39498.223
657.130;29934.471;  -10.371;40395.480
657.708;28717.148;  -11.071;39242.020
658.286;28582.184;  -11.141;38920.020
658.863;31045.730;  -10.861;40202.898
659.441;36630.031;  -11.181;39677.938
660.018;38027.203;  -10.851;40413.355
660.596;37031.859;  -12.571;39931.414
661.173;37723.676;  -12.141;39604.531
661.750;34399.887;  -11.571;39700.070
662.328;31152.811;  -10.780;39292.809
662.905;29854.123;  -10.750;38235.648
663.482;27009.098;  -11.320;36212.305
664.060;26087.084;  -10.160;35944.945
664.637;31754.553;  -13.120;35170.785
665.214;34210.781;  -11.500;34197.523
665.791;31968.088;  -12.430;34549.520
666.368;29474.184;   -9.840;35118.578
666.945;28379.256;  -11.290;36019.418
667.522;28803.088;  -13.540;36048.438
668.099;29587.773;  -10.250;36243.914
668.676;28746.158;  -11.270;35958.875
669.253;28198.984;   -8.210;37384.730
669.830;26894.387;   -9.710;36779.629
670.407;26348.059;   -9.700;35231.289
670.984;26139.867;   -9.190;35544.270
671.560;24931.160;   -9.560;35466.867
672.137;24717.037;  -11.820;34280.863
672.714;27661.188;  -12.460;34632.863
673.290;31853.982;  -10.940;35135.422
673.867;33121.641;  -10.510;36114.480
674.443;31439.016;  -12.110;36152.859
675.020;31491.068;  -11.760;35327.238
675.596;32148.225;   -9.380;35795.176
676.173;31348.279;  -11.120;35430.355
676.749;30293.680;  -13.390;33549.516
677.326;29136.648;  -12.600;32210.012
677.902;28175.594;  -10.830;32068.871
678.478;27511.889;  -12.400;32583.891
679.054;28796.152;   -8.610;32088.928
679.631;30228.678;  -11.640;30978.848
680.207;30970.344;   -8.140;33160.887
680.783;30803.080;  -12.300;35570.363
681.359;29460.758;  -10.910;36125.184
681.935;28632.457;  -11.040;35240.922
682.511;29034.982;  -11.130;34429.961
683.087;29210.398;  -11.080;34463.680
683.663;31040.406;  -10.530;34648.898
684.239;31489.709;  -12.120;34546.457
684.815;30355.262;   -8.870;35586.375
685.390;28904.217;   -8.940;35821.895
685.966;27836.658;  -12.109;35085.871
686.542;26581.117;  -13.539;34198.230
687.118;25764.367;  -10.379;32847.707
687.693;26624.471;  -10.189;32794.027
688.269;26098.359;  -12.939;33072.367
688.844;24872.434;   -8.679;33141.664
689.420;25711.484;  -10.919;33965.742
689.995;26282.695;   -7.489;34655.523
690.571;25686.346;  -12.199;33576.742
691.146;26042.443;   -8.979;32657.219
691.722;27624.527;   -9.119;32526.979
692.297;27699.531;  -10.519;33014.617
692.872;27586.957;  -10.629;34012.254
693.448;27818.355;  -12.119;34237.434
694.023;27086.662;   -8.219;34142.672
694.598;25303.844;  -13.209;34132.031
695.173;24150.752;  -11.879;34205.250
695.748;24780.229;  -12.039;32882.488
696.323;25866.207;  -11.779;32864.906
696.898;26349.166;  -10.219;33170.004
697.473;27799.934;  -13.639;32432.984
698.048;28499.209;  -11.239;31649.303
698.623;30519.406;  -10.859;30778.141
699.198;32404.744;  -13.379;31140.119
699.773;32650.555;  -13.409;31764.299
700.348;31692.834;  -12.329;31780.816
700.922;31705.674;   -8.749;32046.375
701.497;31677.627;  -12.449;32603.574
702.072;30040.186;   -8.879;34799.871
702.646;28147.508;  -10.719;35793.172
703.221;27541.391;   -8.469;35201.590
703.795;28282.104;  -11.389;34764.527
704.370;27247.963;  -12.499;34307.367
704.944;25911.994;  -11.449;33509.887
705.519;25881.926;  -10.659;31388.584
706.093;25270.426;  -12.909;31340.104
706.668;25645.266;  -13.509;32630.281
707.242;26592.318;  -10.049;32728.779
707.816;26392.801;  -10.629;32947.238
708.390;25532.988;  -11.829;33277.855
708.965;24257.818;  -11.159;33834.336
709.539;24599.992;  -11.069;33709.273
710.113;24386.047;  -10.908;33044.313
710.687;22625.012;   -9.488;31953.992
711.261;22898.713;  -13.068;30505.949
711.835;25502.852;  -12.748;30262.369
712.409;27676.111;  -10.678;31254.447
712.983;27057.168;  -11.658;32754.986
713.557;26392.770;  -13.718;34018.824
714.131;27095.520;  -13.388;34579.625
714.704;29786.326;   -9.818;33890.262
715.278;31841.092;  -11.818;33531.102
715.852;31940.029;  -11.328;33601.660
716.425;32363.652;   -9.118;33515.117
716.999;32525.459;  -10.188;33185.555
717.573;31614.100;   -9.808;33905.996
718.146;30552.521;  -11.478;35199.293
718.720;29289.900;  -10.998;35060.551
719.293;28530.197;   -9.508;34973.230
719.867;29653.311;  -12.138;36394.449
720.440;29255.760;  -11.288;36663.008
721.013;31299.857;  -11.428;35102.426
721.587;32804.039;  -11.698;33985.266
722.160;34134.023;  -11.608;33524.965
722.733;34376.676;  -11.428;32987.043
723.306;31259.529;  -12.518;33066.301
723.880;29741.121;   -7.408;33399.500
724.453;29407.564;  -11.048;33468.297
725.026;28095.014;  -11.678;33816.637
725.599;26722.914;  -10.978;32797.996
726.172;25105.145;   -8.838;33187.434
726.745;25017.961;  -11.438;35136.613
727.318;26587.895;   -9.828;35751.730
727.891;27334.971;  -10.868;35890.430
728.463;27154.963;  -11.348;34822.090
729.036;25912.234;  -11.608;32895.086
729.609;25551.482;  -14.738;31823.225
730.182;25895.246;   -8.448;31445.283
730.754;26741.074;  -11.228;32373.223
731.327;27074.160;  -12.018;33676.820
731.900;28967.773;  -13.748;33417.000
732.472;30005.412;  -10.928;31978.498
733.045;29469.914;   -9.478;30368.777
733.617;27694.254;  -12.967;30574.215
734.190;26973.730;  -11.707;31280.975
734.762;26390.807;  -11.067;31674.412
735.334;25497.896;  -10.587;31247.291
735.907;24427.178;  -11.947;29876.211
736.479;24829.654;  -11.667;29808.488
737.051;26439.246;  -10.187;30233.547
737.623;27010.023;   -6.887;31469.086
738.195;28261.529;  -12.117;31784.225
738.768;30399.604;  -14.077;32120.523
739.340;29848.463;  -12.207;32094.342
739.912;27392.254;   -8.977;31312.680
740.484;26018.068;  -11.017;31946.238
741.056;27970.227;  -13.517;32984.059
741.628;30456.170;  -11.507;33897.715
742.199;30871.891;   -7.597;33213.016
742.771;30439.111;  -12.227;31369.113
743.343;29073.863;  -12.427;31865.473
743.915;27164.035;   -9.827;32388.631
744.487;25969.816;  -10.007;31079.568
745.058;25065.051;  -11.887;30570.107
745.630;24035.482;  -10.787;29970.127
746.201;23605.188;  -10.887;29186.766
746.773;25234.359;   -9.707;28805.723
747.344;26429.400;  -11.137;29591.223
747.916;25786.518;  -11.887;31412.201
748.487;25098.277;   -9.707;32194.898
749.059;24609.531;  -10.027;32533.719
749.630;23926.902;  -11.787;32158.518
750.201;22657.857;  -12.767;30855.395
750.773;20746.105;  -11.497;28622.555
751.344;21570.488;   -9.937;28405.732
751.915;21552.232;  -11.567;28461.551
752.486;19490.105;  -13.267;27842.850
753.057;18434.500;  -10.627;27845.008
753.628;18448.441;  -11.657;27728.107
754.199;20836.344;  -12.097;27381.086
754.770;22395.703;  -11.447;25882.203
755.341;22769.275;  -11.997;25886.184
755.912;21141.129;  -10.207;26050.861
756.483;19273.381;  -10.937;26798.779
757.054;19618.336;  -11.527;27048.238
757.625;19865.295;  -12.886;26294.838
758.195;19439.008;  -11.226;26142.076
758.766;19819.383;  -12.366;26392.234
759.337;18634.289;  -11.946;26334.594
759.907;18231.758;  -13.856;27579.652
760.478;19538.922;   -9.606;28352.770
761.048;21072.646;  -11.606;27325.088
761.619;21661.555;  -11.036;26460.428
762.189;20025.271;  -12.206;26029.826
762.760;19245.793;   -9.666;26430.145
763.330;20208.578;   -9.796;26670.902
763.900;20002.600;  -10.896;26603.021
764.471;19493.215;  -11.726;25542.740
765.041;20222.205;   -9.656;24358.459
765.611;20674.166;  -11.276;23991.297
766.181;20199.002;  -12.116;24470.236
766.751;19999.076;  -12.376;24845.975
767.321;20291.613;  -11.626;24533.633
767.891;20077.924;  -10.426;24916.492
768.461;18407.471;  -13.456;24776.771
769.031;15991.912;  -11.616;24757.988
769.601;15024.322;  -11.356;24181.088
770.171;14980.715;  -11.586;23670.387
770.741;15576.210;  -12.696;22960.045
771.311;17234.500;  -10.226;22917.523
771.880;17898.334;  -11.146;23562.941
772.450;18259.980;  -11.716;24216.500
773.020;18120.131;  -13.226;24140.398
773.589;17063.314;  -12.586;24414.857
774.159;16716.654;  -10.246;23858.717
774.729;16144.688;  -11.586;22942.135
775.298;15961.692;  -15.926;22324.033
775.867;15923.626;  -10.426;21140.313
776.437;15473.661;  -11.416;20838.092
777.006;13615.872;  -12.766;20599.510
777.576;13631.181;  -13.666;20508.809
778.145;15066.854;  -10.066;20732.947
778.714;15313.575;  -10.276;21062.465
779.283;14756.294;  -12.086;20949.664
779.853;14532.901;  -14.016;20508.623
780.422;14411.473;  -12.376;20649.082
780.991;13802.196;   -9.246;21527.520
781.560;13551.559;   -9.775;22632.658
782.129;13806.532;  -12.495;23048.277
782.698;13844.210;  -11.775;23438.555
783.267;13756.352;  -10.065;23267.734
783.836;14587.212;  -12.455;22415.133
784.404;15087.899;  -13.385;20443.152
784.973;15034.716;  -11.045;19699.150
785.542;14601.093;   -9.505;19763.828
786.111;13868.605;   -9.385;20341.408
786.679;13620.743;  -13.475;20207.967
787.248;13573.076;  -11.245;19516.465
787.817;12143.768;  -12.485;18900.363
788.385;10661.882;  -11.165;17879.121
788.954;11174.087;  -11.755;17658.301
789.522;12137.338;   -9.625;17788.879
790.090;12449.866;   -9.665;18118.277
790.659;11790.601;   -9.295;18338.736
791.227;11784.876;  -12.175;18508.615
791.795;12613.501;  -12.145;17898.254
792.364;12620.720;  -11.575;17295.133
792.932;12016.159;  -11.085;16822.051
793.500;11623.322;  -11.345;17040.148
794.068;11279.530;  -12.565;17179.787
794.636;11887.615;  -12.105;16664.246
795.204;12977.758;  -11.995;16524.545
795.772;12917.815;  -12.615;17274.564
796.340;12331.845;  -12.425;17891.002
796.908;11917.924;  -11.455;17648.561
797.476;11074.499;  -12.165;17064.080
798.044; 9950.768;  -15.795;16672.777
798.612; 9471.733;  -10.985;17023.996
799.180;10096.734;  -12.055;16561.615
799.747;10642.356;  -12.525;15962.773
800.315; 9808.496;  -14.765;15296.992
800.883; 8602.113;  -12.435;14801.771
801.450; 8473.530;  -11.295;14534.430
802.018; 8898.157;  -11.185;14173.248
802.585; 9058.832;  -11.625;14029.547
803.153; 8375.378;  -10.665;13836.846
803.720; 7883.892;  -10.275;13567.324
804.287; 8055.495;  -12.865;13360.622
804.855; 8330.181;  -12.324;13681.981
805.422; 8299.172;  -11.574;13536.560
805.989; 7930.934;  -11.004;13355.958
806.556; 8120.192;  -12.214;13747.896
807.124; 8515.958;  -13.304;13987.376
807.691; 8450.938;  -12.034;14038.674
808.258; 8261.271;  -11.014;14120.152
808.825; 8135.180;  -11.804;13860.111
809.392; 7858.143;  -11.544;13268.790
809.959; 7606.606;  -14.954;12680.389
810.526; 7842.349;  -10.214;12427.308
811.093; 7881.751;  -10.754;12030.105
811.659; 7513.556;  -12.194;11653.664
812.226; 6834.024;   -9.194;11637.183
812.793; 6701.580;   -9.644;11611.521
813.360; 7396.777;  -11.544;11885.181
813.926; 8384.559;  -12.814;12770.539
814.493; 8454.123;  -11.524;12677.638
815.060; 8214.110;  -12.254;11974.336
815.626; 8010.278;  -12.114;11594.715
816.193; 7483.001;  -11.994;11579.474
816.759; 6935.176;  -11.464;11666.972
817.325; 6475.914;  -10.444;11325.530
817.892; 6188.016;  -11.124;11105.369
818.458; 6208.124;  -11.864;10843.928
819.024; 6728.906;  -10.634;10714.406
819.591; 6933.177;  -10.554;10469.165
820.157; 6985.361;  -13.334;10235.523
820.723; 7022.122;  -13.044;10847.563
821.289; 6911.121;   -9.664;11040.980
821.855; 6991.365;  -10.994;10357.100
822.421; 7246.941;  -11.784; 9978.918
822.987; 7410.118;  -12.554; 9754.177
823.553; 7409.298;  -12.554;10065.755
824.119; 7036.591;   -8.544;10036.294
824.685; 6245.065;  -12.144;10029.192
825.251; 5897.255;  -12.754;10199.230
825.816; 5580.216;  -11.354; 9820.189
826.382; 5188.756;  -11.004; 9297.248
826.948; 5156.156;  -11.004; 9381.347
827.513; 5361.291;  -12.474; 9450.726
828.079; 5458.156;  -13.084; 9472.444
828.645; 5594.213;  -10.813; 9292.643
829.210; 5442.785;  -11.593; 9065.341
829.776; 5466.176;  -12.633; 9132.620
830.341; 5758.932;  -10.473; 9092.878
830.906; 5664.298;   -8.763; 9078.557
831.472; 4978.019;  -13.453; 8534.535
832.037; 4031.034;  -12.173; 8677.874
832.602; 3731.935;  -14.093; 8628.692
833.167; 4094.783;  -13.593; 8879.031
833.733; 4692.556;  -10.793; 9189.790
834.298; 5050.454;  -14.783; 9052.608
834.863; 4693.062;  -11.023; 8895.087
835.428; 4361.263;  -11.113; 8824.266
835.993; 4691.144;   -9.983; 8845.385
836.558; 4954.104;  -13.003; 8888.563
837.123; 4858.367;  -10.733; 8966.582
837.688; 4510.455;   -9.683; 8617.860
838.253; 4278.806;  -12.253; 8590.699
838.817; 4451.754;  -11.643; 8443.797
839.382; 4662.214;  -11.953; 8799.356
839.947; 4623.443;  -11.443; 8810.595
840.511; 4474.231;  -10.843; 8796.394
841.076; 4466.449;  -13.533; 8347.231
841.641; 4584.330;  -11.743; 8224.330
842.205; 4429.799;  -10.013; 8223.349
842.770; 4281.295;  -11.023; 8622.107
843.334; 4283.174;  -14.273; 8410.386
843.898; 4450.222;  -11.323; 8337.465
844.463; 4814.269;  -10.263; 8506.283
845.027; 4992.535;  -10.353; 8280.962
845.591; 4932.846;  -12.163; 8231.141
846.156; 4735.806;  -12.263; 7969.179
846.720; 4714.454;  -11.553; 7768.278
847.284; 4598.102;  -12.393; 7630.957
847.848; 3963.848;  -12.623; 7472.395
848.412; 3397.073;  -11.863; 7437.394
848.976; 3300.536;  -10.203; 7674.592
849.540; 3390.040;  -10.603; 7836.011
850.104; 3524.656;  -12.423; 7913.669
850.668; 3604.818;  -14.613; 7694.508
851.232; 3551.674;  -12.873; 7756.887
851.796; 3580.792;  -14.192; 7926.545
852.359; 3733.942;  -13.652; 7827.844
852.923; 3715.543;  -11.402; 7641.163
853.487; 3587.121;  -12.022; 7342.501
854.050; 3444.863;  -15.202; 7042.820
854.614; 3430.837;  -14.592; 7151.338
855.177; 3396.859;  -12.572; 7105.077
855.741; 3417.865;   -9.932; 6989.675
856.304; 3584.194;  -12.192; 6596.634
856.868; 3631.593;  -13.462; 6356.272
857.431; 3591.396;  -11.542; 6468.571
857.995; 3608.596;  -12.062; 6373.210
858.558; 3369.676;  -11.142; 6324.448
859.121; 3075.907;  -11.742; 6408.327
859.684; 2910.356;  -10.332; 6347.886
860.247; 2892.385;  -11.962; 6321.264
860.810; 3021.951;  -12.332; 6301.903
861.374; 3057.463;  -10.292; 6607.881
861.937; 2975.599;  -12.062; 6408.200
862.500; 3052.613;  -11.702; 6572.639
863.062; 3221.065;  -13.852; 6387.297
863.625; 3313.748;  -12.972; 6190.836
864.188; 3225.587;  -10.292; 5807.254
864.751; 3093.213;  -12.382; 5682.413
865.314; 2912.094;  -13.232; 5547.492
865.876; 2696.807;  -12.772; 5500.150
866.439; 2526.392;  -11.952; 5415.909
867.002; 2499.032;   -9.332; 5501.567
867.564; 2707.613;  -11.712; 5413.946
868.127; 2894.292;  -12.012; 5160.325
868.689; 2694.731;  -11.882; 5133.183
869.252; 2371.399;  -11.572; 5252.382
869.814; 2236.279;  -10.692; 5297.141
870.377; 2323.773;  -12.392; 5390.919
870.939; 2450.392;  -10.582; 5599.898
871.501; 2470.097;  -12.782; 5248.336
872.063; 2418.155;  -15.612; 4854.235
872.626; 2401.353;  -13.922; 4817.074
873.188; 2297.917;  -13.832; 4987.732
873.750; 2163.676;  -10.962; 4868.651
874.312; 2202.538;  -11.022; 4779.330
874.874; 2242.746;  -13.152; 4866.348
875.436; 2214.608;  -13.401; 4718.887
875.998; 2165.635;   -8.891; 4660.005
876.560; 2101.363;  -12.591; 4462.964
877.122; 2025.967;  -14.531; 4145.042
877.683; 1943.730;  -10.781; 4056.481
878.245; 1874.605;  -14.281; 3950.740
878.807; 1868.897;  -10.311; 4058.958
879.369; 1803.620;  -13.201; 3954.677
879.930; 1753.720;  -12.061; 3941.495
880.492; 1762.824;   -9.181; 4067.014
881.053; 1788.864;  -12.051; 3859.633
881.615; 1760.061;  -11.501; 3776.071
882.176; 1666.766;  -12.221; 3734.750
882.738; 1537.617;   -8.931; 3678.489
883.299; 1421.499;  -13.571; 3405.407
883.860; 1424.172;  -12.331; 3351.106
884.422; 1382.858;  -10.201; 3394.044
884.983; 1242.231;  -12.521; 3166.443
885.544; 1129.379;  -12.291; 3189.802
886.105; 1098.669;  -12.991; 3160.360
886.666; 1102.308;  -12.901; 3093.059
887.227; 1080.408;  -12.061; 2941.957
887.788; 1033.426;  -11.641; 2974.836
888.349;  984.222;  -14.691; 2721.214
888.910;  934.885;   -9.681; 2696.493
889.471;  908.923;   -9.971; 2560.172
890.032;  892.606;  -13.151; 2558.190
890.593;  865.990;  -12.051; 2567.669
891.153;  832.625;  -12.841; 2460.307
891.714;  808.196;  -13.561; 2372.046
892.275;  789.311;  -12.401; 2309.505
892.835;  755.730;  -13.191; 2382.543
893.396;  710.449;  -12.551; 2295.502
893.956;  691.855;  -11.981; 2162.420
894.517;  695.575;  -12.221; 2125.439
895.077;  669.249;  -12.021; 2086.978
895.638;  598.633;  -10.891; 2126.316
896.198;  535.177;  -13.171; 1838.275
896.758;  493.035;  -11.891; 1892.813
897.319;  451.451;  -12.491; 1792.232
897.879;  429.459;  -12.401; 1762.751
898.439;  403.290;  -13.431; 1661.149
898.999;  384.052;  -11.340; 1781.468
899.559;  376.499;  -13.930; 1703.347
900.119;  360.009;  -13.730; 1537.525
900.679;  343.126;   -9.210; 1638.384
901.239;  326.993;  -10.860; 1527.902
901.799;  309.286;  -11.450; 1456.441
902.359;  286.449;  -13.800; 1357.140
902.919;  276.718;  -12.130; 1331.118
903.479;  272.507;  -12.650; 1317.257
904.038;  262.754;  -16.110; 1262.595
904.598;  245.707;  -13.690; 1152.034
905.158;  231.725;  -10.290; 1240.893
905.717;  223.511;  -10.670; 1233.691
906.277;  220.617;  -14.040; 1217.330
906.836;  220.712;  -13.510; 1222.408
907.396;  215.751;  -11.530; 1193.047
907.955;  204.649;  -13.190; 1182.526
908.515;  193.706;  -12.950; 1099.364
909.074;  185.272;  -12.390; 1092.863
909.633;  178.998;  -10.340; 1069.121
910.192;  177.362;  -11.170; 1196.460
910.752;  173.895;  -14.200; 1029.960
911.311;  170.355;  -13.810; 1009.780
911.870;  167.443;  -12.750;  971.460
912.429;  166.891;  -12.380; 1094.080
912.988;  164.530;  -11.930; 1081.060
913.547;  159.574;  -10.990;  940.380
914.106;  155.832;  -11.200;  999.420
914.665;  154.669;  -13.150;  984.020
915.224;  151.411;  -13.310; 1035.760
915.782;  149.799;  -13.340;  922.560
916.341;  149.418;  -10.710; 1049.840
916.900;  146.957;  -12.980;  925.260
917.458;  145.706;  -13.060;  884.220
918.017;  144.521;  -10.900;  942.600
918.576;  143.413;  -11.630;  904.440
919.134;  141.993;  -12.860;  837.980
919.693;  143.200;  -15.160;  893.060
920.251;  142.150;  -13.470;  876.500
920.809;  141.181;  -13.700;  839.580
921.368;  141.257;  -13.420;  885.360
921.926;  142.069;  -14.710;  842.940
922.484;  144.074;  -12.560;  903.360
923.042;  144.027;  -11.930;  880.340
923.601;  143.754;  -10.270;  998.680
924.159;  141.619;  -12.960;  935.560
924.717;  139.574;  -13.040;  841.080
925.275;  141.077;  -12.560;  903.240
925.833;  141.675;  -13.040;  779.320
926.391;  144.957;  -13.360;  938.380
926.949;  144.557;  -13.940;  857.680
927.506;  145.187;   -9.400;  903.500
928.064;  143.867;  -10.940;  877.580
928.622;  143.845;  -13.180;  880.100
929.180;  144.244;  -12.730;  814.180
929.737;  144.933;  -12.840;  808.540
930.295;  148.869;  -11.810;  928.480
930.853;  153.808;  -13.650;  849.100
931.410;  158.455;  -13.580;  821.120
931.968;  159.569;  -12.020;  940.660
932.525;  159.375;  -13.320;  909.380
933.082;  159.364;  -13.800;  811.440
933.640;  163.093;  -11.380;  925.900
934.197;  165.501;  -11.480;  886.360
934.754;  168.055;  -13.220;  897.780
935.312;  167.256;  -14.950;  863.340
935.869;  165.159;  -10.940; 1012.980
936.426;  159.617;  -12.100;  872.800
936.983;  159.757;  -12.930;  889.020
937.540;  160.611;  -14.250;  838.280
938.097;  166.366;  -12.600;  940.120
938.654;  173.017;  -11.260;  898.860
939.211;  175.862;  -13.020;  952.480
939.768;  177.858;  -15.760;  915.420
940.324;  182.802;  -13.920;  904.200
940.881;  180.532;  -11.620;  878.500
941.438;  177.069;   -9.870; 1021.200
941.995;  173.736;  -13.920;  992.560
942.551;  170.710;  -12.830;  875.620
943.108;  171.248;  -11.980;  937.920
943.664;  175.234;  -13.740;  869.340
944.221;  183.674;  -12.670; 1088.140
944.777;  183.455;  -13.250;  869.680
945.334;  179.137;  -13.000;  884.840
945.890;  177.480;  -13.020;  946.480
946.446;  175.548;  -13.880;  947.020
947.003;  177.181;  -12.660;  964.940
947.559;  178.235;   -8.730; 1063.040
948.115;  176.162;  -11.960; 1026.540
948.671;  172.384;  -12.360;  967.300
949.227;  167.565;  -12.700;  859.560
949.783;  164.260;  -13.450;  858.900
950.339;  163.641;  -10.620;  991.000
950.895;  160.142;  -14.770; 1023.840
951.451;  158.397;  -13.650;  925.280
952.007;  160.036;  -11.180;  998.540
952.563;  158.531;  -11.680;  937.780
953.118;  158.540;  -13.280;  904.940
953.674;  159.523;  -12.510;  935.780
954.230;  159.852;  -12.220;  949.640
954.785;  155.584;  -12.190;  936.640
955.341;  152.653;  -12.270;  998.160
955.897;  149.298;  -14.900;  834.660
956.452;  151.386;  -12.520;  953.840
957.008;  151.431;   -9.410; 1083.640
957.563;  148.331;  -11.280; 1009.540
958.118;  144.694;  -13.470;  877.700
958.674;  145.183;  -12.190;  946.780
959.229;  147.916;  -12.760; 1013.980
959.784;  151.205;  -15.710;  832.400
960.339;  157.046;  -12.540; 1001.280
960.894;  157.231;  -11.680;  963.760
961.449;  153.860;  -11.410;  859.960
962.004;  151.598;  -10.430; 1212.840
962.559;  144.507;  -14.040;  860.140
963.114;  139.303;  -14.270;  742.480
963.669;  139.893;  -11.320;  915.500
964.224;  139.429;  -14.620;  874.340
964.779;  138.405;  -14.150;  828.420
965.334;  137.851;  -10.850; 1017.860
965.888;  138.557;  -14.530;  875.360
966.443;  142.113;  -13.520;  972.380
966.998;  142.164;  -13.370;  819.460
967.552;  139.080;   -9.960;  908.380
968.107;  128.766;  -12.360;  868.300
968.661;  119.600;  -12.270;  922.440
969.216;  106.668;  -12.140;  856.280
969.770;   99.591;  -11.860;  917.200
970.324;   97.744;  -12.170;  923.140
970.879;   99.550;  -14.160;  947.180
971.433;  102.053;  -12.940;  952.720
971.987;  101.983;  -10.180;  895.340
972.541;  102.759;  -12.130;  917.100
973.095;  104.447;  -14.980; 1009.460
973.649;  104.925;  -14.480;  809.480
974.203;  106.920;  -13.530;  829.040
974.757;  109.426;  -12.060;  855.220
975.311;  108.605;  -13.240;  872.600
975.865;  107.883;  -12.550;  881.820
976.419;  107.230;  -13.180;  857.400
976.973;  107.364;  -14.100;  849.620
977.526;  106.220;  -13.330;  949.920
978.080;  102.344;  -15.390;  796.780
978.634;  102.146;  -11.670;  921.320
979.187;   99.063;  -10.640;  905.400
979.741;   99.909;  -13.330; 1018.380
980.294;   98.811;  -14.480;  789.160
980.848;   97.218;  -13.420;  717.220
981.401;   96.076;  -12.360;  816.540
981.955;   93.813;  -12.480;  844.300
982.508;   89.708;  -14.000;  746.340
983.061;   89.510;  -10.440;  915.260
983.615;   86.150;  -14.340;  798.800
984.168;   83.525;  -14.950;  770.080
984.721;   84.381;  -13.270;  880.760
985.274;   82.114;  -12.240;  867.500
985.827;   79.646;  -12.720;  834.220
986.380;   77.627;  -14.920;  721.340
986.933;   77.779;  -12.860;  864.800
987.486;   76.658;  -10.440;  861.920
988.039;   74.957;  -11.820;  863.100
988.591;   73.660;  -13.760;  893.260
989.144;   71.131;  -14.080;  737.260
989.697;   72.033;  -13.440;  758.740
990.250;   72.552;  -12.050;  858.100
990.802;   71.086;  -14.550;  755.860
991.355;   72.235;  -10.770;  974.880
991.907;   69.992;  -11.710;  864.320
992.460;   67.749;  -12.650;  753.760
993.012;   67.121;  -13.860;  749.540
993.565;   65.159;  -14.310;  711.360
994.117;   65.056;   -9.920;  950.780
994.669;   60.366;  -13.420;  701.320
995.221;   60.402;  -14.200;  791.920
995.774;   60.695;  -13.400;  787.580
996.326;   59.231;  -11.850;  740.220
996.878;   58.939;  -12.230;  838.420
997.430;   56.990;  -14.260;  699.860
997.982;   56.905;  -11.430;  750.140
998.534;   56.650;  -11.590;  739.060
999.086;   55.601;  -11.960;  738.220
999.638;   55.072;  -13.640;  661.380
1000.190;   54.844;  -13.660;  699.320
1000.741;   53.747;   -9.980;  742.700
1001.293;   52.221;  -11.860;  686.020
1001.845;   50.958;  -14.280;  676.640
1002.396;   51.800;  -12.270;  743.400
1002.948;   50.315;  -13.670;  737.400
1003.500;   48.610;  -12.010;  723.780
1004.051;   49.421;  -11.890;  907.580
1004.603;   48.501;  -11.220;  791.820
1005.154;   44.116;  -13.210;  608.980
1005.705;   44.038;  -11.850;  723.960
1006.257;   43.663;  -13.670;  707.220
1006.808;   43.427;  -12.060;  685.460
1007.359;   43.485;  -10.250;  763.240
1007.910;   40.929;  -13.440;  646.640
1008.461;   42.041;  -13.170;  732.940
1009.013;   40.445;  -14.590;  588.340
1009.564;   41.251;  -12.100;  793.520
1010.115;   38.306;  -14.000;  597.040
1010.665;   38.973;  -15.020;  602.160
1011.216;   40.043;  -12.560;  667.920
1011.767;   38.055;  -11.330;  697.920
1012.318;   39.084;  -11.450;  736.980
1012.869;   38.816;  -11.000;  679.000
1013.419;   37.645;  -11.760;  603.120
1013.970;   37.686;  -11.800;  666.640
1014.521;   37.125;  -14.750;  620.620
1015.071;   37.696;  -14.430;  670.380
1015.622;   37.346;  -14.170;  635.460
1016.172;   36.205;  -11.700;  596.820
1016.723;   35.814;  -13.230;  614.380
1017.273;   35.978;  -16.120;  604.160
1017.823;   36.043;  -13.360;  650.340
1018.374;   35.564;  -13.710;  611.760
1018.924;   35.097;  -11.050;  716.880
1019.474;   35.993;  -14.120;  718.880
1020.024;   34.120;  -12.990;  657.580
1020.574;   35.126;  -12.010;  726.160
1021.124;   34.202;  -12.080;  673.580
1021.674;   33.090;  -15.860;  559.120
1022.224;   35.333;  -11.710;  708.940
1022.774;   34.088;  -13.030;  668.820
1023.324;   33.486;  -11.000;  753.520
1023.874;   35.341;  -13.270;  875.760
1024.423;   33.327;  -14.570;  613.700
1024.973;   32.515;  -12.620;  610.760
1025.523;   31.440;  -12.630;  620.960
1026.072;   31.572;  -14.110;  606.420
1026.622;   32.113;  -15.390;  675.740
1027.172;   32.071;   -9.090;  715.660
1027.721;   30.520;  -12.250;  601.220
1028.270;   30.818;  -15.590;  663.400
1028.820;   31.398;  -13.840;  638.080
1029.369;   30.186;  -13.170;  612.700
1029.918;   30.564;  -14.080;  649.840
1030.468;   29.842;  -13.860;  564.780
1031.017;   31.399;  -12.970;  634.800
1031.566;   29.626;  -12.320;  608.900
1032.115;   29.774;  -13.140;  694.500
1032.664;   28.531;  -14.560;  596.480
1033.213;   30.527;  -11.620;  735.420
1033.762;   29.528;  -13.190;  635.620
1034.311;   29.259;  -13.460;  677.220
1034.860;   29.054;  -15.770;  691.000
1035.408;   28.280;  -13.100;  722.720
1035.957;   29.226;  -12.880;  719.540
1036.506;   26.687;  -13.640;  530.800
1037.055;   30.309;  -12.420;  844.320
1037.603;   28.677;  -13.740;  664.000
1038.152;   26.509;  -13.840;  534.760
1038.700;   27.038;  -10.770;  585.740
1039.249;   27.157;  -13.520;  681.220
1039.797;   27.304;  -13.060;  633.360
1040.345;   26.853;  -11.760;  705.420
1040.894;   26.101;  -10.790;  625.300
1041.442;   26.386;  -15.420;  632.200
1041.990;   25.590;  -14.550;  559.160
1042.538;   24.784;  -15.620;  536.180
1043.087;   25.271;  -14.940;  570.860
1043.635;   26.364;  -12.100;  670.500
1044.183;   25.708;  -13.200;  586.400
1044.731;   25.462;  -11.630;  576.000
1045.279;   24.283;  -14.200;  674.920
1045.827;   27.888;  -12.510;  892.400
1046.374;   23.876;  -14.960;  515.420
1046.922;   23.701;  -11.850;  590.580
1047.470;   24.802;  -13.770;  691.300
1048.018;   24.591;  -15.380;  647.960
1048.565;   25.455;  -14.010;  708.600
1049.113;   23.321;  -14.620;  557.000
1049.660;   23.597;  -14.940;  629.660
1050.208;   23.710;  -14.540;  675.640
1050.755;   23.255;  -13.710;  606.580
1051.303;   23.624;  -11.880;  686.820
1051.850;   22.185;  -12.160;  635.120
1052.397;   21.105;  -15.110;  473.960
1052.945;   21.942;  -14.770;  617.760
1053.492;   24.200;  -12.320;  741.840
1054.039;   23.349;  -13.290;  720.180
1054.586;   21.527;  -15.210;  557.240
1055.133;   23.163;  -12.920;  693.140
1055.680;   23.040;  -12.610;  646.620
1056.227;   21.854;  -12.620;  542.780
1056.774;   23.687;  -13.010;  794.980
1057.321;   21.851;  -16.180;  523.260
1057.868;   21.268;  -11.230;  651.320
1058.415;   20.428;  -10.890;  651.980
1058.961;   21.452;  -12.530;  678.940
1059.508;   21.406;  -14.120;  643.820
1060.055;   20.767;  -13.340;  581.780
1060.601;   21.058;  -12.920;  624.300
1061.148;   20.865;  -14.430;  616.820
1061.694;   20.700;  -14.140;  592.580
1062.241;   20.209;  -12.550;  596.320
1062.787;   20.716;  -13.370;  663.140
1063.334;   22.863;  -12.260;  808.560
1063.880;   20.839;  -10.800;  668.360
1064.426;   20.916;   -9.920;  706.820
1064.972;   18.988;  -12.970;  601.340
1065.518;   18.839;  -14.440;  566.640
1066.065;   19.812;  -12.680;  624.460
1066.611;   18.135;  -13.520;  598.800
1067.157;   18.909;  -11.100;  641.860
1067.703;   19.159;  -14.100;  668.480
1068.249;   19.193;  -13.750;  605.220
1068.794;   18.896;  -11.070;  626.880
1069.340;   17.463;  -13.210;  578.960
1069.886;   17.774;  -14.850;  590.700
1070.432;   17.797;  -14.580;  541.720
1070.977;   17.275;  -12.930;  601.080
1071.523;   17.208;  -11.970;  573.060
1072.068;   17.363;  -13.730;  582.000
1072.614;   17.428;  -14.550;  527.760
1073.160;   18.165;  -13.690;  687.040
1073.705;   16.477;  -14.780;  572.520
1074.250;   16.343;  -15.430;  559.900
1074.796;   18.085;  -11.620;  655.160
1075.341;   17.335;  -11.580;  664.100
1075.886;   16.698;  -13.190;  594.240
1076.431;   16.666;  -13.630;  649.880
1076.976;   16.615;  -11.670;  639.220
1077.521;   16.304;  -11.600;  583.080
1078.067;   15.440;  -13.920;  579.400
1078.612;   16.611;  -12.910;  661.620
1079.156;   15.768;  -15.340;  601.540
1079.701;   16.503;  -12.560;  693.260
1080.246;   16.564;  -12.490;  696.300
1080.791;   15.983;  -14.550;  625.020
1081.336;   16.734;  -15.210;  659.320
1081.880;   15.963;  -11.280;  649.680
1082.425;   14.593;  -12.830;  573.480
1082.970;   16.538;  -11.680;  717.040
1083.514;   15.076;  -15.500;  597.000
1084.059;   14.024;  -11.770;  586.720
1084.603;   13.331;  -13.480;  565.840
1085.147;   15.207;  -13.940;  645.220
1085.692;   15.944;  -13.170;  716.800
1086.236;   13.669;  -15.740;  503.140
1086.780;   15.310;  -10.750;  751.440
1087.325;   15.202;  -14.900;  654.620
1087.869;   14.823;  -15.160;  610.700
1088.413;   14.895;  -11.030;  705.040
1088.957;   12.314;  -15.210;  543.400
1089.501;   15.388;  -12.310;  766.640
1090.045;   14.778;  -12.790;  726.480
1090.589;   12.386;  -14.040;  569.920
1091.133;   13.780;  -12.800;  673.340
1091.676;   14.051;  -13.600;  591.940
1092.220;   13.053;  -12.960;  600.920
1092.764;   13.983;  -10.830;  706.960
1093.307;   13.589;  -12.390;  673.780
1093.851;   11.913;  -15.850;  556.540
1094.395;   13.066;  -12.980;  683.140
1094.938;   12.290;  -13.670;  632.520
1095.482;   11.845;  -12.740;  559.800
1096.025;   13.689;  -13.340;  710.880
1096.568;   13.805;  -10.500;  779.280
1097.112;    9.749;  -13.500;  508.180
1097.655;   12.150;  -13.060;  603.000
1098.198;   11.178;  -13.240;  600.180
1098.741;   10.465;  -15.490;  612.860
1099.285;   12.386;  -13.410;  657.300
1099.828;    9.766;  -15.640;  439.400
1100.371;   11.381;  -13.980;  608.160
1100.914;   12.254;  -13.990;  682.660
1101.457;   11.719;  -15.030;  679.900
1101.999;   10.059;  -12.480;  584.680
1102.542;   11.408;  -12.410;  641.440
1103.085;   10.690;  -14.730;  658.500
1103.628;   11.295;  -12.190;  762.060
1104.170;    9.749;  -12.360;  588.280
1104.713;   10.691;  -13.350;  646.700
1105.256;   10.102;  -14.930;  557.440
1105.798;    8.970;  -15.150;  499.980
1106.341;   11.159;  -13.230;  728.900
1106.883;    9.607;  -14.680;  521.340
1107.425;    9.992;  -14.810;  668.180
1107.968;    9.677;  -12.940;  612.380
1108.510;   10.393;  -10.550;  684.960
1109.052;    8.496;  -15.640;  612.620
1109.594;    8.997;  -14.440;  554.440
1110.136;    9.729;  -11.380;  643.220
1110.679;    8.602;  -13.090;  633.080
1111.221;    9.098;  -14.230;  604.460
1111.763;    8.482;  -14.260;  559.220
1112.304;    8.768;  -14.510;  547.140
1112.846;    8.632;  -14.700;  666.240
1113.388;   12.315;  -12.270;  942.180
1113.930;    9.828;  -13.340;  694.200
1114.472;    8.550;  -12.560;  606.540
1115.013;    6.889;  -14.280;  551.280
1115.555;    6.760;  -14.010;  587.100
1116.097;    7.417;  -14.730;  579.480
1116.638;    8.411;  -12.160;  684.600
1117.180;    8.359;  -14.320;  667.740
1117.721;    7.177;  -15.730;  568.580
1118.262;    8.314;  -13.480;  677.960
1118.804;    7.909;  -11.530;  637.340
1119.345;    6.644;  -13.540;  578.400
1119.886;    8.370;  -14.470;  704.040
1120.427;    6.966;  -13.030;  589.020
1120.969;    7.278;  -13.150;  597.920
1121.510;    5.526;  -13.940;  563.060
1122.051;    7.656;  -12.310;  723.580
1122.592;    7.018;  -13.870;  655.420
1123.133;    5.361;  -12.890;  547.940
1123.673;    6.891;  -13.300;  706.480
1124.214;    6.420;  -14.000;  612.460
1124.755;    7.866;  -13.210;  639.460
1125.296;    6.113;  -13.450;  627.320
1125.836;    6.732;  -12.610;  691.500
1126.377;    5.934;  -15.840;  599.660
1126.918;    6.652;  -11.830;  614.980
1127.458;    5.504;  -11.830;  622.220
1127.999;    6.547;  -11.490;  656.980
1128.539;    6.484;  -12.900;  694.240
1129.079;    5.933;  -14.910;  632.720
1129.620;    4.122;  -12.920;  558.100
1130.160;    4.585;  -14.640;  539.480
1130.700;    5.460;  -13.270;  640.840
1131.240;    6.571;  -14.110;  643.700
1131.781;    5.566;  -13.130;  619.680
1132.321;    5.497;  -15.220;  599.120
1132.861;    3.420;  -15.670;  564.200
1133.401;    4.378;  -13.970;  593.940
1133.941;    5.372;  -13.740;  626.280
1134.481;    4.682;  -13.200;  597.580
1135.020;    4.813;  -14.830;  609.160
1135.560;    5.269;  -14.590;  674.940
1136.100;    3.198;  -13.730;  501.160
1136.640;    3.135;  -15.240;  510.480
1137.179;    3.868;  -14.710;  537.960
1137.719;    4.834;  -14.090;  605.400
1138.258;    4.564;  -12.470;  587.360
1138.798;    3.903;  -12.580;  663.780
1139.337;    2.950;  -16.480;  482.840
1139.877;    5.021;  -13.970;  642.360
1140.416;    6.658;   -9.870;  878.060
1140.955;    2.491;  -14.860;  535.380
1141.494;    3.809;  -14.530;  669.280
1142.034;    3.791;  -13.940;  583.520
1142.573;    4.143;  -11.160;  646.280
1143.112;    3.275;  -15.050;  553.480
1143.651;    2.935;  -15.390;  536.480
1144.190;    4.289;  -12.990;  691.640
1144.729;    2.883;  -12.220;  607.420
1145.267;    2.626;  -14.020;  584.900
1145.806;    3.905;  -12.740;  637.040
1146.345;    3.036;  -14.810;  635.020
1146.884;    2.969;  -12.920;  622.500
1147.422;    1.355;  -13.930;  533.060
1147.961;    4.182;  -11.830;  708.460
1148.500;    3.810;  -12.710;  669.720
1149.038;    3.113;  -14.420;  632.500
1149.577;    2.860;  -13.920;  698.640
1150.115;    0.735;  -17.050;  452.280
1150.653;    2.651;  -14.890;  607.340
1151.192;    2.144;  -15.270;  552.920
1151.730;    2.051;  -13.160;  652.560
1152.268;    2.297;  -15.430;  589.520
1152.806;    1.503;  -15.880;  571.180
1153.344;    0.880;  -13.240;  577.640
1153.882;    1.779;  -13.010;  600.060
1154.421;    0.128;  -16.180;  470.620
1154.958;    0.958;  -13.880;  595.240
1155.496;    2.634;  -13.590;  645.280
1156.034;    1.674;  -11.910;  721.880
1156.572;    3.078;  -12.010;  667.060
1157.110;    0.779;  -16.250;  473.940
1157.647;    2.440;  -15.230;  676.960
1158.185;    0.335;  -13.770;  564.320
1158.723;    0.359;  -15.300;  509.200
1159.260;    2.124;  -13.130;  701.700
1159.798;    2.362;  -11.300;  658.160
1160.335;    0.419;  -13.210;  631.820

