
Integration time [ms]:   3.276
Averaging Nr. [scans]: 1000
Smoothing Nr. [pixels]: 0
Data measured with spectrometer [name]: 7414430SP
Wave   ;Sample   ;Dark     ;Reference
[nm]   ;[counts] ;[counts] ;[counts] 

288.544;  150.279;    7.793;  793.890
289.143;  153.897;    7.462;  681.602
289.742;  153.399;    8.602;  828.814
290.341;  138.557;    1.321;  789.841
290.940;  128.117;   -0.709;  730.702
291.538;  129.166;    0.881;  881.108
292.137;  129.126;    0.122;  792.581
292.736;  134.356;   -1.929;  975.101
293.335;  130.871;   -8.229;  735.086
293.934;  130.357;   -5.279;  781.677
294.532;  129.071;   -1.369; 1031.958
295.131;  114.649;   -7.641;  834.394
295.730;  114.707;   -8.420;  809.588
296.328;  115.106;   -5.611;  783.442
296.927;  114.546;   -5.781;  779.652
297.525;  115.683;   -6.361;  781.236
298.124;  106.835;  -11.382;  654.009
298.722;  110.276;   -7.641;  761.933
299.321;  107.693;   -6.811;  708.597
299.919;  106.580;   -6.991;  751.918
300.518;  103.397;  -10.362;  689.338
301.116;  104.891;   -9.581;  691.381
301.715;  103.773;   -4.891;  730.222
302.313;  103.728;   -8.801;  704.943
302.911;   99.331;   -8.522;  733.830
303.509;  104.484;   -6.171;  925.627
304.108;  102.385;   -7.311;  760.383
304.706;  101.572;   -8.321;  801.664
305.304;   96.210;  -10.222;  796.707
305.902;  101.462;   -6.021;  784.484
306.500;   96.295;   -4.971;  728.200
307.098;   96.013;   -7.061;  746.560
307.696;   94.308;   -8.801;  780.432
308.294;   93.579;   -6.411;  731.359
308.892;   95.769;   -2.901;  759.769
309.490;   92.997;   -5.041;  712.161
310.088;   90.208;   -5.002;  788.444
310.686;   94.796;   -2.041;  821.749
311.284;   89.872;   -2.351;  766.040
311.882;   88.322;   -4.422;  731.225
312.480;   85.588;   -4.192;  697.167
313.078;   86.649;   -1.172;  808.331
313.675;   87.061;   -2.601;  691.600
314.273;   82.868;   -1.312;  797.837
314.871;   82.222;   -3.942;  589.829
315.468;   79.981;   -2.802;  652.090
316.066;   81.879;   -0.701;  694.427
316.664;   75.304;   -4.362;  656.351
317.261;   80.489;   -2.872;  910.128
317.859;   74.650;   -2.022;  768.735
318.456;   75.909;   -0.531;  830.096
319.054;   71.573;   -3.912;  787.828
319.651;   70.390;   -4.752;  759.928
320.249;   69.746;   -2.602;  810.188
320.846;   67.369;   -0.821;  714.286
321.443;   64.985;   -4.642;  832.135
322.041;   61.928;   -5.002;  812.315
322.638;   59.569;   -3.982;  701.456
323.235;   60.832;   -3.411;  665.683
323.833;   59.008;   -7.361;  740.354
324.430;   54.089;   -8.611;  615.900
325.027;   54.657;   -4.061;  876.855
325.624;   54.229;   -4.031;  644.532
326.221;   51.048;   -7.481;  689.717
326.818;   51.176;   -5.281;  818.332
327.415;   54.405;   -7.460;  748.828
328.012;   53.162;   -5.510;  690.585
328.609;   52.962;   -7.880;  731.389
329.206;   51.225;   -8.331;  778.621
329.803;   50.270;   -5.121;  737.841
330.400;   52.484;   -4.510;  704.260
330.997;   55.180;   -6.441;  817.147
331.594;   54.169;   -8.831;  788.185
332.191;   59.297;   -7.621;  728.722
332.787;   61.338;   -4.591;  844.463
333.384;   60.330;   -7.412;  763.093
333.981;   59.001;   -8.293;  815.687
334.578;   61.354;   -7.052;  708.378
335.174;   64.322;   -3.102;  731.469
335.771;   63.428;   -5.943;  836.456
336.367;   60.616;   -7.393;  710.631
336.964;   64.588;   -4.063;  793.266
337.561;   62.181;   -3.813;  731.112
338.157;   57.444;   -4.654;  911.916
338.754;   55.383;   -7.934;  796.589
339.350;   53.956;   -4.414;  722.493
339.946;   55.464;   -4.664;  773.135
340.543;   47.669;   -6.375;  846.136
341.139;   42.890;   -9.815;  720.836
341.735;   40.684;   -4.526;  772.593
342.332;   38.338;   -4.895;  691.472
342.928;   39.639;   -4.295;  795.394
343.524;   33.887;   -5.476;  761.684
344.120;   29.782;   -5.856;  738.562
344.716;   33.515;   -2.155;  723.717
345.313;   31.554;   -6.275;  795.342
345.909;   26.767;   -8.815;  627.336
346.505;   28.847;   -5.305;  740.247
347.101;   28.269;   -2.674;  827.864
347.697;   28.819;   -4.344;  785.398
348.293;   23.165;   -9.975;  627.244
348.889;   24.458;   -5.774;  745.914
349.485;   23.088;   -5.004;  688.205
350.081;   24.021;   -4.704;  772.592
350.676;   19.138;   -6.635;  691.606
351.272;   23.097;   -4.504;  809.530
351.868;   22.461;   -3.914;  780.497
352.464;   20.812;   -9.044;  723.932
353.059;   17.051;   -8.314;  646.017
353.655;   20.428;   -7.024;  777.063
354.251;   22.008;   -5.343;  759.845
354.846;   16.199;   -8.604;  740.646
355.442;   13.868;   -6.945;  753.071
356.038;   15.731;   -7.564;  751.708
356.633;   15.979;   -5.814;  728.594
357.229;   13.801;   -7.364;  724.757
357.824;   12.318;   -8.024;  703.600
358.420;   11.532;   -9.384;  679.726
359.015;   11.498;   -5.104;  695.357
359.610;   12.888;   -6.854;  763.920
360.206;    7.585;  -10.185;  603.240
360.801;    9.662;   -7.054;  646.503
361.396;   11.673;   -5.034;  725.975
361.992;    7.235;   -8.284;  668.220
362.587;    4.919;   -8.625;  670.160
363.182;    6.460;   -7.674;  689.631
363.777;    7.014;   -5.164;  738.242
364.372;    7.720;   -8.604;  737.314
364.967;    3.436;   -9.055;  680.744
365.563;    8.036;   -6.114;  815.567
366.158;    4.713;   -5.814;  685.161
366.753;    4.868;   -7.854;  649.263
367.348;    3.924;   -7.804;  746.056
367.942;    3.546;   -7.954;  697.298
368.537;    2.884;   -4.984;  754.245
369.132;    3.328;   -8.564;  703.428
369.727;   -0.854;   -8.855;  638.079
370.322;    0.827;   -6.245;  580.186
370.917;   -0.111;   -6.425;  710.646
371.511;    3.860;   -6.294;  861.834
372.106;   -1.395;   -7.685;  776.964
372.701;   -3.258;   -7.335;  585.988
373.296;    1.646;   -4.564;  863.135
373.890;   -2.822;  -10.235;  647.840
374.485;   -4.289;   -7.885;  691.199
375.079;   -1.066;   -7.324;  738.685
375.674;    0.063;   -3.494;  812.970
376.268;   -4.188;   -8.525;  691.759
376.863;   -9.106;  -10.086;  580.327
377.457;   -3.517;   -7.025;  662.490
378.052;   -5.713;   -3.585;  764.884
378.646;   -6.351;   -7.595;  741.167
379.240;   -5.653;   -8.335;  721.176
379.835;   -5.914;   -5.785;  636.978
380.429;   -7.708;   -4.335;  562.557
381.023;   -7.567;   -6.805;  779.205
381.617;   -9.842;   -9.195;  680.106
382.212;   -6.721;   -6.905;  685.303
382.806;   -6.076;   -3.745;  760.690
383.400;   -9.729;   -7.745;  672.281
383.994;  -10.420;   -9.765;  664.870
384.588;   -6.799;   -6.564;  697.701
385.182;   -5.088;   -5.344;  726.624
385.776;   -7.539;   -8.514;  706.875
386.370;  -10.659;   -9.555;  681.968
386.964;   -8.817;   -8.715;  684.155
387.558;   -7.576;   -6.174;  598.360
388.152;  -10.899;   -8.725;  681.959
388.745;   -8.857;   -7.965;  814.707
389.339;   -7.720;   -5.924;  747.642
389.933;   -6.583;   -5.524;  695.370
390.527;   -7.145;   -7.114;  859.029
391.120;  -13.366;  -10.725;  595.318
391.714;  -10.238;   -8.035;  711.633
392.308;   -7.485;   -3.574;  780.253
392.901;  -10.721;   -7.245;  642.460
393.495;  -12.985;   -9.285;  595.414
394.089;  -10.836;   -5.895;  760.452
394.682;  -11.302;   -4.295;  697.188
395.275;  -11.675;   -9.875;  719.927
395.869;  -13.115;   -8.485;  667.314
396.462;  -11.191;   -7.455;  616.609
397.056;   -8.305;   -5.424;  776.621
397.649;  -12.281;   -6.605;  731.575
398.242;   -9.261;   -8.224;  712.645
398.836;   -9.008;   -7.474;  766.408
399.429;  -10.654;   -7.094;  631.041
400.022;  -13.135;   -9.475;  665.902
400.615;  -11.347;   -7.145;  805.609
401.208;   -9.137;   -7.174;  691.451
401.802;  -11.343;   -5.515;  699.329
402.395;  -12.024;   -9.875;  683.502
402.988;  -13.179;   -8.845;  696.627
403.581;  -10.203;   -8.874;  646.878
404.174;   -7.398;   -5.324;  686.568
404.767;  -11.021;   -9.575;  638.583
405.360;  -12.697;  -10.965;  621.445
405.953;   -7.221;   -8.764;  759.034
406.545;   -7.229;   -7.514;  725.342
407.138;  -11.412;  -10.025;  618.350
407.731;   -9.778;  -10.034;  613.303
408.324;   -6.166;   -9.374;  660.554
408.917;   -6.939;   -6.534;  681.864
409.509;   -8.540;   -8.004;  740.396
410.102;  -10.957;   -9.875;  643.948
410.695;   -4.895;   -8.604;  665.758
411.287;   -6.353;   -6.794;  599.821
411.880;   -6.970;   -9.334;  585.421
412.472;  -10.402;  -10.254;  613.092
413.065;   -7.017;   -6.714;  629.408
413.657;   -4.960;   -7.234;  576.678
414.250;   -4.942;  -10.544;  646.681
414.842;   -6.840;   -9.744;  676.353
415.434;   -3.735;   -6.994;  570.463
416.027;   -0.743;   -5.893;  652.196
416.619;   -2.440;   -7.264;  713.400
417.211;   -2.315;  -10.374;  599.352
417.804;    0.167;   -7.993;  628.499
418.396;   -3.514;   -7.234;  607.643
418.988;   -1.267;   -9.443;  659.238
419.580;   -3.838;  -10.724;  568.276
420.172;   -2.415;  -10.323;  536.196
420.764;    2.229;   -8.793;  672.482
421.356;    0.484;  -11.143;  636.898
421.948;    0.369;   -8.293;  677.661
422.540;    5.538;   -7.893;  680.027
423.132;    3.315;   -7.082;  600.641
423.724;    1.299;   -8.653;  561.267
424.316;    2.697;  -10.213;  621.345
424.908;    6.589;   -9.762;  591.517
425.500;    7.127;   -5.572;  647.978
426.092;    7.316;   -8.422;  648.268
426.683;    6.791;   -9.283;  684.836
427.275;    9.466;   -7.852;  641.471
427.867;   11.266;   -5.272;  668.948
428.458;   11.848;   -7.682;  732.344
429.050;   10.596;  -10.612;  680.749
429.642;   12.081;   -9.882;  743.124
430.233;   12.324;   -6.962;  569.356
430.825;   13.766;   -6.842;  724.809
431.416;   11.315;   -9.672;  698.241
432.008;   15.370;   -6.552;  651.723
432.599;   15.690;   -6.891;  656.073
433.190;   13.024;  -10.912;  637.670
433.782;   12.655;  -11.172;  590.395
434.373;   19.505;   -6.061;  884.765
434.964;   18.263;   -8.251;  602.920
435.556;   15.860;   -9.722;  634.537
436.147;   19.527;   -9.082;  758.490
436.738;   18.937;   -8.041;  701.099
437.329;   23.284;   -7.341;  721.723
437.920;   17.353;   -8.162;  666.688
438.511;   17.340;  -11.802;  564.526
439.103;   23.808;  -10.191;  623.998
439.694;   25.080;   -7.601;  681.583
440.285;   26.536;   -8.541;  764.432
440.876;   24.635;   -9.751;  845.738
441.466;   24.371;   -9.401;  575.162
442.057;   28.338;   -7.760;  665.814
442.648;   28.622;   -9.971;  746.255
443.239;   26.507;  -11.001;  620.477
443.830;   31.699;   -7.990;  704.958
444.421;   33.149;   -7.910;  655.474
445.011;   29.972;   -8.131;  693.619
445.602;   29.799;   -7.111;  743.126
446.193;   31.402;  -10.920;  488.117
446.783;   35.400;   -6.500;  640.397
447.374;   31.442;   -8.671;  692.759
447.964;   32.474;  -10.781;  713.770
448.555;   40.367;   -9.650;  822.742
449.145;   36.661;   -8.660;  662.853
449.736;   37.627;   -8.990;  803.179
450.326;   37.664;   -9.500;  713.626
450.917;   42.528;   -8.680;  675.324
451.507;   42.051;   -7.520;  600.661
452.097;   42.722;   -8.590;  746.267
452.688;   43.950;  -11.340;  742.160
453.278;   43.787;  -10.100;  566.840
453.868;   47.668;   -6.019;  793.550
454.458;   45.807;   -9.440;  651.141
455.048;   46.875;  -10.560;  711.783
455.639;   48.684;  -11.799;  567.096
456.229;   51.440;   -6.899;  710.694
456.819;   52.993;   -7.389;  751.158
457.409;   53.472;  -11.119;  773.993
457.999;   56.549;   -9.289;  737.505
458.589;   56.129;   -6.139;  686.606
459.179;   56.098;   -8.729;  717.658
459.769;   55.153;   -9.789;  627.099
460.358;   59.180;  -10.259;  797.262
460.948;   58.865;   -7.299;  689.503
461.538;   61.668;  -10.289;  660.677
462.128;   59.341;  -11.269;  664.934
462.717;   65.316;   -9.368;  710.326
463.307;   68.570;   -7.908;  705.846
463.897;   64.276;   -9.599;  656.942
464.486;   63.794;   -9.769;  837.128
465.076;   68.482;   -8.048;  733.776
465.666;   71.981;   -9.358;  652.900
466.255;   69.287;   -7.919;  785.651
466.845;   69.179;  -11.689;  666.749
467.434;   72.245;   -7.818;  725.873
468.023;   73.670;   -7.678;  658.357
468.613;   70.113;  -10.939;  713.946
469.202;   74.919;  -10.118;  646.507
469.791;   79.794;   -9.108;  737.811
470.381;   81.022;   -6.058;  742.813
470.970;   81.336;  -10.428;  711.099
471.559;   80.807;  -10.268;  733.291
472.148;   83.721;   -8.448;  675.737
472.738;   85.884;   -6.917;  765.466
473.327;   86.717;  -11.978;  637.529
473.916;   85.654;  -11.888;  737.446
474.505;   90.088;   -9.437;  751.703
475.094;   92.899;   -6.747;  806.570
475.683;   92.797;   -9.367;  797.699
476.272;   93.576;  -12.637;  730.632
476.861;   96.818;  -10.027;  706.754
477.449;  102.018;   -8.716;  728.487
478.038;   97.994;   -9.577;  692.513
478.627;   98.677;   -9.718;  714.852
479.216;  105.342;   -8.947;  769.441
479.805;  108.335;   -6.256;  783.375
480.393;  108.342;   -7.937; 1008.945
480.982;  107.638;   -7.717;  874.501
481.571;  114.455;   -9.266;  858.333
482.159;  114.291;   -7.636;  705.386
482.748;  114.704;   -9.667;  821.385
483.336;  119.266;  -10.376;  858.209
483.925;  119.606;   -7.147;  774.373
484.513;  127.007;   -7.996;  758.962
485.102;  123.417;  -10.027;  810.965
485.690;  132.436;  -10.446; 1011.050
486.278;  135.581;   -8.446;  979.329
486.867;  135.947;   -6.356;  809.662
487.455;  137.551;   -9.136;  898.229
488.043;  139.403;  -10.646;  748.361
488.631;  148.426;   -7.456; 1005.079
489.220;  152.604;   -6.636;  908.626
489.808;  153.630;  -11.036;  741.415
490.396;  162.738;  -10.246;  914.645
490.984;  168.947;   -8.556;  830.161
491.572;  178.839;   -5.886;  940.315
492.160;  187.085;   -9.486;  919.081
492.748;  201.719;  -10.976;  884.341
493.336;  227.245;   -8.776; 1019.693
493.924;  257.085;   -5.465;  958.077
494.512;  290.449;   -9.986; 1066.638
495.100;  334.045;  -10.636; 1103.280
495.687;  395.009;  -10.885; 1206.373
496.275;  466.953;   -8.126; 1150.796
496.863;  548.898;  -10.586; 1281.171
497.451;  665.145;  -11.926; 1386.805
498.038;  811.724;  -10.885; 1556.729
498.626;  935.577;   -6.315; 1741.407
499.214; 1106.815;   -7.326; 2016.609
499.801; 1328.821;  -11.906; 2220.633
500.389; 1615.403;  -10.466; 2312.494
500.976; 1962.389;   -5.236; 2744.849
501.564; 2459.912;   -8.936; 3148.565
502.151; 2877.491;  -13.176; 3515.999
502.738; 3385.614;  -10.646; 3971.274
503.326; 3828.991;   -9.525; 4403.796
503.913; 4254.461;  -10.856; 5161.749
504.500; 4656.682;  -11.586; 5986.420
505.088; 5140.256;  -10.336; 6381.201
505.675; 5735.338;   -6.355; 6925.547
506.262; 6539.884;   -9.046; 7619.060
506.849; 7324.750;  -10.416; 8733.969
507.436; 7843.379;  -10.305; 9790.121
508.023; 8469.082;   -5.496; 9985.472
508.610; 8747.508;   -7.856;10434.618
509.197; 9430.987;  -10.097;11198.435
509.784;10973.418;  -10.886;12391.194
510.371;12126.010;   -9.315;13603.713
510.958;12902.820;   -9.936;14426.586
511.545;13722.070;   -9.326;15243.775
512.132;14626.154;  -10.075;15945.876
512.719;15207.920;   -7.796;16340.369
513.305;16188.354;  -10.606;18011.766
513.892;17004.479;  -11.486;19754.971
514.479;18458.260;   -9.126;20967.805
515.066;20114.479;   -6.026;22299.793
515.652;21607.822;   -8.466;22908.660
516.239;22898.920;  -10.886;23798.875
516.825;23854.803;  -11.496;25567.275
517.412;24857.473;   -5.796;28154.959
517.998;25542.664;  -10.506;28344.111
518.585;25664.955;  -10.076;27134.219
519.171;26190.699;   -8.315;27268.576
519.758;27701.203;   -8.596;28964.129
520.344;29652.393;   -8.466;30664.494
520.930;29635.576;  -11.006;32550.605
521.516;30911.826;  -10.495;35422.895
522.103;33275.172;   -5.526;38280.004
522.689;33795.066;   -8.746;37835.117
523.275;33280.680;  -11.376;37288.613
523.861;34660.672;  -11.156;37281.395
524.447;36227.297;   -8.135;37846.949
525.033;36054.926;   -7.896;38321.949
525.619;36147.176;  -12.476;38579.285
526.205;37825.488;   -9.516;40622.875
526.791;40273.551;   -6.926;42258.836
527.377;40447.258;   -8.346;42966.902
527.963;41964.387;   -8.717;42018.949
528.549;40339.730;  -11.016;42476.828
529.135;38869.301;   -8.536;41854.852
529.721;38016.656;   -9.666;41237.711
530.306;37176.219;  -10.066;41259.445
530.892;36889.871;  -11.356;41506.047
531.478;38478.000;   -6.596;43559.613
532.063;41573.352;   -8.836;47695.563
532.649;42188.707;  -10.047;50808.324
533.235;43102.371;   -9.746;51787.500
533.820;43571.680;   -6.566;52145.035
534.406;44969.250;  -10.817;51133.488
534.991;44704.969;   -9.416;49996.805
535.576;43110.645;   -9.036;48882.852
536.162;43644.605;   -6.156;46942.285
536.747;44568.133;  -11.607;45711.746
537.333;48245.918;  -11.787;48510.180
537.918;51452.688;  -12.437;50439.891
538.503;50142.535;   -7.196;50863.711
539.088;46501.484;  -10.556;50906.922
539.673;46223.387;   -8.767;52621.965
540.259;46388.723;  -10.026;52368.094
540.844;43992.355;   -7.416;50879.109
541.429;45370.320;   -9.467;52077.777
542.014;48152.313;   -9.527;52716.695
542.599;47312.727;   -9.946;52363.281
543.184;44923.977;   -7.927;53187.137
543.769;46489.746;   -9.297;54697.605
544.354;45942.500;  -10.127;53913.914
544.938;44676.055;   -9.267;49680.164
545.523;46685.734;   -6.506;47386.277
546.108;49644.719;   -9.787;49151.949
546.693;51756.941;  -11.587;51384.637
547.278;51493.945;  -10.986;51853.254
547.862;48518.227;   -8.206;51173.750
548.447;43923.180;  -10.067;51691.395
549.031;43373.410;   -9.637;52456.703
549.616;48343.977;   -9.926;52714.516
550.201;47662.227;   -6.347;52414.598
550.785;48863.742;   -7.917;52355.059
551.370;47892.434;  -10.867;54589.453
551.954;47500.184;   -9.047;58267.348
552.538;48382.266;   -7.827;59062.176
553.123;46757.578;  -10.287;58115.285
553.707;44386.492;  -12.178;56556.285
554.291;45937.309;   -8.717;56201.668
554.876;48450.266;   -7.457;55335.762
555.460;48719.105;  -10.387;54155.703
556.044;49680.230;   -9.618;53721.484
556.628;48270.234;  -11.567;53731.016
557.212;47100.668;   -8.097;54312.531
557.796;45509.328;  -11.077;53797.773
558.380;45611.367;  -11.108;56145.984
558.964;46064.426;   -9.057;57277.930
559.548;47354.813;   -6.977;56459.641
560.132;45632.957;  -11.457;54434.543
560.716;44132.215;  -11.378;54800.617
561.300;45219.152;   -9.577;57606.945
561.884;46405.012;   -7.127;58972.445
562.467;44706.070;   -7.118;57327.570
563.051;44119.723;  -13.358;54962.434
563.635;45193.387;  -10.178;52594.473
564.219;45422.504;   -7.837;50610.410
564.802;46407.262;  -11.398;49551.180
565.386;46327.418;  -12.788;48370.953
565.969;45555.512;   -9.077;48178.871
566.553;44701.598;   -6.207;49957.305
567.136;45373.711;   -8.568;50369.594
567.720;41744.566;  -11.868;49492.004
568.303;39636.734;   -8.268;50616.352
568.887;39652.883;   -8.698;50727.148
569.470;39964.879;   -6.808;51698.379
570.053;38546.129;  -13.188;52122.078
570.637;36927.602;  -12.037;52536.438
571.220;36862.719;   -8.577;51186.098
571.803;37487.730;   -8.498;51032.762
572.386;39738.859;  -10.498;49609.887
572.969;42359.074;   -9.388;48285.926
573.552;40548.094;   -8.338;47624.285
574.135;39029.953;   -8.518;45498.641
574.718;36630.742;  -13.628;41970.434
575.301;35655.516;  -10.893;41447.137
575.884;34680.293;   -8.158;40923.836
576.467;35900.418;  -10.328;45267.723
577.050;37867.438;  -13.058;48175.543
577.633;39255.016;   -9.458;47729.328
578.216;38333.785;   -8.928;47579.793
578.799;37430.496;   -9.358;47820.996
579.381;36258.109;  -11.388;48115.551
579.964;34401.781;  -11.718;47333.766
580.547;36099.582;   -8.588;46668.969
581.129;37299.008;   -8.859;44466.141
581.712;38183.414;  -10.729;44164.922
582.294;38859.715;  -11.118;46477.855
582.877;38594.207;   -5.218;48244.254
583.459;36144.770;   -8.679;47437.895
584.042;34138.844;  -10.709;46943.219
584.624;34627.855;  -11.669;46792.227
585.206;34168.762;   -8.218;46557.250
585.789;34120.793;  -10.569;45793.773
586.371;37115.852;  -11.859;43836.391
586.953;37786.750;  -10.719;42972.492
587.536;39285.879;   -7.198;42487.211
588.118;39440.773;   -8.720;42086.414
588.700;35481.879;  -10.439;43389.930
589.282;34401.141;   -9.198;43646.039
589.864;35363.797;   -9.199;43438.109
590.446;36460.918;  -11.319;43151.926
591.028;36403.207;  -11.159;42781.867
591.610;35219.918;  -11.779;42839.098
592.192;32450.512;   -7.668;42820.402
592.774;30931.254;  -11.949;40724.277
593.356;29590.943;  -12.129;39874.789
593.937;28507.703;  -10.669;39980.648
594.519;30697.752;   -6.509;42069.633
595.101;32965.203;  -10.849;42976.031
595.683;33168.883;  -11.679;44084.441
596.264;34255.973;   -9.049;43478.797
596.846;33704.875;   -8.849;43803.672
597.427;33708.320;   -9.570;42986.934
598.009;35439.867;  -12.620;42832.219
598.591;35734.582;  -10.039;42580.086
599.172;34864.684;  -10.369;43061.805
599.753;35034.313;   -9.140;41691.469
600.335;36655.344;  -11.430;40692.520
600.916;34760.652;   -9.939;39982.422
601.498;32086.301;   -8.479;40318.617
602.079;30563.471;  -10.920;40670.609
602.660;30458.313;  -11.480;41450.898
603.241;32188.375;  -11.699;41137.738
603.823;30936.926;   -9.579;38868.797
604.404;30256.045;  -10.620;38182.785
604.985;31898.842;  -10.450;38078.047
605.566;31740.994;   -9.129;38056.633
606.147;31954.861;   -7.510;37020.418
606.728;33526.410;  -10.660;37883.359
607.309;32072.486;  -11.740;38748.273
607.890;31617.088;   -9.759;38850.230
608.471;31027.863;   -8.250;37457.918
609.051;30109.672;   -9.240;36066.457
609.632;28998.877;  -12.120;35991.074
610.213;29782.502;   -9.110;37402.641
610.794;30490.031;   -8.030;38383.363
611.374;29985.494;   -8.110;40562.387
611.955;30638.734;  -13.560;38533.727
612.536;32066.180;  -11.400;36951.789
613.116;31837.459;   -8.070;37197.891
613.697;32080.035;  -10.830;38411.125
614.277;30474.895;  -11.641;38673.938
614.858;31424.465;  -13.310;37075.863
615.438;30474.758;   -7.460;35092.906
616.019;27783.459;   -7.601;33666.301
616.599;28511.945;  -12.020;34189.023
617.179;30477.609;  -11.780;36952.047
617.760;31600.629;   -8.570;39582.574
618.340;32679.623;  -11.471;38943.977
618.920;33942.957;  -11.170;37594.156
619.500;33582.660;  -11.071;37866.938
620.080;32512.748;   -7.750;37869.043
620.660;33696.410;  -12.711;36868.617
621.241;34988.141;  -10.211;36352.309
621.821;35337.898;  -10.961;35459.520
622.401;34406.055;   -7.720;35207.414
622.980;33682.980;   -8.981;35980.422
623.560;32181.449;   -9.331;37351.328
624.140;30800.434;   -9.850;34388.582
624.720;25566.238;   -7.451;32368.764
625.300;22052.879;   -9.070;32638.629
625.880;25468.084;  -12.601;34599.035
626.459;29408.107;  -11.751;36831.738
627.039;32514.346;   -9.281;38299.098
627.619;32336.266;   -8.801;38289.574
628.198;30820.127;  -12.071;37220.695
628.778;30040.324;   -9.461;37632.563
629.357;30619.852;   -8.491;38003.012
629.937;30493.236;   -9.721;38402.039
630.516;30086.842;   -9.951;37868.801
631.096;29918.891;  -11.731;35760.410
631.675;32480.479;   -8.572;35225.219
632.254;37558.031;  -11.282;35130.289
632.834;36915.730;  -13.322;35794.570
633.413;34911.113;  -10.301;35788.922
633.992;32161.178;   -8.582;34532.863
634.571;33029.809;   -8.352;33590.113
635.151;36190.488;  -11.912;34943.863
635.730;34449.723;  -10.511;35352.523
636.309;30797.275;   -7.731;35366.605
636.888;28231.102;   -9.952;36165.637
637.467;28906.959;  -11.672;37515.902
638.046;30572.088;   -8.901;39288.695
638.625;33736.359;   -7.912;38279.699
639.204;33403.770;  -10.022;37741.598
639.782;31974.699;  -12.252;38364.551
640.361;28397.811;  -10.041;36740.621
640.940;25579.100;  -11.161;34950.082
641.519;26255.047;   -9.701;34137.398
642.097;28964.879;  -11.271;35654.258
642.676;31736.670;   -8.651;35637.957
643.255;32473.834;   -8.711;36567.074
643.833;31670.809;   -9.581;37809.434
644.412;31640.102;  -13.711;37337.293
644.990;30584.084;  -11.811;37018.531
645.569;30400.699;   -9.411;36518.469
646.147;29389.590;  -10.291;36186.430
646.726;29334.439;  -12.401;36267.688
647.304;30642.656;  -10.411;36647.625
647.882;32376.348;   -9.651;39286.742
648.461;33941.531;   -9.631;39157.703
649.039;32229.225;  -11.881;35412.883
649.617;31539.953;   -9.661;34744.918
650.195;31114.436;   -9.301;35403.098
650.773;29639.121;  -10.511;35053.797
651.352;27108.381;  -11.521;33756.816
651.930;24800.172;  -12.211;31868.773
652.508;23427.061;   -9.171;33121.551
653.086;27336.076;   -9.371;33564.793
653.663;30083.139;  -13.161;34054.668
654.241;28821.717;  -13.031;35693.309
654.819;30484.635;   -9.371;36422.906
655.397;30677.877;  -10.511;38213.484
655.975;30231.680;  -10.371;39507.625
656.553;30059.910;  -10.051;39498.223
657.130;28461.074;  -10.061;40395.480
657.708;27672.840;   -9.561;39242.020
658.286;27785.539;  -11.511;38920.020
658.863;29162.107;  -10.261;40202.898
659.441;32239.297;   -7.531;39677.938
660.018;31704.137;   -9.501;40413.355
660.596;30481.742;  -13.301;39931.414
661.173;32320.256;  -11.211;39604.531
661.750;32294.336;   -9.951;39700.070
662.328;30918.979;   -9.390;39292.809
662.905;30231.619;  -11.330;38235.648
663.482;26234.977;   -9.050;36212.305
664.060;24515.113;   -8.240;35944.945
664.637;27198.371;  -10.050;35170.785
665.214;28952.844;  -11.760;34197.523
665.791;30542.914;  -10.530;34549.520
666.368;29342.871;   -9.690;35118.578
666.945;29922.613;   -9.320;36019.418
667.522;31450.867;  -11.860;36048.438
668.099;31145.877;  -10.770;36243.914
668.676;29984.717;   -6.260;35958.875
669.253;28800.559;   -7.000;37384.730
669.830;29497.824;  -10.190;36779.629
670.407;29141.344;   -9.550;35231.289
670.984;28977.777;   -9.260;35544.270
671.560;29553.131;   -9.280;35466.867
672.137;28902.361;  -11.810;34280.863
672.714;29717.744;  -11.490;34632.863
673.290;30201.959;   -7.740;35135.422
673.867;30432.596;  -10.660;36114.480
674.443;30360.783;  -12.230;36152.859
675.020;28635.035;  -10.450;35327.238
675.596;29637.982;   -9.260;35795.176
676.173;29985.213;  -10.780;35430.355
676.749;29808.715;  -13.690;33549.516
677.326;29864.541;  -11.980;32210.012
677.902;29888.398;   -8.630;32068.871
678.478;29255.891;  -10.730;32583.891
679.054;28651.924;  -10.520;32088.928
679.631;28892.830;  -11.920;30978.848
680.207;30393.404;   -7.490;33160.887
680.783;31954.758;   -9.860;35570.363
681.359;31045.885;  -13.380;36125.184
681.935;30519.705;  -12.480;35240.922
682.511;29825.238;   -7.900;34429.961
683.087;30035.789;   -7.710;34463.680
683.663;29562.354;  -11.480;34648.898
684.239;28236.783;  -14.090;34546.457
684.815;27863.766;   -7.560;35586.375
685.390;28245.838;   -9.910;35821.895
685.966;28730.094;  -11.159;35085.871
686.542;31080.102;  -11.169;34198.230
687.118;33334.332;   -5.959;32847.707
687.693;33654.254;  -10.329;32794.027
688.269;33277.520;  -12.059;33072.367
688.844;31371.760;  -10.909;33141.664
689.420;29179.848;   -8.019;33965.742
689.995;26967.744;   -8.399;34655.523
690.571;25642.105;  -10.949;33576.742
691.146;26110.258;   -9.619;32657.219
691.722;25647.682;   -8.999;32526.979
692.297;25369.264;  -11.589;33014.617
692.872;27136.393;  -11.739;34012.254
693.448;26773.357;  -11.059;34237.434
694.023;25945.031;  -10.139;34142.672
694.598;27868.783;   -9.029;34132.031
695.173;28213.271;  -13.319;34205.250
695.748;27423.791;  -10.169;32882.488
696.323;27606.533;   -8.339;32864.906
696.898;27901.164;   -8.169;33170.004
697.473;27799.795;  -12.309;32432.984
698.048;27265.066;  -10.989;31649.303
698.623;27099.328;   -9.329;30778.141
699.198;28956.033;   -9.849;31140.119
699.773;29922.738;  -12.329;31764.299
700.348;28278.977;  -10.389;31780.816
700.922;28404.238;   -9.269;32046.375
701.497;29350.926;   -9.329;32603.574
702.072;29541.129;  -10.789;34799.871
702.646;28112.518;  -10.839;35793.172
703.221;26035.848;   -9.099;35201.590
703.795;28096.186;  -10.939;34764.527
704.370;28499.602;  -12.859;34307.367
704.944;28954.279;  -11.559;33509.887
705.519;29744.445;   -7.939;31388.584
706.093;31123.666;  -10.499;31340.104
706.668;31525.850;  -11.289;32630.281
707.242;30384.135;  -11.509;32728.779
707.816;28787.932;   -9.639;32947.238
708.390;27345.340;  -11.429;33277.855
708.965;27787.969;  -11.869;33834.336
709.539;27749.387;  -11.689;33709.273
710.113;28200.348;  -10.478;33044.313
710.687;27720.643;  -10.228;31953.992
711.261;26146.814;  -13.698;30505.949
711.835;25891.063;  -13.378;30262.369
712.409;26583.438;   -9.698;31254.447
712.983;28566.438;  -11.898;32754.986
713.557;29554.607;  -15.138;34018.824
714.131;29114.471;  -14.098;34579.625
714.704;28081.020;   -9.958;33890.262
715.278;25827.432;  -10.028;33531.102
715.852;24770.467;  -11.148;33601.660
716.425;25584.391;   -9.068;33515.117
716.999;26411.162;  -10.038;33185.555
717.573;27452.736;   -9.798;33905.996
718.146;28489.666;  -12.378;35199.293
718.720;28584.092;  -11.918;35060.551
719.293;28087.371;   -8.088;34973.230
719.867;30929.102;  -10.888;36394.449
720.440;30642.617;  -11.938;36663.008
721.013;29019.336;  -12.818;35102.426
721.587;27508.383;  -10.298;33985.266
722.160;26418.102;  -10.048;33524.965
722.733;25373.854;  -12.108;32987.043
723.306;25621.078;  -10.818;33066.301
723.880;28132.652;   -8.908;33399.500
724.453;30283.590;   -9.878;33468.297
725.026;29325.350;  -11.188;33816.637
725.599;26521.307;  -11.678;32797.996
726.172;26825.658;   -9.618;33187.434
726.745;27852.422;   -8.258;35136.613
727.318;29118.980;  -12.978;35751.730
727.891;29695.361;  -12.148;35890.430
728.463;29447.352;   -8.968;34822.090
729.036;28426.600;  -10.188;32895.086
729.609;28802.910;  -11.788;31823.225
730.182;25745.064;  -11.788;31445.283
730.754;23282.406;  -10.268;32373.223
731.327;23378.998;   -9.998;33676.820
731.900;23627.283;  -12.228;33417.000
732.472;24918.656;  -13.848;31978.498
733.045;26849.979;   -8.698;30368.777
733.617;26907.688;  -10.607;30574.215
734.190;26580.592;  -11.507;31280.975
734.762;23806.602;  -13.647;31674.412
735.334;22022.705;   -9.767;31247.291
735.907;22635.412;   -9.897;29876.211
736.479;22797.846;  -11.637;29808.488
737.051;22545.385;   -9.567;30233.547
737.623;23501.004;   -8.187;31469.086
738.195;24179.951;  -11.187;31784.225
738.768;25976.010;  -12.337;32120.523
739.340;26310.596;  -12.227;32094.342
739.912;25242.883;  -11.057;31312.680
740.484;23782.336;  -10.207;31946.238
741.056;22614.902;  -10.047;32984.059
741.628;24295.158;  -13.627;33897.715
742.199;26389.029;   -7.177;33213.016
742.771;24745.873;  -10.797;31369.113
743.343;22480.074;  -11.997;31865.473
743.915;21480.420;  -12.867;32388.631
744.487;21558.744;   -7.617;31079.568
745.058;21843.490;   -9.557;30570.107
745.630;22298.410;   -9.877;29970.127
746.201;23111.646;  -14.177;29186.766
746.773;23633.967;   -9.237;28805.723
747.344;23494.410;   -9.847;29591.223
747.916;22086.146;  -11.657;31412.201
748.487;22309.439;  -10.587;32194.898
749.059;23420.203;   -8.707;32533.719
749.630;23979.613;  -10.537;32158.518
750.201;22902.113;  -11.687;30855.395
750.773;21188.553;  -11.647;28622.555
751.344;21166.215;   -7.147;28405.732
751.915;22417.557;   -9.757;28461.551
752.486;22415.352;  -12.427;27842.850
753.057;20168.813;  -12.227;27845.008
753.628;18930.186;  -10.417;27728.107
754.199;19988.436;  -11.767;27381.086
754.770;21001.484;  -11.187;25882.203
755.341;21068.293;  -10.507;25886.184
755.912;21115.203;   -9.387;26050.861
756.483;20644.867;  -10.647;26798.779
757.054;18916.842;  -11.837;27048.238
757.625;17661.043;  -12.716;26294.838
758.195;17341.568;   -9.666;26142.076
758.766;17012.176;   -8.656;26392.234
759.337;17821.570;  -12.856;26334.594
759.907;19498.098;  -13.366;27579.652
760.478;20385.094;   -8.576;28352.770
761.048;19769.494;  -10.526;27325.088
761.619;18943.168;  -11.116;26460.428
762.189;18967.803;  -12.136;26029.826
762.760;19958.707;   -9.456;26430.145
763.330;21029.023;   -7.136;26670.902
763.900;20479.666;  -11.786;26603.021
764.471;18008.150;  -11.546;25542.740
765.041;16790.158;   -8.096;24358.459
765.611;16858.104;   -8.876;23991.297
766.181;17210.154;  -12.196;24470.236
766.751;18087.176;  -11.636;24845.975
767.321;17880.924;  -10.156;24533.633
767.891;16090.942;  -11.766;24916.492
768.461;15583.657;  -14.936;24776.771
769.031;16089.299;  -12.356;24757.988
769.601;17591.344;   -7.526;24181.088
770.171;17406.936;  -10.766;23670.387
770.741;16640.428;  -13.176;22960.045
771.311;16734.977;  -10.616;22917.523
771.880;17078.328;   -9.576;23562.941
772.450;16748.133;  -10.336;24216.500
773.020;16675.158;  -13.516;24140.398
773.589;15961.641;  -13.466;24414.857
774.159;15326.795;   -8.686;23858.717
774.729;15040.181;   -9.476;22942.135
775.298;14624.274;  -13.666;22324.033
775.867;14256.999;  -11.716;21140.313
776.437;14337.817;   -9.906;20838.092
777.006;14163.906;  -12.166;20599.510
777.576;14036.558;  -12.356;20508.809
778.145;14112.384;  -11.646;20732.947
778.714;13973.791;   -8.226;21062.465
779.283;13235.093;   -9.556;20949.664
779.853;12733.243;  -14.116;20508.623
780.422;13191.167;  -11.506;20649.082
780.991;12784.983;   -9.556;21527.520
781.560;11658.897;   -9.095;22632.658
782.129;11515.795;  -12.135;23048.277
782.698;11574.966;  -10.865;23438.555
783.267;11199.515;   -9.335;23267.734
783.836;11124.219;  -11.045;22415.133
784.404;12062.900;  -13.865;20443.152
784.973;12629.921;  -13.095;19699.150
785.542;12544.814;  -11.575;19763.828
786.111;12343.059;   -9.705;20341.408
786.679;11849.395;  -12.105;20207.967
787.248;11603.993;  -12.455;19516.465
787.817;11443.946;  -11.535;18900.363
788.385;11075.628;   -9.765;17879.121
788.954;10529.297;  -14.005;17658.301
789.522;10030.720;  -11.955;17788.879
790.090;10580.092;  -10.135;18118.277
790.659;10975.354;  -10.975;18338.736
791.227;10495.422;  -13.375;18508.615
791.795;10894.579;  -12.375;17898.254
792.364;11259.104;  -10.725;17295.133
792.932;11572.375;   -9.715;16822.051
793.500;11695.869;  -12.675;17040.148
794.068;11860.225;  -13.495;17179.787
794.636;11957.868;  -10.885;16664.246
795.204;11388.707;  -11.045;16524.545
795.772;11434.084;  -13.175;17274.564
796.340;10992.957;  -12.445;17891.002
796.908;10815.711;   -9.735;17648.561
797.476;10709.974;   -9.815;17064.080
798.044;10299.982;  -13.985;16672.777
798.612; 9514.176;  -13.115;17023.996
799.180; 9143.845;  -10.185;16561.615
799.747; 9095.263;   -9.055;15962.773
800.315; 8852.234;  -12.385;15296.992
800.883; 8530.039;  -15.035;14801.771
801.450; 8533.461;  -10.365;14534.430
802.018; 8572.313;   -9.855;14173.248
802.585; 8694.379;  -11.905;14029.547
803.153; 8726.241;  -11.585;13836.846
803.720; 8554.639;   -9.095;13567.324
804.287; 8126.466;   -9.135;13360.622
804.855; 7738.992;  -11.604;13681.981
805.422; 7626.761;  -11.794;13536.560
805.989; 7630.348;  -10.734;13355.958
806.556; 7755.744;  -10.444;13747.896
807.124; 7951.104;  -12.764;13987.376
807.691; 7922.952;  -12.964;14038.674
808.258; 7748.333;  -11.134;14120.152
808.825; 7488.199;   -9.854;13860.111
809.392; 7558.912;  -10.504;13268.790
809.959; 7076.531;  -13.054;12680.389
810.526; 6649.763;   -8.294;12427.308
811.093; 6719.494;   -8.394;12030.105
811.659; 7348.923;  -12.304;11653.664
812.226; 7839.188;  -13.944;11637.183
812.793; 7553.714;  -10.484;11611.521
813.360; 6964.878;  -10.144;11885.181
813.926; 6678.750;  -11.684;12770.539
814.493; 6467.048;  -13.644;12677.638
815.060; 6082.186;   -9.724;11974.336
815.626; 6075.463;   -9.854;11594.715
816.193; 6454.246;  -13.254;11579.474
816.759; 6483.118;  -13.204;11666.972
817.325; 6561.265;   -9.434;11325.530
817.892; 6928.489;  -10.134;11105.369
818.458; 7335.337;  -13.474;10843.928
819.024; 6973.466;  -11.854;10714.406
819.591; 6674.708;  -10.244;10469.165
820.157; 6448.999;  -10.704;10235.523
820.723; 5952.930;  -12.324;10847.563
821.289; 5666.876;   -9.444;11040.980
821.855; 5602.260;   -8.374;10357.100
822.421; 5618.160;  -10.234; 9978.918
822.987; 5653.612;  -13.294; 9754.177
823.553; 5359.223;  -10.884;10065.755
824.119; 5187.002;   -8.884;10036.294
824.685; 5277.070;   -6.784;10029.192
825.251; 5366.159;  -12.004;10199.230
825.816; 5332.206;  -11.474; 9820.189
826.382; 5116.883;   -9.174; 9297.248
826.948; 5320.668;   -9.214; 9381.347
827.513; 5704.962;  -10.774; 9450.726
828.079; 5536.877;  -11.924; 9472.444
828.645; 4969.405;  -10.543; 9292.643
829.210; 4876.414;  -10.533; 9065.341
829.776; 4877.674;  -10.753; 9132.620
830.341; 4784.401;  -10.173; 9092.878
830.906; 4986.413;  -10.743; 9078.557
831.472; 5341.594;  -11.113; 8534.535
832.037; 5094.595;  -10.603; 8677.874
832.602; 4559.045;  -13.323; 8628.692
833.167; 4303.064;  -10.823; 8879.031
833.733; 4248.407;  -10.113; 9189.790
834.298; 4400.554;  -13.583; 9052.608
834.863; 4491.732;  -12.703; 8895.087
835.428; 4479.697;  -10.523; 8824.266
835.993; 4329.057;   -6.963; 8845.385
836.558; 4165.785;  -10.763; 8888.563
837.123; 4296.510;   -9.903; 8966.582
837.688; 4539.767;   -9.913; 8617.860
838.253; 4797.948;  -10.283; 8590.699
838.817; 5000.744;  -12.963; 8443.797
839.382; 4907.701;  -14.243; 8799.356
839.947; 4604.790;  -10.733; 8810.595
840.511; 4314.510;   -9.383; 8796.394
841.076; 3947.311;  -12.563; 8347.231
841.641; 4006.567;  -12.953; 8224.330
842.205; 4103.098;   -7.043; 8223.349
842.770; 4217.635;   -8.163; 8622.107
843.334; 4373.767;  -12.503; 8410.386
843.898; 4297.820;  -11.693; 8337.465
844.463; 4305.360;  -10.203; 8506.283
845.027; 4076.343;   -9.533; 8280.962
845.591; 3904.307;  -13.443; 8231.141
846.156; 3896.411;  -13.143; 7969.179
846.720; 3791.747;   -9.433; 7768.278
847.284; 3678.965;  -11.033; 7630.957
847.848; 3555.052;  -10.403; 7472.395
848.412; 3464.076;  -11.553; 7437.394
848.976; 3505.599;   -8.393; 7674.592
849.540; 3425.406;   -8.713; 7836.011
850.104; 3547.105;  -12.463; 7913.669
850.668; 3905.863;  -12.973; 7694.508
851.232; 3989.790;  -10.793; 7756.887
851.796; 3823.977;  -10.662; 7926.545
852.359; 3527.645;  -13.082; 7827.844
852.923; 3350.241;  -12.192; 7641.163
853.487; 3155.196;  -11.912; 7342.501
854.050; 3105.669;  -10.892; 7042.820
854.614; 3245.440;  -13.992; 7151.338
855.177; 3374.425;  -11.732; 7105.077
855.741; 3398.259;   -8.962; 6989.675
856.304; 3267.769;   -9.442; 6596.634
856.868; 3209.576;  -14.192; 6356.272
857.431; 3291.438;  -12.702; 6468.571
857.995; 3392.395;   -9.942; 6373.210
858.558; 3393.897;   -9.112; 6324.448
859.121; 3122.287;  -12.932; 6408.327
859.684; 2997.479;  -13.442; 6347.886
860.247; 3100.928;  -10.632; 6321.264
860.810; 3092.631;  -11.272; 6301.903
861.374; 2836.726;   -9.832; 6607.881
861.937; 2584.408;  -11.762; 6408.200
862.500; 2576.615;   -9.722; 6572.639
863.062; 2745.727;  -10.512; 6387.297
863.625; 2901.713;  -11.232; 6190.836
864.188; 3047.695;  -14.112; 5807.254
864.751; 3099.500;  -11.302; 5682.413
865.314; 2984.577;  -10.112; 5547.492
865.876; 2776.696;  -12.182; 5500.150
866.439; 2759.425;  -10.722; 5415.909
867.002; 2702.798;   -9.252; 5501.567
867.564; 2507.003;   -9.572; 5413.946
868.127; 2301.760;  -13.142; 5160.325
868.689; 2206.013;  -12.902; 5133.183
869.252; 2109.178;   -9.732; 5252.382
869.814; 2014.902;   -9.432; 5297.141
870.377; 2021.257;  -11.552; 5390.919
870.939; 2080.487;   -9.052; 5599.898
871.501; 2133.240;  -10.982; 5248.336
872.063; 2131.928;  -12.292; 4854.235
872.626; 2092.709;  -14.912; 4817.074
873.188; 2120.977;  -13.112; 4987.732
873.750; 2087.410;  -13.442; 4868.651
874.312; 1989.121;   -9.402; 4779.330
874.874; 1905.576;  -11.062; 4866.348
875.436; 1819.519;  -13.931; 4718.887
875.998; 1809.761;   -9.561; 4660.005
876.560; 1833.919;  -11.321; 4462.964
877.122; 1777.688;  -12.221; 4145.042
877.683; 1691.231;  -12.191; 4056.481
878.245; 1628.317;  -12.101; 3950.740
878.807; 1672.007;   -8.971; 4058.958
879.369; 1696.849;  -12.071; 3954.677
879.930; 1602.248;  -14.621; 3941.495
880.492; 1537.934;  -10.311; 4067.014
881.053; 1504.802;  -10.901; 3859.633
881.615; 1410.493;  -14.411; 3776.071
882.176; 1317.736;  -13.761; 3734.750
882.738; 1270.702;   -9.181; 3678.489
883.299; 1247.054;  -11.791; 3405.407
883.860; 1251.614;  -13.121; 3351.106
884.422; 1250.302;  -11.211; 3394.044
884.983; 1208.490;  -10.091; 3166.443
885.544; 1132.758;   -8.461; 3189.802
886.105; 1055.622;  -12.361; 3160.360
886.666;  990.909;  -14.141; 3093.059
887.227;  939.698;  -11.361; 2941.957
887.788;  879.904;  -11.401; 2974.836
888.349;  824.361;  -13.791; 2721.214
888.910;  824.361;  -13.191; 2696.493
889.471;  833.537;   -9.881; 2560.172
890.032;  815.504;   -9.881; 2558.190
890.593;  797.501;  -10.371; 2567.669
891.153;  771.384;  -13.301; 2460.307
891.714;  721.757;  -11.431; 2372.046
892.275;  685.633;  -11.291; 2309.505
892.835;  647.309;  -11.471; 2382.543
893.396;  598.607;  -11.541; 2295.502
893.956;  545.238;  -11.181; 2162.420
894.517;  508.493;  -11.741; 2125.439
895.077;  504.083;  -11.671; 2086.978
895.638;  505.147;  -11.311; 2126.316
896.198;  475.930;   -9.831; 1838.275
896.758;  433.510;   -8.421; 1892.813
897.319;  404.793;  -12.351; 1792.232
897.879;  389.075;  -13.511; 1762.751
898.439;  364.581;  -12.001; 1661.149
898.999;  339.839;  -10.180; 1781.468
899.559;  333.922;  -12.030; 1703.347
900.119;  328.630;  -15.710; 1537.525
900.679;  324.655;   -8.900; 1638.384
901.239;  309.522;   -8.340; 1527.902
901.799;  299.944;  -13.910; 1456.441
902.359;  294.167;  -13.460; 1357.140
902.919;  288.072;  -11.490; 1331.118
903.479;  275.081;  -12.110; 1317.257
904.038;  254.663;  -11.720; 1262.595
904.598;  240.371;  -13.610; 1152.034
905.158;  236.586;  -11.040; 1240.893
905.717;  230.045;  -10.900; 1233.691
906.277;  218.919;  -15.080; 1217.330
906.836;  210.396;  -13.380; 1222.408
907.396;  200.750;  -10.780; 1193.047
907.955;  193.734;   -8.500; 1182.526
908.515;  188.444;  -12.760; 1099.364
909.074;  182.036;  -11.900; 1092.863
909.633;  177.124;   -8.950; 1069.121
910.192;  172.461;   -8.770; 1196.460
910.752;  167.163;  -12.390; 1029.960
911.311;  164.417;  -13.680; 1009.780
911.870;  161.710;  -12.370;  971.460
912.429;  161.254;  -10.900; 1094.080
912.988;  161.443;  -11.690; 1081.060
913.547;  156.535;  -13.240;  940.380
914.106;  151.665;  -11.990;  999.420
914.665;  148.372;   -9.990;  984.020
915.224;  147.978;  -12.880; 1035.760
915.782;  148.197;  -12.350;  922.560
916.341;  147.321;   -9.110; 1049.840
916.900;  143.826;   -9.270;  925.260
917.458;  141.458;  -13.240;  884.220
918.017;  140.907;  -13.550;  942.600
918.576;  141.009;  -12.320;  904.440
919.134;  138.467;  -11.490;  837.980
919.693;  136.760;  -13.670;  893.060
920.251;  135.963;  -15.470;  876.500
920.809;  134.894;  -11.290;  839.580
921.368;  133.824;  -10.210;  885.360
921.926;  132.835;  -12.140;  842.940
922.484;  131.860;  -13.080;  903.360
923.042;  131.758;  -11.720;  880.340
923.601;  134.352;   -7.480;  998.680
924.159;  132.974;  -11.570;  935.560
924.717;  129.076;  -13.840;  841.080
925.275;  129.261;  -10.640;  903.240
925.833;  127.984;  -11.540;  779.320
926.391;  129.652;  -12.960;  938.380
926.949;  128.132;  -14.130;  857.680
927.506;  129.008;  -11.750;  903.500
928.064;  127.921;  -10.250;  877.580
928.622;  128.054;  -13.030;  880.100
929.180;  128.229;  -13.400;  814.180
929.737;  128.886;  -10.700;  808.540
930.295;  132.285;  -10.070;  928.480
930.853;  133.558;  -11.960;  849.100
931.410;  133.858;  -13.120;  821.120
931.968;  132.564;  -10.770;  940.660
932.525;  133.613;  -10.680;  909.380
933.082;  133.394;  -13.130;  811.440
933.640;  134.897;  -13.210;  925.900
934.197;  132.129;  -11.060;  886.360
934.754;  133.985;   -9.580;  897.780
935.312;  136.103;  -14.000;  863.340
935.869;  139.940;  -10.710; 1012.980
936.426;  140.737;   -9.860;  872.800
936.983;  141.345;   -9.710;  889.020
937.540;  141.070;  -13.990;  838.280
938.097;  139.627;  -14.040;  940.120
938.654;  139.955;  -10.310;  898.860
939.211;  142.370;  -10.560;  952.480
939.768;  145.705;  -13.900;  915.420
940.324;  149.842;  -14.760;  904.200
940.881;  150.015;  -10.370;  878.500
941.438;  149.868;   -8.260; 1021.200
941.995;  147.110;  -12.540;  992.560
942.551;  144.326;  -14.670;  875.620
943.108;  145.408;  -10.450;  937.920
943.664;  146.679;  -10.750;  869.340
944.221;  149.944;  -11.550; 1088.140
944.777;  147.622;  -14.770;  869.680
945.334;  148.329;  -12.820;  884.840
945.890;  150.086;  -10.130;  946.480
946.446;  150.665;  -13.470;  947.020
947.003;  152.322;  -12.120;  964.940
947.559;  153.727;   -9.980; 1063.040
948.115;  152.858;   -9.080; 1026.540
948.671;  151.561;  -10.830;  967.300
949.227;  149.217;  -12.440;  859.560
949.783;  146.563;  -12.910;  858.900
950.339;  147.651;  -10.270;  991.000
950.895;  148.273;  -13.630; 1023.840
951.451;  147.471;  -15.100;  925.280
952.007;  147.545;  -11.330;  998.540
952.563;  148.472;  -10.580;  937.780
953.118;  147.092;  -13.440;  904.940
953.674;  147.632;  -12.710;  935.780
954.230;  146.817;  -10.350;  949.640
954.785;  143.986;   -9.190;  936.640
955.341;  141.459;  -11.200;  998.160
955.897;  140.630;  -16.560;  834.660
956.452;  141.529;  -12.570;  953.840
957.008;  140.711;   -7.970; 1083.640
957.563;  138.601;  -11.940; 1009.540
958.118;  132.891;  -13.450;  877.700
958.674;  133.528;  -12.030;  946.780
959.229;  135.118;   -9.410; 1013.980
959.784;  132.570;  -12.000;  832.400
960.339;  132.568;  -14.780; 1001.280
960.894;  128.926;   -9.860;  963.760
961.449;  124.249;   -9.970;  859.960
962.004;  124.840;  -10.900; 1212.840
962.559;  120.631;  -13.150;  860.140
963.114;  117.865;  -13.740;  742.480
963.669;  117.491;   -9.820;  915.500
964.224;  116.075;  -13.890;  874.340
964.779;  115.100;  -12.600;  828.420
965.334;  115.368;  -10.950; 1017.860
965.888;  114.958;  -11.170;  875.360
966.443;  118.754;  -12.540;  972.380
966.998;  117.935;  -15.780;  819.460
967.552;  116.376;   -9.760;  908.380
968.107;  112.628;   -9.060;  868.300
968.661;  114.042;  -11.950;  922.440
969.216;  114.309;  -12.800;  856.280
969.770;  114.394;  -11.210;  917.200
970.324;  113.047;  -11.610;  923.140
970.879;  110.306;  -11.370;  947.180
971.433;  107.082;  -12.540;  952.720
971.987;  102.410;  -11.320;  895.340
972.541;  100.059;  -10.720;  917.100
973.095;   99.587;   -9.680; 1009.460
973.649;   98.866;  -11.440;  809.480
974.203;   97.487;  -11.210;  829.040
974.757;   97.128;  -10.240;  855.220
975.311;   97.147;  -13.720;  872.600
975.865;   96.708;  -13.770;  881.820
976.419;   94.767;  -11.690;  857.400
976.973;   95.126;   -9.510;  849.620
977.526;   96.578;  -12.620;  949.920
978.080;   95.860;  -12.010;  796.780
978.634;   96.735;  -10.170;  921.320
979.187;   94.246;   -9.020;  905.400
979.741;   92.485;   -9.820; 1018.380
980.294;   87.553;  -14.870;  789.160
980.848;   85.696;  -12.380;  717.220
981.401;   86.850;  -10.350;  816.540
981.955;   89.955;  -13.720;  844.300
982.508;   89.332;  -11.490;  746.340
983.061;   88.032;  -10.000;  915.260
983.615;   84.191;  -11.480;  798.800
984.168;   82.272;  -13.220;  770.080
984.721;   80.946;  -13.960;  880.760
985.274;   80.676;  -10.870;  867.500
985.827;   79.349;   -9.790;  834.220
986.380;   77.227;  -13.120;  721.340
986.933;   77.156;  -12.450;  864.800
987.486;   75.560;  -10.210;  861.920
988.039;   73.728;   -8.430;  863.100
988.591;   72.154;  -10.520;  893.260
989.144;   69.892;  -14.860;  737.260
989.697;   68.779;  -13.080;  758.740
990.250;   69.110;  -10.150;  858.100
990.802;   68.782;  -13.430;  755.860
991.355;   69.817;  -12.750;  974.880
991.907;   67.256;  -12.040;  864.320
992.460;   64.695;  -11.330;  753.760
993.012;   65.043;  -13.610;  749.540
993.565;   63.434;  -13.460;  711.360
994.117;   65.375;   -9.360;  950.780
994.669;   61.075;  -11.300;  701.320
995.221;   59.397;  -13.540;  791.920
995.774;   58.195;  -13.430;  787.580
996.326;   55.627;  -12.520;  740.220
996.878;   56.737;  -10.950;  838.420
997.430;   54.490;  -14.300;  699.860
997.982;   54.004;  -13.760;  750.140
998.534;   53.420;  -11.530;  739.060
999.086;   51.419;  -10.310;  738.220
999.638;   50.582;  -12.530;  661.380
1000.190;   50.022;  -11.840;  699.320
1000.741;   50.067;  -10.260;  742.700
1001.293;   49.483;   -8.860;  686.020
1001.845;   47.946;  -13.700;  676.640
1002.396;   48.213;  -12.100;  743.400
1002.948;   47.259;  -12.760;  737.400
1003.500;   45.633;  -10.380;  723.780
1004.051;   47.033;  -11.900;  907.580
1004.603;   45.054;  -12.250;  791.820
1005.154;   41.065;  -13.210;  608.980
1005.705;   40.931;  -10.950;  723.960
1006.257;   40.289;  -13.880;  707.220
1006.808;   39.583;  -12.840;  685.460
1007.359;   38.760;  -10.570;  763.240
1007.910;   36.961;   -9.620;  646.640
1008.461;   37.581;  -13.630;  732.940
1009.013;   37.021;  -17.200;  588.340
1009.564;   37.642;  -10.200;  793.520
1010.115;   35.562;  -12.570;  597.040
1010.665;   35.924;  -15.150;  602.160
1011.216;   35.976;  -14.480;  667.920
1011.767;   35.065;  -11.340;  697.920
1012.318;   34.919;   -9.780;  736.980
1012.869;   34.659;  -12.380;  679.000
1013.419;   33.572;  -15.560;  603.120
1013.970;   34.417;  -11.010;  666.640
1014.521;   32.979;  -11.610;  620.620
1015.071;   33.695;  -13.450;  670.380
1015.622;   33.456;  -13.870;  635.460
1016.172;   32.613;  -11.610;  596.820
1016.723;   31.416;  -12.120;  614.380
1017.273;   31.713;  -13.620;  604.160
1017.823;   31.751;  -14.140;  650.340
1018.374;   31.004;  -12.800;  611.760
1018.924;   30.991;  -12.340;  716.880
1019.474;   31.858;  -11.410;  718.880
1020.024;   30.389;  -14.770;  657.580
1020.574;   31.205;   -9.780;  726.160
1021.124;   31.334;   -8.560;  673.580
1021.674;   29.562;  -15.190;  559.120
1022.224;   31.274;  -13.530;  708.940
1022.774;   30.564;  -13.280;  668.820
1023.324;   30.663;  -10.690;  753.520
1023.874;   31.842;  -10.240;  875.760
1024.423;   28.716;  -12.540;  613.700
1024.973;   28.748;  -10.010;  610.760
1025.523;   28.034;  -10.550;  620.960
1026.072;   28.521;  -13.560;  606.420
1026.622;   28.641;  -15.120;  675.740
1027.172;   29.086;  -11.260;  715.660
1027.721;   27.570;  -11.410;  601.220
1028.270;   28.245;  -13.530;  663.400
1028.820;   27.976;  -13.680;  638.080
1029.369;   27.954;  -13.520;  612.700
1029.918;   27.153;  -10.980;  649.840
1030.468;   27.015;  -13.530;  564.780
1031.017;   27.279;  -13.170;  634.800
1031.566;   26.324;  -12.200;  608.900
1032.115;   26.818;   -9.960;  694.500
1032.664;   25.513;  -13.210;  596.480
1033.213;   26.735;  -12.500;  735.420
1033.762;   25.850;  -11.910;  635.620
1034.311;   25.478;   -9.640;  677.220
1034.860;   25.681;  -13.310;  691.000
1035.408;   26.448;  -11.830;  722.720
1035.957;   25.675;  -12.000;  719.540
1036.506;   23.409;  -11.690;  530.800
1037.055;   26.734;  -10.990;  844.320
1037.603;   25.473;  -15.120;  664.000
1038.152;   23.620;  -12.450;  534.760
1038.700;   23.908;  -10.560;  585.740
1039.249;   24.075;  -11.080;  681.220
1039.797;   24.172;  -12.540;  633.360
1040.345;   24.255;  -11.920;  705.420
1040.894;   23.479;  -11.410;  625.300
1041.442;   23.267;  -14.320;  632.200
1041.990;   22.771;  -16.240;  559.160
1042.538;   21.910;  -11.680;  536.180
1043.087;   21.678;  -10.760;  570.860
1043.635;   23.466;  -11.850;  670.500
1044.183;   22.362;  -15.480;  586.400
1044.731;   22.127;  -11.770;  576.000
1045.279;   21.466;  -13.090;  674.920
1045.827;   23.317;  -12.440;  892.400
1046.374;   21.556;  -13.840;  515.420
1046.922;   20.801;  -13.220;  590.580
1047.470;   22.105;  -10.230;  691.300
1048.018;   21.362;  -14.590;  647.960
1048.565;   23.033;  -12.050;  708.600
1049.113;   21.039;  -11.650;  557.000
1049.660;   20.529;  -10.510;  629.660
1050.208;   21.506;  -13.310;  675.640
1050.755;   20.359;  -15.900;  606.580
1051.303;   20.845;  -11.430;  686.820
1051.850;   20.037;   -8.480;  635.120
1052.397;   18.906;  -15.010;  473.960
1052.945;   19.489;  -13.960;  617.760
1053.492;   21.452;  -13.150;  741.840
1054.039;   21.021;   -9.630;  720.180
1054.586;   19.718;  -13.680;  557.240
1055.133;   20.486;  -14.570;  693.140
1055.680;   20.216;  -13.820;  646.620
1056.227;   18.565;  -11.730;  542.780
1056.774;   20.654;  -12.480;  794.980
1057.321;   19.087;  -13.930;  523.260
1057.868;   19.364;  -11.690;  651.320
1058.415;   18.510;   -9.520;  651.980
1058.961;   19.632;  -13.160;  678.940
1059.508;   19.047;  -12.920;  643.820
1060.055;   17.723;  -11.920;  581.780
1060.601;   18.399;  -11.500;  624.300
1061.148;   18.069;  -14.330;  616.820
1061.694;   17.982;  -16.870;  592.580
1062.241;   17.530;  -10.330;  596.320
1062.787;   17.197;  -10.620;  663.140
1063.334;   19.583;  -10.110;  808.560
1063.880;   18.244;  -13.400;  668.360
1064.426;   17.534;  -10.680;  706.820
1064.972;   16.343;   -9.920;  601.340
1065.518;   15.376;  -10.980;  566.640
1066.065;   17.598;  -14.890;  624.460
1066.611;   16.282;  -12.870;  598.800
1067.157;   17.151;  -12.950;  641.860
1067.703;   16.642;  -13.540;  668.480
1068.249;   16.990;  -13.540;  605.220
1068.794;   16.271;  -12.600;  626.880
1069.340;   15.252;  -10.620;  578.960
1069.886;   15.990;  -12.830;  590.700
1070.432;   15.315;  -14.870;  541.720
1070.977;   14.604;  -11.980;  601.080
1071.523;   15.630;   -8.200;  573.060
1072.068;   15.798;  -12.330;  582.000
1072.614;   15.462;  -16.370;  527.760
1073.160;   15.633;  -11.100;  687.040
1073.705;   13.884;  -10.480;  572.520
1074.250;   14.256;  -14.520;  559.900
1074.796;   16.133;  -11.460;  655.160
1075.341;   15.526;  -11.950;  664.100
1075.886;   14.709;  -11.460;  594.240
1076.431;   13.884;  -13.770;  649.880
1076.976;   14.417;  -12.680;  639.220
1077.521;   13.801;  -13.170;  583.080
1078.067;   13.725;  -10.860;  579.400
1078.612;   14.098;  -13.920;  661.620
1079.156;   14.294;  -13.880;  601.540
1079.701;   13.983;  -13.120;  693.260
1080.246;   14.491;   -9.940;  696.300
1080.791;   14.071;  -14.740;  625.020
1081.336;   13.849;  -13.750;  659.320
1081.880;   14.085;  -13.400;  649.680
1082.425;   12.617;  -12.220;  573.480
1082.970;   14.139;  -11.610;  717.040
1083.514;   12.857;  -13.580;  597.000
1084.059;   11.774;  -12.810;  586.720
1084.603;   11.301;  -12.320;  565.840
1085.147;   12.692;  -13.190;  645.220
1085.692;   13.333;  -12.480;  716.800
1086.236;   11.393;  -13.020;  503.140
1086.780;   13.081;   -9.190;  751.440
1087.325;   12.199;  -12.480;  654.620
1087.869;   12.086;  -12.450;  610.700
1088.413;   12.054;  -12.240;  705.040
1088.957;   10.780;   -9.020;  543.400
1089.501;   13.027;  -10.320;  766.640
1090.045;   11.870;  -12.720;  726.480
1090.589;   10.364;  -13.690;  569.920
1091.133;   11.882;  -10.020;  673.340
1091.676;   11.343;  -12.330;  591.940
1092.220;   11.306;  -14.970;  600.920
1092.764;   12.312;  -12.430;  706.960
1093.307;   11.129;   -9.800;  673.780
1093.851;    9.621;  -14.970;  556.540
1094.395;   11.343;  -15.310;  683.140
1094.938;   10.165;  -10.370;  632.520
1095.482;   10.187;  -11.050;  559.800
1096.025;   11.606;  -11.840;  710.880
1096.568;   12.201;  -12.840;  779.280
1097.112;    9.208;  -14.700;  508.180
1097.655;   10.356;   -8.720;  603.000
1098.198;    9.493;  -13.610;  600.180
1098.741;    9.656;  -13.350;  612.860
1099.285;   10.639;  -11.230;  657.300
1099.828;    8.030;  -11.840;  439.400
1100.371;    9.576;  -10.840;  608.160
1100.914;    9.528;  -14.190;  682.660
1101.457;    8.908;  -11.240;  679.900
1101.999;    8.033;  -11.270;  584.680
1102.542;    9.087;  -11.480;  641.440
1103.085;    9.372;  -11.750;  658.500
1103.628;    9.594;  -11.400;  762.060
1104.170;    8.401;  -10.490;  588.280
1104.713;    9.155;  -10.600;  646.700
1105.256;    8.317;  -14.360;  557.440
1105.798;    7.066;  -13.210;  499.980
1106.341;    8.848;  -10.270;  728.900
1106.883;    8.205;  -12.200;  521.340
1107.425;    8.275;  -13.110;  668.180
1107.968;    8.206;  -12.840;  612.380
1108.510;    7.863;   -6.480;  684.960
1109.052;    6.724;  -13.940;  612.620
1109.594;    7.467;  -13.690;  554.440
1110.136;    7.835;  -11.880;  643.220
1110.679;    7.271;   -9.500;  633.080
1111.221;    7.974;  -14.160;  604.460
1111.763;    7.132;  -13.980;  559.220
1112.304;    6.433;  -13.880;  547.140
1112.846;    7.424;  -12.210;  666.240
1113.388;    8.319;  -11.390;  942.180
1113.930;    7.006;  -14.540;  694.200
1114.472;    6.820;  -12.640;  606.540
1115.013;    4.813;  -11.620;  551.280
1115.555;    5.640;  -13.640;  587.100
1116.097;    5.327;  -15.380;  579.480
1116.638;    6.042;  -12.640;  684.600
1117.180;    6.526;   -9.850;  667.740
1117.721;    6.538;  -13.690;  568.580
1118.262;    7.016;  -12.680;  677.960
1118.804;    6.701;  -12.530;  637.340
1119.345;    5.656;  -11.690;  578.400
1119.886;    7.123;  -13.380;  704.040
1120.427;    5.709;  -14.070;  589.020
1120.969;    4.778;  -13.500;  597.920
1121.510;    4.958;  -11.480;  563.060
1122.051;    5.863;  -12.830;  723.580
1122.592;    4.282;  -14.290;  655.420
1123.133;    3.730;  -12.400;  547.940
1123.673;    5.570;  -10.130;  706.480
1124.214;    4.719;  -12.930;  612.460
1124.755;    6.029;  -14.380;  639.460
1125.296;    4.802;  -14.000;  627.320
1125.836;    5.572;  -10.070;  691.500
1126.377;    5.111;  -12.640;  599.660
1126.918;    5.253;  -12.960;  614.980
1127.458;    4.249;  -13.350;  622.220
1127.999;    4.722;  -10.750;  656.980
1128.539;    5.496;  -12.350;  694.240
1129.079;    4.425;  -14.860;  632.720
1129.620;    3.748;  -13.840;  558.100
1130.160;    3.923;  -12.330;  539.480
1130.700;    3.496;  -14.530;  640.840
1131.240;    5.097;  -12.530;  643.700
1131.781;    3.332;  -14.450;  619.680
1132.321;    3.897;   -9.790;  599.120
1132.861;    2.653;  -14.860;  564.200
1133.401;    3.280;  -14.290;  593.940
1133.941;    3.263;  -11.750;  626.280
1134.481;    2.335;   -9.920;  597.580
1135.020;    2.807;  -12.290;  609.160
1135.560;    3.484;  -11.650;  674.940
1136.100;    3.152;  -16.270;  501.160
1136.640;    1.682;  -10.890;  510.480
1137.179;    2.069;  -14.180;  537.960
1137.719;    2.942;  -16.250;  605.400
1138.258;    2.619;  -14.230;  587.360
1138.798;    2.928;   -9.090;  663.780
1139.337;    1.602;  -15.130;  482.840
1139.877;    2.906;  -13.680;  642.360
1140.416;    4.072;  -11.320;  878.060
1140.955;    1.235;  -10.860;  535.380
1141.494;    2.825;  -12.920;  669.280
1142.034;    1.856;  -13.930;  583.520
1142.573;    2.894;  -11.440;  646.280
1143.112;    0.792;  -12.000;  553.480
1143.651;    2.058;  -13.670;  536.480
1144.190;    2.490;  -12.730;  691.640
1144.729;    2.073;  -14.560;  607.420
1145.267;    1.515;  -11.830;  584.900
1145.806;    2.311;  -12.230;  637.040
1146.345;    0.967;  -14.130;  635.020
1146.884;    1.386;  -11.590;  622.500
1147.422;   -0.038;  -12.550;  533.060
1147.961;    2.590;  -11.180;  708.460
1148.500;    2.878;  -11.510;  669.720
1149.038;    2.222;  -11.640;  632.500
1149.577;    1.293;  -10.130;  698.640
1150.115;   -0.720;  -13.970;  452.280
1150.653;    1.266;  -14.520;  607.340
1151.192;    0.643;  -12.810;  552.920
1151.730;    1.156;   -9.100;  652.560
1152.268;   -0.087;  -12.220;  589.520
1152.806;    1.510;  -14.140;  571.180
1153.344;   -0.024;  -12.350;  577.640
1153.882;   -0.087;   -8.980;  600.060
1154.421;   -0.758;  -15.190;  470.620
1154.958;    0.230;  -15.210;  595.240
1155.496;    0.925;  -12.850;  645.280
1156.034;    0.771;   -9.940;  721.880
1156.572;    1.716;  -13.570;  667.060
1157.110;   -0.888;  -14.590;  473.940
1157.647;    0.964;  -13.030;  676.960
1158.185;   -1.201;  -12.140;  564.320
1158.723;   -1.702;  -14.390;  509.200
1159.260;    0.048;  -14.090;  701.700
1159.798;   -0.294;  -11.920;  658.160
1160.335;   -0.857;  -11.110;  631.820

