
Integration time [ms]:   3.276
Averaging Nr. [scans]: 1000
Smoothing Nr. [pixels]: 0
Data measured with spectrometer [name]: 7414430SP
Wave   ;Sample   ;Dark     ;Reference
[nm]   ;[counts] ;[counts] ;[counts] 

288.544;  151.025;    7.793;  793.890
289.143;  154.845;    7.462;  681.602
289.742;  155.461;    8.602;  828.814
290.341;  140.896;    1.321;  789.841
290.940;  129.759;   -0.709;  730.702
291.538;  130.103;    0.881;  881.108
292.137;  131.064;    0.122;  792.581
292.736;  136.128;   -1.929;  975.101
293.335;  131.532;   -8.229;  735.086
293.934;  132.413;   -5.279;  781.677
294.532;  130.353;   -1.369; 1031.958
295.131;  116.373;   -7.641;  834.394
295.730;  116.938;   -8.420;  809.588
296.328;  116.703;   -5.611;  783.442
296.927;  117.173;   -5.781;  779.652
297.525;  117.220;   -6.361;  781.236
298.124;  108.024;  -11.382;  654.009
298.722;  111.447;   -7.641;  761.933
299.321;  109.191;   -6.811;  708.597
299.919;  107.319;   -6.991;  751.918
300.518;  103.996;  -10.362;  689.338
301.116;  106.574;   -9.581;  691.381
301.715;  105.455;   -4.891;  730.222
302.313;  104.575;   -8.801;  704.943
302.911;  100.843;   -8.522;  733.830
303.509;  105.783;   -6.171;  925.627
304.108;  103.390;   -7.311;  760.383
304.706;  102.809;   -8.321;  801.664
305.304;   96.540;  -10.222;  796.707
305.902;  101.773;   -6.021;  784.484
306.500;   97.916;   -4.971;  728.200
307.098;   96.331;   -7.061;  746.560
307.696;   94.491;   -8.801;  780.432
308.294;   94.093;   -6.411;  731.359
308.892;   96.833;   -2.901;  759.769
309.490;   93.373;   -5.041;  712.161
310.088;   91.674;   -5.002;  788.444
310.686;   96.164;   -2.041;  821.749
311.284;   91.511;   -2.351;  766.040
311.882;   89.410;   -4.422;  731.225
312.480;   86.170;   -4.192;  697.167
313.078;   87.609;   -1.172;  808.331
313.675;   88.422;   -2.601;  691.600
314.273;   83.631;   -1.312;  797.837
314.871;   82.616;   -3.942;  589.829
315.468;   80.232;   -2.802;  652.090
316.066;   83.755;   -0.701;  694.427
316.664;   75.166;   -4.362;  656.351
317.261;   80.705;   -2.872;  910.128
317.859;   76.000;   -2.022;  768.735
318.456;   76.159;   -0.531;  830.096
319.054;   72.089;   -3.912;  787.828
319.651;   71.506;   -4.752;  759.928
320.249;   70.417;   -2.602;  810.188
320.846;   67.944;   -0.821;  714.286
321.443;   64.929;   -4.642;  832.135
322.041;   61.911;   -5.002;  812.315
322.638;   59.758;   -3.982;  701.456
323.235;   61.285;   -3.411;  665.683
323.833;   58.862;   -7.361;  740.354
324.430;   53.396;   -8.611;  615.900
325.027;   54.354;   -4.061;  876.855
325.624;   54.413;   -4.031;  644.532
326.221;   51.677;   -7.481;  689.717
326.818;   50.542;   -5.281;  818.332
327.415;   54.669;   -7.460;  748.828
328.012;   53.202;   -5.510;  690.585
328.609;   52.161;   -7.880;  731.389
329.206;   50.572;   -8.331;  778.621
329.803;   50.879;   -5.121;  737.841
330.400;   53.054;   -4.510;  704.260
330.997;   53.843;   -6.441;  817.147
331.594;   53.558;   -8.831;  788.185
332.191;   58.211;   -7.621;  728.722
332.787;   61.218;   -4.591;  844.463
333.384;   60.524;   -7.412;  763.093
333.981;   58.598;   -8.293;  815.687
334.578;   61.509;   -7.052;  708.378
335.174;   64.505;   -3.102;  731.469
335.771;   63.564;   -5.943;  836.456
336.367;   60.517;   -7.393;  710.631
336.964;   64.574;   -4.063;  793.266
337.561;   63.154;   -3.813;  731.112
338.157;   57.997;   -4.654;  911.916
338.754;   55.758;   -7.934;  796.589
339.350;   53.490;   -4.414;  722.493
339.946;   55.844;   -4.664;  773.135
340.543;   46.971;   -6.375;  846.136
341.139;   42.037;   -9.815;  720.836
341.735;   40.224;   -4.526;  772.593
342.332;   38.824;   -4.895;  691.472
342.928;   39.446;   -4.295;  795.394
343.524;   32.760;   -5.476;  761.684
344.120;   28.821;   -5.856;  738.562
344.716;   32.220;   -2.155;  723.717
345.313;   30.635;   -6.275;  795.342
345.909;   25.169;   -8.815;  627.336
346.505;   27.558;   -5.305;  740.247
347.101;   28.107;   -2.674;  827.864
347.697;   27.187;   -4.344;  785.398
348.293;   21.827;   -9.975;  627.244
348.889;   23.486;   -5.774;  745.914
349.485;   22.343;   -5.004;  688.205
350.081;   23.613;   -4.704;  772.592
350.676;   18.793;   -6.635;  691.606
351.272;   23.289;   -4.504;  809.530
351.868;   21.980;   -3.914;  780.497
352.464;   19.322;   -9.044;  723.932
353.059;   16.488;   -8.314;  646.017
353.655;   18.804;   -7.024;  777.063
354.251;   20.529;   -5.343;  759.845
354.846;   14.861;   -8.604;  740.646
355.442;   12.835;   -6.945;  753.071
356.038;   14.523;   -7.564;  751.708
356.633;   14.960;   -5.814;  728.594
357.229;   12.178;   -7.364;  724.757
357.824;   10.365;   -8.024;  703.600
358.420;    9.801;   -9.384;  679.726
359.015;   10.303;   -5.104;  695.357
359.610;   10.266;   -6.854;  763.920
360.206;    4.744;  -10.185;  603.240
360.801;    8.205;   -7.054;  646.503
361.396;   11.352;   -5.034;  725.975
361.992;    4.935;   -8.284;  668.220
362.587;    3.409;   -8.625;  670.160
363.182;    5.287;   -7.674;  689.631
363.777;    6.141;   -5.164;  738.242
364.372;    5.179;   -8.604;  737.314
364.967;    1.214;   -9.055;  680.744
365.563;    5.964;   -6.114;  815.567
366.158;    3.120;   -5.814;  685.161
366.753;    2.680;   -7.854;  649.263
367.348;    2.586;   -7.804;  746.056
367.942;    1.719;   -7.954;  697.298
368.537;    1.213;   -4.984;  754.245
369.132;    0.844;   -8.564;  703.428
369.727;   -2.324;   -8.855;  638.079
370.322;   -1.277;   -6.245;  580.186
370.917;   -1.807;   -6.425;  710.646
371.511;    0.679;   -6.294;  861.834
372.106;   -2.063;   -7.685;  776.964
372.701;   -5.654;   -7.335;  585.988
373.296;   -0.315;   -4.564;  863.135
373.890;   -5.935;  -10.235;  647.840
374.485;   -7.245;   -7.885;  691.199
375.079;   -3.891;   -7.324;  738.685
375.674;   -1.716;   -3.494;  812.970
376.268;   -6.528;   -8.525;  691.759
376.863;  -11.840;  -10.086;  580.327
377.457;   -5.650;   -7.025;  662.490
378.052;   -7.699;   -3.585;  764.884
378.646;   -9.037;   -7.595;  741.167
379.240;   -8.279;   -8.335;  721.176
379.835;   -8.088;   -5.785;  636.978
380.429;   -9.831;   -4.335;  562.557
381.023;  -10.758;   -6.805;  779.205
381.617;  -12.793;   -9.195;  680.106
382.212;   -9.757;   -6.905;  685.303
382.806;   -8.461;   -3.745;  760.690
383.400;  -12.397;   -7.745;  672.281
383.994;  -13.700;   -9.765;  664.870
384.588;   -9.695;   -6.564;  697.701
385.182;   -8.392;   -5.344;  726.624
385.776;  -10.114;   -8.514;  706.875
386.370;  -12.724;   -9.555;  681.968
386.964;  -11.396;   -8.715;  684.155
387.558;  -10.380;   -6.174;  598.360
388.152;  -13.754;   -8.725;  681.959
388.745;  -11.961;   -7.965;  814.707
389.339;   -9.369;   -5.924;  747.642
389.933;   -9.165;   -5.524;  695.370
390.527;  -10.825;   -7.114;  859.029
391.120;  -16.111;  -10.725;  595.318
391.714;  -13.435;   -8.035;  711.633
392.308;  -10.562;   -3.574;  780.253
392.901;  -14.187;   -7.245;  642.460
393.495;  -16.133;   -9.285;  595.414
394.089;  -13.443;   -5.895;  760.452
394.682;  -14.861;   -4.295;  697.188
395.275;  -14.826;   -9.875;  719.927
395.869;  -16.136;   -8.485;  667.314
396.462;  -14.561;   -7.455;  616.609
397.056;  -10.936;   -5.424;  776.621
397.649;  -15.401;   -6.605;  731.575
398.242;  -13.049;   -8.224;  712.645
398.836;  -11.771;   -7.474;  766.408
399.429;  -13.040;   -7.094;  631.041
400.022;  -16.911;   -9.475;  665.902
400.615;  -14.327;   -7.145;  805.609
401.208;  -12.368;   -7.174;  691.451
401.802;  -14.924;   -5.515;  699.329
402.395;  -16.207;   -9.875;  683.502
402.988;  -16.737;   -8.845;  696.627
403.581;  -13.379;   -8.874;  646.878
404.174;  -10.857;   -5.324;  686.568
404.767;  -14.957;   -9.575;  638.583
405.360;  -16.808;  -10.965;  621.445
405.953;  -10.594;   -8.764;  759.034
406.545;  -11.121;   -7.514;  725.342
407.138;  -14.806;  -10.025;  618.350
407.731;  -13.906;  -10.034;  613.303
408.324;   -9.683;   -9.374;  660.554
408.917;  -11.086;   -6.534;  681.864
409.509;  -12.635;   -8.004;  740.396
410.102;  -14.669;   -9.875;  643.948
410.695;   -8.075;   -8.604;  665.758
411.287;   -9.231;   -6.794;  599.821
411.880;  -10.867;   -9.334;  585.421
412.472;  -14.309;  -10.254;  613.092
413.065;  -10.699;   -6.714;  629.408
413.657;   -8.834;   -7.234;  576.678
414.250;   -8.572;  -10.544;  646.681
414.842;  -10.582;   -9.744;  676.353
415.434;   -8.287;   -6.994;  570.463
416.027;   -3.846;   -5.893;  652.196
416.619;   -6.396;   -7.264;  713.400
417.211;   -6.661;  -10.374;  599.352
417.804;   -3.168;   -7.993;  628.499
418.396;   -6.907;   -7.234;  607.643
418.988;   -5.162;   -9.443;  659.238
419.580;   -8.229;  -10.724;  568.276
420.172;   -6.380;  -10.323;  536.196
420.764;   -1.817;   -8.793;  672.482
421.356;   -3.660;  -11.143;  636.898
421.948;   -4.369;   -8.293;  677.661
422.540;    1.068;   -7.893;  680.027
423.132;    0.597;   -7.082;  600.641
423.724;   -3.044;   -8.653;  561.267
424.316;   -0.966;  -10.213;  621.345
424.908;    2.100;   -9.762;  591.517
425.500;    3.132;   -5.572;  647.978
426.092;    3.199;   -8.422;  648.268
426.683;    2.622;   -9.283;  684.836
427.275;    4.991;   -7.852;  641.471
427.867;    6.553;   -5.272;  668.948
428.458;    7.813;   -7.682;  732.344
429.050;    6.205;  -10.612;  680.749
429.642;    8.151;   -9.882;  743.124
430.233;    9.231;   -6.962;  569.356
430.825;    9.540;   -6.842;  724.809
431.416;    7.046;   -9.672;  698.241
432.008;   10.821;   -6.552;  651.723
432.599;   11.623;   -6.891;  656.073
433.190;    8.491;  -10.912;  637.670
433.782;    7.527;  -11.172;  590.395
434.373;   15.620;   -6.061;  884.765
434.964;   14.345;   -8.251;  602.920
435.556;   11.359;   -9.722;  634.537
436.147;   14.980;   -9.082;  758.490
436.738;   14.972;   -8.041;  701.099
437.329;   19.655;   -7.341;  721.723
437.920;   12.060;   -8.162;  666.688
438.511;   12.432;  -11.802;  564.526
439.103;   19.199;  -10.191;  623.998
439.694;   21.346;   -7.601;  681.583
440.285;   20.921;   -8.541;  764.432
440.876;   19.554;   -9.751;  845.738
441.466;   19.782;   -9.401;  575.162
442.057;   24.326;   -7.760;  665.814
442.648;   23.147;   -9.971;  746.255
443.239;   21.566;  -11.001;  620.477
443.830;   26.601;   -7.990;  704.958
444.421;   28.114;   -7.910;  655.474
445.011;   25.116;   -8.131;  693.619
445.602;   24.997;   -7.111;  743.126
446.193;   26.839;  -10.920;  488.117
446.783;   31.066;   -6.500;  640.397
447.374;   25.526;   -8.671;  692.759
447.964;   27.021;  -10.781;  713.770
448.555;   35.204;   -9.650;  822.742
449.145;   31.551;   -8.660;  662.853
449.736;   32.581;   -8.990;  803.179
450.326;   32.300;   -9.500;  713.626
450.917;   37.871;   -8.680;  675.324
451.507;   36.309;   -7.520;  600.661
452.097;   37.303;   -8.590;  746.267
452.688;   38.395;  -11.340;  742.160
453.278;   37.812;  -10.100;  566.840
453.868;   42.289;   -6.019;  793.550
454.458;   40.213;   -9.440;  651.141
455.048;   40.621;  -10.560;  711.783
455.639;   42.425;  -11.799;  567.096
456.229;   45.814;   -6.899;  710.694
456.819;   47.433;   -7.389;  751.158
457.409;   47.198;  -11.119;  773.993
457.999;   51.122;   -9.289;  737.505
458.589;   50.707;   -6.139;  686.606
459.179;   50.634;   -8.729;  717.658
459.769;   48.830;   -9.789;  627.099
460.358;   54.250;  -10.259;  797.262
460.948;   53.322;   -7.299;  689.503
461.538;   54.596;  -10.289;  660.677
462.128;   52.495;  -11.269;  664.934
462.717;   59.445;   -9.368;  710.326
463.307;   62.476;   -7.908;  705.846
463.897;   57.758;   -9.599;  656.942
464.486;   57.401;   -9.769;  837.128
465.076;   61.904;   -8.048;  733.776
465.666;   65.849;   -9.358;  652.900
466.255;   62.527;   -7.919;  785.651
466.845;   62.818;  -11.689;  666.749
467.434;   66.316;   -7.818;  725.873
468.023;   67.265;   -7.678;  658.357
468.613;   63.682;  -10.939;  713.946
469.202;   68.800;  -10.118;  646.507
469.791;   72.825;   -9.108;  737.811
470.381;   74.639;   -6.058;  742.813
470.970;   74.103;  -10.428;  711.099
471.559;   74.510;  -10.268;  733.291
472.148;   77.448;   -8.448;  675.737
472.738;   78.210;   -6.917;  765.466
473.327;   78.645;  -11.978;  637.529
473.916;   78.244;  -11.888;  737.446
474.505;   82.865;   -9.437;  751.703
475.094;   85.630;   -6.747;  806.570
475.683;   84.633;   -9.367;  797.699
476.272;   85.845;  -12.637;  730.632
476.861;   89.239;  -10.027;  706.754
477.449;   94.721;   -8.716;  728.487
478.038;   90.098;   -9.577;  692.513
478.627;   90.755;   -9.718;  714.852
479.216;   97.807;   -8.947;  769.441
479.805;  100.016;   -6.256;  783.375
480.393;   99.641;   -7.937; 1008.945
480.982;   99.138;   -7.717;  874.501
481.571;  105.991;   -9.266;  858.333
482.159;  105.672;   -7.636;  705.386
482.748;  105.891;   -9.667;  821.385
483.336;  110.047;  -10.376;  858.209
483.925;  111.190;   -7.147;  774.373
484.513;  118.157;   -7.996;  758.962
485.102;  114.339;  -10.027;  810.965
485.690;  123.106;  -10.446; 1011.050
486.278;  125.154;   -8.446;  979.329
486.867;  125.957;   -6.356;  809.662
487.455;  127.269;   -9.136;  898.229
488.043;  128.320;  -10.646;  748.361
488.631;  137.583;   -7.456; 1005.079
489.220;  140.829;   -6.636;  908.626
489.808;  141.479;  -11.036;  741.415
490.396;  149.676;  -10.246;  914.645
490.984;  155.359;   -8.556;  830.161
491.572;  165.831;   -5.886;  940.315
492.160;  171.380;   -9.486;  919.081
492.748;  183.877;  -10.976;  884.341
493.336;  207.524;   -8.776; 1019.693
493.924;  233.546;   -5.465;  958.077
494.512;  261.594;   -9.986; 1066.638
495.100;  299.508;  -10.636; 1103.280
495.687;  352.881;  -10.885; 1206.373
496.275;  414.104;   -8.126; 1150.796
496.863;  481.243;  -10.586; 1281.171
497.451;  578.827;  -11.926; 1386.805
498.038;  714.479;  -10.885; 1556.729
498.626;  822.365;   -6.315; 1741.407
499.214;  957.423;   -7.326; 2016.609
499.801; 1151.946;  -11.906; 2220.633
500.389; 1396.829;  -10.466; 2312.494
500.976; 1714.188;   -5.236; 2744.849
501.564; 2118.326;   -8.936; 3148.565
502.151; 2481.876;  -13.176; 3515.999
502.738; 2928.068;  -10.646; 3971.274
503.326; 3304.450;   -9.525; 4403.796
503.913; 3673.292;  -10.856; 5161.749
504.500; 3979.563;  -11.586; 5986.420
505.088; 4415.463;  -10.336; 6381.201
505.675; 4925.591;   -6.355; 6925.547
506.262; 5554.860;   -9.046; 7619.060
506.849; 6251.382;  -10.416; 8733.969
507.436; 6717.856;  -10.305; 9790.121
508.023; 7266.792;   -5.496; 9985.472
508.610; 7518.771;   -7.856;10434.618
509.197; 8113.902;  -10.097;11198.435
509.784; 9469.426;  -10.886;12391.194
510.371;10440.501;   -9.315;13603.713
510.958;11143.643;   -9.936;14426.586
511.545;11907.423;   -9.326;15243.775
512.132;12793.840;  -10.075;15945.876
512.719;13406.432;   -7.796;16340.369
513.305;14250.396;  -10.606;18011.766
513.892;15019.478;  -11.486;19754.971
514.479;16424.582;   -9.126;20967.805
515.066;17792.836;   -6.026;22299.793
515.652;18851.225;   -8.466;22908.660
516.239;20009.813;  -10.886;23798.875
516.825;21069.809;  -11.496;25567.275
517.412;22150.045;   -5.796;28154.959
517.998;23013.195;  -10.506;28344.111
518.585;23018.582;  -10.076;27134.219
519.171;23170.357;   -8.315;27268.576
519.758;24238.648;   -8.596;28964.129
520.344;25937.045;   -8.466;30664.494
520.930;26209.664;  -11.006;32550.605
521.516;27798.547;  -10.495;35422.895
522.103;30290.881;   -5.526;38280.004
522.689;31198.822;   -8.746;37835.117
523.275;30710.336;  -11.376;37288.613
523.861;31108.529;  -11.156;37281.395
524.447;32108.363;   -8.135;37846.949
525.033;31506.547;   -7.896;38321.949
525.619;31436.342;  -12.476;38579.285
526.205;32459.787;   -9.516;40622.875
526.791;33559.625;   -6.926;42258.836
527.377;31190.373;   -8.346;42966.902
527.963;32387.215;   -8.717;42018.949
528.549;33962.461;  -11.016;42476.828
529.135;35295.922;   -8.536;41854.852
529.721;36174.875;   -9.666;41237.711
530.306;36167.684;  -10.066;41259.445
530.892;36290.457;  -11.356;41506.047
531.478;37528.215;   -6.596;43559.613
532.063;39815.730;   -8.836;47695.563
532.649;39906.688;  -10.047;50808.324
533.235;40970.398;   -9.746;51787.500
533.820;42223.855;   -6.566;52145.035
534.406;43004.582;  -10.817;51133.488
534.991;42375.695;   -9.416;49996.805
535.576;40899.875;   -9.036;48882.852
536.162;41033.059;   -6.156;46942.285
536.747;41699.137;  -11.607;45711.746
537.333;44216.402;  -11.787;48510.180
537.918;45810.871;  -12.437;50439.891
538.503;42361.305;   -7.196;50863.711
539.088;37076.430;  -10.556;50906.922
539.673;35880.984;   -8.767;52621.965
540.259;37619.898;  -10.026;52368.094
540.844;39033.656;   -7.416;50879.109
541.429;42850.207;   -9.467;52077.777
542.014;47880.406;   -9.527;52716.695
542.599;48362.652;   -9.946;52363.281
543.184;45475.805;   -7.927;53187.137
543.769;46651.133;   -9.297;54697.605
544.354;46219.598;  -10.127;53913.914
544.938;45338.750;   -9.267;49680.164
545.523;47431.219;   -6.506;47386.277
546.108;49304.273;   -9.787;49151.949
546.693;51434.492;  -11.587;51384.637
547.278;51541.758;  -10.986;51853.254
547.862;48197.469;   -8.206;51173.750
548.447;43498.344;  -10.067;51691.395
549.031;42793.922;   -9.637;52456.703
549.616;47405.738;   -9.926;52714.516
550.201;46347.566;   -6.347;52414.598
550.785;47116.012;   -7.917;52355.059
551.370;46734.344;  -10.867;54589.453
551.954;47151.977;   -9.047;58267.348
552.538;48504.742;   -7.827;59062.176
553.123;46710.488;  -10.287;58115.285
553.707;44208.078;  -12.178;56556.285
554.291;44760.840;   -8.717;56201.668
554.876;46501.031;   -7.457;55335.762
555.460;47356.227;  -10.387;54155.703
556.044;49163.906;   -9.618;53721.484
556.628;47150.563;  -11.567;53731.016
557.212;45657.188;   -8.097;54312.531
557.796;43731.254;  -11.077;53797.773
558.380;43788.746;  -11.108;56145.984
558.964;44761.301;   -9.057;57277.930
559.548;45635.645;   -6.977;56459.641
560.132;43641.297;  -11.457;54434.543
560.716;42581.875;  -11.378;54800.617
561.300;43532.973;   -9.577;57606.945
561.884;44690.637;   -7.127;58972.445
562.467;43632.930;   -7.118;57327.570
563.051;42844.129;  -13.358;54962.434
563.635;43121.711;  -10.178;52594.473
564.219;43711.453;   -7.837;50610.410
564.802;44552.887;  -11.398;49551.180
565.386;44935.520;  -12.788;48370.953
565.969;44656.512;   -9.077;48178.871
566.553;43610.672;   -6.207;49957.305
567.136;43534.383;   -8.568;50369.594
567.720;39678.270;  -11.868;49492.004
568.303;38014.941;   -8.268;50616.352
568.887;38056.336;   -8.698;50727.148
569.470;38208.926;   -6.808;51698.379
570.053;37241.887;  -13.188;52122.078
570.637;35793.637;  -12.037;52536.438
571.220;35192.270;   -8.577;51186.098
571.803;35291.648;   -8.498;51032.762
572.386;37392.371;  -10.498;49609.887
572.969;40086.801;   -9.388;48285.926
573.552;38631.902;   -8.338;47624.285
574.135;37628.277;   -8.518;45498.641
574.718;35181.457;  -13.628;41970.434
575.301;33773.895;  -10.893;41447.137
575.884;32366.328;   -8.158;40923.836
576.467;33444.012;  -10.328;45267.723
577.050;35991.715;  -13.058;48175.543
577.633;37730.723;   -9.458;47729.328
578.216;36567.109;   -8.928;47579.793
578.799;35598.535;   -9.358;47820.996
579.381;34163.148;  -11.388;48115.551
579.964;32701.381;  -11.718;47333.766
580.547;34068.477;   -8.588;46668.969
581.129;34823.207;   -8.859;44466.141
581.712;35191.047;  -10.729;44164.922
582.294;35950.230;  -11.118;46477.855
582.877;36289.887;   -5.218;48244.254
583.459;34259.512;   -8.679;47437.895
584.042;32562.141;  -10.709;46943.219
584.624;33119.195;  -11.669;46792.227
585.206;32545.412;   -8.218;46557.250
585.789;32736.764;  -10.569;45793.773
586.371;35679.680;  -11.859;43836.391
586.953;36245.070;  -10.719;42972.492
587.536;37119.742;   -7.198;42487.211
588.118;36955.758;   -8.720;42086.414
588.700;33484.773;  -10.439;43389.930
589.282;32638.623;   -9.198;43646.039
589.864;33425.082;   -9.199;43438.109
590.446;34545.199;  -11.319;43151.926
591.028;34298.027;  -11.159;42781.867
591.610;33372.141;  -11.779;42839.098
592.192;30635.195;   -7.668;42820.402
592.774;29069.863;  -11.949;40724.277
593.356;28013.619;  -12.129;39874.789
593.937;27571.580;  -10.669;39980.648
594.519;29735.461;   -6.509;42069.633
595.101;31954.586;  -10.849;42976.031
595.683;32100.307;  -11.679;44084.441
596.264;33072.934;   -9.049;43478.797
596.846;31899.066;   -8.849;43803.672
597.427;31266.869;   -9.570;42986.934
598.009;33139.766;  -12.620;42832.219
598.591;33558.637;  -10.039;42580.086
599.172;32664.348;  -10.369;43061.805
599.753;32617.504;   -9.140;41691.469
600.335;34294.137;  -11.430;40692.520
600.916;32981.578;   -9.939;39982.422
601.498;30486.779;   -8.479;40318.617
602.079;29126.150;  -10.920;40670.609
602.660;29070.363;  -11.480;41450.898
603.241;30213.500;  -11.699;41137.738
603.823;29129.164;   -9.579;38868.797
604.404;29137.734;  -10.620;38182.785
604.985;30475.941;  -10.450;38078.047
605.566;29687.436;   -9.129;38056.633
606.147;29621.352;   -7.510;37020.418
606.728;31824.189;  -10.660;37883.359
607.309;30891.881;  -11.740;38748.273
607.890;30117.928;   -9.759;38850.230
608.471;29822.414;   -8.250;37457.918
609.051;29123.266;   -9.240;36066.457
609.632;28078.320;  -12.120;35991.074
610.213;28951.898;   -9.110;37402.641
610.794;29513.984;   -8.030;38383.363
611.374;28779.816;   -8.110;40562.387
611.955;29225.756;  -13.560;38533.727
612.536;30717.443;  -11.400;36951.789
613.116;30409.617;   -8.070;37197.891
613.697;30598.947;  -10.830;38411.125
614.277;29052.527;  -11.641;38673.938
614.858;29992.693;  -13.310;37075.863
615.438;29528.232;   -7.460;35092.906
616.019;26727.436;   -7.601;33666.301
616.599;27346.396;  -12.020;34189.023
617.179;29359.660;  -11.780;36952.047
617.760;30062.629;   -8.570;39582.574
618.340;31176.916;  -11.471;38943.977
618.920;32693.100;  -11.170;37594.156
619.500;32464.715;  -11.071;37866.938
620.080;31668.275;   -7.750;37869.043
620.660;32637.529;  -12.711;36868.617
621.241;33649.676;  -10.211;36352.309
621.821;33658.469;  -10.961;35459.520
622.401;33149.719;   -7.720;35207.414
622.980;32164.799;   -8.981;35980.422
623.560;30658.205;   -9.331;37351.328
624.140;30018.545;   -9.850;34388.582
624.720;25200.982;   -7.451;32368.764
625.300;21547.480;   -9.070;32638.629
625.880;24829.703;  -12.601;34599.035
626.459;28692.236;  -11.751;36831.738
627.039;31736.670;   -9.281;38299.098
627.619;31740.988;   -8.801;38289.574
628.198;29943.242;  -12.071;37220.695
628.778;29063.080;   -9.461;37632.563
629.357;29846.305;   -8.491;38003.012
629.937;29860.033;   -9.721;38402.039
630.516;29288.328;   -9.951;37868.801
631.096;29119.373;  -11.731;35760.410
631.675;32171.344;   -8.572;35225.219
632.254;37239.383;  -11.282;35130.289
632.834;36422.996;  -13.322;35794.570
633.413;34557.680;  -10.301;35788.922
633.992;31667.773;   -8.582;34532.863
634.571;32834.793;   -8.352;33590.113
635.151;35424.941;  -11.912;34943.863
635.730;33903.004;  -10.511;35352.523
636.309;30690.527;   -7.731;35366.605
636.888;28233.416;   -9.952;36165.637
637.467;28997.641;  -11.672;37515.902
638.046;30913.992;   -8.901;39288.695
638.625;34137.215;   -7.912;38279.699
639.204;33789.996;  -10.022;37741.598
639.782;31778.346;  -12.252;38364.551
640.361;27946.369;  -10.041;36740.621
640.940;25057.865;  -11.161;34950.082
641.519;25419.969;   -9.701;34137.398
642.097;28128.877;  -11.271;35654.258
642.676;31088.758;   -8.651;35637.957
643.255;32110.496;   -8.711;36567.074
643.833;31277.674;   -9.581;37809.434
644.412;31786.193;  -13.711;37337.293
644.990;31131.908;  -11.811;37018.531
645.569;31071.602;   -9.411;36518.469
646.147;30048.369;  -10.291;36186.430
646.726;29054.615;  -12.401;36267.688
647.304;30104.639;  -10.411;36647.625
647.882;32232.055;   -9.651;39286.742
648.461;33903.648;   -9.631;39157.703
649.039;32376.881;  -11.881;35412.883
649.617;31596.691;   -9.661;34744.918
650.195;31294.988;   -9.301;35403.098
650.773;30143.041;  -10.511;35053.797
651.352;27714.941;  -11.521;33756.816
651.930;25464.035;  -12.211;31868.773
652.508;23716.279;   -9.171;33121.551
653.086;27614.264;   -9.371;33564.793
653.663;30567.658;  -13.161;34054.668
654.241;29525.502;  -13.031;35693.309
654.819;31140.223;   -9.371;36422.906
655.397;30920.295;  -10.511;38213.484
655.975;30749.357;  -10.371;39507.625
656.553;30773.588;  -10.051;39498.223
657.130;29046.436;  -10.061;40395.480
657.708;28465.975;   -9.561;39242.020
658.286;28417.900;  -11.511;38920.020
658.863;29460.629;  -10.261;40202.898
659.441;32241.361;   -7.531;39677.938
660.018;31447.230;   -9.501;40413.355
660.596;30416.820;  -13.301;39931.414
661.173;32363.641;  -11.211;39604.531
661.750;32614.186;   -9.951;39700.070
662.328;31826.506;   -9.390;39292.809
662.905;30946.859;  -11.330;38235.648
663.482;26343.027;   -9.050;36212.305
664.060;24368.080;   -8.240;35944.945
664.637;27065.969;  -10.050;35170.785
665.214;29101.307;  -11.760;34197.523
665.791;30916.424;  -10.530;34549.520
666.368;29320.947;   -9.690;35118.578
666.945;29900.006;   -9.320;36019.418
667.522;31636.211;  -11.860;36048.438
668.099;31941.850;  -10.770;36243.914
668.676;31262.283;   -6.260;35958.875
669.253;29577.727;   -7.000;37384.730
669.830;29975.486;  -10.190;36779.629
670.407;29625.951;   -9.550;35231.289
670.984;29876.164;   -9.260;35544.270
671.560;30083.127;   -9.280;35466.867
672.137;28653.219;  -11.810;34280.863
672.714;29427.740;  -11.490;34632.863
673.290;29731.059;   -7.740;35135.422
673.867;29889.988;  -10.660;36114.480
674.443;30228.072;  -12.230;36152.859
675.020;28720.299;  -10.450;35327.238
675.596;29813.000;   -9.260;35795.176
676.173;30361.822;  -10.780;35430.355
676.749;30037.092;  -13.690;33549.516
677.326;30213.293;  -11.980;32210.012
677.902;30309.115;   -8.630;32068.871
678.478;29498.795;  -10.730;32583.891
679.054;29280.041;  -10.520;32088.928
679.631;30119.572;  -11.920;30978.848
680.207;30987.732;   -7.490;33160.887
680.783;32216.143;   -9.860;35570.363
681.359;31384.629;  -13.380;36125.184
681.935;30564.877;  -12.480;35240.922
682.511;29489.463;   -7.900;34429.961
683.087;29471.381;   -7.710;34463.680
683.663;29319.225;  -11.480;34648.898
684.239;28465.027;  -14.090;34546.457
684.815;28170.434;   -7.560;35586.375
685.390;28642.404;   -9.910;35821.895
685.966;29076.043;  -11.159;35085.871
686.542;31809.432;  -11.169;34198.230
687.118;33887.414;   -5.959;32847.707
687.693;33841.289;  -10.329;32794.027
688.269;33020.582;  -12.059;33072.367
688.844;30825.107;  -10.909;33141.664
689.420;28806.248;   -8.019;33965.742
689.995;26577.523;   -8.399;34655.523
690.571;25516.361;  -10.949;33576.742
691.146;26168.990;   -9.619;32657.219
691.722;25445.104;   -8.999;32526.979
692.297;25363.824;  -11.589;33014.617
692.872;27314.301;  -11.739;34012.254
693.448;26749.213;  -11.059;34237.434
694.023;25989.127;  -10.139;34142.672
694.598;28275.936;   -9.029;34132.031
695.173;28423.988;  -13.319;34205.250
695.748;27907.354;  -10.169;32882.488
696.323;27737.494;   -8.339;32864.906
696.898;27707.420;   -8.169;33170.004
697.473;27435.484;  -12.309;32432.984
698.048;27133.342;  -10.989;31649.303
698.623;27563.566;   -9.329;30778.141
699.198;29557.137;   -9.849;31140.119
699.773;30395.064;  -12.329;31764.299
700.348;28941.105;  -10.389;31780.816
700.922;29009.973;   -9.269;32046.375
701.497;29356.982;   -9.329;32603.574
702.072;29258.402;  -10.789;34799.871
702.646;28313.916;  -10.839;35793.172
703.221;26440.445;   -9.099;35201.590
703.795;28457.727;  -10.939;34764.527
704.370;28889.652;  -12.859;34307.367
704.944;29288.182;  -11.559;33509.887
705.519;30567.740;   -7.939;31388.584
706.093;31828.529;  -10.499;31340.104
706.668;31870.133;  -11.289;32630.281
707.242;30396.471;  -11.509;32728.779
707.816;28759.318;   -9.639;32947.238
708.390;27406.666;  -11.429;33277.855
708.965;28504.869;  -11.869;33834.336
709.539;29250.207;  -11.689;33709.273
710.113;29735.018;  -10.478;33044.313
710.687;28871.984;  -10.228;31953.992
711.261;26621.307;  -13.698;30505.949
711.835;26361.586;  -13.378;30262.369
712.409;27322.846;   -9.698;31254.447
712.983;28844.916;  -11.898;32754.986
713.557;29677.248;  -15.138;34018.824
714.131;29455.457;  -14.098;34579.625
714.704;28735.770;   -9.958;33890.262
715.278;26390.848;  -10.028;33531.102
715.852;25741.141;  -11.148;33601.660
716.425;26600.369;   -9.068;33515.117
716.999;27144.957;  -10.038;33185.555
717.573;28192.830;   -9.798;33905.996
718.146;29431.504;  -12.378;35199.293
718.720;28806.602;  -11.918;35060.551
719.293;28141.986;   -8.088;34973.230
719.867;31040.684;  -10.888;36394.449
720.440;30888.813;  -11.938;36663.008
721.013;29485.813;  -12.818;35102.426
721.587;28264.494;  -10.298;33985.266
722.160;26704.979;  -10.048;33524.965
722.733;25635.688;  -12.108;32987.043
723.306;26197.396;  -10.818;33066.301
723.880;28153.297;   -8.908;33399.500
724.453;29730.777;   -9.878;33468.297
725.026;28742.867;  -11.188;33816.637
725.599;26428.104;  -11.678;32797.996
726.172;27127.762;   -9.618;33187.434
726.745;28602.586;   -8.258;35136.613
727.318;30243.143;  -12.978;35751.730
727.891;30677.256;  -12.148;35890.430
728.463;30400.947;   -8.968;34822.090
729.036;29337.725;  -10.188;32895.086
729.609;29515.711;  -11.788;31823.225
730.182;26193.094;  -11.788;31445.283
730.754;23767.668;  -10.268;32373.223
731.327;23910.586;   -9.998;33676.820
731.900;24043.902;  -12.228;33417.000
732.472;25478.535;  -13.848;31978.498
733.045;27589.117;   -8.698;30368.777
733.617;27504.416;  -10.607;30574.215
734.190;26858.961;  -11.507;31280.975
734.762;23912.705;  -13.647;31674.412
735.334;22465.211;   -9.767;31247.291
735.907;23062.096;   -9.897;29876.211
736.479;22792.258;  -11.637;29808.488
737.051;22401.775;   -9.567;30233.547
737.623;23843.928;   -8.187;31469.086
738.195;25074.322;  -11.187;31784.225
738.768;26962.574;  -12.337;32120.523
739.340;26634.895;  -12.227;32094.342
739.912;25199.631;  -11.057;31312.680
740.484;24111.229;  -10.207;31946.238
741.056;23115.992;  -10.047;32984.059
741.628;24831.262;  -13.627;33897.715
742.199;27242.406;   -7.177;33213.016
742.771;25612.281;  -10.797;31369.113
743.343;23185.189;  -11.997;31865.473
743.915;22007.609;  -12.867;32388.631
744.487;22146.434;   -7.617;31079.568
745.058;22315.639;   -9.557;30570.107
745.630;23074.430;   -9.877;29970.127
746.201;23996.311;  -14.177;29186.766
746.773;24183.340;   -9.237;28805.723
747.344;24033.371;   -9.847;29591.223
747.916;22657.635;  -11.657;31412.201
748.487;22633.549;  -10.587;32194.898
749.059;23926.482;   -8.707;32533.719
749.630;25025.748;  -10.537;32158.518
750.201;24107.688;  -11.687;30855.395
750.773;22323.590;  -11.647;28622.555
751.344;22335.391;   -7.147;28405.732
751.915;23196.326;   -9.757;28461.551
752.486;22250.479;  -12.427;27842.850
753.057;20018.709;  -12.227;27845.008
753.628;19030.115;  -10.417;27728.107
754.199;20328.658;  -11.767;27381.086
754.770;21541.195;  -11.187;25882.203
755.341;21536.090;  -10.507;25886.184
755.912;21650.617;   -9.387;26050.861
756.483;20927.803;  -10.647;26798.779
757.054;19002.902;  -11.837;27048.238
757.625;17848.168;  -12.716;26294.838
758.195;17770.949;   -9.666;26142.076
758.766;17439.010;   -8.656;26392.234
759.337;18319.818;  -12.856;26334.594
759.907;20280.535;  -13.366;27579.652
760.478;21127.305;   -8.576;28352.770
761.048;20453.340;  -10.526;27325.088
761.619;19641.428;  -11.116;26460.428
762.189;19559.156;  -12.136;26029.826
762.760;20642.721;   -9.456;26430.145
763.330;21748.639;   -7.136;26670.902
763.900;21040.783;  -11.786;26603.021
764.471;18274.645;  -11.546;25542.740
765.041;17022.162;   -8.096;24358.459
765.611;17223.262;   -8.876;23991.297
766.181;17755.813;  -12.196;24470.236
766.751;18604.684;  -11.636;24845.975
767.321;18455.502;  -10.156;24533.633
767.891;16414.109;  -11.766;24916.492
768.461;15811.748;  -14.936;24776.771
769.031;16316.451;  -12.356;24757.988
769.601;17980.533;   -7.526;24181.088
770.171;17890.814;  -10.766;23670.387
770.741;17051.279;  -13.176;22960.045
771.311;17345.482;  -10.616;22917.523
771.880;17672.201;   -9.576;23562.941
772.450;17149.561;  -10.336;24216.500
773.020;17128.992;  -13.516;24140.398
773.589;16791.871;  -13.466;24414.857
774.159;16351.654;   -8.686;23858.717
774.729;15915.735;   -9.476;22942.135
775.298;15368.088;  -13.666;22324.033
775.867;14983.975;  -11.716;21140.313
776.437;14975.213;   -9.906;20838.092
777.006;14556.655;  -12.166;20599.510
777.576;14521.457;  -12.356;20508.809
778.145;14819.314;  -11.646;20732.947
778.714;14738.141;   -8.226;21062.465
779.283;13921.393;   -9.556;20949.664
779.853;13525.540;  -14.116;20508.623
780.422;13984.615;  -11.506;20649.082
780.991;13525.928;   -9.556;21527.520
781.560;12465.948;   -9.095;22632.658
782.129;12236.024;  -12.135;23048.277
782.698;12218.843;  -10.865;23438.555
783.267;11885.538;   -9.335;23267.734
783.836;11855.097;  -11.045;22415.133
784.404;12842.830;  -13.865;20443.152
784.973;13213.576;  -13.095;19699.150
785.542;13073.266;  -11.575;19763.828
786.111;12997.402;   -9.705;20341.408
786.679;12588.754;  -12.105;20207.967
787.248;12354.739;  -12.455;19516.465
787.817;12093.709;  -11.535;18900.363
788.385;11635.084;   -9.765;17879.121
788.954;11009.138;  -14.005;17658.301
789.522;10593.829;  -11.955;17788.879
790.090;11210.510;  -10.135;18118.277
790.659;11587.759;  -10.975;18338.736
791.227;10995.171;  -13.375;18508.615
791.795;11445.653;  -12.375;17898.254
792.364;11791.143;  -10.725;17295.133
792.932;12049.170;   -9.715;16822.051
793.500;12266.397;  -12.675;17040.148
794.068;12578.661;  -13.495;17179.787
794.636;12712.444;  -10.885;16664.246
795.204;12221.072;  -11.045;16524.545
795.772;12236.933;  -13.175;17274.564
796.340;11724.724;  -12.445;17891.002
796.908;11541.453;   -9.735;17648.561
797.476;11512.786;   -9.815;17064.080
798.044;11081.194;  -13.985;16672.777
798.612;10264.842;  -13.115;17023.996
799.180; 9946.081;  -10.185;16561.615
799.747; 9850.276;   -9.055;15962.773
800.315; 9539.395;  -12.385;15296.992
800.883; 9167.386;  -15.035;14801.771
801.450; 9113.247;  -10.365;14534.430
802.018; 9134.287;   -9.855;14173.248
802.585; 9199.099;  -11.905;14029.547
803.153; 9290.853;  -11.585;13836.846
803.720; 9241.128;   -9.095;13567.324
804.287; 8877.647;   -9.135;13360.622
804.855; 8421.907;  -11.604;13681.981
805.422; 8300.222;  -11.794;13536.560
805.989; 8263.062;  -10.734;13355.958
806.556; 8412.141;  -10.444;13747.896
807.124; 8721.760;  -12.764;13987.376
807.691; 8657.322;  -12.964;14038.674
808.258; 8430.837;  -11.134;14120.152
808.825; 8088.149;   -9.854;13860.111
809.392; 8146.604;  -10.504;13268.790
809.959; 7691.136;  -13.054;12680.389
810.526; 7297.920;   -8.294;12427.308
811.093; 7361.899;   -8.394;12030.105
811.659; 7952.745;  -12.304;11653.664
812.226; 8370.636;  -13.944;11637.183
812.793; 7987.072;  -10.484;11611.521
813.360; 7316.346;  -10.144;11885.181
813.926; 6932.342;  -11.684;12770.539
814.493; 6678.364;  -13.644;12677.638
815.060; 6331.001;   -9.724;11974.336
815.626; 6412.171;   -9.854;11594.715
816.193; 6853.126;  -13.254;11579.474
816.759; 6916.596;  -13.204;11666.972
817.325; 7061.508;   -9.434;11325.530
817.892; 7416.310;  -10.134;11105.369
818.458; 7815.721;  -13.474;10843.928
819.024; 7436.885;  -11.854;10714.406
819.591; 7077.786;  -10.244;10469.165
820.157; 6813.984;  -10.704;10235.523
820.723; 6306.934;  -12.324;10847.563
821.289; 6035.535;   -9.444;11040.980
821.855; 5960.006;   -8.374;10357.100
822.421; 5959.203;  -10.234; 9978.918
822.987; 5894.208;  -13.294; 9754.177
823.553; 5562.337;  -10.884;10065.755
824.119; 5407.241;   -8.884;10036.294
824.685; 5500.894;   -6.784;10029.192
825.251; 5571.646;  -12.004;10199.230
825.816; 5522.605;  -11.474; 9820.189
826.382; 5329.396;   -9.174; 9297.248
826.948; 5566.710;   -9.214; 9381.347
827.513; 5965.444;  -10.774; 9450.726
828.079; 5756.105;  -11.924; 9472.444
828.645; 5193.791;  -10.543; 9292.643
829.210; 5121.341;  -10.533; 9065.341
829.776; 5081.865;  -10.753; 9132.620
830.341; 4926.925;  -10.173; 9092.878
830.906; 5093.168;  -10.743; 9078.557
831.472; 5450.808;  -11.113; 8534.535
832.037; 5213.138;  -10.603; 8677.874
832.602; 4643.046;  -13.323; 8628.692
833.167; 4324.608;  -10.823; 8879.031
833.733; 4263.238;  -10.113; 9189.790
834.298; 4372.231;  -13.583; 9052.608
834.863; 4387.615;  -12.703; 8895.087
835.428; 4359.183;  -10.523; 8824.266
835.993; 4285.417;   -6.963; 8845.385
836.558; 4178.031;  -10.763; 8888.563
837.123; 4314.919;   -9.903; 8966.582
837.688; 4521.874;   -9.913; 8617.860
838.253; 4695.111;  -10.283; 8590.699
838.817; 4893.731;  -12.963; 8443.797
839.382; 4828.845;  -14.243; 8799.356
839.947; 4521.772;  -10.733; 8810.595
840.511; 4202.008;   -9.383; 8796.394
841.076; 3845.495;  -12.563; 8347.231
841.641; 3911.469;  -12.953; 8224.330
842.205; 3985.250;   -7.043; 8223.349
842.770; 4098.730;   -8.163; 8622.107
843.334; 4330.364;  -12.503; 8410.386
843.898; 4345.887;  -11.693; 8337.465
844.463; 4399.681;  -10.203; 8506.283
845.027; 4151.868;   -9.533; 8280.962
845.591; 3936.692;  -13.443; 8231.141
846.156; 3925.711;  -13.143; 7969.179
846.720; 3792.929;   -9.433; 7768.278
847.284; 3660.679;  -11.033; 7630.957
847.848; 3486.545;  -10.403; 7472.395
848.412; 3376.953;  -11.553; 7437.394
848.976; 3414.685;   -8.393; 7674.592
849.540; 3371.730;   -8.713; 7836.011
850.104; 3475.311;  -12.463; 7913.669
850.668; 3822.946;  -12.973; 7694.508
851.232; 3937.337;  -10.793; 7756.887
851.796; 3756.419;  -10.662; 7926.545
852.359; 3433.958;  -13.082; 7827.844
852.923; 3291.481;  -12.192; 7641.163
853.487; 3127.664;  -11.912; 7342.501
854.050; 3051.428;  -10.892; 7042.820
854.614; 3171.935;  -13.992; 7151.338
855.177; 3267.658;  -11.732; 7105.077
855.741; 3321.741;   -8.962; 6989.675
856.304; 3229.018;   -9.442; 6596.634
856.868; 3166.348;  -14.192; 6356.272
857.431; 3286.575;  -12.702; 6468.571
857.995; 3408.574;   -9.942; 6373.210
858.558; 3425.302;   -9.112; 6324.448
859.121; 3173.842;  -12.932; 6408.327
859.684; 3066.594;  -13.442; 6347.886
860.247; 3189.195;  -10.632; 6321.264
860.810; 3163.463;  -11.272; 6301.903
861.374; 2910.896;   -9.832; 6607.881
861.937; 2650.178;  -11.762; 6408.200
862.500; 2626.496;   -9.722; 6572.639
863.062; 2783.528;  -10.512; 6387.297
863.625; 2964.256;  -11.232; 6190.836
864.188; 3135.059;  -14.112; 5807.254
864.751; 3191.334;  -11.302; 5682.413
865.314; 3079.594;  -10.112; 5547.492
865.876; 2905.994;  -12.182; 5500.150
866.439; 2916.808;  -10.722; 5415.909
867.002; 2871.497;   -9.252; 5501.567
867.564; 2654.240;   -9.572; 5413.946
868.127; 2425.553;  -13.142; 5160.325
868.689; 2330.592;  -12.902; 5133.183
869.252; 2255.542;   -9.732; 5252.382
869.814; 2162.625;   -9.432; 5297.141
870.377; 2188.498;  -11.552; 5390.919
870.939; 2277.154;   -9.052; 5599.898
871.501; 2339.445;  -10.982; 5248.336
872.063; 2346.384;  -12.292; 4854.235
872.626; 2311.820;  -14.912; 4817.074
873.188; 2323.549;  -13.112; 4987.732
873.750; 2282.098;  -13.442; 4868.651
874.312; 2198.337;   -9.402; 4779.330
874.874; 2112.044;  -11.062; 4866.348
875.436; 2032.953;  -13.931; 4718.887
875.998; 2030.632;   -9.561; 4660.005
876.560; 2044.159;  -11.321; 4462.964
877.122; 1985.118;  -12.221; 4145.042
877.683; 1895.157;  -12.191; 4056.481
878.245; 1835.433;  -12.101; 3950.740
878.807; 1923.067;   -8.971; 4058.958
879.369; 2049.039;  -12.071; 3954.677
879.930; 2062.782;  -14.621; 3941.495
880.492; 2030.580;  -10.311; 4067.014
881.053; 1857.181;  -10.901; 3859.633
881.615; 1441.173;  -14.411; 3776.071
882.176; 1060.628;  -13.761; 3734.750
882.738;  855.470;   -9.181; 3678.489
883.299;  816.839;  -11.791; 3405.407
883.860;  871.565;  -13.121; 3351.106
884.422;  941.831;  -11.211; 3394.044
884.983;  963.942;  -10.091; 3166.443
885.544;  941.499;   -8.461; 3189.802
886.105;  921.096;  -12.361; 3160.360
886.666;  899.208;  -14.141; 3093.059
887.227;  873.360;  -11.361; 2941.957
887.788;  832.107;  -11.401; 2974.836
888.349;  789.980;  -13.791; 2721.214
888.910;  801.531;  -13.191; 2696.493
889.471;  818.966;   -9.881; 2560.172
890.032;  810.522;   -9.881; 2558.190
890.593;  791.284;  -10.371; 2567.669
891.153;  767.947;  -13.301; 2460.307
891.714;  726.194;  -11.431; 2372.046
892.275;  690.566;  -11.291; 2309.505
892.835;  655.963;  -11.471; 2382.543
893.396;  601.999;  -11.541; 2295.502
893.956;  547.707;  -11.181; 2162.420
894.517;  513.650;  -11.741; 2125.439
895.077;  511.034;  -11.671; 2086.978
895.638;  512.988;  -11.311; 2126.316
896.198;  485.890;   -9.831; 1838.275
896.758;  443.965;   -8.421; 1892.813
897.319;  414.581;  -12.351; 1792.232
897.879;  398.825;  -13.511; 1762.751
898.439;  373.228;  -12.001; 1661.149
898.999;  347.357;  -10.180; 1781.468
899.559;  338.859;  -12.030; 1703.347
900.119;  333.894;  -15.710; 1537.525
900.679;  331.638;   -8.900; 1638.384
901.239;  319.026;   -8.340; 1527.902
901.799;  309.020;  -13.910; 1456.441
902.359;  303.806;  -13.460; 1357.140
902.919;  295.634;  -11.490; 1331.118
903.479;  282.735;  -12.110; 1317.257
904.038;  260.793;  -11.720; 1262.595
904.598;  246.039;  -13.610; 1152.034
905.158;  241.948;  -11.040; 1240.893
905.717;  234.989;  -10.900; 1233.691
906.277;  224.131;  -15.080; 1217.330
906.836;  215.488;  -13.380; 1222.408
907.396;  207.611;  -10.780; 1193.047
907.955;  200.878;   -8.500; 1182.526
908.515;  194.364;  -12.760; 1099.364
909.074;  189.419;  -11.900; 1092.863
909.633;  183.774;   -8.950; 1069.121
910.192;  177.437;   -8.770; 1196.460
910.752;  171.990;  -12.390; 1029.960
911.311;  166.875;  -13.680; 1009.780
911.870;  161.717;  -12.370;  971.460
912.429;  160.863;  -10.900; 1094.080
912.988;  159.004;  -11.690; 1081.060
913.547;  154.900;  -13.240;  940.380
914.106;  151.799;  -11.990;  999.420
914.665;  149.790;   -9.990;  984.020
915.224;  149.515;  -12.880; 1035.760
915.782;  149.786;  -12.350;  922.560
916.341;  149.578;   -9.110; 1049.840
916.900;  146.154;   -9.270;  925.260
917.458;  144.281;  -13.240;  884.220
918.017;  144.147;  -13.550;  942.600
918.576;  142.963;  -12.320;  904.440
919.134;  141.293;  -11.490;  837.980
919.693;  139.069;  -13.670;  893.060
920.251;  137.812;  -15.470;  876.500
920.809;  137.175;  -11.290;  839.580
921.368;  136.391;  -10.210;  885.360
921.926;  135.618;  -12.140;  842.940
922.484;  134.620;  -13.080;  903.360
923.042;  134.012;  -11.720;  880.340
923.601;  136.387;   -7.480;  998.680
924.159;  134.962;  -11.570;  935.560
924.717;  131.433;  -13.840;  841.080
925.275;  131.527;  -10.640;  903.240
925.833;  131.425;  -11.540;  779.320
926.391;  132.080;  -12.960;  938.380
926.949;  130.932;  -14.130;  857.680
927.506;  131.147;  -11.750;  903.500
928.064;  130.757;  -10.250;  877.580
928.622;  130.294;  -13.030;  880.100
929.180;  129.663;  -13.400;  814.180
929.737;  131.517;  -10.700;  808.540
930.295;  134.661;  -10.070;  928.480
930.853;  136.475;  -11.960;  849.100
931.410;  137.330;  -13.120;  821.120
931.968;  136.336;  -10.770;  940.660
932.525;  135.595;  -10.680;  909.380
933.082;  136.104;  -13.130;  811.440
933.640;  136.916;  -13.210;  925.900
934.197;  135.416;  -11.060;  886.360
934.754;  136.899;   -9.580;  897.780
935.312;  138.657;  -14.000;  863.340
935.869;  142.845;  -10.710; 1012.980
936.426;  142.620;   -9.860;  872.800
936.983;  144.039;   -9.710;  889.020
937.540;  143.622;  -13.990;  838.280
938.097;  142.187;  -14.040;  940.120
938.654;  142.171;  -10.310;  898.860
939.211;  145.651;  -10.560;  952.480
939.768;  149.188;  -13.900;  915.420
940.324;  152.669;  -14.760;  904.200
940.881;  153.472;  -10.370;  878.500
941.438;  153.184;   -8.260; 1021.200
941.995;  148.328;  -12.540;  992.560
942.551;  147.149;  -14.670;  875.620
943.108;  147.146;  -10.450;  937.920
943.664;  149.165;  -10.750;  869.340
944.221;  152.455;  -11.550; 1088.140
944.777;  151.052;  -14.770;  869.680
945.334;  152.054;  -12.820;  884.840
945.890;  155.044;  -10.130;  946.480
946.446;  154.759;  -13.470;  947.020
947.003;  156.517;  -12.120;  964.940
947.559;  158.611;   -9.980; 1063.040
948.115;  157.307;   -9.080; 1026.540
948.671;  154.127;  -10.830;  967.300
949.227;  152.868;  -12.440;  859.560
949.783;  149.109;  -12.910;  858.900
950.339;  151.637;  -10.270;  991.000
950.895;  151.930;  -13.630; 1023.840
951.451;  151.785;  -15.100;  925.280
952.007;  152.817;  -11.330;  998.540
952.563;  153.442;  -10.580;  937.780
953.118;  153.017;  -13.440;  904.940
953.674;  152.418;  -12.710;  935.780
954.230;  152.095;  -10.350;  949.640
954.785;  149.189;   -9.190;  936.640
955.341;  146.890;  -11.200;  998.160
955.897;  144.389;  -16.560;  834.660
956.452;  145.688;  -12.570;  953.840
957.008;  145.324;   -7.970; 1083.640
957.563;  142.873;  -11.940; 1009.540
958.118;  138.785;  -13.450;  877.700
958.674;  139.421;  -12.030;  946.780
959.229;  139.687;   -9.410; 1013.980
959.784;  138.563;  -12.000;  832.400
960.339;  136.602;  -14.780; 1001.280
960.894;  132.856;   -9.860;  963.760
961.449;  128.423;   -9.970;  859.960
962.004;  129.130;  -10.900; 1212.840
962.559;  125.110;  -13.150;  860.140
963.114;  121.896;  -13.740;  742.480
963.669;  121.344;   -9.820;  915.500
964.224;  120.330;  -13.890;  874.340
964.779;  120.146;  -12.600;  828.420
965.334;  120.332;  -10.950; 1017.860
965.888;  120.205;  -11.170;  875.360
966.443;  122.131;  -12.540;  972.380
966.998;  121.208;  -15.780;  819.460
967.552;  121.078;   -9.760;  908.380
968.107;  116.936;   -9.060;  868.300
968.661;  117.609;  -11.950;  922.440
969.216;  118.786;  -12.800;  856.280
969.770;  119.154;  -11.210;  917.200
970.324;  117.449;  -11.610;  923.140
970.879;  114.585;  -11.370;  947.180
971.433;  110.342;  -12.540;  952.720
971.987;  107.056;  -11.320;  895.340
972.541;  102.793;  -10.720;  917.100
973.095;  103.187;   -9.680; 1009.460
973.649;  101.786;  -11.440;  809.480
974.203;  101.794;  -11.210;  829.040
974.757;  101.548;  -10.240;  855.220
975.311;  100.953;  -13.720;  872.600
975.865;  100.444;  -13.770;  881.820
976.419;   99.316;  -11.690;  857.400
976.973;   98.748;   -9.510;  849.620
977.526;  101.080;  -12.620;  949.920
978.080;  100.219;  -12.010;  796.780
978.634;  101.723;  -10.170;  921.320
979.187;   98.230;   -9.020;  905.400
979.741;   96.045;   -9.820; 1018.380
980.294;   91.437;  -14.870;  789.160
980.848;   89.765;  -12.380;  717.220
981.401;   92.152;  -10.350;  816.540
981.955;   93.172;  -13.720;  844.300
982.508;   92.718;  -11.490;  746.340
983.061;   92.349;  -10.000;  915.260
983.615;   88.732;  -11.480;  798.800
984.168;   85.173;  -13.220;  770.080
984.721;   85.154;  -13.960;  880.760
985.274;   83.815;  -10.870;  867.500
985.827;   82.912;   -9.790;  834.220
986.380;   81.223;  -13.120;  721.340
986.933;   79.743;  -12.450;  864.800
987.486;   78.085;  -10.210;  861.920
988.039;   77.248;   -8.430;  863.100
988.591;   74.414;  -10.520;  893.260
989.144;   73.289;  -14.860;  737.260
989.697;   72.290;  -13.080;  758.740
990.250;   72.559;  -10.150;  858.100
990.802;   71.907;  -13.430;  755.860
991.355;   72.820;  -12.750;  974.880
991.907;   70.378;  -12.040;  864.320
992.460;   67.936;  -11.330;  753.760
993.012;   67.149;  -13.610;  749.540
993.565;   66.653;  -13.460;  711.360
994.117;   67.147;   -9.360;  950.780
994.669;   63.639;  -11.300;  701.320
995.221;   61.799;  -13.540;  791.920
995.774;   60.680;  -13.430;  787.580
996.326;   59.139;  -12.520;  740.220
996.878;   57.941;  -10.950;  838.420
997.430;   56.549;  -14.300;  699.860
997.982;   55.453;  -13.760;  750.140
998.534;   55.049;  -11.530;  739.060
999.086;   53.708;  -10.310;  738.220
999.638;   52.201;  -12.530;  661.380
1000.190;   51.763;  -11.840;  699.320
1000.741;   52.019;  -10.260;  742.700
1001.293;   51.432;   -8.860;  686.020
1001.845;   49.738;  -13.700;  676.640
1002.396;   49.919;  -12.100;  743.400
1002.948;   49.216;  -12.760;  737.400
1003.500;   47.946;  -10.380;  723.780
1004.051;   47.577;  -11.900;  907.580
1004.603;   47.031;  -12.250;  791.820
1005.154;   42.209;  -13.210;  608.980
1005.705;   42.627;  -10.950;  723.960
1006.257;   41.483;  -13.880;  707.220
1006.808;   40.536;  -12.840;  685.460
1007.359;   40.776;  -10.570;  763.240
1007.910;   39.293;   -9.620;  646.640
1008.461;   39.304;  -13.630;  732.940
1009.013;   38.756;  -17.200;  588.340
1009.564;   39.253;  -10.200;  793.520
1010.115;   37.554;  -12.570;  597.040
1010.665;   37.326;  -15.150;  602.160
1011.216;   36.939;  -14.480;  667.920
1011.767;   36.722;  -11.340;  697.920
1012.318;   36.728;   -9.780;  736.980
1012.869;   35.903;  -12.380;  679.000
1013.419;   35.407;  -15.560;  603.120
1013.970;   35.483;  -11.010;  666.640
1014.521;   34.206;  -11.610;  620.620
1015.071;   34.918;  -13.450;  670.380
1015.622;   34.856;  -13.870;  635.460
1016.172;   33.978;  -11.610;  596.820
1016.723;   33.041;  -12.120;  614.380
1017.273;   33.171;  -13.620;  604.160
1017.823;   33.562;  -14.140;  650.340
1018.374;   32.808;  -12.800;  611.760
1018.924;   33.769;  -12.340;  716.880
1019.474;   32.961;  -11.410;  718.880
1020.024;   32.370;  -14.770;  657.580
1020.574;   32.524;   -9.780;  726.160
1021.124;   32.658;   -8.560;  673.580
1021.674;   30.978;  -15.190;  559.120
1022.224;   32.676;  -13.530;  708.940
1022.774;   32.444;  -13.280;  668.820
1023.324;   32.070;  -10.690;  753.520
1023.874;   33.094;  -10.240;  875.760
1024.423;   31.040;  -12.540;  613.700
1024.973;   30.710;  -10.010;  610.760
1025.523;   29.645;  -10.550;  620.960
1026.072;   28.565;  -13.560;  606.420
1026.622;   29.829;  -15.120;  675.740
1027.172;   30.851;  -11.260;  715.660
1027.721;   29.911;  -11.410;  601.220
1028.270;   28.756;  -13.530;  663.400
1028.820;   29.925;  -13.680;  638.080
1029.369;   29.133;  -13.520;  612.700
1029.918;   29.050;  -10.980;  649.840
1030.468;   27.789;  -13.530;  564.780
1031.017;   29.196;  -13.170;  634.800
1031.566;   28.111;  -12.200;  608.900
1032.115;   27.902;   -9.960;  694.500
1032.664;   27.997;  -13.210;  596.480
1033.213;   27.621;  -12.500;  735.420
1033.762;   27.484;  -11.910;  635.620
1034.311;   27.090;   -9.640;  677.220
1034.860;   27.434;  -13.310;  691.000
1035.408;   27.422;  -11.830;  722.720
1035.957;   27.784;  -12.000;  719.540
1036.506;   25.744;  -11.690;  530.800
1037.055;   27.702;  -10.990;  844.320
1037.603;   26.415;  -15.120;  664.000
1038.152;   24.571;  -12.450;  534.760
1038.700;   24.711;  -10.560;  585.740
1039.249;   24.806;  -11.080;  681.220
1039.797;   26.010;  -12.540;  633.360
1040.345;   26.087;  -11.920;  705.420
1040.894;   24.642;  -11.410;  625.300
1041.442;   24.882;  -14.320;  632.200
1041.990;   23.886;  -16.240;  559.160
1042.538;   23.944;  -11.680;  536.180
1043.087;   24.121;  -10.760;  570.860
1043.635;   25.093;  -11.850;  670.500
1044.183;   24.215;  -15.480;  586.400
1044.731;   23.513;  -11.770;  576.000
1045.279;   22.840;  -13.090;  674.920
1045.827;   24.778;  -12.440;  892.400
1046.374;   22.527;  -13.840;  515.420
1046.922;   22.037;  -13.220;  590.580
1047.470;   23.776;  -10.230;  691.300
1048.018;   22.676;  -14.590;  647.960
1048.565;   24.282;  -12.050;  708.600
1049.113;   21.780;  -11.650;  557.000
1049.660;   22.293;  -10.510;  629.660
1050.208;   22.429;  -13.310;  675.640
1050.755;   21.857;  -15.900;  606.580
1051.303;   22.999;  -11.430;  686.820
1051.850;   21.675;   -8.480;  635.120
1052.397;   20.032;  -15.010;  473.960
1052.945;   20.612;  -13.960;  617.760
1053.492;   21.968;  -13.150;  741.840
1054.039;   22.209;   -9.630;  720.180
1054.586;   20.632;  -13.680;  557.240
1055.133;   21.647;  -14.570;  693.140
1055.680;   22.483;  -13.820;  646.620
1056.227;   20.351;  -11.730;  542.780
1056.774;   21.074;  -12.480;  794.980
1057.321;   20.071;  -13.930;  523.260
1057.868;   19.967;  -11.690;  651.320
1058.415;   19.300;   -9.520;  651.980
1058.961;   19.823;  -13.160;  678.940
1059.508;   19.612;  -12.920;  643.820
1060.055;   20.143;  -11.920;  581.780
1060.601;   20.247;  -11.500;  624.300
1061.148;   19.052;  -14.330;  616.820
1061.694;   18.721;  -16.870;  592.580
1062.241;   19.229;  -10.330;  596.320
1062.787;   19.227;  -10.620;  663.140
1063.334;   20.212;  -10.110;  808.560
1063.880;   19.678;  -13.400;  668.360
1064.426;   19.103;  -10.680;  706.820
1064.972;   17.635;   -9.920;  601.340
1065.518;   16.265;  -10.980;  566.640
1066.065;   18.649;  -14.890;  624.460
1066.611;   18.188;  -12.870;  598.800
1067.157;   18.815;  -12.950;  641.860
1067.703;   17.620;  -13.540;  668.480
1068.249;   17.465;  -13.540;  605.220
1068.794;   18.121;  -12.600;  626.880
1069.340;   16.498;  -10.620;  578.960
1069.886;   17.054;  -12.830;  590.700
1070.432;   16.664;  -14.870;  541.720
1070.977;   15.882;  -11.980;  601.080
1071.523;   16.843;   -8.200;  573.060
1072.068;   16.323;  -12.330;  582.000
1072.614;   16.510;  -16.370;  527.760
1073.160;   16.626;  -11.100;  687.040
1073.705;   14.896;  -10.480;  572.520
1074.250;   15.616;  -14.520;  559.900
1074.796;   16.929;  -11.460;  655.160
1075.341;   16.567;  -11.950;  664.100
1075.886;   15.975;  -11.460;  594.240
1076.431;   14.704;  -13.770;  649.880
1076.976;   15.345;  -12.680;  639.220
1077.521;   14.827;  -13.170;  583.080
1078.067;   14.744;  -10.860;  579.400
1078.612;   15.483;  -13.920;  661.620
1079.156;   15.540;  -13.880;  601.540
1079.701;   15.071;  -13.120;  693.260
1080.246;   15.333;   -9.940;  696.300
1080.791;   15.146;  -14.740;  625.020
1081.336;   15.232;  -13.750;  659.320
1081.880;   15.229;  -13.400;  649.680
1082.425;   13.685;  -12.220;  573.480
1082.970;   15.610;  -11.610;  717.040
1083.514;   14.087;  -13.580;  597.000
1084.059;   13.267;  -12.810;  586.720
1084.603;   13.366;  -12.320;  565.840
1085.147;   13.291;  -13.190;  645.220
1085.692;   14.203;  -12.480;  716.800
1086.236;   13.204;  -13.020;  503.140
1086.780;   15.127;   -9.190;  751.440
1087.325;   13.549;  -12.480;  654.620
1087.869;   13.143;  -12.450;  610.700
1088.413;   13.935;  -12.240;  705.040
1088.957;   11.946;   -9.020;  543.400
1089.501;   13.288;  -10.320;  766.640
1090.045;   13.528;  -12.720;  726.480
1090.589;   11.238;  -13.690;  569.920
1091.133;   12.531;  -10.020;  673.340
1091.676;   12.063;  -12.330;  591.940
1092.220;   12.002;  -14.970;  600.920
1092.764;   13.700;  -12.430;  706.960
1093.307;   12.013;   -9.800;  673.780
1093.851;   11.188;  -14.970;  556.540
1094.395;   11.839;  -15.310;  683.140
1094.938;   11.254;  -10.370;  632.520
1095.482;   11.314;  -11.050;  559.800
1096.025;   11.726;  -11.840;  710.880
1096.568;   12.474;  -12.840;  779.280
1097.112;    9.790;  -14.700;  508.180
1097.655;   11.718;   -8.720;  603.000
1098.198;    9.526;  -13.610;  600.180
1098.741;    9.878;  -13.350;  612.860
1099.285;   12.388;  -11.230;  657.300
1099.828;    9.003;  -11.840;  439.400
1100.371;   10.898;  -10.840;  608.160
1100.914;   10.283;  -14.190;  682.660
1101.457;   10.029;  -11.240;  679.900
1101.999;    9.005;  -11.270;  584.680
1102.542;    9.548;  -11.480;  641.440
1103.085;    9.601;  -11.750;  658.500
1103.628;   10.455;  -11.400;  762.060
1104.170;   10.028;  -10.490;  588.280
1104.713;    9.709;  -10.600;  646.700
1105.256;    8.910;  -14.360;  557.440
1105.798;    8.104;  -13.210;  499.980
1106.341;   10.219;  -10.270;  728.900
1106.883;    8.461;  -12.200;  521.340
1107.425;    9.264;  -13.110;  668.180
1107.968;    8.723;  -12.840;  612.380
1108.510;    9.892;   -6.480;  684.960
1109.052;    7.354;  -13.940;  612.620
1109.594;    8.102;  -13.690;  554.440
1110.136;    8.810;  -11.880;  643.220
1110.679;    8.000;   -9.500;  633.080
1111.221;    8.208;  -14.160;  604.460
1111.763;    7.565;  -13.980;  559.220
1112.304;    7.264;  -13.880;  547.140
1112.846;    8.059;  -12.210;  666.240
1113.388;   10.566;  -11.390;  942.180
1113.930;    8.293;  -14.540;  694.200
1114.472;    7.217;  -12.640;  606.540
1115.013;    6.206;  -11.620;  551.280
1115.555;    6.326;  -13.640;  587.100
1116.097;    6.738;  -15.380;  579.480
1116.638;    7.556;  -12.640;  684.600
1117.180;    7.433;   -9.850;  667.740
1117.721;    6.080;  -13.690;  568.580
1118.262;    7.802;  -12.680;  677.960
1118.804;    7.993;  -12.530;  637.340
1119.345;    6.432;  -11.690;  578.400
1119.886;    7.266;  -13.380;  704.040
1120.427;    5.631;  -14.070;  589.020
1120.969;    5.810;  -13.500;  597.920
1121.510;    4.995;  -11.480;  563.060
1122.051;    6.014;  -12.830;  723.580
1122.592;    5.672;  -14.290;  655.420
1123.133;    4.064;  -12.400;  547.940
1123.673;    6.759;  -10.130;  706.480
1124.214;    5.296;  -12.930;  612.460
1124.755;    6.547;  -14.380;  639.460
1125.296;    6.199;  -14.000;  627.320
1125.836;    6.191;  -10.070;  691.500
1126.377;    4.980;  -12.640;  599.660
1126.918;    5.800;  -12.960;  614.980
1127.458;    4.667;  -13.350;  622.220
1127.999;    5.893;  -10.750;  656.980
1128.539;    5.644;  -12.350;  694.240
1129.079;    5.189;  -14.860;  632.720
1129.620;    4.248;  -13.840;  558.100
1130.160;    4.602;  -12.330;  539.480
1130.700;    5.108;  -14.530;  640.840
1131.240;    5.518;  -12.530;  643.700
1131.781;    4.420;  -14.450;  619.680
1132.321;    4.538;   -9.790;  599.120
1132.861;    3.314;  -14.860;  564.200
1133.401;    3.991;  -14.290;  593.940
1133.941;    3.901;  -11.750;  626.280
1134.481;    2.932;   -9.920;  597.580
1135.020;    3.377;  -12.290;  609.160
1135.560;    4.055;  -11.650;  674.940
1136.100;    3.312;  -16.270;  501.160
1136.640;    3.183;  -10.890;  510.480
1137.179;    3.328;  -14.180;  537.960
1137.719;    3.915;  -16.250;  605.400
1138.258;    3.419;  -14.230;  587.360
1138.798;    4.249;   -9.090;  663.780
1139.337;    2.336;  -15.130;  482.840
1139.877;    3.755;  -13.680;  642.360
1140.416;    5.782;  -11.320;  878.060
1140.955;    2.166;  -10.860;  535.380
1141.494;    3.075;  -12.920;  669.280
1142.034;    2.902;  -13.930;  583.520
1142.573;    2.489;  -11.440;  646.280
1143.112;    2.736;  -12.000;  553.480
1143.651;    2.644;  -13.670;  536.480
1144.190;    3.828;  -12.730;  691.640
1144.729;    3.200;  -14.560;  607.420
1145.267;    2.365;  -11.830;  584.900
1145.806;    3.433;  -12.230;  637.040
1146.345;    2.030;  -14.130;  635.020
1146.884;    2.050;  -11.590;  622.500
1147.422;    1.568;  -12.550;  533.060
1147.961;    3.242;  -11.180;  708.460
1148.500;    2.974;  -11.510;  669.720
1149.038;    2.619;  -11.640;  632.500
1149.577;    2.327;  -10.130;  698.640
1150.115;    0.288;  -13.970;  452.280
1150.653;    1.853;  -14.520;  607.340
1151.192;    1.993;  -12.810;  552.920
1151.730;    2.470;   -9.100;  652.560
1152.268;    0.937;  -12.220;  589.520
1152.806;    1.020;  -14.140;  571.180
1153.344;   -0.272;  -12.350;  577.640
1153.882;    1.326;   -8.980;  600.060
1154.421;   -0.361;  -15.190;  470.620
1154.958;    0.887;  -15.210;  595.240
1155.496;    2.318;  -12.850;  645.280
1156.034;    1.639;   -9.940;  721.880
1156.572;    2.038;  -13.570;  667.060
1157.110;   -0.421;  -14.590;  473.940
1157.647;    1.247;  -13.030;  676.960
1158.185;    0.038;  -12.140;  564.320
1158.723;   -0.591;  -14.390;  509.200
1159.260;    0.875;  -14.090;  701.700
1159.798;    1.276;  -11.920;  658.160
1160.335;    0.034;  -11.110;  631.820

