
Integration time [ms]:   3.276
Averaging Nr. [scans]: 1000
Smoothing Nr. [pixels]: 0
Data measured with spectrometer [name]: 7414430SP
Wave   ;Sample   ;Dark     ;Reference
[nm]   ;[counts] ;[counts] ;[counts] 

288.544;  151.718;    7.793;  793.890
289.143;  156.132;    7.462;  681.602
289.742;  155.920;    8.602;  828.814
290.341;  140.703;    1.321;  789.841
290.940;  130.667;   -0.709;  730.702
291.538;  130.912;    0.881;  881.108
292.137;  132.149;    0.122;  792.581
292.736;  135.524;   -1.929;  975.101
293.335;  132.603;   -8.229;  735.086
293.934;  132.825;   -5.279;  781.677
294.532;  131.805;   -1.369; 1031.958
295.131;  117.035;   -7.641;  834.394
295.730;  117.705;   -8.420;  809.588
296.328;  115.990;   -5.611;  783.442
296.927;  117.819;   -5.781;  779.652
297.525;  118.084;   -6.361;  781.236
298.124;  107.617;  -11.382;  654.009
298.722;  111.861;   -7.641;  761.933
299.321;  109.923;   -6.811;  708.597
299.919;  108.366;   -6.991;  751.918
300.518;  105.400;  -10.362;  689.338
301.116;  106.406;   -9.581;  691.381
301.715;  106.801;   -4.891;  730.222
302.313;  104.705;   -8.801;  704.943
302.911;  101.325;   -8.522;  733.830
303.509;  106.729;   -6.171;  925.627
304.108;  104.459;   -7.311;  760.383
304.706;  102.295;   -8.321;  801.664
305.304;   97.939;  -10.222;  796.707
305.902;  102.510;   -6.021;  784.484
306.500;   98.555;   -4.971;  728.200
307.098;   96.930;   -7.061;  746.560
307.696;   94.422;   -8.801;  780.432
308.294;   94.876;   -6.411;  731.359
308.892;   97.091;   -2.901;  759.769
309.490;   94.092;   -5.041;  712.161
310.088;   91.924;   -5.002;  788.444
310.686;   95.201;   -2.041;  821.749
311.284;   92.246;   -2.351;  766.040
311.882;   88.633;   -4.422;  731.225
312.480;   86.186;   -4.192;  697.167
313.078;   87.846;   -1.172;  808.331
313.675;   88.727;   -2.601;  691.600
314.273;   83.391;   -1.312;  797.837
314.871;   83.934;   -3.942;  589.829
315.468;   81.373;   -2.802;  652.090
316.066;   83.257;   -0.701;  694.427
316.664;   76.659;   -4.362;  656.351
317.261;   80.695;   -2.872;  910.128
317.859;   75.754;   -2.022;  768.735
318.456;   76.416;   -0.531;  830.096
319.054;   71.601;   -3.912;  787.828
319.651;   72.425;   -4.752;  759.928
320.249;   70.283;   -2.602;  810.188
320.846;   68.480;   -0.821;  714.286
321.443;   64.733;   -4.642;  832.135
322.041;   62.692;   -5.002;  812.315
322.638;   59.958;   -3.982;  701.456
323.235;   61.641;   -3.411;  665.683
323.833;   58.419;   -7.361;  740.354
324.430;   54.687;   -8.611;  615.900
325.027;   54.728;   -4.061;  876.855
325.624;   54.558;   -4.031;  644.532
326.221;   51.586;   -7.481;  689.717
326.818;   51.159;   -5.281;  818.332
327.415;   54.332;   -7.460;  748.828
328.012;   54.148;   -5.510;  690.585
328.609;   51.576;   -7.880;  731.389
329.206;   50.205;   -8.331;  778.621
329.803;   50.505;   -5.121;  737.841
330.400;   53.873;   -4.510;  704.260
330.997;   54.573;   -6.441;  817.147
331.594;   52.254;   -8.831;  788.185
332.191;   58.318;   -7.621;  728.722
332.787;   61.771;   -4.591;  844.463
333.384;   60.139;   -7.412;  763.093
333.981;   58.715;   -8.293;  815.687
334.578;   61.782;   -7.052;  708.378
335.174;   65.303;   -3.102;  731.469
335.771;   64.477;   -5.943;  836.456
336.367;   61.596;   -7.393;  710.631
336.964;   65.305;   -4.063;  793.266
337.561;   62.645;   -3.813;  731.112
338.157;   58.521;   -4.654;  911.916
338.754;   55.602;   -7.934;  796.589
339.350;   54.310;   -4.414;  722.493
339.946;   55.297;   -4.664;  773.135
340.543;   47.475;   -6.375;  846.136
341.139;   42.287;   -9.815;  720.836
341.735;   40.138;   -4.526;  772.593
342.332;   38.552;   -4.895;  691.472
342.928;   38.467;   -4.295;  795.394
343.524;   32.372;   -5.476;  761.684
344.120;   29.206;   -5.856;  738.562
344.716;   32.510;   -2.155;  723.717
345.313;   29.825;   -6.275;  795.342
345.909;   25.056;   -8.815;  627.336
346.505;   27.570;   -5.305;  740.247
347.101;   28.016;   -2.674;  827.864
347.697;   27.957;   -4.344;  785.398
348.293;   22.476;   -9.975;  627.244
348.889;   23.115;   -5.774;  745.914
349.485;   22.604;   -5.004;  688.205
350.081;   22.642;   -4.704;  772.592
350.676;   17.676;   -6.635;  691.606
351.272;   23.501;   -4.504;  809.530
351.868;   23.307;   -3.914;  780.497
352.464;   19.653;   -9.044;  723.932
353.059;   16.097;   -8.314;  646.017
353.655;   19.238;   -7.024;  777.063
354.251;   20.089;   -5.343;  759.845
354.846;   14.623;   -8.604;  740.646
355.442;   12.540;   -6.945;  753.071
356.038;   14.177;   -7.564;  751.708
356.633;   15.238;   -5.814;  728.594
357.229;   11.068;   -7.364;  724.757
357.824;   10.443;   -8.024;  703.600
358.420;    9.368;   -9.384;  679.726
359.015;   10.470;   -5.104;  695.357
359.610;   11.400;   -6.854;  763.920
360.206;    5.049;  -10.185;  603.240
360.801;    8.117;   -7.054;  646.503
361.396;   10.883;   -5.034;  725.975
361.992;    5.079;   -8.284;  668.220
362.587;    2.629;   -8.625;  670.160
363.182;    4.300;   -7.674;  689.631
363.777;    5.218;   -5.164;  738.242
364.372;    5.654;   -8.604;  737.314
364.967;    1.575;   -9.055;  680.744
365.563;    5.217;   -6.114;  815.567
366.158;    2.868;   -5.814;  685.161
366.753;    2.951;   -7.854;  649.263
367.348;    1.459;   -7.804;  746.056
367.942;    0.698;   -7.954;  697.298
368.537;    0.719;   -4.984;  754.245
369.132;    0.572;   -8.564;  703.428
369.727;   -3.384;   -8.855;  638.079
370.322;   -2.152;   -6.245;  580.186
370.917;   -2.121;   -6.425;  710.646
371.511;    0.360;   -6.294;  861.834
372.106;   -2.618;   -7.685;  776.964
372.701;   -5.935;   -7.335;  585.988
373.296;   -0.517;   -4.564;  863.135
373.890;   -5.586;  -10.235;  647.840
374.485;   -6.979;   -7.885;  691.199
375.079;   -3.491;   -7.324;  738.685
375.674;   -2.187;   -3.494;  812.970
376.268;   -7.010;   -8.525;  691.759
376.863;  -12.706;  -10.086;  580.327
377.457;   -6.429;   -7.025;  662.490
378.052;   -7.861;   -3.585;  764.884
378.646;   -9.016;   -7.595;  741.167
379.240;   -9.174;   -8.335;  721.176
379.835;   -8.471;   -5.785;  636.978
380.429;  -10.194;   -4.335;  562.557
381.023;  -10.704;   -6.805;  779.205
381.617;  -12.895;   -9.195;  680.106
382.212;   -9.424;   -6.905;  685.303
382.806;   -9.057;   -3.745;  760.690
383.400;  -13.253;   -7.745;  672.281
383.994;  -14.106;   -9.765;  664.870
384.588;   -9.447;   -6.564;  697.701
385.182;   -7.823;   -5.344;  726.624
385.776;  -11.020;   -8.514;  706.875
386.370;  -13.660;   -9.555;  681.968
386.964;  -12.307;   -8.715;  684.155
387.558;  -10.396;   -6.174;  598.360
388.152;  -14.508;   -8.725;  681.959
388.745;  -13.016;   -7.965;  814.707
389.339;  -10.061;   -5.924;  747.642
389.933;   -9.411;   -5.524;  695.370
390.527;  -10.853;   -7.114;  859.029
391.120;  -16.809;  -10.725;  595.318
391.714;  -14.224;   -8.035;  711.633
392.308;  -10.108;   -3.574;  780.253
392.901;  -14.609;   -7.245;  642.460
393.495;  -15.911;   -9.285;  595.414
394.089;  -14.045;   -5.895;  760.452
394.682;  -14.435;   -4.295;  697.188
395.275;  -15.074;   -9.875;  719.927
395.869;  -16.077;   -8.485;  667.314
396.462;  -14.717;   -7.455;  616.609
397.056;  -11.111;   -5.424;  776.621
397.649;  -16.272;   -6.605;  731.575
398.242;  -13.102;   -8.224;  712.645
398.836;  -12.392;   -7.474;  766.408
399.429;  -13.374;   -7.094;  631.041
400.022;  -17.689;   -9.475;  665.902
400.615;  -14.335;   -7.145;  805.609
401.208;  -12.799;   -7.174;  691.451
401.802;  -14.465;   -5.515;  699.329
402.395;  -16.105;   -9.875;  683.502
402.988;  -16.681;   -8.845;  696.627
403.581;  -14.323;   -8.874;  646.878
404.174;  -11.220;   -5.324;  686.568
404.767;  -14.756;   -9.575;  638.583
405.360;  -17.338;  -10.965;  621.445
405.953;  -10.933;   -8.764;  759.034
406.545;  -10.948;   -7.514;  725.342
407.138;  -15.741;  -10.025;  618.350
407.731;  -13.452;  -10.034;  613.303
408.324;   -9.879;   -9.374;  660.554
408.917;  -10.982;   -6.534;  681.864
409.509;  -13.077;   -8.004;  740.396
410.102;  -14.656;   -9.875;  643.948
410.695;   -8.843;   -8.604;  665.758
411.287;   -9.983;   -6.794;  599.821
411.880;  -11.315;   -9.334;  585.421
412.472;  -13.996;  -10.254;  613.092
413.065;  -11.320;   -6.714;  629.408
413.657;   -9.024;   -7.234;  576.678
414.250;   -9.823;  -10.544;  646.681
414.842;  -10.741;   -9.744;  676.353
415.434;   -8.410;   -6.994;  570.463
416.027;   -4.405;   -5.893;  652.196
416.619;   -6.901;   -7.264;  713.400
417.211;   -7.438;  -10.374;  599.352
417.804;   -3.489;   -7.993;  628.499
418.396;   -7.341;   -7.234;  607.643
418.988;   -4.642;   -9.443;  659.238
419.580;   -8.077;  -10.724;  568.276
420.172;   -6.496;  -10.323;  536.196
420.764;   -2.330;   -8.793;  672.482
421.356;   -2.905;  -11.143;  636.898
421.948;   -4.548;   -8.293;  677.661
422.540;    0.442;   -7.893;  680.027
423.132;    0.090;   -7.082;  600.641
423.724;   -3.282;   -8.653;  561.267
424.316;   -1.719;  -10.213;  621.345
424.908;    2.355;   -9.762;  591.517
425.500;    3.542;   -5.572;  647.978
426.092;    3.392;   -8.422;  648.268
426.683;    2.396;   -9.283;  684.836
427.275;    5.241;   -7.852;  641.471
427.867;    7.276;   -5.272;  668.948
428.458;    7.269;   -7.682;  732.344
429.050;    5.827;  -10.612;  680.749
429.642;    8.204;   -9.882;  743.124
430.233;    8.007;   -6.962;  569.356
430.825;    9.345;   -6.842;  724.809
431.416;    6.574;   -9.672;  698.241
432.008;   10.799;   -6.552;  651.723
432.599;   11.223;   -6.891;  656.073
433.190;    8.048;  -10.912;  637.670
433.782;    7.807;  -11.172;  590.395
434.373;   14.913;   -6.061;  884.765
434.964;   13.771;   -8.251;  602.920
435.556;   10.926;   -9.722;  634.537
436.147;   14.227;   -9.082;  758.490
436.738;   13.669;   -8.041;  701.099
437.329;   19.483;   -7.341;  721.723
437.920;   12.002;   -8.162;  666.688
438.511;   12.593;  -11.802;  564.526
439.103;   19.774;  -10.191;  623.998
439.694;   21.036;   -7.601;  681.583
440.285;   20.825;   -8.541;  764.432
440.876;   19.256;   -9.751;  845.738
441.466;   19.238;   -9.401;  575.162
442.057;   24.680;   -7.760;  665.814
442.648;   22.775;   -9.971;  746.255
443.239;   20.852;  -11.001;  620.477
443.830;   25.872;   -7.990;  704.958
444.421;   28.142;   -7.910;  655.474
445.011;   24.717;   -8.131;  693.619
445.602;   24.274;   -7.111;  743.126
446.193;   26.104;  -10.920;  488.117
446.783;   30.293;   -6.500;  640.397
447.374;   25.449;   -8.671;  692.759
447.964;   26.761;  -10.781;  713.770
448.555;   34.533;   -9.650;  822.742
449.145;   32.158;   -8.660;  662.853
449.736;   32.053;   -8.990;  803.179
450.326;   32.395;   -9.500;  713.626
450.917;   36.917;   -8.680;  675.324
451.507;   36.200;   -7.520;  600.661
452.097;   36.767;   -8.590;  746.267
452.688;   38.154;  -11.340;  742.160
453.278;   37.464;  -10.100;  566.840
453.868;   42.303;   -6.019;  793.550
454.458;   40.077;   -9.440;  651.141
455.048;   40.397;  -10.560;  711.783
455.639;   42.097;  -11.799;  567.096
456.229;   45.837;   -6.899;  710.694
456.819;   46.977;   -7.389;  751.158
457.409;   47.709;  -11.119;  773.993
457.999;   50.457;   -9.289;  737.505
458.589;   50.759;   -6.139;  686.606
459.179;   49.812;   -8.729;  717.658
459.769;   48.317;   -9.789;  627.099
460.358;   53.660;  -10.259;  797.262
460.948;   53.145;   -7.299;  689.503
461.538;   54.608;  -10.289;  660.677
462.128;   52.947;  -11.269;  664.934
462.717;   59.421;   -9.368;  710.326
463.307;   62.759;   -7.908;  705.846
463.897;   57.976;   -9.599;  656.942
464.486;   57.225;   -9.769;  837.128
465.076;   61.941;   -8.048;  733.776
465.666;   65.522;   -9.358;  652.900
466.255;   62.730;   -7.919;  785.651
466.845;   61.898;  -11.689;  666.749
467.434;   65.756;   -7.818;  725.873
468.023;   66.184;   -7.678;  658.357
468.613;   63.570;  -10.939;  713.946
469.202;   68.534;  -10.118;  646.507
469.791;   72.061;   -9.108;  737.811
470.381;   75.005;   -6.058;  742.813
470.970;   74.200;  -10.428;  711.099
471.559;   73.041;  -10.268;  733.291
472.148;   76.649;   -8.448;  675.737
472.738;   78.998;   -6.917;  765.466
473.327;   79.149;  -11.978;  637.529
473.916;   78.231;  -11.888;  737.446
474.505;   83.091;   -9.437;  751.703
475.094;   85.772;   -6.747;  806.570
475.683;   84.766;   -9.367;  797.699
476.272;   85.675;  -12.637;  730.632
476.861;   89.213;  -10.027;  706.754
477.449;   95.327;   -8.716;  728.487
478.038;   89.272;   -9.577;  692.513
478.627;   90.469;   -9.718;  714.852
479.216;   97.689;   -8.947;  769.441
479.805;  100.892;   -6.256;  783.375
480.393;   99.968;   -7.937; 1008.945
480.982;   99.139;   -7.717;  874.501
481.571;  105.623;   -9.266;  858.333
482.159;  105.442;   -7.636;  705.386
482.748;  105.624;   -9.667;  821.385
483.336;  110.840;  -10.376;  858.209
483.925;  111.763;   -7.147;  774.373
484.513;  117.827;   -7.996;  758.962
485.102;  114.401;  -10.027;  810.965
485.690;  122.452;  -10.446; 1011.050
486.278;  125.242;   -8.446;  979.329
486.867;  124.925;   -6.356;  809.662
487.455;  126.321;   -9.136;  898.229
488.043;  127.822;  -10.646;  748.361
488.631;  136.501;   -7.456; 1005.079
489.220;  141.559;   -6.636;  908.626
489.808;  141.404;  -11.036;  741.415
490.396;  149.286;  -10.246;  914.645
490.984;  155.142;   -8.556;  830.161
491.572;  164.505;   -5.886;  940.315
492.160;  171.591;   -9.486;  919.081
492.748;  183.066;  -10.976;  884.341
493.336;  206.303;   -8.776; 1019.693
493.924;  232.776;   -5.465;  958.077
494.512;  260.043;   -9.986; 1066.638
495.100;  295.256;  -10.636; 1103.280
495.687;  348.310;  -10.885; 1206.373
496.275;  409.665;   -8.126; 1150.796
496.863;  476.642;  -10.586; 1281.171
497.451;  575.243;  -11.926; 1386.805
498.038;  705.907;  -10.885; 1556.729
498.626;  812.858;   -6.315; 1741.407
499.214;  955.594;   -7.326; 2016.609
499.801; 1140.443;  -11.906; 2220.633
500.389; 1384.390;  -10.466; 2312.494
500.976; 1686.017;   -5.236; 2744.849
501.564; 2085.378;   -8.936; 3148.565
502.151; 2431.118;  -13.176; 3515.999
502.738; 2872.820;  -10.646; 3971.274
503.326; 3274.413;   -9.525; 4403.796
503.913; 3656.346;  -10.856; 5161.749
504.500; 3949.511;  -11.586; 5986.420
505.088; 4398.677;  -10.336; 6381.201
505.675; 4922.256;   -6.355; 6925.547
506.262; 5538.367;   -9.046; 7619.060
506.849; 6258.610;  -10.416; 8733.969
507.436; 6734.113;  -10.305; 9790.121
508.023; 7259.121;   -5.496; 9985.472
508.610; 7493.974;   -7.856;10434.618
509.197; 8124.513;  -10.097;11198.435
509.784; 9449.752;  -10.886;12391.194
510.371;10407.508;   -9.315;13603.713
510.958;11175.276;   -9.936;14426.586
511.545;11994.068;   -9.326;15243.775
512.132;12784.061;  -10.075;15945.876
512.719;13311.646;   -7.796;16340.369
513.305;14172.303;  -10.606;18011.766
513.892;14978.834;  -11.486;19754.971
514.479;16375.503;   -9.126;20967.805
515.066;17906.734;   -6.026;22299.793
515.652;19119.377;   -8.466;22908.660
516.239;20129.992;  -10.886;23798.875
516.825;21041.465;  -11.496;25567.275
517.412;22010.160;   -5.796;28154.959
517.998;22857.254;  -10.506;28344.111
518.585;22961.039;  -10.076;27134.219
519.171;23237.363;   -8.315;27268.576
519.758;24458.881;   -8.596;28964.129
520.344;26516.775;   -8.466;30664.494
520.930;26863.676;  -11.006;32550.605
521.516;28044.680;  -10.495;35422.895
522.103;30512.166;   -5.526;38280.004
522.689;31419.447;   -8.746;37835.117
523.275;31322.906;  -11.376;37288.613
523.861;32340.574;  -11.156;37281.395
524.447;33367.605;   -8.135;37846.949
525.033;32874.441;   -7.896;38321.949
525.619;33281.363;  -12.476;38579.285
526.205;34962.793;   -9.516;40622.875
526.791;37760.324;   -6.926;42258.836
527.377;37799.980;   -8.346;42966.902
527.963;39460.777;   -8.717;42018.949
528.549;38375.539;  -11.016;42476.828
529.135;36761.223;   -8.536;41854.852
529.721;36017.969;   -9.666;41237.711
530.306;35304.641;  -10.066;41259.445
530.892;35460.336;  -11.356;41506.047
531.478;36944.820;   -6.596;43559.613
532.063;39451.539;   -8.836;47695.563
532.649;39929.273;  -10.047;50808.324
533.235;40962.695;   -9.746;51787.500
533.820;42144.016;   -6.566;52145.035
534.406;43069.031;  -10.817;51133.488
534.991;42589.738;   -9.416;49996.805
535.576;41396.320;   -9.036;48882.852
536.162;41934.949;   -6.156;46942.285
536.747;42940.734;  -11.607;45711.746
537.333;45916.906;  -11.787;48510.180
537.918;49330.414;  -12.437;50439.891
538.503;48417.750;   -7.196;50863.711
539.088;45215.344;  -10.556;50906.922
539.673;45152.895;   -8.767;52621.965
540.259;45186.000;  -10.026;52368.094
540.844;42607.973;   -7.416;50879.109
541.429;43142.613;   -9.467;52077.777
542.014;46338.320;   -9.527;52716.695
542.599;46558.277;   -9.946;52363.281
543.184;43533.535;   -7.927;53187.137
543.769;44125.613;   -9.297;54697.605
544.354;44135.660;  -10.127;53913.914
544.938;43426.953;   -9.267;49680.164
545.523;45491.504;   -6.506;47386.277
546.108;47943.828;   -9.787;49151.949
546.693;49931.602;  -11.587;51384.637
547.278;49762.098;  -10.986;51853.254
547.862;46551.117;   -8.206;51173.750
548.447;42228.504;  -10.067;51691.395
549.031;41595.016;   -9.637;52456.703
549.616;45895.301;   -9.926;52714.516
550.201;45309.129;   -6.347;52414.598
550.785;45738.047;   -7.917;52355.059
551.370;45260.266;  -10.867;54589.453
551.954;45192.531;   -9.047;58267.348
552.538;46817.789;   -7.827;59062.176
553.123;45502.371;  -10.287;58115.285
553.707;42795.246;  -12.178;56556.285
554.291;43484.215;   -8.717;56201.668
554.876;45529.297;   -7.457;55335.762
555.460;46011.824;  -10.387;54155.703
556.044;47653.551;   -9.618;53721.484
556.628;45918.109;  -11.567;53731.016
557.212;44600.773;   -8.097;54312.531
557.796;42736.773;  -11.077;53797.773
558.380;43032.297;  -11.108;56145.984
558.964;44194.457;   -9.057;57277.930
559.548;45446.375;   -6.977;56459.641
560.132;43219.914;  -11.457;54434.543
560.716;41807.977;  -11.378;54800.617
561.300;42408.156;   -9.577;57606.945
561.884;43568.492;   -7.127;58972.445
562.467;42316.777;   -7.118;57327.570
563.051;41744.305;  -13.358;54962.434
563.635;42135.613;  -10.178;52594.473
564.219;42506.414;   -7.837;50610.410
564.802;43407.793;  -11.398;49551.180
565.386;43481.355;  -12.788;48370.953
565.969;43006.148;   -9.077;48178.871
566.553;41785.410;   -6.207;49957.305
567.136;42185.859;   -8.568;50369.594
567.720;38800.711;  -11.868;49492.004
568.303;37254.449;   -8.268;50616.352
568.887;37056.914;   -8.698;50727.148
569.470;37275.723;   -6.808;51698.379
570.053;36331.449;  -13.188;52122.078
570.637;35004.695;  -12.037;52536.438
571.220;34659.520;   -8.577;51186.098
571.803;34721.621;   -8.498;51032.762
572.386;36143.000;  -10.498;49609.887
572.969;38708.605;   -9.388;48285.926
573.552;37745.422;   -8.338;47624.285
574.135;36614.918;   -8.518;45498.641
574.718;33917.273;  -13.628;41970.434
575.301;32303.508;  -10.893;41447.137
575.884;30689.744;   -8.158;40923.836
576.467;30957.646;  -10.328;45267.723
577.050;32684.379;  -13.058;48175.543
577.633;35223.098;   -9.458;47729.328
578.216;35443.746;   -8.928;47579.793
578.799;34970.676;   -9.358;47820.996
579.381;33821.949;  -11.388;48115.551
579.964;31931.016;  -11.718;47333.766
580.547;33341.105;   -8.588;46668.969
581.129;34179.137;   -8.859;44466.141
581.712;34795.254;  -10.729;44164.922
582.294;35583.926;  -11.118;46477.855
582.877;35747.691;   -5.218;48244.254
583.459;33839.789;   -8.679;47437.895
584.042;32012.531;  -10.709;46943.219
584.624;32238.719;  -11.669;46792.227
585.206;31905.852;   -8.218;46557.250
585.789;31759.217;  -10.569;45793.773
586.371;34312.984;  -11.859;43836.391
586.953;35280.113;  -10.719;42972.492
587.536;36179.301;   -7.198;42487.211
588.118;36469.023;   -8.720;42086.414
588.700;32136.320;  -10.439;43389.930
589.282;30510.459;   -9.198;43646.039
589.864;30555.146;   -9.199;43438.109
590.446;30429.648;  -11.319;43151.926
591.028;28811.797;  -11.159;42781.867
591.610;27789.488;  -11.779;42839.098
592.192;27144.223;   -7.668;42820.402
592.774;27623.859;  -11.949;40724.277
593.356;27488.055;  -12.129;39874.789
593.937;27283.160;  -10.669;39980.648
594.519;29368.125;   -6.509;42069.633
595.101;31809.830;  -10.849;42976.031
595.683;32260.902;  -11.679;44084.441
596.264;33205.371;   -9.049;43478.797
596.846;32188.984;   -8.849;43803.672
597.427;31547.295;   -9.570;42986.934
598.009;33342.723;  -12.620;42832.219
598.591;33727.828;  -10.039;42580.086
599.172;32910.137;  -10.369;43061.805
599.753;32892.719;   -9.140;41691.469
600.335;34722.137;  -11.430;40692.520
600.916;33389.953;   -9.939;39982.422
601.498;30805.795;   -8.479;40318.617
602.079;29356.406;  -10.920;40670.609
602.660;29099.084;  -11.480;41450.898
603.241;30272.717;  -11.699;41137.738
603.823;29220.471;   -9.579;38868.797
604.404;28794.000;  -10.620;38182.785
604.985;30330.986;  -10.450;38078.047
605.566;29829.764;   -9.129;38056.633
606.147;29723.555;   -7.510;37020.418
606.728;31791.818;  -10.660;37883.359
607.309;30836.146;  -11.740;38748.273
607.890;30207.484;   -9.759;38850.230
608.471;29751.244;   -8.250;37457.918
609.051;29061.127;   -9.240;36066.457
609.632;28109.918;  -12.120;35991.074
610.213;28864.137;   -9.110;37402.641
610.794;29536.832;   -8.030;38383.363
611.374;28910.100;   -8.110;40562.387
611.955;29471.314;  -13.560;38533.727
612.536;31233.486;  -11.400;36951.789
613.116;30520.666;   -8.070;37197.891
613.697;30745.271;  -10.830;38411.125
614.277;29156.783;  -11.641;38673.938
614.858;30079.088;  -13.310;37075.863
615.438;29657.141;   -7.460;35092.906
616.019;27047.068;   -7.601;33666.301
616.599;27413.088;  -12.020;34189.023
617.179;29549.678;  -11.780;36952.047
617.760;30437.518;   -8.570;39582.574
618.340;31530.607;  -11.471;38943.977
618.920;33076.898;  -11.170;37594.156
619.500;32722.756;  -11.071;37866.938
620.080;31676.572;   -7.750;37869.043
620.660;32509.551;  -12.711;36868.617
621.241;33383.086;  -10.211;36352.309
621.821;33504.609;  -10.961;35459.520
622.401;33130.664;   -7.720;35207.414
622.980;32234.598;   -8.981;35980.422
623.560;30764.141;   -9.331;37351.328
624.140;29833.383;   -9.850;34388.582
624.720;25189.098;   -7.451;32368.764
625.300;21586.594;   -9.070;32638.629
625.880;24708.775;  -12.601;34599.035
626.459;28425.695;  -11.751;36831.738
627.039;31444.879;   -9.281;38299.098
627.619;31418.814;   -8.801;38289.574
628.198;29755.754;  -12.071;37220.695
628.778;29023.926;   -9.461;37632.563
629.357;29862.406;   -8.491;38003.012
629.937;29823.246;   -9.721;38402.039
630.516;29259.211;   -9.951;37868.801
631.096;29272.938;  -11.731;35760.410
631.675;31835.854;   -8.572;35225.219
632.254;37041.273;  -11.282;35130.289
632.834;36351.645;  -13.322;35794.570
633.413;34439.063;  -10.301;35788.922
633.992;31737.500;   -8.582;34532.863
634.571;32921.133;   -8.352;33590.113
635.151;35800.945;  -11.912;34943.863
635.730;34155.941;  -10.511;35352.523
636.309;30447.275;   -7.731;35366.605
636.888;27797.180;   -9.952;36165.637
637.467;28229.965;  -11.672;37515.902
638.046;30335.146;   -8.901;39288.695
638.625;33619.402;   -7.912;38279.699
639.204;33504.016;  -10.022;37741.598
639.782;31563.994;  -12.252;38364.551
640.361;28187.277;  -10.041;36740.621
640.940;25309.820;  -11.161;34950.082
641.519;25621.973;   -9.701;34137.398
642.097;27969.705;  -11.271;35654.258
642.676;30970.877;   -8.651;35637.957
643.255;32389.387;   -8.711;36567.074
643.833;31570.549;   -9.581;37809.434
644.412;31823.762;  -13.711;37337.293
644.990;30884.674;  -11.811;37018.531
645.569;30320.650;   -9.411;36518.469
646.147;29413.717;  -10.291;36186.430
646.726;29096.000;  -12.401;36267.688
647.304;30612.939;  -10.411;36647.625
647.882;32424.213;   -9.651;39286.742
648.461;33876.336;   -9.631;39157.703
649.039;32473.084;  -11.881;35412.883
649.617;31628.072;   -9.661;34744.918
650.195;31356.613;   -9.301;35403.098
650.773;30349.477;  -10.511;35053.797
651.352;27785.041;  -11.521;33756.816
651.930;25386.609;  -12.211;31868.773
652.508;23817.863;   -9.171;33121.551
653.086;27721.453;   -9.371;33564.793
653.663;31078.885;  -13.161;34054.668
654.241;29552.365;  -13.031;35693.309
654.819;30863.877;   -9.371;36422.906
655.397;30777.744;  -10.511;38213.484
655.975;30500.725;  -10.371;39507.625
656.553;30844.676;  -10.051;39498.223
657.130;29152.293;  -10.061;40395.480
657.708;28220.949;   -9.561;39242.020
658.286;28262.033;  -11.511;38920.020
658.863;29633.322;  -10.261;40202.898
659.441;32356.176;   -7.531;39677.938
660.018;31680.535;   -9.501;40413.355
660.596;30616.326;  -13.301;39931.414
661.173;32571.004;  -11.211;39604.531
661.750;32617.588;   -9.951;39700.070
662.328;31375.564;   -9.390;39292.809
662.905;30661.135;  -11.330;38235.648
663.482;26665.027;   -9.050;36212.305
664.060;24742.789;   -8.240;35944.945
664.637;27441.604;  -10.050;35170.785
665.214;29343.176;  -11.760;34197.523
665.791;31366.246;  -10.530;34549.520
666.368;30005.463;   -9.690;35118.578
666.945;30237.580;   -9.320;36019.418
667.522;31840.260;  -11.860;36048.438
668.099;32082.799;  -10.770;36243.914
668.676;31341.174;   -6.260;35958.875
669.253;29771.959;   -7.000;37384.730
669.830;30010.326;  -10.190;36779.629
670.407;29754.273;   -9.550;35231.289
670.984;29762.951;   -9.260;35544.270
671.560;30012.639;   -9.280;35466.867
672.137;28840.902;  -11.810;34280.863
672.714;29604.709;  -11.490;34632.863
673.290;29997.016;   -7.740;35135.422
673.867;30164.094;  -10.660;36114.480
674.443;30771.506;  -12.230;36152.859
675.020;29109.779;  -10.450;35327.238
675.596;29914.477;   -9.260;35795.176
676.173;30325.979;  -10.780;35430.355
676.749;29928.809;  -13.690;33549.516
677.326;30162.531;  -11.980;32210.012
677.902;30431.576;   -8.630;32068.871
678.478;29740.516;  -10.730;32583.891
679.054;29409.268;  -10.520;32088.928
679.631;30245.717;  -11.920;30978.848
680.207;31060.316;   -7.490;33160.887
680.783;32321.379;   -9.860;35570.363
681.359;31556.420;  -13.380;36125.184
681.935;30776.232;  -12.480;35240.922
682.511;29823.547;   -7.900;34429.961
683.087;29734.570;   -7.710;34463.680
683.663;29568.021;  -11.480;34648.898
684.239;28771.947;  -14.090;34546.457
684.815;28317.334;   -7.560;35586.375
685.390;28629.850;   -9.910;35821.895
685.966;29042.643;  -11.159;35085.871
686.542;31560.803;  -11.169;34198.230
687.118;33805.734;   -5.959;32847.707
687.693;34236.934;  -10.329;32794.027
688.269;33430.527;  -12.059;33072.367
688.844;31117.639;  -10.909;33141.664
689.420;28964.475;   -8.019;33965.742
689.995;26898.861;   -8.399;34655.523
690.571;25771.947;  -10.949;33576.742
691.146;26266.119;   -9.619;32657.219
691.722;25707.377;   -8.999;32526.979
692.297;25328.051;  -11.589;33014.617
692.872;27187.639;  -11.739;34012.254
693.448;26877.305;  -11.059;34237.434
694.023;26110.723;  -10.139;34142.672
694.598;28330.385;   -9.029;34132.031
695.173;28693.002;  -13.319;34205.250
695.748;27921.039;  -10.169;32882.488
696.323;27786.768;   -8.339;32864.906
696.898;27739.715;   -8.169;33170.004
697.473;27613.783;  -12.309;32432.984
698.048;27378.463;  -10.989;31649.303
698.623;27578.754;   -9.329;30778.141
699.198;29419.152;   -9.849;31140.119
699.773;30513.943;  -12.329;31764.299
700.348;28966.441;  -10.389;31780.816
700.922;29118.221;   -9.269;32046.375
701.497;29796.418;   -9.329;32603.574
702.072;30096.553;  -10.789;34799.871
702.646;29146.150;  -10.839;35793.172
703.221;26699.006;   -9.099;35201.590
703.795;28674.398;  -10.939;34764.527
704.370;29378.422;  -12.859;34307.367
704.944;29689.459;  -11.559;33509.887
705.519;30826.141;   -7.939;31388.584
706.093;31809.500;  -10.499;31340.104
706.668;32006.191;  -11.289;32630.281
707.242;30625.977;  -11.509;32728.779
707.816;29112.916;   -9.639;32947.238
708.390;27686.480;  -11.429;33277.855
708.965;28497.682;  -11.869;33834.336
709.539;28947.559;  -11.689;33709.273
710.113;29406.016;  -10.478;33044.313
710.687;28913.137;  -10.228;31953.992
711.261;26702.834;  -13.698;30505.949
711.835;26262.309;  -13.378;30262.369
712.409;27039.781;   -9.698;31254.447
712.983;28863.205;  -11.898;32754.986
713.557;29930.057;  -15.138;34018.824
714.131;29618.156;  -14.098;34579.625
714.704;28903.779;   -9.958;33890.262
715.278;26534.482;  -10.028;33531.102
715.852;25644.537;  -11.148;33601.660
716.425;26365.543;   -9.068;33515.117
716.999;26868.287;  -10.038;33185.555
717.573;27864.768;   -9.798;33905.996
718.146;29187.949;  -12.378;35199.293
718.720;28945.428;  -11.918;35060.551
719.293;28226.094;   -8.088;34973.230
719.867;31166.615;  -10.888;36394.449
720.440;31413.285;  -11.938;36663.008
721.013;29999.375;  -12.818;35102.426
721.587;28568.422;  -10.298;33985.266
722.160;26786.420;  -10.048;33524.965
722.733;25789.705;  -12.108;32987.043
723.306;26560.840;  -10.818;33066.301
723.880;28859.258;   -8.908;33399.500
724.453;30964.316;   -9.878;33468.297
725.026;29982.500;  -11.188;33816.637
725.599;27018.148;  -11.678;32797.996
726.172;27047.125;   -9.618;33187.434
726.745;28380.957;   -8.258;35136.613
727.318;29949.195;  -12.978;35751.730
727.891;30835.039;  -12.148;35890.430
728.463;30620.660;   -8.968;34822.090
729.036;29408.088;  -10.188;32895.086
729.609;29726.727;  -11.788;31823.225
730.182;26317.818;  -11.788;31445.283
730.754;23856.801;  -10.268;32373.223
731.327;24121.707;   -9.998;33676.820
731.900;24132.061;  -12.228;33417.000
732.472;25316.238;  -13.848;31978.498
733.045;27595.098;   -8.698;30368.777
733.617;27556.652;  -10.607;30574.215
734.190;27090.025;  -11.507;31280.975
734.762;24268.996;  -13.647;31674.412
735.334;22549.105;   -9.767;31247.291
735.907;23026.688;   -9.897;29876.211
736.479;22929.580;  -11.637;29808.488
737.051;22597.930;   -9.567;30233.547
737.623;24099.744;   -8.187;31469.086
738.195;25054.908;  -11.187;31784.225
738.768;26541.781;  -12.337;32120.523
739.340;26714.619;  -12.227;32094.342
739.912;25628.580;  -11.057;31312.680
740.484;24457.016;  -10.207;31946.238
741.056;23250.295;  -10.047;32984.059
741.628;24844.498;  -13.627;33897.715
742.199;27244.307;   -7.177;33213.016
742.771;25645.736;  -10.797;31369.113
743.343;23157.098;  -11.997;31865.473
743.915;21861.199;  -12.867;32388.631
744.487;21974.313;   -7.617;31079.568
745.058;22367.477;   -9.557;30570.107
745.630;23066.350;   -9.877;29970.127
746.201;24142.779;  -14.177;29186.766
746.773;24625.787;   -9.237;28805.723
747.344;24515.141;   -9.847;29591.223
747.916;23042.457;  -11.657;31412.201
748.487;22793.004;  -10.587;32194.898
749.059;24041.141;   -8.707;32533.719
749.630;25148.926;  -10.537;32158.518
750.201;24177.854;  -11.687;30855.395
750.773;22268.012;  -11.647;28622.555
751.344;22190.537;   -7.147;28405.732
751.915;23340.295;   -9.757;28461.551
752.486;22874.084;  -12.427;27842.850
753.057;20467.553;  -12.227;27845.008
753.628;19188.406;  -10.417;27728.107
754.199;20314.906;  -11.767;27381.086
754.770;21549.869;  -11.187;25882.203
755.341;21508.117;  -10.507;25886.184
755.912;21826.516;   -9.387;26050.861
756.483;21262.561;  -10.647;26798.779
757.054;19441.410;  -11.837;27048.238
757.625;18168.746;  -12.716;26294.838
758.195;17879.479;   -9.666;26142.076
758.766;17461.979;   -8.656;26392.234
759.337;18353.285;  -12.856;26334.594
759.907;20246.381;  -13.366;27579.652
760.478;21134.203;   -8.576;28352.770
761.048;20598.963;  -10.526;27325.088
761.619;19813.074;  -11.116;26460.428
762.189;19734.439;  -12.136;26029.826
762.760;20589.131;   -9.456;26430.145
763.330;21836.900;   -7.136;26670.902
763.900;21338.406;  -11.786;26603.021
764.471;18552.836;  -11.546;25542.740
765.041;17225.402;   -8.096;24358.459
765.611;17459.520;   -8.876;23991.297
766.181;17947.848;  -12.196;24470.236
766.751;18709.840;  -11.636;24845.975
767.321;18662.271;  -10.156;24533.633
767.891;16760.143;  -11.766;24916.492
768.461;16016.077;  -14.936;24776.771
769.031;16331.669;  -12.356;24757.988
769.601;18087.641;   -7.526;24181.088
770.171;18282.266;  -10.766;23670.387
770.741;17356.598;  -13.176;22960.045
771.311;17450.902;  -10.616;22917.523
771.880;17940.539;   -9.576;23562.941
772.450;17418.705;  -10.336;24216.500
773.020;17193.178;  -13.516;24140.398
773.589;16699.666;  -13.466;24414.857
774.159;16152.192;   -8.686;23858.717
774.729;15742.131;   -9.476;22942.135
775.298;15358.889;  -13.666;22324.033
775.867;14961.261;  -11.716;21140.313
776.437;14993.030;   -9.906;20838.092
777.006;14709.879;  -12.166;20599.510
777.576;14706.243;  -12.356;20508.809
778.145;14916.897;  -11.646;20732.947
778.714;14836.960;   -8.226;21062.465
779.283;14017.821;   -9.556;20949.664
779.853;13594.513;  -14.116;20508.623
780.422;14075.754;  -11.506;20649.082
780.991;13552.538;   -9.556;21527.520
781.560;12435.342;   -9.095;22632.658
782.129;12256.486;  -12.135;23048.277
782.698;12258.432;  -10.865;23438.555
783.267;11967.063;   -9.335;23267.734
783.836;11892.948;  -11.045;22415.133
784.404;12793.627;  -13.865;20443.152
784.973;13238.584;  -13.095;19699.150
785.542;13088.824;  -11.575;19763.828
786.111;12936.894;   -9.705;20341.408
786.679;12613.702;  -12.105;20207.967
787.248;12425.276;  -12.455;19516.465
787.817;12142.431;  -11.535;18900.363
788.385;11678.503;   -9.765;17879.121
788.954;11089.816;  -14.005;17658.301
789.522;10636.424;  -11.955;17788.879
790.090;11224.687;  -10.135;18118.277
790.659;11672.034;  -10.975;18338.736
791.227;11080.368;  -13.375;18508.615
791.795;11552.198;  -12.375;17898.254
792.364;12032.170;  -10.725;17295.133
792.932;12362.628;   -9.715;16822.051
793.500;12488.315;  -12.675;17040.148
794.068;12664.059;  -13.495;17179.787
794.636;12817.557;  -10.885;16664.246
795.204;12204.308;  -11.045;16524.545
795.772;12211.059;  -13.175;17274.564
796.340;11749.511;  -12.445;17891.002
796.908;11556.079;   -9.735;17648.561
797.476;11576.553;   -9.815;17064.080
798.044;11152.006;  -13.985;16672.777
798.612;10289.296;  -13.115;17023.996
799.180; 9962.156;  -10.185;16561.615
799.747; 9890.003;   -9.055;15962.773
800.315; 9554.407;  -12.385;15296.992
800.883; 9242.984;  -15.035;14801.771
801.450; 9275.896;  -10.365;14534.430
802.018; 9303.666;   -9.855;14173.248
802.585; 9280.818;  -11.905;14029.547
803.153; 9296.139;  -11.585;13836.846
803.720; 9276.799;   -9.095;13567.324
804.287; 8977.102;   -9.135;13360.622
804.855; 8502.674;  -11.604;13681.981
805.422; 8354.779;  -11.794;13536.560
805.989; 8352.905;  -10.734;13355.958
806.556; 8487.845;  -10.444;13747.896
807.124; 8766.747;  -12.764;13987.376
807.691; 8696.956;  -12.964;14038.674
808.258; 8512.270;  -11.134;14120.152
808.825; 8217.191;   -9.854;13860.111
809.392; 8316.156;  -10.504;13268.790
809.959; 7839.844;  -13.054;12680.389
810.526; 7389.628;   -8.294;12427.308
811.093; 7395.335;   -8.394;12030.105
811.659; 8006.789;  -12.304;11653.664
812.226; 8461.419;  -13.944;11637.183
812.793; 8109.780;  -10.484;11611.521
813.360; 7428.680;  -10.144;11885.181
813.926; 7007.094;  -11.684;12770.539
814.493; 6768.422;  -13.644;12677.638
815.060; 6422.358;   -9.724;11974.336
815.626; 6468.428;   -9.854;11594.715
816.193; 6909.596;  -13.254;11579.474
816.759; 6974.241;  -13.204;11666.972
817.325; 7066.969;   -9.434;11325.530
817.892; 7401.295;  -10.134;11105.369
818.458; 7818.013;  -13.474;10843.928
819.024; 7512.631;  -11.854;10714.406
819.591; 7170.041;  -10.244;10469.165
820.157; 6893.599;  -10.704;10235.523
820.723; 6326.986;  -12.324;10847.563
821.289; 6020.081;   -9.444;11040.980
821.855; 5977.272;   -8.374;10357.100
822.421; 6044.081;  -10.234; 9978.918
822.987; 6038.792;  -13.294; 9754.177
823.553; 5678.318;  -10.884;10065.755
824.119; 5460.099;   -8.884;10036.294
824.685; 5561.119;   -6.784;10029.192
825.251; 5652.738;  -12.004;10199.230
825.816; 5596.843;  -11.474; 9820.189
826.382; 5383.845;   -9.174; 9297.248
826.948; 5569.345;   -9.214; 9381.347
827.513; 5983.574;  -10.774; 9450.726
828.079; 5801.138;  -11.924; 9472.444
828.645; 5194.902;  -10.543; 9292.643
829.210; 5079.995;  -10.533; 9065.341
829.776; 5071.752;  -10.753; 9132.620
830.341; 4929.931;  -10.173; 9092.878
830.906; 5077.910;  -10.743; 9078.557
831.472; 5469.355;  -11.113; 8534.535
832.037; 5300.519;  -10.603; 8677.874
832.602; 4753.156;  -13.323; 8628.692
833.167; 4411.183;  -10.823; 8879.031
833.733; 4329.005;  -10.113; 9189.790
834.298; 4449.763;  -13.583; 9052.608
834.863; 4489.943;  -12.703; 8895.087
835.428; 4447.472;  -10.523; 8824.266
835.993; 4331.032;   -6.963; 8845.385
836.558; 4190.185;  -10.763; 8888.563
837.123; 4302.296;   -9.903; 8966.582
837.688; 4508.468;   -9.913; 8617.860
838.253; 4725.765;  -10.283; 8590.699
838.817; 4946.587;  -12.963; 8443.797
839.382; 4895.833;  -14.243; 8799.356
839.947; 4582.457;  -10.733; 8810.595
840.511; 4288.086;   -9.383; 8796.394
841.076; 3924.134;  -12.563; 8347.231
841.641; 3935.909;  -12.953; 8224.330
842.205; 4000.296;   -7.043; 8223.349
842.770; 4087.406;   -8.163; 8622.107
843.334; 4325.960;  -12.503; 8410.386
843.898; 4317.221;  -11.693; 8337.465
844.463; 4335.514;  -10.203; 8506.283
845.027; 4081.065;   -9.533; 8280.962
845.591; 3836.793;  -13.443; 8231.141
846.156; 3870.180;  -13.143; 7969.179
846.720; 3765.407;   -9.433; 7768.278
847.284; 3654.827;  -11.033; 7630.957
847.848; 3499.446;  -10.403; 7472.395
848.412; 3422.869;  -11.553; 7437.394
848.976; 3484.672;   -8.393; 7674.592
849.540; 3422.572;   -8.713; 7836.011
850.104; 3469.473;  -12.463; 7913.669
850.668; 3818.885;  -12.973; 7694.508
851.232; 3965.883;  -10.793; 7756.887
851.796; 3784.625;  -10.662; 7926.545
852.359; 3460.979;  -13.082; 7827.844
852.923; 3296.094;  -12.192; 7641.163
853.487; 3132.467;  -11.912; 7342.501
854.050; 3068.852;  -10.892; 7042.820
854.614; 3209.497;  -13.992; 7151.338
855.177; 3326.568;  -11.732; 7105.077
855.741; 3383.533;   -8.962; 6989.675
856.304; 3279.316;   -9.442; 6596.634
856.868; 3206.313;  -14.192; 6356.272
857.431; 3300.899;  -12.702; 6468.571
857.995; 3387.838;   -9.942; 6373.210
858.558; 3399.565;   -9.112; 6324.448
859.121; 3154.007;  -12.932; 6408.327
859.684; 3040.252;  -13.442; 6347.886
860.247; 3186.894;  -10.632; 6321.264
860.810; 3188.097;  -11.272; 6301.903
861.374; 2949.084;   -9.832; 6607.881
861.937; 2684.283;  -11.762; 6408.200
862.500; 2643.084;   -9.722; 6572.639
863.062; 2782.974;  -10.512; 6387.297
863.625; 2955.877;  -11.232; 6190.836
864.188; 3126.332;  -14.112; 5807.254
864.751; 3189.427;  -11.302; 5682.413
865.314; 3086.469;  -10.112; 5547.492
865.876; 2893.698;  -12.182; 5500.150
866.439; 2880.569;  -10.722; 5415.909
867.002; 2839.892;   -9.252; 5501.567
867.564; 2635.947;   -9.572; 5413.946
868.127; 2428.445;  -13.142; 5160.325
868.689; 2340.479;  -12.902; 5133.183
869.252; 2273.249;   -9.732; 5252.382
869.814; 2186.608;   -9.432; 5297.141
870.377; 2193.791;  -11.552; 5390.919
870.939; 2257.811;   -9.052; 5599.898
871.501; 2320.876;  -10.982; 5248.336
872.063; 2336.114;  -12.292; 4854.235
872.626; 2300.696;  -14.912; 4817.074
873.188; 2303.281;  -13.112; 4987.732
873.750; 2258.468;  -13.442; 4868.651
874.312; 2152.057;   -9.402; 4779.330
874.874; 2059.688;  -11.062; 4866.348
875.436; 1979.234;  -13.931; 4718.887
875.998; 1970.682;   -9.561; 4660.005
876.560; 1990.725;  -11.321; 4462.964
877.122; 1936.913;  -12.221; 4145.042
877.683; 1841.587;  -12.191; 4056.481
878.245; 1760.437;  -12.101; 3950.740
878.807; 1784.361;   -8.971; 4058.958
879.369; 1800.464;  -12.071; 3954.677
879.930; 1707.085;  -14.621; 3941.495
880.492; 1644.795;  -10.311; 4067.014
881.053; 1620.021;  -10.901; 3859.633
881.615; 1510.788;  -14.411; 3776.071
882.176; 1420.149;  -13.761; 3734.750
882.738; 1381.218;   -9.181; 3678.489
883.299; 1351.595;  -11.791; 3405.407
883.860; 1341.238;  -13.121; 3351.106
884.422; 1350.755;  -11.211; 3394.044
884.983; 1315.808;  -10.091; 3166.443
885.544; 1223.996;   -8.461; 3189.802
886.105; 1142.054;  -12.361; 3160.360
886.666; 1071.175;  -14.141; 3093.059
887.227; 1011.368;  -11.361; 2941.957
887.788;  946.107;  -11.401; 2974.836
888.349;  881.965;  -13.791; 2721.214
888.910;  883.785;  -13.191; 2696.493
889.471;  894.820;   -9.881; 2560.172
890.032;  884.052;   -9.881; 2558.190
890.593;  858.402;  -10.371; 2567.669
891.153;  827.096;  -13.301; 2460.307
891.714;  775.812;  -11.431; 2372.046
892.275;  740.079;  -11.291; 2309.505
892.835;  702.638;  -11.471; 2382.543
893.396;  646.247;  -11.541; 2295.502
893.956;  586.618;  -11.181; 2162.420
894.517;  548.265;  -11.741; 2125.439
895.077;  538.961;  -11.671; 2086.978
895.638;  539.545;  -11.311; 2126.316
896.198;  509.666;   -9.831; 1838.275
896.758;  464.050;   -8.421; 1892.813
897.319;  429.503;  -12.351; 1792.232
897.879;  412.744;  -13.511; 1762.751
898.439;  386.578;  -12.001; 1661.149
898.999;  359.718;  -10.180; 1781.468
899.559;  350.276;  -12.030; 1703.347
900.119;  347.207;  -15.710; 1537.525
900.679;  343.797;   -8.900; 1638.384
901.239;  330.414;   -8.340; 1527.902
901.799;  319.095;  -13.910; 1456.441
902.359;  311.109;  -13.460; 1357.140
902.919;  305.424;  -11.490; 1331.118
903.479;  292.279;  -12.110; 1317.257
904.038;  269.882;  -11.720; 1262.595
904.598;  251.677;  -13.610; 1152.034
905.158;  246.765;  -11.040; 1240.893
905.717;  240.380;  -10.900; 1233.691
906.277;  228.189;  -15.080; 1217.330
906.836;  219.685;  -13.380; 1222.408
907.396;  211.339;  -10.780; 1193.047
907.955;  205.014;   -8.500; 1182.526
908.515;  197.847;  -12.760; 1099.364
909.074;  192.027;  -11.900; 1092.863
909.633;  185.359;   -8.950; 1069.121
910.192;  180.079;   -8.770; 1196.460
910.752;  174.644;  -12.390; 1029.960
911.311;  171.322;  -13.680; 1009.780
911.870;  168.628;  -12.370;  971.460
912.429;  168.844;  -10.900; 1094.080
912.988;  167.423;  -11.690; 1081.060
913.547;  162.763;  -13.240;  940.380
914.106;  157.420;  -11.990;  999.420
914.665;  154.351;   -9.990;  984.020
915.224;  153.714;  -12.880; 1035.760
915.782;  153.545;  -12.350;  922.560
916.341;  152.971;   -9.110; 1049.840
916.900;  149.104;   -9.270;  925.260
917.458;  147.532;  -13.240;  884.220
918.017;  146.963;  -13.550;  942.600
918.576;  146.054;  -12.320;  904.440
919.134;  144.029;  -11.490;  837.980
919.693;  141.513;  -13.670;  893.060
920.251;  140.194;  -15.470;  876.500
920.809;  139.060;  -11.290;  839.580
921.368;  138.601;  -10.210;  885.360
921.926;  137.291;  -12.140;  842.940
922.484;  136.451;  -13.080;  903.360
923.042;  136.271;  -11.720;  880.340
923.601;  138.297;   -7.480;  998.680
924.159;  136.660;  -11.570;  935.560
924.717;  133.883;  -13.840;  841.080
925.275;  133.444;  -10.640;  903.240
925.833;  133.660;  -11.540;  779.320
926.391;  134.963;  -12.960;  938.380
926.949;  133.229;  -14.130;  857.680
927.506;  133.728;  -11.750;  903.500
928.064;  132.968;  -10.250;  877.580
928.622;  133.017;  -13.030;  880.100
929.180;  132.385;  -13.400;  814.180
929.737;  133.012;  -10.700;  808.540
930.295;  136.943;  -10.070;  928.480
930.853;  138.549;  -11.960;  849.100
931.410;  139.308;  -13.120;  821.120
931.968;  138.269;  -10.770;  940.660
932.525;  138.527;  -10.680;  909.380
933.082;  138.808;  -13.130;  811.440
933.640;  140.855;  -13.210;  925.900
934.197;  137.870;  -11.060;  886.360
934.754;  138.510;   -9.580;  897.780
935.312;  141.519;  -14.000;  863.340
935.869;  145.551;  -10.710; 1012.980
936.426;  146.972;   -9.860;  872.800
936.983;  147.705;   -9.710;  889.020
937.540;  148.478;  -13.990;  838.280
938.097;  146.379;  -14.040;  940.120
938.654;  146.963;  -10.310;  898.860
939.211;  149.792;  -10.560;  952.480
939.768;  153.565;  -13.900;  915.420
940.324;  157.380;  -14.760;  904.200
940.881;  157.833;  -10.370;  878.500
941.438;  159.126;   -8.260; 1021.200
941.995;  154.753;  -12.540;  992.560
942.551;  152.169;  -14.670;  875.620
943.108;  151.883;  -10.450;  937.920
943.664;  153.745;  -10.750;  869.340
944.221;  157.295;  -11.550; 1088.140
944.777;  155.661;  -14.770;  869.680
945.334;  156.299;  -12.820;  884.840
945.890;  159.337;  -10.130;  946.480
946.446;  160.442;  -13.470;  947.020
947.003;  161.415;  -12.120;  964.940
947.559;  163.779;   -9.980; 1063.040
948.115;  162.536;   -9.080; 1026.540
948.671;  159.551;  -10.830;  967.300
949.227;  157.303;  -12.440;  859.560
949.783;  153.516;  -12.910;  858.900
950.339;  155.792;  -10.270;  991.000
950.895;  156.463;  -13.630; 1023.840
951.451;  156.351;  -15.100;  925.280
952.007;  157.733;  -11.330;  998.540
952.563;  159.946;  -10.580;  937.780
953.118;  158.914;  -13.440;  904.940
953.674;  158.158;  -12.710;  935.780
954.230;  158.656;  -10.350;  949.640
954.785;  155.867;   -9.190;  936.640
955.341;  153.066;  -11.200;  998.160
955.897;  150.971;  -16.560;  834.660
956.452;  153.135;  -12.570;  953.840
957.008;  151.199;   -7.970; 1083.640
957.563;  149.011;  -11.940; 1009.540
958.118;  143.745;  -13.450;  877.700
958.674;  144.042;  -12.030;  946.780
959.229;  145.603;   -9.410; 1013.980
959.784;  143.367;  -12.000;  832.400
960.339;  142.219;  -14.780; 1001.280
960.894;  139.785;   -9.860;  963.760
961.449;  135.983;   -9.970;  859.960
962.004;  136.465;  -10.900; 1212.840
962.559;  131.014;  -13.150;  860.140
963.114;  129.191;  -13.740;  742.480
963.669;  128.816;   -9.820;  915.500
964.224;  127.974;  -13.890;  874.340
964.779;  126.612;  -12.600;  828.420
965.334;  127.386;  -10.950; 1017.860
965.888;  126.764;  -11.170;  875.360
966.443;  129.361;  -12.540;  972.380
966.998;  130.454;  -15.780;  819.460
967.552;  132.391;   -9.760;  908.380
968.107;  129.170;   -9.060;  868.300
968.661;  129.195;  -11.950;  922.440
969.216;  125.510;  -12.800;  856.280
969.770;  117.685;  -11.210;  917.200
970.324;  107.171;  -11.610;  923.140
970.879;   95.976;  -11.370;  947.180
971.433;   89.981;  -12.540;  952.720
971.987;   86.321;  -11.320;  895.340
972.541;   87.248;  -10.720;  917.100
973.095;   90.079;   -9.680; 1009.460
973.649;   91.211;  -11.440;  809.480
974.203;   91.803;  -11.210;  829.040
974.757;   93.600;  -10.240;  855.220
975.311;   93.805;  -13.720;  872.600
975.865;   93.856;  -13.770;  881.820
976.419;   93.461;  -11.690;  857.400
976.973;   93.720;   -9.510;  849.620
977.526;   96.149;  -12.620;  949.920
978.080;   95.505;  -12.010;  796.780
978.634;   98.782;  -10.170;  921.320
979.187;   95.027;   -9.020;  905.400
979.741;   93.898;   -9.820; 1018.380
980.294;   89.232;  -14.870;  789.160
980.848;   87.214;  -12.380;  717.220
981.401;   89.866;  -10.350;  816.540
981.955;   92.422;  -13.720;  844.300
982.508;   91.185;  -11.490;  746.340
983.061;   91.395;  -10.000;  915.260
983.615;   88.207;  -11.480;  798.800
984.168;   84.855;  -13.220;  770.080
984.721;   84.435;  -13.960;  880.760
985.274;   83.793;  -10.870;  867.500
985.827;   82.173;   -9.790;  834.220
986.380;   80.746;  -13.120;  721.340
986.933;   79.990;  -12.450;  864.800
987.486;   77.955;  -10.210;  861.920
988.039;   77.308;   -8.430;  863.100
988.591;   75.612;  -10.520;  893.260
989.144;   72.646;  -14.860;  737.260
989.697;   71.808;  -13.080;  758.740
990.250;   72.761;  -10.150;  858.100
990.802;   71.329;  -13.430;  755.860
991.355;   73.273;  -12.750;  974.880
991.907;   70.465;  -12.040;  864.320
992.460;   67.657;  -11.330;  753.760
993.012;   67.950;  -13.610;  749.540
993.565;   66.321;  -13.460;  711.360
994.117;   67.757;   -9.360;  950.780
994.669;   64.692;  -11.300;  701.320
995.221;   62.794;  -13.540;  791.920
995.774;   60.184;  -13.430;  787.580
996.326;   59.763;  -12.520;  740.220
996.878;   59.101;  -10.950;  838.420
997.430;   57.153;  -14.300;  699.860
997.982;   56.561;  -13.760;  750.140
998.534;   56.420;  -11.530;  739.060
999.086;   54.926;  -10.310;  738.220
999.638;   53.705;  -12.530;  661.380
1000.190;   53.203;  -11.840;  699.320
1000.741;   52.355;  -10.260;  742.700
1001.293;   51.000;   -8.860;  686.020
1001.845;   48.895;  -13.700;  676.640
1002.396;   48.188;  -12.100;  743.400
1002.948;   47.546;  -12.760;  737.400
1003.500;   45.978;  -10.380;  723.780
1004.051;   47.130;  -11.900;  907.580
1004.603;   46.033;  -12.250;  791.820
1005.154;   42.564;  -13.210;  608.980
1005.705;   41.744;  -10.950;  723.960
1006.257;   41.797;  -13.880;  707.220
1006.808;   40.777;  -12.840;  685.460
1007.359;   40.702;  -10.570;  763.240
1007.910;   39.132;   -9.620;  646.640
1008.461;   39.538;  -13.630;  732.940
1009.013;   39.176;  -17.200;  588.340
1009.564;   39.590;  -10.200;  793.520
1010.115;   37.229;  -12.570;  597.040
1010.665;   37.472;  -15.150;  602.160
1011.216;   37.838;  -14.480;  667.920
1011.767;   36.355;  -11.340;  697.920
1012.318;   37.786;   -9.780;  736.980
1012.869;   35.896;  -12.380;  679.000
1013.419;   34.946;  -15.560;  603.120
1013.970;   35.989;  -11.010;  666.640
1014.521;   34.658;  -11.610;  620.620
1015.071;   35.173;  -13.450;  670.380
1015.622;   34.746;  -13.870;  635.460
1016.172;   34.005;  -11.610;  596.820
1016.723;   33.716;  -12.120;  614.380
1017.273;   33.365;  -13.620;  604.160
1017.823;   34.223;  -14.140;  650.340
1018.374;   33.501;  -12.800;  611.760
1018.924;   32.414;  -12.340;  716.880
1019.474;   33.895;  -11.410;  718.880
1020.024;   32.268;  -14.770;  657.580
1020.574;   33.618;   -9.780;  726.160
1021.124;   32.525;   -8.560;  673.580
1021.674;   31.765;  -15.190;  559.120
1022.224;   32.786;  -13.530;  708.940
1022.774;   32.211;  -13.280;  668.820
1023.324;   32.091;  -10.690;  753.520
1023.874;   34.347;  -10.240;  875.760
1024.423;   31.285;  -12.540;  613.700
1024.973;   30.839;  -10.010;  610.760
1025.523;   30.124;  -10.550;  620.960
1026.072;   30.002;  -13.560;  606.420
1026.622;   30.055;  -15.120;  675.740
1027.172;   30.738;  -11.260;  715.660
1027.721;   28.682;  -11.410;  601.220
1028.270;   29.346;  -13.530;  663.400
1028.820;   28.900;  -13.680;  638.080
1029.369;   29.180;  -13.520;  612.700
1029.918;   29.111;  -10.980;  649.840
1030.468;   28.050;  -13.530;  564.780
1031.017;   29.368;  -13.170;  634.800
1031.566;   28.181;  -12.200;  608.900
1032.115;   28.664;   -9.960;  694.500
1032.664;   27.345;  -13.210;  596.480
1033.213;   27.767;  -12.500;  735.420
1033.762;   28.096;  -11.910;  635.620
1034.311;   27.761;   -9.640;  677.220
1034.860;   27.815;  -13.310;  691.000
1035.408;   27.619;  -11.830;  722.720
1035.957;   27.472;  -12.000;  719.540
1036.506;   25.315;  -11.690;  530.800
1037.055;   27.931;  -10.990;  844.320
1037.603;   26.186;  -15.120;  664.000
1038.152;   24.982;  -12.450;  534.760
1038.700;   24.913;  -10.560;  585.740
1039.249;   25.443;  -11.080;  681.220
1039.797;   25.863;  -12.540;  633.360
1040.345;   25.226;  -11.920;  705.420
1040.894;   25.163;  -11.410;  625.300
1041.442;   24.981;  -14.320;  632.200
1041.990;   23.442;  -16.240;  559.160
1042.538;   23.977;  -11.680;  536.180
1043.087;   24.101;  -10.760;  570.860
1043.635;   25.435;  -11.850;  670.500
1044.183;   23.491;  -15.480;  586.400
1044.731;   23.834;  -11.770;  576.000
1045.279;   23.293;  -13.090;  674.920
1045.827;   24.993;  -12.440;  892.400
1046.374;   22.293;  -13.840;  515.420
1046.922;   22.507;  -13.220;  590.580
1047.470;   23.526;  -10.230;  691.300
1048.018;   22.706;  -14.590;  647.960
1048.565;   23.869;  -12.050;  708.600
1049.113;   22.555;  -11.650;  557.000
1049.660;   22.057;  -10.510;  629.660
1050.208;   22.756;  -13.310;  675.640
1050.755;   21.953;  -15.900;  606.580
1051.303;   22.308;  -11.430;  686.820
1051.850;   21.944;   -8.480;  635.120
1052.397;   20.384;  -15.010;  473.960
1052.945;   20.375;  -13.960;  617.760
1053.492;   22.245;  -13.150;  741.840
1054.039;   22.721;   -9.630;  720.180
1054.586;   21.747;  -13.680;  557.240
1055.133;   21.973;  -14.570;  693.140
1055.680;   21.628;  -13.820;  646.620
1056.227;   19.833;  -11.730;  542.780
1056.774;   21.628;  -12.480;  794.980
1057.321;   19.641;  -13.930;  523.260
1057.868;   20.067;  -11.690;  651.320
1058.415;   20.248;   -9.520;  651.980
1058.961;   20.273;  -13.160;  678.940
1059.508;   20.010;  -12.920;  643.820
1060.055;   19.428;  -11.920;  581.780
1060.601;   20.163;  -11.500;  624.300
1061.148;   18.978;  -14.330;  616.820
1061.694;   18.712;  -16.870;  592.580
1062.241;   18.778;  -10.330;  596.320
1062.787;   19.203;  -10.620;  663.140
1063.334;   20.828;  -10.110;  808.560
1063.880;   19.087;  -13.400;  668.360
1064.426;   19.372;  -10.680;  706.820
1064.972;   17.898;   -9.920;  601.340
1065.518;   17.060;  -10.980;  566.640
1066.065;   18.546;  -14.890;  624.460
1066.611;   17.669;  -12.870;  598.800
1067.157;   18.257;  -12.950;  641.860
1067.703;   18.854;  -13.540;  668.480
1068.249;   18.123;  -13.540;  605.220
1068.794;   17.922;  -12.600;  626.880
1069.340;   16.482;  -10.620;  578.960
1069.886;   17.693;  -12.830;  590.700
1070.432;   15.977;  -14.870;  541.720
1070.977;   16.337;  -11.980;  601.080
1071.523;   16.526;   -8.200;  573.060
1072.068;   16.797;  -12.330;  582.000
1072.614;   16.661;  -16.370;  527.760
1073.160;   17.305;  -11.100;  687.040
1073.705;   15.823;  -10.480;  572.520
1074.250;   15.642;  -14.520;  559.900
1074.796;   17.270;  -11.460;  655.160
1075.341;   16.697;  -11.950;  664.100
1075.886;   16.484;  -11.460;  594.240
1076.431;   15.532;  -13.770;  649.880
1076.976;   15.375;  -12.680;  639.220
1077.521;   14.866;  -13.170;  583.080
1078.067;   14.477;  -10.860;  579.400
1078.612;   15.300;  -13.920;  661.620
1079.156;   14.706;  -13.880;  601.540
1079.701;   15.567;  -13.120;  693.260
1080.246;   15.817;   -9.940;  696.300
1080.791;   14.812;  -14.740;  625.020
1081.336;   15.069;  -13.750;  659.320
1081.880;   14.919;  -13.400;  649.680
1082.425;   13.908;  -12.220;  573.480
1082.970;   15.820;  -11.610;  717.040
1083.514;   13.968;  -13.580;  597.000
1084.059;   13.325;  -12.810;  586.720
1084.603;   12.641;  -12.320;  565.840
1085.147;   13.502;  -13.190;  645.220
1085.692;   14.245;  -12.480;  716.800
1086.236;   13.494;  -13.020;  503.140
1086.780;   14.260;   -9.190;  751.440
1087.325;   13.827;  -12.480;  654.620
1087.869;   13.901;  -12.450;  610.700
1088.413;   14.423;  -12.240;  705.040
1088.957;   11.975;   -9.020;  543.400
1089.501;   14.033;  -10.320;  766.640
1090.045;   13.034;  -12.720;  726.480
1090.589;   11.756;  -13.690;  569.920
1091.133;   12.517;  -10.020;  673.340
1091.676;   12.285;  -12.330;  591.940
1092.220;   11.540;  -14.970;  600.920
1092.764;   12.899;  -12.430;  706.960
1093.307;   12.285;   -9.800;  673.780
1093.851;   10.763;  -14.970;  556.540
1094.395;   12.315;  -15.310;  683.140
1094.938;   11.274;  -10.370;  632.520
1095.482;   11.660;  -11.050;  559.800
1096.025;   12.064;  -11.840;  710.880
1096.568;   11.880;  -12.840;  779.280
1097.112;    9.673;  -14.700;  508.180
1097.655;   11.027;   -8.720;  603.000
1098.198;   10.266;  -13.610;  600.180
1098.741;   10.571;  -13.350;  612.860
1099.285;   11.373;  -11.230;  657.300
1099.828;    9.550;  -11.840;  439.400
1100.371;   11.024;  -10.840;  608.160
1100.914;   10.419;  -14.190;  682.660
1101.457;   10.653;  -11.240;  679.900
1101.999;    8.996;  -11.270;  584.680
1102.542;    9.968;  -11.480;  641.440
1103.085;    9.481;  -11.750;  658.500
1103.628;   10.280;  -11.400;  762.060
1104.170;    9.411;  -10.490;  588.280
1104.713;    9.163;  -10.600;  646.700
1105.256;    9.429;  -14.360;  557.440
1105.798;    9.186;  -13.210;  499.980
1106.341;   10.531;  -10.270;  728.900
1106.883;    8.592;  -12.200;  521.340
1107.425;    9.046;  -13.110;  668.180
1107.968;    9.134;  -12.840;  612.380
1108.510;    9.805;   -6.480;  684.960
1109.052;    7.996;  -13.940;  612.620
1109.594;    7.772;  -13.690;  554.440
1110.136;    8.979;  -11.880;  643.220
1110.679;    7.469;   -9.500;  633.080
1111.221;    8.847;  -14.160;  604.460
1111.763;    8.059;  -13.980;  559.220
1112.304;    7.568;  -13.880;  547.140
1112.846;    8.023;  -12.210;  666.240
1113.388;   10.678;  -11.390;  942.180
1113.930;    7.771;  -14.540;  694.200
1114.472;    7.740;  -12.640;  606.540
1115.013;    5.873;  -11.620;  551.280
1115.555;    6.699;  -13.640;  587.100
1116.097;    5.928;  -15.380;  579.480
1116.638;    7.625;  -12.640;  684.600
1117.180;    7.550;   -9.850;  667.740
1117.721;    7.558;  -13.690;  568.580
1118.262;    7.499;  -12.680;  677.960
1118.804;    7.722;  -12.530;  637.340
1119.345;    6.033;  -11.690;  578.400
1119.886;    7.632;  -13.380;  704.040
1120.427;    6.122;  -14.070;  589.020
1120.969;    6.223;  -13.500;  597.920
1121.510;    5.597;  -11.480;  563.060
1122.051;    6.455;  -12.830;  723.580
1122.592;    6.106;  -14.290;  655.420
1123.133;    5.254;  -12.400;  547.940
1123.673;    6.249;  -10.130;  706.480
1124.214;    5.942;  -12.930;  612.460
1124.755;    6.351;  -14.380;  639.460
1125.296;    6.238;  -14.000;  627.320
1125.836;    6.348;  -10.070;  691.500
1126.377;    4.940;  -12.640;  599.660
1126.918;    6.196;  -12.960;  614.980
1127.458;    4.809;  -13.350;  622.220
1127.999;    5.629;  -10.750;  656.980
1128.539;    4.911;  -12.350;  694.240
1129.079;    4.372;  -14.860;  632.720
1129.620;    4.157;  -13.840;  558.100
1130.160;    4.595;  -12.330;  539.480
1130.700;    5.239;  -14.530;  640.840
1131.240;    5.196;  -12.530;  643.700
1131.781;    4.382;  -14.450;  619.680
1132.321;    4.595;   -9.790;  599.120
1132.861;    3.235;  -14.860;  564.200
1133.401;    3.758;  -14.290;  593.940
1133.941;    4.434;  -11.750;  626.280
1134.481;    3.312;   -9.920;  597.580
1135.020;    3.732;  -12.290;  609.160
1135.560;    4.177;  -11.650;  674.940
1136.100;    2.899;  -16.270;  501.160
1136.640;    2.526;  -10.890;  510.480
1137.179;    3.196;  -14.180;  537.960
1137.719;    3.405;  -16.250;  605.400
1138.258;    3.652;  -14.230;  587.360
1138.798;    3.891;   -9.090;  663.780
1139.337;    2.442;  -15.130;  482.840
1139.877;    2.950;  -13.680;  642.360
1140.416;    5.174;  -11.320;  878.060
1140.955;    2.136;  -10.860;  535.380
1141.494;    2.925;  -12.920;  669.280
1142.034;    2.827;  -13.930;  583.520
1142.573;    3.890;  -11.440;  646.280
1143.112;    2.044;  -12.000;  553.480
1143.651;    2.154;  -13.670;  536.480
1144.190;    3.487;  -12.730;  691.640
1144.729;    3.106;  -14.560;  607.420
1145.267;    2.583;  -11.830;  584.900
1145.806;    3.432;  -12.230;  637.040
1146.345;    2.534;  -14.130;  635.020
1146.884;    1.507;  -11.590;  622.500
1147.422;    0.464;  -12.550;  533.060
1147.961;    3.874;  -11.180;  708.460
1148.500;    2.275;  -11.510;  669.720
1149.038;    3.134;  -11.640;  632.500
1149.577;    2.689;  -10.130;  698.640
1150.115;    1.135;  -13.970;  452.280
1150.653;    2.004;  -14.520;  607.340
1151.192;    1.628;  -12.810;  552.920
1151.730;    1.289;   -9.100;  652.560
1152.268;    0.932;  -12.220;  589.520
1152.806;    1.061;  -14.140;  571.180
1153.344;    0.412;  -12.350;  577.640
1153.882;    0.822;   -8.980;  600.060
1154.421;   -0.199;  -15.190;  470.620
1154.958;    0.528;  -15.210;  595.240
1155.496;    2.654;  -12.850;  645.280
1156.034;    1.548;   -9.940;  721.880
1156.572;    2.155;  -13.570;  667.060
1157.110;   -0.220;  -14.590;  473.940
1157.647;    1.660;  -13.030;  676.960
1158.185;   -0.459;  -12.140;  564.320
1158.723;   -0.967;  -14.390;  509.200
1159.260;    1.157;  -14.090;  701.700
1159.798;    1.551;  -11.920;  658.160
1160.335;   -0.173;  -11.110;  631.820

