
Integration time [ms]:   3.276
Averaging Nr. [scans]: 1000
Smoothing Nr. [pixels]: 0
Data measured with spectrometer [name]: 7414430SP
Wave   ;Sample   ;Dark     ;Reference
[nm]   ;[counts] ;[counts] ;[counts] 

288.544;  156.419;    7.793;  793.890
289.143;  159.776;    7.462;  681.602
289.742;  161.350;    8.602;  828.814
290.341;  147.588;    1.321;  789.841
290.940;  138.268;   -0.709;  730.702
291.538;  139.763;    0.881;  881.108
292.137;  139.533;    0.122;  792.581
292.736;  141.123;   -1.929;  975.101
293.335;  137.811;   -8.229;  735.086
293.934;  139.082;   -5.279;  781.677
294.532;  140.042;   -1.369; 1031.958
295.131;  126.044;   -7.641;  834.394
295.730;  125.523;   -8.420;  809.588
296.328;  122.302;   -5.611;  783.442
296.927;  122.816;   -5.781;  779.652
297.525;  124.049;   -6.361;  781.236
298.124;  115.195;  -11.382;  654.009
298.722;  120.239;   -7.641;  761.933
299.321;  117.153;   -6.811;  708.597
299.919;  112.136;   -6.991;  751.918
300.518;  110.046;  -10.362;  689.338
301.116;  111.698;   -9.581;  691.381
301.715;  113.883;   -4.891;  730.222
302.313;  111.657;   -8.801;  704.943
302.911;  104.860;   -8.522;  733.830
303.509;  110.515;   -6.171;  925.627
304.108;  109.460;   -7.311;  760.383
304.706;  109.315;   -8.321;  801.664
305.304;  102.685;  -10.222;  796.707
305.902;  108.033;   -6.021;  784.484
306.500;  103.998;   -4.971;  728.200
307.098;  102.429;   -7.061;  746.560
307.696;   99.372;   -8.801;  780.432
308.294;  101.079;   -6.411;  731.359
308.892;  102.940;   -2.901;  759.769
309.490;   98.727;   -5.041;  712.161
310.088;   96.685;   -5.002;  788.444
310.686;  100.807;   -2.041;  821.749
311.284;   97.205;   -2.351;  766.040
311.882;   93.986;   -4.422;  731.225
312.480;   91.798;   -4.192;  697.167
313.078;   92.343;   -1.172;  808.331
313.675;   93.702;   -2.601;  691.600
314.273;   88.050;   -1.312;  797.837
314.871;   86.858;   -3.942;  589.829
315.468;   85.002;   -2.802;  652.090
316.066;   89.031;   -0.701;  694.427
316.664;   81.033;   -4.362;  656.351
317.261;   84.757;   -2.872;  910.128
317.859;   80.745;   -2.022;  768.735
318.456;   82.559;   -0.531;  830.096
319.054;   77.415;   -3.912;  787.828
319.651;   75.362;   -4.752;  759.928
320.249;   74.513;   -2.602;  810.188
320.846;   72.976;   -0.821;  714.286
321.443;   70.280;   -4.642;  832.135
322.041;   66.830;   -5.002;  812.315
322.638;   64.426;   -3.982;  701.456
323.235;   66.458;   -3.411;  665.683
323.833;   62.260;   -7.361;  740.354
324.430;   56.948;   -8.611;  615.900
325.027;   58.717;   -4.061;  876.855
325.624;   59.310;   -4.031;  644.532
326.221;   56.138;   -7.481;  689.717
326.818;   53.126;   -5.281;  818.332
327.415;   57.729;   -7.460;  748.828
328.012;   57.426;   -5.510;  690.585
328.609;   55.351;   -7.880;  731.389
329.206;   53.529;   -8.331;  778.621
329.803;   54.128;   -5.121;  737.841
330.400;   57.187;   -4.510;  704.260
330.997;   57.402;   -6.441;  817.147
331.594;   54.944;   -8.831;  788.185
332.191;   61.180;   -7.621;  728.722
332.787;   65.867;   -4.591;  844.463
333.384;   64.827;   -7.412;  763.093
333.981;   63.479;   -8.293;  815.687
334.578;   67.695;   -7.052;  708.378
335.174;   69.676;   -3.102;  731.469
335.771;   67.738;   -5.943;  836.456
336.367;   64.507;   -7.393;  710.631
336.964;   70.728;   -4.063;  793.266
337.561;   67.887;   -3.813;  731.112
338.157;   63.251;   -4.654;  911.916
338.754;   62.185;   -7.934;  796.589
339.350;   59.957;   -4.414;  722.493
339.946;   63.229;   -4.664;  773.135
340.543;   54.165;   -6.375;  846.136
341.139;   47.321;   -9.815;  720.836
341.735;   44.965;   -4.526;  772.593
342.332;   45.105;   -4.895;  691.472
342.928;   43.686;   -4.295;  795.394
343.524;   37.096;   -5.476;  761.684
344.120;   32.970;   -5.856;  738.562
344.716;   37.387;   -2.155;  723.717
345.313;   34.328;   -6.275;  795.342
345.909;   29.240;   -8.815;  627.336
346.505;   30.081;   -5.305;  740.247
347.101;   31.026;   -2.674;  827.864
347.697;   31.603;   -4.344;  785.398
348.293;   25.480;   -9.975;  627.244
348.889;   26.550;   -5.774;  745.914
349.485;   26.653;   -5.004;  688.205
350.081;   26.740;   -4.704;  772.592
350.676;   21.494;   -6.635;  691.606
351.272;   25.729;   -4.504;  809.530
351.868;   26.379;   -3.914;  780.497
352.464;   23.810;   -9.044;  723.932
353.059;   19.457;   -8.314;  646.017
353.655;   21.961;   -7.024;  777.063
354.251;   24.455;   -5.343;  759.845
354.846;   17.618;   -8.604;  740.646
355.442;   15.289;   -6.945;  753.071
356.038;   17.588;   -7.564;  751.708
356.633;   18.078;   -5.814;  728.594
357.229;   15.438;   -7.364;  724.757
357.824;   13.148;   -8.024;  703.600
358.420;   12.999;   -9.384;  679.726
359.015;   13.562;   -5.104;  695.357
359.610;   14.696;   -6.854;  763.920
360.206;    6.963;  -10.185;  603.240
360.801;   10.922;   -7.054;  646.503
361.396;   14.032;   -5.034;  725.975
361.992;    8.363;   -8.284;  668.220
362.587;    4.998;   -8.625;  670.160
363.182;    7.444;   -7.674;  689.631
363.777;    8.813;   -5.164;  738.242
364.372;    8.216;   -8.604;  737.314
364.967;    3.951;   -9.055;  680.744
365.563;    8.466;   -6.114;  815.567
366.158;    6.457;   -5.814;  685.161
366.753;    5.327;   -7.854;  649.263
367.348;    3.810;   -7.804;  746.056
367.942;    4.423;   -7.954;  697.298
368.537;    3.800;   -4.984;  754.245
369.132;    3.660;   -8.564;  703.428
369.727;   -0.319;   -8.855;  638.079
370.322;    0.694;   -6.245;  580.186
370.917;    1.034;   -6.425;  710.646
371.511;    3.051;   -6.294;  861.834
372.106;   -0.446;   -7.685;  776.964
372.701;   -3.514;   -7.335;  585.988
373.296;    1.948;   -4.564;  863.135
373.890;   -2.935;  -10.235;  647.840
374.485;   -5.781;   -7.885;  691.199
375.079;   -0.919;   -7.324;  738.685
375.674;    0.223;   -3.494;  812.970
376.268;   -4.454;   -8.525;  691.759
376.863;   -9.862;  -10.086;  580.327
377.457;   -3.856;   -7.025;  662.490
378.052;   -4.636;   -3.585;  764.884
378.646;   -6.756;   -7.595;  741.167
379.240;   -7.188;   -8.335;  721.176
379.835;   -6.181;   -5.785;  636.978
380.429;   -7.659;   -4.335;  562.557
381.023;   -8.105;   -6.805;  779.205
381.617;  -10.650;   -9.195;  680.106
382.212;   -7.066;   -6.905;  685.303
382.806;   -6.062;   -3.745;  760.690
383.400;  -10.383;   -7.745;  672.281
383.994;  -11.741;   -9.765;  664.870
384.588;   -7.495;   -6.564;  697.701
385.182;   -6.129;   -5.344;  726.624
385.776;   -8.372;   -8.514;  706.875
386.370;  -11.835;   -9.555;  681.968
386.964;  -11.198;   -8.715;  684.155
387.558;   -8.221;   -6.174;  598.360
388.152;  -12.061;   -8.725;  681.959
388.745;   -9.912;   -7.965;  814.707
389.339;   -8.798;   -5.924;  747.642
389.933;   -7.326;   -5.524;  695.370
390.527;   -8.255;   -7.114;  859.029
391.120;  -15.934;  -10.725;  595.318
391.714;  -12.663;   -8.035;  711.633
392.308;   -8.986;   -3.574;  780.253
392.901;  -12.249;   -7.245;  642.460
393.495;  -15.097;   -9.285;  595.414
394.089;  -12.472;   -5.895;  760.452
394.682;  -12.498;   -4.295;  697.188
395.275;  -13.733;   -9.875;  719.927
395.869;  -15.821;   -8.485;  667.314
396.462;  -13.103;   -7.455;  616.609
397.056;   -8.642;   -5.424;  776.621
397.649;  -14.236;   -6.605;  731.575
398.242;  -12.280;   -8.224;  712.645
398.836;  -10.979;   -7.474;  766.408
399.429;  -11.188;   -7.094;  631.041
400.022;  -15.446;   -9.475;  665.902
400.615;  -13.661;   -7.145;  805.609
401.208;  -10.531;   -7.174;  691.451
401.802;  -12.855;   -5.515;  699.329
402.395;  -14.376;   -9.875;  683.502
402.988;  -15.910;   -8.845;  696.627
403.581;  -11.760;   -8.874;  646.878
404.174;   -9.416;   -5.324;  686.568
404.767;  -12.852;   -9.575;  638.583
405.360;  -15.883;  -10.965;  621.445
405.953;  -10.178;   -8.764;  759.034
406.545;   -8.495;   -7.514;  725.342
407.138;  -13.682;  -10.025;  618.350
407.731;  -13.828;  -10.034;  613.303
408.324;   -8.665;   -9.374;  660.554
408.917;   -8.695;   -6.534;  681.864
409.509;  -10.836;   -8.004;  740.396
410.102;  -13.305;   -9.875;  643.948
410.695;   -6.530;   -8.604;  665.758
411.287;   -7.892;   -6.794;  599.821
411.880;   -9.381;   -9.334;  585.421
412.472;  -12.110;  -10.254;  613.092
413.065;   -9.427;   -6.714;  629.408
413.657;   -7.215;   -7.234;  576.678
414.250;   -7.934;  -10.544;  646.681
414.842;  -10.002;   -9.744;  676.353
415.434;   -6.947;   -6.994;  570.463
416.027;   -2.976;   -5.893;  652.196
416.619;   -5.180;   -7.264;  713.400
417.211;   -5.974;  -10.374;  599.352
417.804;   -1.898;   -7.993;  628.499
418.396;   -5.249;   -7.234;  607.643
418.988;   -4.052;   -9.443;  659.238
419.580;   -7.538;  -10.724;  568.276
420.172;   -5.549;  -10.323;  536.196
420.764;   -0.887;   -8.793;  672.482
421.356;   -2.147;  -11.143;  636.898
421.948;   -3.508;   -8.293;  677.661
422.540;    2.235;   -7.893;  680.027
423.132;    1.122;   -7.082;  600.641
423.724;   -1.313;   -8.653;  561.267
424.316;    0.268;  -10.213;  621.345
424.908;    3.859;   -9.762;  591.517
425.500;    4.849;   -5.572;  647.978
426.092;    5.411;   -8.422;  648.268
426.683;    2.957;   -9.283;  684.836
427.275;    6.946;   -7.852;  641.471
427.867;    8.420;   -5.272;  668.948
428.458;    8.413;   -7.682;  732.344
429.050;    6.655;  -10.612;  680.749
429.642;    8.726;   -9.882;  743.124
430.233;    9.925;   -6.962;  569.356
430.825;   10.648;   -6.842;  724.809
431.416;    7.282;   -9.672;  698.241
432.008;   12.031;   -6.552;  651.723
432.599;   13.271;   -6.891;  656.073
433.190;    9.201;  -10.912;  637.670
433.782;    8.384;  -11.172;  590.395
434.373;   15.414;   -6.061;  884.765
434.964;   15.833;   -8.251;  602.920
435.556;   11.992;   -9.722;  634.537
436.147;   14.941;   -9.082;  758.490
436.738;   15.410;   -8.041;  701.099
437.329;   20.840;   -7.341;  721.723
437.920;   14.215;   -8.162;  666.688
438.511;   13.390;  -11.802;  564.526
439.103;   20.035;  -10.191;  623.998
439.694;   22.040;   -7.601;  681.583
440.285;   22.600;   -8.541;  764.432
440.876;   19.960;   -9.751;  845.738
441.466;   20.055;   -9.401;  575.162
442.057;   25.701;   -7.760;  665.814
442.648;   23.774;   -9.971;  746.255
443.239;   22.112;  -11.001;  620.477
443.830;   27.356;   -7.990;  704.958
444.421;   30.433;   -7.910;  655.474
445.011;   25.658;   -8.131;  693.619
445.602;   24.726;   -7.111;  743.126
446.193;   26.987;  -10.920;  488.117
446.783;   32.257;   -6.500;  640.397
447.374;   27.293;   -8.671;  692.759
447.964;   27.053;  -10.781;  713.770
448.555;   36.014;   -9.650;  822.742
449.145;   33.616;   -8.660;  662.853
449.736;   33.435;   -8.990;  803.179
450.326;   32.809;   -9.500;  713.626
450.917;   38.676;   -8.680;  675.324
451.507;   38.279;   -7.520;  600.661
452.097;   38.466;   -8.590;  746.267
452.688;   38.886;  -11.340;  742.160
453.278;   38.743;  -10.100;  566.840
453.868;   44.125;   -6.019;  793.550
454.458;   41.465;   -9.440;  651.141
455.048;   41.253;  -10.560;  711.783
455.639;   43.387;  -11.799;  567.096
456.229;   47.325;   -6.899;  710.694
456.819;   48.548;   -7.389;  751.158
457.409;   48.801;  -11.119;  773.993
457.999;   52.100;   -9.289;  737.505
458.589;   52.646;   -6.139;  686.606
459.179;   51.111;   -8.729;  717.658
459.769;   50.155;   -9.789;  627.099
460.358;   54.225;  -10.259;  797.262
460.948;   54.991;   -7.299;  689.503
461.538;   56.114;  -10.289;  660.677
462.128;   52.962;  -11.269;  664.934
462.717;   60.326;   -9.368;  710.326
463.307;   64.719;   -7.908;  705.846
463.897;   59.672;   -9.599;  656.942
464.486;   59.619;   -9.769;  837.128
465.076;   63.436;   -8.048;  733.776
465.666;   67.307;   -9.358;  652.900
466.255;   64.420;   -7.919;  785.651
466.845;   62.868;  -11.689;  666.749
467.434;   67.602;   -7.818;  725.873
468.023;   68.353;   -7.678;  658.357
468.613;   65.461;  -10.939;  713.946
469.202;   69.717;  -10.118;  646.507
469.791;   74.087;   -9.108;  737.811
470.381;   76.614;   -6.058;  742.813
470.970;   74.650;  -10.428;  711.099
471.559;   74.907;  -10.268;  733.291
472.148;   78.247;   -8.448;  675.737
472.738;   82.042;   -6.917;  765.466
473.327;   80.515;  -11.978;  637.529
473.916;   80.199;  -11.888;  737.446
474.505;   84.678;   -9.437;  751.703
475.094;   87.953;   -6.747;  806.570
475.683;   86.644;   -9.367;  797.699
476.272;   87.156;  -12.637;  730.632
476.861;   90.578;  -10.027;  706.754
477.449;   97.687;   -8.716;  728.487
478.038;   91.058;   -9.577;  692.513
478.627;   92.284;   -9.718;  714.852
479.216;   99.099;   -8.947;  769.441
479.805;  102.878;   -6.256;  783.375
480.393;  101.602;   -7.937; 1008.945
480.982;  100.219;   -7.717;  874.501
481.571;  107.136;   -9.266;  858.333
482.159;  107.789;   -7.636;  705.386
482.748;  107.805;   -9.667;  821.385
483.336;  111.571;  -10.376;  858.209
483.925;  113.191;   -7.147;  774.373
484.513;  120.781;   -7.996;  758.962
485.102;  117.057;  -10.027;  810.965
485.690;  125.534;  -10.446; 1011.050
486.278;  127.332;   -8.446;  979.329
486.867;  128.743;   -6.356;  809.662
487.455;  129.980;   -9.136;  898.229
488.043;  131.473;  -10.646;  748.361
488.631;  140.617;   -7.456; 1005.079
489.220;  144.688;   -6.636;  908.626
489.808;  144.314;  -11.036;  741.415
490.396;  152.490;  -10.246;  914.645
490.984;  159.933;   -8.556;  830.161
491.572;  172.171;   -5.886;  940.315
492.160;  178.538;   -9.486;  919.081
492.748;  190.906;  -10.976;  884.341
493.336;  214.693;   -8.776; 1019.693
493.924;  243.991;   -5.465;  958.077
494.512;  276.370;   -9.986; 1066.638
495.100;  324.023;  -10.636; 1103.280
495.687;  387.031;  -10.885; 1206.373
496.275;  443.187;   -8.126; 1150.796
496.863;  510.966;  -10.586; 1281.171
497.451;  626.182;  -11.926; 1386.805
498.038;  737.904;  -10.885; 1556.729
498.626;  834.850;   -6.315; 1741.407
499.214;  990.177;   -7.326; 2016.609
499.801; 1214.437;  -11.906; 2220.633
500.389; 1458.998;  -10.466; 2312.494
500.976; 1700.151;   -5.236; 2744.849
501.564; 2128.257;   -8.936; 3148.565
502.151; 2612.514;  -13.176; 3515.999
502.738; 3130.434;  -10.646; 3971.274
503.326; 3503.850;   -9.525; 4403.796
503.913; 3785.432;  -10.856; 5161.749
504.500; 4278.316;  -11.586; 5986.420
505.088; 4625.049;  -10.336; 6381.201
505.675; 5083.428;   -6.355; 6925.547
506.262; 5563.673;   -9.046; 7619.060
506.849; 6059.433;  -10.416; 8733.969
507.436; 6518.435;  -10.305; 9790.121
508.023; 6963.340;   -5.496; 9985.472
508.610; 7827.791;   -7.856;10434.618
509.197; 9194.711;  -10.097;11198.435
509.784;10630.085;  -10.886;12391.194
510.371;11980.219;   -9.315;13603.713
510.958;12813.306;   -9.936;14426.586
511.545;13388.203;   -9.326;15243.775
512.132;13985.308;  -10.075;15945.876
512.719;14141.019;   -7.796;16340.369
513.305;14968.083;  -10.606;18011.766
513.892;16321.394;  -11.486;19754.971
514.479;18083.283;   -9.126;20967.805
515.066;19732.271;   -6.026;22299.793
515.652;20014.232;   -8.466;22908.660
516.239;20932.082;  -10.886;23798.875
516.825;22978.049;  -11.496;25567.275
517.412;24971.879;   -5.796;28154.959
517.998;26936.502;  -10.506;28344.111
518.585;26592.834;  -10.076;27134.219
519.171;25137.799;   -8.315;27268.576
519.758;25929.900;   -8.596;28964.129
520.344;27105.602;   -8.466;30664.494
520.930;29372.363;  -11.006;32550.605
521.516;29700.760;  -10.495;35422.895
522.103;28132.252;   -5.526;38280.004
522.689;28386.102;   -8.746;37835.117
523.275;29539.980;  -11.376;37288.613
523.861;30483.436;  -11.156;37281.395
524.447;31688.805;   -8.135;37846.949
525.033;30517.162;   -7.896;38321.949
525.619;30781.441;  -12.476;38579.285
526.205;33963.262;   -9.516;40622.875
526.791;36419.262;   -6.926;42258.836
527.377;38813.301;   -8.346;42966.902
527.963;40735.113;   -8.717;42018.949
528.549;39603.324;  -11.016;42476.828
529.135;39703.551;   -8.536;41854.852
529.721;39194.809;   -9.666;41237.711
530.306;37453.566;  -10.066;41259.445
530.892;37417.594;  -11.356;41506.047
531.478;36845.359;   -6.596;43559.613
532.063;37309.551;   -8.836;47695.563
532.649;40886.840;  -10.047;50808.324
533.235;42338.207;   -9.746;51787.500
533.820;41493.836;   -6.566;52145.035
534.406;40458.305;  -10.817;51133.488
534.991;43230.742;   -9.416;49996.805
535.576;44478.445;   -9.036;48882.852
536.162;44596.230;   -6.156;46942.285
536.747;45505.109;  -11.607;45711.746
537.333;45776.105;  -11.787;48510.180
537.918;45562.582;  -12.437;50439.891
538.503;46399.406;   -7.196;50863.711
539.088;44067.191;  -10.556;50906.922
539.673;42270.434;   -8.767;52621.965
540.259;42658.914;  -10.026;52368.094
540.844;43040.449;   -7.416;50879.109
541.429;39800.449;   -9.467;52077.777
542.014;37206.688;   -9.527;52716.695
542.599;38280.730;   -9.946;52363.281
543.184;42354.723;   -7.927;53187.137
543.769;44594.805;   -9.297;54697.605
544.354;44372.301;  -10.127;53913.914
544.938;44109.293;   -9.267;49680.164
545.523;47070.770;   -6.506;47386.277
546.108;51004.680;   -9.787;49151.949
546.693;50433.320;  -11.587;51384.637
547.278;50228.254;  -10.986;51853.254
547.862;46912.934;   -8.206;51173.750
548.447;44166.629;  -10.067;51691.395
549.031;44944.082;   -9.637;52456.703
549.616;45952.063;   -9.926;52714.516
550.201;44883.344;   -6.347;52414.598
550.785;44261.699;   -7.917;52355.059
551.370;45225.559;  -10.867;54589.453
551.954;46054.996;   -9.047;58267.348
552.538;47225.230;   -7.827;59062.176
553.123;46991.832;  -10.287;58115.285
553.707;42626.125;  -12.178;56556.285
554.291;43374.566;   -8.717;56201.668
554.876;46769.992;   -7.457;55335.762
555.460;47965.039;  -10.387;54155.703
556.044;48821.281;   -9.618;53721.484
556.628;47986.855;  -11.567;53731.016
557.212;45984.199;   -8.097;54312.531
557.796;47169.125;  -11.077;53797.773
558.380;45182.063;  -11.108;56145.984
558.964;43835.113;   -9.057;57277.930
559.548;43802.578;   -6.977;56459.641
560.132;42850.426;  -11.457;54434.543
560.716;41757.430;  -11.378;54800.617
561.300;42723.813;   -9.577;57606.945
561.884;44708.309;   -7.127;58972.445
562.467;45444.785;   -7.118;57327.570
563.051;44955.141;  -13.358;54962.434
563.635;42606.395;  -10.178;52594.473
564.219;41921.715;   -7.837;50610.410
564.802;41531.402;  -11.398;49551.180
565.386;42781.996;  -12.788;48370.953
565.969;43605.648;   -9.077;48178.871
566.553;43919.613;   -6.207;49957.305
567.136;41139.336;   -8.568;50369.594
567.720;40138.809;  -11.868;49492.004
568.303;40138.805;   -8.268;50616.352
568.887;38821.586;   -8.698;50727.148
569.470;38915.938;   -6.808;51698.379
570.053;37552.742;  -13.188;52122.078
570.637;36209.148;  -12.037;52536.438
571.220;35667.137;   -8.577;51186.098
571.803;36163.914;   -8.498;51032.762
572.386;38778.031;  -10.498;49609.887
572.969;40537.086;   -9.388;48285.926
573.552;36889.133;   -8.338;47624.285
574.135;34797.840;   -8.518;45498.641
574.718;31636.977;  -13.628;41970.434
575.301;31150.906;  -10.893;41447.137
575.884;30664.838;   -8.158;40923.836
576.467;35457.215;  -10.328;45267.723
577.050;34075.949;  -13.058;48175.543
577.633;32958.684;   -9.458;47729.328
578.216;34337.539;   -8.928;47579.793
578.799;35474.730;   -9.358;47820.996
579.381;35046.563;  -11.388;48115.551
579.964;32141.838;  -11.718;47333.766
580.547;32056.082;   -8.588;46668.969
581.129;33567.965;   -8.859;44466.141
581.712;33957.141;  -10.729;44164.922
582.294;35213.039;  -11.118;46477.855
582.877;33178.645;   -5.218;48244.254
583.459;33169.883;   -8.679;47437.895
584.042;34984.008;  -10.709;46943.219
584.624;37104.301;  -11.669;46792.227
585.206;36189.063;   -8.218;46557.250
585.789;34840.559;  -10.569;45793.773
586.371;34991.520;  -11.859;43836.391
586.953;33561.484;  -10.719;42972.492
587.536;35095.109;   -7.198;42487.211
588.118;36441.734;   -8.720;42086.414
588.700;35913.137;  -10.439;43389.930
589.282;36108.703;   -9.198;43646.039
589.864;35040.262;   -9.199;43438.109
590.446;32657.793;  -11.319;43151.926
591.028;32227.648;  -11.159;42781.867
591.610;32148.152;  -11.779;42839.098
592.192;29239.902;   -7.668;42820.402
592.774;30076.453;  -11.949;40724.277
593.356;31132.754;  -12.129;39874.789
593.937;29168.234;  -10.669;39980.648
594.519;30425.209;   -6.509;42069.633
595.101;32389.027;  -10.849;42976.031
595.683;31206.980;  -11.679;44084.441
596.264;30742.801;   -9.049;43478.797
596.846;32656.830;   -8.849;43803.672
597.427;32814.316;   -9.570;42986.934
598.009;33755.594;  -12.620;42832.219
598.591;32979.883;  -10.039;42580.086
599.172;32050.600;  -10.369;43061.805
599.753;30418.408;   -9.140;41691.469
600.335;30371.439;  -11.430;40692.520
600.916;30917.465;   -9.939;39982.422
601.498;29727.957;   -8.479;40318.617
602.079;28348.029;  -10.920;40670.609
602.660;30327.891;  -11.480;41450.898
603.241;31995.453;  -11.699;41137.738
603.823;32314.793;   -9.579;38868.797
604.404;32004.330;  -10.620;38182.785
604.985;30731.201;  -10.450;38078.047
605.566;30239.105;   -9.129;38056.633
606.147;30044.480;   -7.510;37020.418
606.728;31051.938;  -10.660;37883.359
607.309;32002.734;  -11.740;38748.273
607.890;31800.941;   -9.759;38850.230
608.471;30440.570;   -8.250;37457.918
609.051;30845.748;   -9.240;36066.457
609.632;28964.336;  -12.120;35991.074
610.213;27714.820;   -9.110;37402.641
610.794;29548.057;   -8.030;38383.363
611.374;31986.840;   -8.110;40562.387
611.955;31768.996;  -13.560;38533.727
612.536;29245.475;  -11.400;36951.789
613.116;28095.344;   -8.070;37197.891
613.697;29998.996;  -10.830;38411.125
614.277;31362.266;  -11.641;38673.938
614.858;30791.883;  -13.310;37075.863
615.438;29237.699;   -7.460;35092.906
616.019;27600.730;   -7.601;33666.301
616.599;28252.764;  -12.020;34189.023
617.179;29895.109;  -11.780;36952.047
617.760;32524.584;   -8.570;39582.574
618.340;32614.211;  -11.471;38943.977
618.920;31291.070;  -11.170;37594.156
619.500;33219.051;  -11.071;37866.938
620.080;33547.332;   -7.750;37869.043
620.660;31844.121;  -12.711;36868.617
621.241;30228.582;  -10.211;36352.309
621.821;29172.863;  -10.961;35459.520
622.401;28336.240;   -7.720;35207.414
622.980;29393.008;   -8.981;35980.422
623.560;29710.479;   -9.331;37351.328
624.140;28584.443;   -9.850;34388.582
624.720;26255.707;   -7.451;32368.764
625.300;24596.803;   -9.070;32638.629
625.880;27908.051;  -12.601;34599.035
626.459;29832.242;  -11.751;36831.738
627.039;30678.230;   -9.281;38299.098
627.619;32557.936;   -8.801;38289.574
628.198;31805.430;  -12.071;37220.695
628.778;30622.852;   -9.461;37632.563
629.357;31637.393;   -8.491;38003.012
629.937;31915.568;   -9.721;38402.039
630.516;32132.793;   -9.951;37868.801
631.096;32365.805;  -11.731;35760.410
631.675;33611.453;   -8.572;35225.219
632.254;33189.656;  -11.282;35130.289
632.834;32669.311;  -13.322;35794.570
633.413;32397.178;  -10.301;35788.922
633.992;31600.648;   -8.582;34532.863
634.571;33115.301;   -8.352;33590.113
635.151;33176.477;  -11.912;34943.863
635.730;32492.740;  -10.511;35352.523
636.309;34710.234;   -7.731;35366.605
636.888;32575.322;   -9.952;36165.637
637.467;30580.643;  -11.672;37515.902
638.046;30486.145;   -8.901;39288.695
638.625;31434.047;   -7.912;38279.699
639.204;31834.617;  -10.022;37741.598
639.782;29965.982;  -12.252;38364.551
640.361;28227.453;  -10.041;36740.621
640.940;27317.633;  -11.161;34950.082
641.519;28323.988;   -9.701;34137.398
642.097;30151.279;  -11.271;35654.258
642.676;31858.145;   -8.651;35637.957
643.255;33040.066;   -8.711;36567.074
643.833;30651.793;   -9.581;37809.434
644.412;28325.438;  -13.711;37337.293
644.990;30167.672;  -11.811;37018.531
645.569;32781.027;   -9.411;36518.469
646.147;32090.139;  -10.291;36186.430
646.726;30900.098;  -12.401;36267.688
647.304;30953.672;  -10.411;36647.625
647.882;30228.654;   -9.651;39286.742
648.461;31655.738;   -9.631;39157.703
649.039;34958.746;  -11.881;35412.883
649.617;35093.480;   -9.661;34744.918
650.195;32889.242;   -9.301;35403.098
650.773;31773.900;  -10.511;35053.797
651.352;31016.223;  -11.521;33756.816
651.930;28648.688;  -12.211;31868.773
652.508;25515.066;   -9.171;33121.551
653.086;26390.244;   -9.371;33564.793
653.663;31927.088;  -13.161;34054.668
654.241;35614.383;  -13.031;35693.309
654.819;36621.363;   -9.371;36422.906
655.397;36676.773;  -10.511;38213.484
655.975;33177.934;  -10.371;39507.625
656.553;30080.602;  -10.051;39498.223
657.130;28614.799;  -10.061;40395.480
657.708;26776.047;   -9.561;39242.020
658.286;24188.596;  -11.511;38920.020
658.863;26187.443;  -10.261;40202.898
659.441;30024.910;   -7.531;39677.938
660.018;32039.160;   -9.501;40413.355
660.596;31192.967;  -13.301;39931.414
661.173;30795.961;  -11.211;39604.531
661.750;32546.785;   -9.951;39700.070
662.328;31644.186;   -9.390;39292.809
662.905;30428.205;  -11.330;38235.648
663.482;27918.689;   -9.050;36212.305
664.060;25113.311;   -8.240;35944.945
664.637;25705.746;  -10.050;35170.785
665.214;29061.363;  -11.760;34197.523
665.791;29737.986;  -10.530;34549.520
666.368;28594.582;   -9.690;35118.578
666.945;29881.699;   -9.320;36019.418
667.522;30387.709;  -11.860;36048.438
668.099;31663.975;  -10.770;36243.914
668.676;31645.100;   -6.260;35958.875
669.253;34207.871;   -7.000;37384.730
669.830;35516.922;  -10.190;36779.629
670.407;32410.051;   -9.550;35231.289
670.984;32839.789;   -9.260;35544.270
671.560;30239.824;   -9.280;35466.867
672.137;26150.658;  -11.810;34280.863
672.714;27899.584;  -11.490;34632.863
673.290;31528.783;   -7.740;35135.422
673.867;31226.227;  -10.660;36114.480
674.443;31396.465;  -12.230;36152.859
675.020;31160.496;  -10.450;35327.238
675.596;29770.977;   -9.260;35795.176
676.173;28677.541;  -10.780;35430.355
676.749;28261.367;  -13.690;33549.516
677.326;28231.932;  -11.980;32210.012
677.902;27687.914;   -8.630;32068.871
678.478;29367.703;  -10.730;32583.891
679.054;30069.969;  -10.520;32088.928
679.631;29485.313;  -11.920;30978.848
680.207;29536.143;   -7.490;33160.887
680.783;31257.355;   -9.860;35570.363
681.359;32624.508;  -13.380;36125.184
681.935;33208.379;  -12.480;35240.922
682.511;32550.494;   -7.900;34429.961
683.087;31501.688;   -7.710;34463.680
683.663;31096.809;  -11.480;34648.898
684.239;29831.027;  -14.090;34546.457
684.815;28759.361;   -7.560;35586.375
685.390;29216.469;   -9.910;35821.895
685.966;30551.605;  -11.159;35085.871
686.542;31923.346;  -11.169;34198.230
687.118;33226.258;   -5.959;32847.707
687.693;32276.387;  -10.329;32794.027
688.269;33159.559;  -12.059;33072.367
688.844;33247.570;  -10.909;33141.664
689.420;30541.168;   -8.019;33965.742
689.995;29343.428;   -8.399;34655.523
690.571;30815.395;  -10.949;33576.742
691.146;30367.758;   -9.619;32657.219
691.722;28799.730;   -8.999;32526.979
692.297;28034.197;  -11.589;33014.617
692.872;28042.545;  -11.739;34012.254
693.448;30905.773;  -11.059;34237.434
694.023;31475.258;  -10.139;34142.672
694.598;29452.893;   -9.029;34132.031
695.173;30481.559;  -13.319;34205.250
695.748;30944.047;  -10.169;32882.488
696.323;28706.916;   -8.339;32864.906
696.898;27200.355;   -8.169;33170.004
697.473;27764.482;  -12.309;32432.984
698.048;27873.684;  -10.989;31649.303
698.623;26630.973;   -9.329;30778.141
699.198;27508.912;   -9.849;31140.119
699.773;28480.139;  -12.329;31764.299
700.348;29773.746;  -10.389;31780.816
700.922;30192.102;   -9.269;32046.375
701.497;30998.816;   -9.329;32603.574
702.072;31917.150;  -10.789;34799.871
702.646;30945.563;  -10.839;35793.172
703.221;30314.371;   -9.099;35201.590
703.795;32201.078;  -10.939;34764.527
704.370;29679.076;  -12.859;34307.367
704.944;28125.088;  -11.559;33509.887
705.519;29201.475;   -7.939;31388.584
706.093;31353.268;  -10.499;31340.104
706.668;33548.727;  -11.289;32630.281
707.242;33051.594;  -11.509;32728.779
707.816;31124.936;   -9.639;32947.238
708.390;29832.115;  -11.429;33277.855
708.965;29177.590;  -11.869;33834.336
709.539;30624.361;  -11.689;33709.273
710.113;30944.711;  -10.478;33044.313
710.687;30288.156;  -10.228;31953.992
711.261;29500.537;  -13.698;30505.949
711.835;29942.355;  -13.378;30262.369
712.409;28964.625;   -9.698;31254.447
712.983;28407.383;  -11.898;32754.986
713.557;30780.016;  -15.138;34018.824
714.131;28974.344;  -14.098;34579.625
714.704;28568.037;   -9.958;33890.262
715.278;30625.584;  -10.028;33531.102
715.852;29026.375;  -11.148;33601.660
716.425;27672.031;   -9.068;33515.117
716.999;26328.877;  -10.038;33185.555
717.573;26115.854;   -9.798;33905.996
718.146;25671.123;  -12.378;35199.293
718.720;26164.816;  -11.918;35060.551
719.293;26593.920;   -8.088;34973.230
719.867;28768.674;  -10.888;36394.449
720.440;30612.992;  -11.938;36663.008
721.013;31429.805;  -12.818;35102.426
721.587;29263.426;  -10.298;33985.266
722.160;27308.873;  -10.048;33524.965
722.733;26554.541;  -12.108;32987.043
723.306;26820.047;  -10.818;33066.301
723.880;28571.328;   -8.908;33399.500
724.453;28221.166;   -9.878;33468.297
725.026;28506.428;  -11.188;33816.637
725.599;31251.688;  -11.678;32797.996
726.172;30665.525;   -9.618;33187.434
726.745;28073.578;   -8.258;35136.613
727.318;27646.578;  -12.978;35751.730
727.891;27111.701;  -12.148;35890.430
728.463;26210.215;   -8.968;34822.090
729.036;25999.699;  -10.188;32895.086
729.609;25906.354;  -11.788;31823.225
730.182;23940.363;  -11.788;31445.283
730.754;22562.330;  -10.268;32373.223
731.327;22684.457;   -9.998;33676.820
731.900;23957.219;  -12.228;33417.000
732.472;23919.037;  -13.848;31978.498
733.045;23076.813;   -8.698;30368.777
733.617;22642.328;  -10.607;30574.215
734.190;24520.184;  -11.507;31280.975
734.762;25454.748;  -13.647;31674.412
735.334;26821.758;   -9.767;31247.291
735.907;27264.797;   -9.897;29876.211
736.479;26996.027;  -11.637;29808.488
737.051;28083.469;   -9.567;30233.547
737.623;27544.762;   -8.187;31469.086
738.195;26170.465;  -11.187;31784.225
738.768;24880.260;  -12.337;32120.523
739.340;23233.135;  -12.227;32094.342
739.912;22463.795;  -11.057;31312.680
740.484;22554.238;  -10.207;31946.238
741.056;22228.061;  -10.047;32984.059
741.628;23173.107;  -13.627;33897.715
742.199;24058.760;   -7.177;33213.016
742.771;26317.641;  -10.797;31369.113
743.343;27197.344;  -11.997;31865.473
743.915;26887.846;  -12.867;32388.631
744.487;24289.553;   -7.617;31079.568
745.058;21401.967;   -9.557;30570.107
745.630;22451.160;   -9.877;29970.127
746.201;24093.270;  -14.177;29186.766
746.773;24622.104;   -9.237;28805.723
747.344;22735.916;   -9.847;29591.223
747.916;20932.934;  -11.657;31412.201
748.487;21966.336;  -10.587;32194.898
749.059;23782.021;   -8.707;32533.719
749.630;24023.803;  -10.537;32158.518
750.201;23387.537;  -11.687;30855.395
750.773;22198.480;  -11.647;28622.555
751.344;22016.330;   -7.147;28405.732
751.915;23996.357;   -9.757;28461.551
752.486;25023.994;  -12.427;27842.850
753.057;23984.547;  -12.227;27845.008
753.628;24088.398;  -10.417;27728.107
754.199;23675.418;  -11.767;27381.086
754.770;23202.158;  -11.187;25882.203
755.341;22154.916;  -10.507;25886.184
755.912;20624.322;   -9.387;26050.861
756.483;19174.977;  -10.647;26798.779
757.054;19610.830;  -11.837;27048.238
757.625;19623.861;  -12.716;26294.838
758.195;19312.977;   -9.666;26142.076
758.766;19533.662;   -8.656;26392.234
759.337;19076.525;  -12.856;26334.594
759.907;18889.781;  -13.366;27579.652
760.478;18661.621;   -8.576;28352.770
761.048;19649.908;  -10.526;27325.088
761.619;19733.957;  -11.116;26460.428
762.189;18366.289;  -12.136;26029.826
762.760;18038.709;   -9.456;26430.145
763.330;18520.105;   -7.136;26670.902
763.900;18706.613;  -11.786;26603.021
764.471;18173.131;  -11.546;25542.740
765.041;17282.303;   -8.096;24358.459
765.611;16613.924;   -8.876;23991.297
766.181;16620.039;  -12.196;24470.236
766.751;16347.493;  -11.636;24845.975
767.321;17288.660;  -10.156;24533.633
767.891;16679.736;  -11.766;24916.492
768.461;16904.324;  -14.936;24776.771
769.031;17949.852;  -12.356;24757.988
769.601;18576.955;   -7.526;24181.088
770.171;18375.033;  -10.766;23670.387
770.741;17573.521;  -13.176;22960.045
771.311;17093.088;  -10.616;22917.523
771.880;17410.252;   -9.576;23562.941
772.450;17102.602;  -10.336;24216.500
773.020;16719.148;  -13.516;24140.398
773.589;17300.779;  -13.466;24414.857
774.159;17146.025;   -8.686;23858.717
774.729;15828.854;   -9.476;22942.135
775.298;14098.059;  -13.666;22324.033
775.867;13790.054;  -11.716;21140.313
776.437;13925.591;   -9.906;20838.092
777.006;13243.748;  -12.166;20599.510
777.576;12741.204;  -12.356;20508.809
778.145;12674.384;  -11.646;20732.947
778.714;13134.092;   -8.226;21062.465
779.283;14128.052;   -9.556;20949.664
779.853;14739.476;  -14.116;20508.623
780.422;14179.030;  -11.506;20649.082
780.991;13718.633;   -9.556;21527.520
781.560;13430.315;   -9.095;22632.658
782.129;13300.430;  -12.135;23048.277
782.698;13179.497;  -10.865;23438.555
783.267;12803.801;   -9.335;23267.734
783.836;12858.127;  -11.045;22415.133
784.404;13506.671;  -13.865;20443.152
784.973;12812.776;  -13.095;19699.150
785.542;11536.520;  -11.575;19763.828
786.111;10979.352;   -9.705;20341.408
786.679;11674.391;  -12.105;20207.967
787.248;11901.175;  -12.455;19516.465
787.817;11551.441;  -11.535;18900.363
788.385;11652.933;   -9.765;17879.121
788.954;11721.061;  -14.005;17658.301
789.522;11183.554;  -11.955;17788.879
790.090;11419.354;  -10.135;18118.277
790.659;12349.905;  -10.975;18338.736
791.227;12246.846;  -13.375;18508.615
791.795;11635.666;  -12.375;17898.254
792.364;11113.999;  -10.725;17295.133
792.932;11253.260;   -9.715;16822.051
793.500;11396.324;  -12.675;17040.148
794.068;11151.392;  -13.495;17179.787
794.636; 9982.574;  -10.885;16664.246
795.204; 8958.465;  -11.045;16524.545
795.772; 9662.204;  -13.175;17274.564
796.340;10808.500;  -12.445;17891.002
796.908;10593.833;   -9.735;17648.561
797.476;10986.997;   -9.815;17064.080
798.044;11808.244;  -13.985;16672.777
798.612;11620.148;  -13.115;17023.996
799.180;10362.138;  -10.185;16561.615
799.747; 9396.165;   -9.055;15962.773
800.315; 8793.828;  -12.385;15296.992
800.883; 9054.373;  -15.035;14801.771
801.450; 9322.666;  -10.365;14534.430
802.018; 9423.654;   -9.855;14173.248
802.585; 9592.711;  -11.905;14029.547
803.153; 9188.608;  -11.585;13836.846
803.720; 8587.637;   -9.095;13567.324
804.287; 8638.792;   -9.135;13360.622
804.855; 8947.430;  -11.604;13681.981
805.422; 9053.074;  -11.794;13536.560
805.989; 8914.354;  -10.734;13355.958
806.556; 8465.244;  -10.444;13747.896
807.124; 8330.002;  -12.764;13987.376
807.691; 8909.517;  -12.964;14038.674
808.258; 9315.385;  -11.134;14120.152
808.825; 9499.462;   -9.854;13860.111
809.392; 9147.652;  -10.504;13268.790
809.959; 8691.179;  -13.054;12680.389
810.526; 8562.786;   -8.294;12427.308
811.093; 8242.534;   -8.394;12030.105
811.659; 7480.844;  -12.304;11653.664
812.226; 7276.582;  -13.944;11637.183
812.793; 7781.535;  -10.484;11611.521
813.360; 7898.339;  -10.144;11885.181
813.926; 7181.150;  -11.684;12770.539
814.493; 6568.499;  -13.644;12677.638
815.060; 6434.152;   -9.724;11974.336
815.626; 6754.856;   -9.854;11594.715
816.193; 6772.309;  -13.254;11579.474
816.759; 6743.120;  -13.204;11666.972
817.325; 6528.461;   -9.434;11325.530
817.892; 6208.618;  -10.134;11105.369
818.458; 6143.573;  -13.474;10843.928
819.024; 6167.998;  -11.854;10714.406
819.591; 6481.062;  -10.244;10469.165
820.157; 6596.250;  -10.704;10235.523
820.723; 6871.501;  -12.324;10847.563
821.289; 7289.329;   -9.444;11040.980
821.855; 7323.099;   -8.374;10357.100
822.421; 6906.012;  -10.234; 9978.918
822.987; 6663.819;  -13.294; 9754.177
823.553; 6515.197;  -10.884;10065.755
824.119; 6078.413;   -8.884;10036.294
824.685; 5894.603;   -6.784;10029.192
825.251; 5847.751;  -12.004;10199.230
825.816; 5965.493;  -11.474; 9820.189
826.382; 5744.627;   -9.174; 9297.248
826.948; 5467.686;   -9.214; 9381.347
827.513; 5233.126;  -10.774; 9450.726
828.079; 5171.967;  -11.924; 9472.444
828.645; 5252.408;  -10.543; 9292.643
829.210; 5449.353;  -10.533; 9065.341
829.776; 5477.560;  -10.753; 9132.620
830.341; 5396.692;  -10.173; 9092.878
830.906; 5503.642;  -10.743; 9078.557
831.472; 5370.522;  -11.113; 8534.535
832.037; 4853.077;  -10.603; 8677.874
832.602; 4771.590;  -13.323; 8628.692
833.167; 5148.750;  -10.823; 8879.031
833.733; 5124.887;  -10.113; 9189.790
834.298; 4851.531;  -13.583; 9052.608
834.863; 4721.528;  -12.703; 8895.087
835.428; 4588.661;  -10.523; 8824.266
835.993; 4527.665;   -6.963; 8845.385
836.558; 4620.450;  -10.763; 8888.563
837.123; 4747.302;   -9.903; 8966.582
837.688; 4609.701;   -9.913; 8617.860
838.253; 4475.338;  -10.283; 8590.699
838.817; 4627.777;  -12.963; 8443.797
839.382; 4792.475;  -14.243; 8799.356
839.947; 4656.183;  -10.733; 8810.595
840.511; 4735.305;   -9.383; 8796.394
841.076; 4770.625;  -12.563; 8347.231
841.641; 4579.446;  -12.953; 8224.330
842.205; 4294.675;   -7.043; 8223.349
842.770; 4241.362;   -8.163; 8622.107
843.334; 4292.856;  -12.503; 8410.386
843.898; 4271.813;  -11.693; 8337.465
844.463; 4157.440;  -10.203; 8506.283
845.027; 4058.079;   -9.533; 8280.962
845.591; 4101.115;  -13.443; 8231.141
846.156; 4017.868;  -13.143; 7969.179
846.720; 3822.410;   -9.433; 7768.278
847.284; 3521.726;  -11.033; 7630.957
847.848; 3355.286;  -10.403; 7472.395
848.412; 3365.682;  -11.553; 7437.394
848.976; 3558.664;   -8.393; 7674.592
849.540; 3612.608;   -8.713; 7836.011
850.104; 3595.013;  -12.463; 7913.669
850.668; 3729.219;  -12.973; 7694.508
851.232; 3764.392;  -10.793; 7756.887
851.796; 3673.568;  -10.662; 7926.545
852.359; 3713.193;  -13.082; 7827.844
852.923; 3474.744;  -12.192; 7641.163
853.487; 3400.343;  -11.912; 7342.501
854.050; 3564.716;  -10.892; 7042.820
854.614; 3541.097;  -13.992; 7151.338
855.177; 3409.723;  -11.732; 7105.077
855.741; 3322.723;   -8.962; 6989.675
856.304; 3209.065;   -9.442; 6596.634
856.868; 2959.328;  -14.192; 6356.272
857.431; 2739.361;  -12.702; 6468.571
857.995; 2781.000;   -9.942; 6373.210
858.558; 2820.572;   -9.112; 6324.448
859.121; 2637.268;  -12.932; 6408.327
859.684; 2581.450;  -13.442; 6347.886
860.247; 3008.070;  -10.632; 6321.264
860.810; 3348.369;  -11.272; 6301.903
861.374; 3357.860;   -9.832; 6607.881
861.937; 3318.756;  -11.762; 6408.200
862.500; 3181.298;   -9.722; 6572.639
863.062; 2877.719;  -10.512; 6387.297
863.625; 2763.827;  -11.232; 6190.836
864.188; 2760.266;  -14.112; 5807.254
864.751; 2765.708;  -11.302; 5682.413
865.314; 2887.289;  -10.112; 5547.492
865.876; 2928.253;  -12.182; 5500.150
866.439; 2838.349;  -10.722; 5415.909
867.002; 2680.087;   -9.252; 5501.567
867.564; 2575.404;   -9.572; 5413.946
868.127; 2444.544;  -13.142; 5160.325
868.689; 2154.979;  -12.902; 5133.183
869.252; 2018.866;   -9.732; 5252.382
869.814; 2036.485;   -9.432; 5297.141
870.377; 2156.052;  -11.552; 5390.919
870.939; 2153.482;   -9.052; 5599.898
871.501; 2070.141;  -10.982; 5248.336
872.063; 2086.445;  -12.292; 4854.235
872.626; 2076.499;  -14.912; 4817.074
873.188; 2080.102;  -13.112; 4987.732
873.750; 2051.379;  -13.442; 4868.651
874.312; 2178.317;   -9.402; 4779.330
874.874; 2465.163;  -11.062; 4866.348
875.436; 2474.633;  -13.931; 4718.887
875.998; 2119.799;   -9.561; 4660.005
876.560; 1759.135;  -11.321; 4462.964
877.122; 1440.692;  -12.221; 4145.042
877.683; 1116.303;  -12.191; 4056.481
878.245; 1015.148;  -12.101; 3950.740
878.807; 1100.254;   -8.971; 4058.958
879.369; 1212.117;  -12.071; 3954.677
879.930; 1261.297;  -14.621; 3941.495
880.492; 1216.567;  -10.311; 4067.014
881.053; 1162.187;  -10.901; 3859.633
881.615; 1199.678;  -14.411; 3776.071
882.176; 1267.776;  -13.761; 3734.750
882.738; 1314.042;   -9.181; 3678.489
883.299; 1301.661;  -11.791; 3405.407
883.860; 1245.709;  -13.121; 3351.106
884.422; 1159.713;  -11.211; 3394.044
884.983; 1100.765;  -10.091; 3166.443
885.544; 1087.433;   -8.461; 3189.802
886.105; 1041.162;  -12.361; 3160.360
886.666;  974.155;  -14.141; 3093.059
887.227;  951.554;  -11.361; 2941.957
887.788;  970.351;  -11.401; 2974.836
888.349;  931.047;  -13.791; 2721.214
888.910;  841.965;  -13.191; 2696.493
889.471;  747.131;   -9.881; 2560.172
890.032;  678.912;   -9.881; 2558.190
890.593;  680.194;  -10.371; 2567.669
891.153;  680.523;  -13.301; 2460.307
891.714;  621.977;  -11.431; 2372.046
892.275;  575.992;  -11.291; 2309.505
892.835;  563.416;  -11.471; 2382.543
893.396;  552.902;  -11.541; 2295.502
893.956;  547.971;  -11.181; 2162.420
894.517;  534.639;  -11.741; 2125.439
895.077;  489.529;  -11.671; 2086.978
895.638;  438.485;  -11.311; 2126.316
896.198;  420.378;   -9.831; 1838.275
896.758;  422.218;   -8.421; 1892.813
897.319;  414.495;  -12.351; 1792.232
897.879;  396.487;  -13.511; 1762.751
898.439;  371.651;  -12.001; 1661.149
898.999;  353.728;  -10.180; 1781.468
899.559;  338.483;  -12.030; 1703.347
900.119;  330.273;  -15.710; 1537.525
900.679;  310.551;   -8.900; 1638.384
901.239;  284.958;   -8.340; 1527.902
901.799;  270.057;  -13.910; 1456.441
902.359;  260.918;  -13.460; 1357.140
902.919;  256.273;  -11.490; 1331.118
903.479;  254.064;  -12.110; 1317.257
904.038;  245.429;  -11.720; 1262.595
904.598;  229.734;  -13.610; 1152.034
905.158;  219.784;  -11.040; 1240.893
905.717;  212.824;  -10.900; 1233.691
906.277;  208.576;  -15.080; 1217.330
906.836;  205.354;  -13.380; 1222.408
907.396;  203.571;  -10.780; 1193.047
907.955;  197.246;   -8.500; 1182.526
908.515;  189.047;  -12.760; 1099.364
909.074;  184.003;  -11.900; 1092.863
909.633;  183.324;   -8.950; 1069.121
910.192;  180.338;   -8.770; 1196.460
910.752;  175.118;  -12.390; 1029.960
911.311;  171.070;  -13.680; 1009.780
911.870;  168.092;  -12.370;  971.460
912.429;  164.167;  -10.900; 1094.080
912.988;  161.452;  -11.690; 1081.060
913.547;  157.508;  -13.240;  940.380
914.106;  157.190;  -11.990;  999.420
914.665;  157.862;   -9.990;  984.020
915.224;  155.440;  -12.880; 1035.760
915.782;  152.626;  -12.350;  922.560
916.341;  152.365;   -9.110; 1049.840
916.900;  147.466;   -9.270;  925.260
917.458;  144.181;  -13.240;  884.220
918.017;  141.942;  -13.550;  942.600
918.576;  142.404;  -12.320;  904.440
919.134;  143.419;  -11.490;  837.980
919.693;  141.534;  -13.670;  893.060
920.251;  140.341;  -15.470;  876.500
920.809;  140.089;  -11.290;  839.580
921.368;  140.419;  -10.210;  885.360
921.926;  140.179;  -12.140;  842.940
922.484;  138.800;  -13.080;  903.360
923.042;  139.847;  -11.720;  880.340
923.601;  141.590;   -7.480;  998.680
924.159;  140.024;  -11.570;  935.560
924.717;  138.243;  -13.840;  841.080
925.275;  141.396;  -10.640;  903.240
925.833;  139.800;  -11.540;  779.320
926.391;  139.931;  -12.960;  938.380
926.949;  139.312;  -14.130;  857.680
927.506;  140.198;  -11.750;  903.500
928.064;  139.124;  -10.250;  877.580
928.622;  137.343;  -13.030;  880.100
929.180;  139.186;  -13.400;  814.180
929.737;  141.193;  -10.700;  808.540
930.295;  142.859;  -10.070;  928.480
930.853;  142.302;  -11.960;  849.100
931.410;  140.700;  -13.120;  821.120
931.968;  142.296;  -10.770;  940.660
932.525;  144.627;  -10.680;  909.380
933.082;  146.954;  -13.130;  811.440
933.640;  151.139;  -13.210;  925.900
934.197;  153.080;  -11.060;  886.360
934.754;  153.719;   -9.580;  897.780
935.312;  152.792;  -14.000;  863.340
935.869;  156.207;  -10.710; 1012.980
936.426;  155.242;   -9.860;  872.800
936.983;  153.916;   -9.710;  889.020
937.540;  151.438;  -13.990;  838.280
938.097;  151.808;  -14.040;  940.120
938.654;  155.282;  -10.310;  898.860
939.211;  155.484;  -10.560;  952.480
939.768;  153.984;  -13.900;  915.420
940.324;  154.785;  -14.760;  904.200
940.881;  159.551;  -10.370;  878.500
941.438;  166.852;   -8.260; 1021.200
941.995;  167.119;  -12.540;  992.560
942.551;  164.764;  -14.670;  875.620
943.108;  164.638;  -10.450;  937.920
943.664;  164.745;  -10.750;  869.340
944.221;  170.879;  -11.550; 1088.140
944.777;  172.437;  -14.770;  869.680
945.334;  172.448;  -12.820;  884.840
945.890;  170.147;  -10.130;  946.480
946.446;  167.719;  -13.470;  947.020
947.003;  167.841;  -12.120;  964.940
947.559;  168.771;   -9.980; 1063.040
948.115;  164.773;   -9.080; 1026.540
948.671;  161.863;  -10.830;  967.300
949.227;  159.406;  -12.440;  859.560
949.783;  159.305;  -12.910;  858.900
950.339;  162.496;  -10.270;  991.000
950.895;  162.080;  -13.630; 1023.840
951.451;  161.154;  -15.100;  925.280
952.007;  161.784;  -11.330;  998.540
952.563;  159.699;  -10.580;  937.780
953.118;  154.783;  -13.440;  904.940
953.674;  151.840;  -12.710;  935.780
954.230;  154.352;  -10.350;  949.640
954.785;  158.341;   -9.190;  936.640
955.341;  158.440;  -11.200;  998.160
955.897;  155.508;  -16.560;  834.660
956.452;  153.581;  -12.570;  953.840
957.008;  152.453;   -7.970; 1083.640
957.563;  150.187;  -11.940; 1009.540
958.118;  147.764;  -13.450;  877.700
958.674;  148.712;  -12.030;  946.780
959.229;  149.187;   -9.410; 1013.980
959.784;  146.192;  -12.000;  832.400
960.339;  142.880;  -14.780; 1001.280
960.894;  138.256;   -9.860;  963.760
961.449;  133.081;   -9.970;  859.960
962.004;  129.838;  -10.900; 1212.840
962.559;  125.047;  -13.150;  860.140
963.114;  123.206;  -13.740;  742.480
963.669;  124.973;   -9.820;  915.500
964.224;  123.750;  -13.890;  874.340
964.779;  123.877;  -12.600;  828.420
965.334;  125.715;  -10.950; 1017.860
965.888;  122.458;  -11.170;  875.360
966.443;  123.669;  -12.540;  972.380
966.998;  123.266;  -15.780;  819.460
967.552;  123.638;   -9.760;  908.380
968.107;  119.006;   -9.060;  868.300
968.661;  117.004;  -11.950;  922.440
969.216;  116.197;  -12.800;  856.280
969.770;  116.169;  -11.210;  917.200
970.324;  113.631;  -11.610;  923.140
970.879;  110.581;  -11.370;  947.180
971.433;  109.668;  -12.540;  952.720
971.987;  108.788;  -11.320;  895.340
972.541;  107.988;  -10.720;  917.100
973.095;  109.335;   -9.680; 1009.460
973.649;  106.743;  -11.440;  809.480
974.203;  107.882;  -11.210;  829.040
974.757;  109.139;  -10.240;  855.220
975.311;  108.221;  -13.720;  872.600
975.865;  108.093;  -13.770;  881.820
976.419;  107.565;  -11.690;  857.400
976.973;  107.779;   -9.510;  849.620
977.526;  106.862;  -12.620;  949.920
978.080;  103.430;  -12.010;  796.780
978.634;  102.598;  -10.170;  921.320
979.187;   99.919;   -9.020;  905.400
979.741;   98.722;   -9.820; 1018.380
980.294;   93.409;  -14.870;  789.160
980.848;   90.472;  -12.380;  717.220
981.401;   89.939;  -10.350;  816.540
981.955;   89.405;  -13.720;  844.300
982.508;   85.811;  -11.490;  746.340
983.061;   86.144;  -10.000;  915.260
983.615;   85.617;  -11.480;  798.800
984.168;   84.845;  -13.220;  770.080
984.721;   84.573;  -13.960;  880.760
985.274;   83.417;  -10.870;  867.500
985.827;   82.287;   -9.790;  834.220
986.380;   80.368;  -13.120;  721.340
986.933;   79.986;  -12.450;  864.800
987.486;   80.322;  -10.210;  861.920
988.039;   80.299;   -8.430;  863.100
988.591;   76.480;  -10.520;  893.260
989.144;   72.474;  -14.860;  737.260
989.697;   71.261;  -13.080;  758.740
990.250;   70.713;  -10.150;  858.100
990.802;   68.151;  -13.430;  755.860
991.355;   67.411;  -12.750;  974.880
991.907;   65.564;  -12.040;  864.320
992.460;   63.717;  -11.330;  753.760
993.012;   62.833;  -13.610;  749.540
993.565;   60.759;  -13.460;  711.360
994.117;   63.634;   -9.360;  950.780
994.669;   60.617;  -11.300;  701.320
995.221;   59.727;  -13.540;  791.920
995.774;   57.996;  -13.430;  787.580
996.326;   57.582;  -12.520;  740.220
996.878;   58.419;  -10.950;  838.420
997.430;   55.288;  -14.300;  699.860
997.982;   53.848;  -13.760;  750.140
998.534;   53.747;  -11.530;  739.060
999.086;   52.903;  -10.310;  738.220
999.638;   51.405;  -12.530;  661.380
1000.190;   50.163;  -11.840;  699.320
1000.741;   50.236;  -10.260;  742.700
1001.293;   50.346;   -8.860;  686.020
1001.845;   48.646;  -13.700;  676.640
1002.396;   49.477;  -12.100;  743.400
1002.948;   48.895;  -12.760;  737.400
1003.500;   47.630;  -10.380;  723.780
1004.051;   48.035;  -11.900;  907.580
1004.603;   46.176;  -12.250;  791.820
1005.154;   43.378;  -13.210;  608.980
1005.705;   42.859;  -10.950;  723.960
1006.257;   42.753;  -13.880;  707.220
1006.808;   41.296;  -12.840;  685.460
1007.359;   41.384;  -10.570;  763.240
1007.910;   40.604;   -9.620;  646.640
1008.461;   39.767;  -13.630;  732.940
1009.013;   37.872;  -17.200;  588.340
1009.564;   39.260;  -10.200;  793.520
1010.115;   38.050;  -12.570;  597.040
1010.665;   37.994;  -15.150;  602.160
1011.216;   37.511;  -14.480;  667.920
1011.767;   37.131;  -11.340;  697.920
1012.318;   38.178;   -9.780;  736.980
1012.869;   35.861;  -12.380;  679.000
1013.419;   35.577;  -15.560;  603.120
1013.970;   36.127;  -11.010;  666.640
1014.521;   35.447;  -11.610;  620.620
1015.071;   35.049;  -13.450;  670.380
1015.622;   34.400;  -13.870;  635.460
1016.172;   34.190;  -11.610;  596.820
1016.723;   34.287;  -12.120;  614.380
1017.273;   33.950;  -13.620;  604.160
1017.823;   33.212;  -14.140;  650.340
1018.374;   33.495;  -12.800;  611.760
1018.924;   32.916;  -12.340;  716.880
1019.474;   33.899;  -11.410;  718.880
1020.024;   32.045;  -14.770;  657.580
1020.574;   33.341;   -9.780;  726.160
1021.124;   33.284;   -8.560;  673.580
1021.674;   31.016;  -15.190;  559.120
1022.224;   32.345;  -13.530;  708.940
1022.774;   32.102;  -13.280;  668.820
1023.324;   33.227;  -10.690;  753.520
1023.874;   34.223;  -10.240;  875.760
1024.423;   30.362;  -12.540;  613.700
1024.973;   30.962;  -10.010;  610.760
1025.523;   30.686;  -10.550;  620.960
1026.072;   29.711;  -13.560;  606.420
1026.622;   29.124;  -15.120;  675.740
1027.172;   30.642;  -11.260;  715.660
1027.721;   29.943;  -11.410;  601.220
1028.270;   30.071;  -13.530;  663.400
1028.820;   29.184;  -13.680;  638.080
1029.369;   29.726;  -13.520;  612.700
1029.918;   30.478;  -10.980;  649.840
1030.468;   28.546;  -13.530;  564.780
1031.017;   28.826;  -13.170;  634.800
1031.566;   28.721;  -12.200;  608.900
1032.115;   29.482;   -9.960;  694.500
1032.664;   27.249;  -13.210;  596.480
1033.213;   28.213;  -12.500;  735.420
1033.762;   28.173;  -11.910;  635.620
1034.311;   28.144;   -9.640;  677.220
1034.860;   28.266;  -13.310;  691.000
1035.408;   27.941;  -11.830;  722.720
1035.957;   28.716;  -12.000;  719.540
1036.506;   26.702;  -11.690;  530.800
1037.055;   27.693;  -10.990;  844.320
1037.603;   25.917;  -15.120;  664.000
1038.152;   24.785;  -12.450;  534.760
1038.700;   25.900;  -10.560;  585.740
1039.249;   25.490;  -11.080;  681.220
1039.797;   25.190;  -12.540;  633.360
1040.345;   25.199;  -11.920;  705.420
1040.894;   26.168;  -11.410;  625.300
1041.442;   24.115;  -14.320;  632.200
1041.990;   24.109;  -16.240;  559.160
1042.538;   24.204;  -11.680;  536.180
1043.087;   24.878;  -10.760;  570.860
1043.635;   24.865;  -11.850;  670.500
1044.183;   23.812;  -15.480;  586.400
1044.731;   24.143;  -11.770;  576.000
1045.279;   23.996;  -13.090;  674.920
1045.827;   25.223;  -12.440;  892.400
1046.374;   21.961;  -13.840;  515.420
1046.922;   22.397;  -13.220;  590.580
1047.470;   24.096;  -10.230;  691.300
1048.018;   24.228;  -14.590;  647.960
1048.565;   23.522;  -12.050;  708.600
1049.113;   22.836;  -11.650;  557.000
1049.660;   22.985;  -10.510;  629.660
1050.208;   22.819;  -13.310;  675.640
1050.755;   21.953;  -15.900;  606.580
1051.303;   22.749;  -11.430;  686.820
1051.850;   22.549;   -8.480;  635.120
1052.397;   19.771;  -15.010;  473.960
1052.945;   19.944;  -13.960;  617.760
1053.492;   22.611;  -13.150;  741.840
1054.039;   23.054;   -9.630;  720.180
1054.586;   21.712;  -13.680;  557.240
1055.133;   21.593;  -14.570;  693.140
1055.680;   22.428;  -13.820;  646.620
1056.227;   21.032;  -11.730;  542.780
1056.774;   22.397;  -12.480;  794.980
1057.321;   19.521;  -13.930;  523.260
1057.868;   20.773;  -11.690;  651.320
1058.415;   20.348;   -9.520;  651.980
1058.961;   20.475;  -13.160;  678.940
1059.508;   19.947;  -12.920;  643.820
1060.055;   20.039;  -11.920;  581.780
1060.601;   21.103;  -11.500;  624.300
1061.148;   20.294;  -14.330;  616.820
1061.694;   18.243;  -16.870;  592.580
1062.241;   19.175;  -10.330;  596.320
1062.787;   20.325;  -10.620;  663.140
1063.334;   21.192;  -10.110;  808.560
1063.880;   19.250;  -13.400;  668.360
1064.426;   18.998;  -10.680;  706.820
1064.972;   18.195;   -9.920;  601.340
1065.518;   16.884;  -10.980;  566.640
1066.065;   18.007;  -14.890;  624.460
1066.611;   17.394;  -12.870;  598.800
1067.157;   18.872;  -12.950;  641.860
1067.703;   17.922;  -13.540;  668.480
1068.249;   17.412;  -13.540;  605.220
1068.794;   17.926;  -12.600;  626.880
1069.340;   17.855;  -10.620;  578.960
1069.886;   16.767;  -12.830;  590.700
1070.432;   15.765;  -14.870;  541.720
1070.977;   16.508;  -11.980;  601.080
1071.523;   17.166;   -8.200;  573.060
1072.068;   16.585;  -12.330;  582.000
1072.614;   15.874;  -16.370;  527.760
1073.160;   17.663;  -11.100;  687.040
1073.705;   16.092;  -10.480;  572.520
1074.250;   16.256;  -14.520;  559.900
1074.796;   16.921;  -11.460;  655.160
1075.341;   17.621;  -11.950;  664.100
1075.886;   17.003;  -11.460;  594.240
1076.431;   16.067;  -13.770;  649.880
1076.976;   15.067;  -12.680;  639.220
1077.521;   15.074;  -13.170;  583.080
1078.067;   15.145;  -10.860;  579.400
1078.612;   15.739;  -13.920;  661.620
1079.156;   14.442;  -13.880;  601.540
1079.701;   15.427;  -13.120;  693.260
1080.246;   16.626;   -9.940;  696.300
1080.791;   15.552;  -14.740;  625.020
1081.336;   14.821;  -13.750;  659.320
1081.880;   14.557;  -13.400;  649.680
1082.425;   14.933;  -12.220;  573.480
1082.970;   16.021;  -11.610;  717.040
1083.514;   13.567;  -13.580;  597.000
1084.059;   13.064;  -12.810;  586.720
1084.603;   13.546;  -12.320;  565.840
1085.147;   13.805;  -13.190;  645.220
1085.692;   14.421;  -12.480;  716.800
1086.236;   13.090;  -13.020;  503.140
1086.780;   15.434;   -9.190;  751.440
1087.325;   13.733;  -12.480;  654.620
1087.869;   13.637;  -12.450;  610.700
1088.413;   13.992;  -12.240;  705.040
1088.957;   12.462;   -9.020;  543.400
1089.501;   14.241;  -10.320;  766.640
1090.045;   12.794;  -12.720;  726.480
1090.589;   10.888;  -13.690;  569.920
1091.133;   13.952;  -10.020;  673.340
1091.676;   13.088;  -12.330;  591.940
1092.220;   11.845;  -14.970;  600.920
1092.764;   13.234;  -12.430;  706.960
1093.307;   13.550;   -9.800;  673.780
1093.851;   11.689;  -14.970;  556.540
1094.395;   12.195;  -15.310;  683.140
1094.938;   11.728;  -10.370;  632.520
1095.482;   12.406;  -11.050;  559.800
1096.025;   12.761;  -11.840;  710.880
1096.568;   12.255;  -12.840;  779.280
1097.112;    9.606;  -14.700;  508.180
1097.655;   12.681;   -8.720;  603.000
1098.198;   10.850;  -13.610;  600.180
1098.741;   10.161;  -13.350;  612.860
1099.285;   11.768;  -11.230;  657.300
1099.828;   10.217;  -11.840;  439.400
1100.371;   11.400;  -10.840;  608.160
1100.914;    9.837;  -14.190;  682.660
1101.457;   10.448;  -11.240;  679.900
1101.999;    9.772;  -11.270;  584.680
1102.542;   10.930;  -11.480;  641.440
1103.085;    9.959;  -11.750;  658.500
1103.628;   10.842;  -11.400;  762.060
1104.170;   10.767;  -10.490;  588.280
1104.713;   10.382;  -10.600;  646.700
1105.256;    9.478;  -14.360;  557.440
1105.798;    8.200;  -13.210;  499.980
1106.341;   11.689;  -10.270;  728.900
1106.883;    8.864;  -12.200;  521.340
1107.425;    9.527;  -13.110;  668.180
1107.968;    9.010;  -12.840;  612.380
1108.510;   10.443;   -6.480;  684.960
1109.052;    8.792;  -13.940;  612.620
1109.594;    8.108;  -13.690;  554.440
1110.136;    9.245;  -11.880;  643.220
1110.679;    8.833;   -9.500;  633.080
1111.221;    9.081;  -14.160;  604.460
1111.763;    7.777;  -13.980;  559.220
1112.304;    8.099;  -13.880;  547.140
1112.846;    9.111;  -12.210;  666.240
1113.388;   11.293;  -11.390;  942.180
1113.930;    7.818;  -14.540;  694.200
1114.472;    7.511;  -12.640;  606.540
1115.013;    6.911;  -11.620;  551.280
1115.555;    6.550;  -13.640;  587.100
1116.097;    5.977;  -15.380;  579.480
1116.638;    7.167;  -12.640;  684.600
1117.180;    8.104;   -9.850;  667.740
1117.721;    7.251;  -13.690;  568.580
1118.262;    7.261;  -12.680;  677.960
1118.804;    7.768;  -12.530;  637.340
1119.345;    7.219;  -11.690;  578.400
1119.886;    8.661;  -13.380;  704.040
1120.427;    5.915;  -14.070;  589.020
1120.969;    6.343;  -13.500;  597.920
1121.510;    6.686;  -11.480;  563.060
1122.051;    6.830;  -12.830;  723.580
1122.592;    5.161;  -14.290;  655.420
1123.133;    5.131;  -12.400;  547.940
1123.673;    6.866;  -10.130;  706.480
1124.214;    5.980;  -12.930;  612.460
1124.755;    6.712;  -14.380;  639.460
1125.296;    6.026;  -14.000;  627.320
1125.836;    7.245;  -10.070;  691.500
1126.377;    6.006;  -12.640;  599.660
1126.918;    5.548;  -12.960;  614.980
1127.458;    4.730;  -13.350;  622.220
1127.999;    6.666;  -10.750;  656.980
1128.539;    6.146;  -12.350;  694.240
1129.079;    4.746;  -14.860;  632.720
1129.620;    4.778;  -13.840;  558.100
1130.160;    5.040;  -12.330;  539.480
1130.700;    5.398;  -14.530;  640.840
1131.240;    5.938;  -12.530;  643.700
1131.781;    4.570;  -14.450;  619.680
1132.321;    5.687;   -9.790;  599.120
1132.861;    4.020;  -14.860;  564.200
1133.401;    2.923;  -14.290;  593.940
1133.941;    4.563;  -11.750;  626.280
1134.481;    4.170;   -9.920;  597.580
1135.020;    4.181;  -12.290;  609.160
1135.560;    3.766;  -11.650;  674.940
1136.100;    2.695;  -16.270;  501.160
1136.640;    3.893;  -10.890;  510.480
1137.179;    3.420;  -14.180;  537.960
1137.719;    3.539;  -16.250;  605.400
1138.258;    3.982;  -14.230;  587.360
1138.798;    4.614;   -9.090;  663.780
1139.337;    3.335;  -15.130;  482.840
1139.877;    3.336;  -13.680;  642.360
1140.416;    5.816;  -11.320;  878.060
1140.955;    2.732;  -10.860;  535.380
1141.494;    3.556;  -12.920;  669.280
1142.034;    1.822;  -13.930;  583.520
1142.573;    3.322;  -11.440;  646.280
1143.112;    3.246;  -12.000;  553.480
1143.651;    3.052;  -13.670;  536.480
1144.190;    2.487;  -12.730;  691.640
1144.729;    3.116;  -14.560;  607.420
1145.267;    3.647;  -11.830;  584.900
1145.806;    3.824;  -12.230;  637.040
1146.345;    1.646;  -14.130;  635.020
1146.884;    2.660;  -11.590;  622.500
1147.422;    2.621;  -12.550;  533.060
1147.961;    3.693;  -11.180;  708.460
1148.500;    2.960;  -11.510;  669.720
1149.038;    3.238;  -11.640;  632.500
1149.577;    3.504;  -10.130;  698.640
1150.115;    0.835;  -13.970;  452.280
1150.653;    1.808;  -14.520;  607.340
1151.192;    2.844;  -12.810;  552.920
1151.730;    2.186;   -9.100;  652.560
1152.268;    2.018;  -12.220;  589.520
1152.806;    1.487;  -14.140;  571.180
1153.344;   -0.040;  -12.350;  577.640
1153.882;    1.752;   -8.980;  600.060
1154.421;   -0.286;  -15.190;  470.620
1154.958;    0.050;  -15.210;  595.240
1155.496;    1.094;  -12.850;  645.280
1156.034;    2.239;   -9.940;  721.880
1156.572;    2.190;  -13.570;  667.060
1157.110;   -0.343;  -14.590;  473.940
1157.647;    1.183;  -13.030;  676.960
1158.185;    1.150;  -12.140;  564.320
1158.723;   -0.225;  -14.390;  509.200
1159.260;    0.099;  -14.090;  701.700
1159.798;    0.631;  -11.920;  658.160
1160.335;    1.056;  -11.110;  631.820

