
Integration time [ms]:   3.276
Averaging Nr. [scans]: 1000
Smoothing Nr. [pixels]: 0
Data measured with spectrometer [name]: 7414430SP
Wave   ;Sample   ;Dark     ;Reference
[nm]   ;[counts] ;[counts] ;[counts] 

288.544;  158.258;    7.793;  793.890
289.143;  161.024;    7.462;  681.602
289.742;  162.509;    8.602;  828.814
290.341;  148.891;    1.321;  789.841
290.940;  140.476;   -0.709;  730.702
291.538;  140.698;    0.881;  881.108
292.137;  140.473;    0.122;  792.581
292.736;  143.097;   -1.929;  975.101
293.335;  139.557;   -8.229;  735.086
293.934;  141.064;   -5.279;  781.677
294.532;  141.390;   -1.369; 1031.958
295.131;  127.161;   -7.641;  834.394
295.730;  127.639;   -8.420;  809.588
296.328;  123.822;   -5.611;  783.442
296.927;  123.704;   -5.781;  779.652
297.525;  124.084;   -6.361;  781.236
298.124;  116.759;  -11.382;  654.009
298.722;  121.726;   -7.641;  761.933
299.321;  118.153;   -6.811;  708.597
299.919;  114.512;   -6.991;  751.918
300.518;  110.626;  -10.362;  689.338
301.116;  113.446;   -9.581;  691.381
301.715;  114.784;   -4.891;  730.222
302.313;  113.122;   -8.801;  704.943
302.911;  107.593;   -8.522;  733.830
303.509;  112.292;   -6.171;  925.627
304.108;  109.880;   -7.311;  760.383
304.706;  110.497;   -8.321;  801.664
305.304;  104.738;  -10.222;  796.707
305.902;  109.336;   -6.021;  784.484
306.500;  105.334;   -4.971;  728.200
307.098;  103.360;   -7.061;  746.560
307.696;  101.583;   -8.801;  780.432
308.294;  101.766;   -6.411;  731.359
308.892;  104.298;   -2.901;  759.769
309.490;  100.290;   -5.041;  712.161
310.088;   98.041;   -5.002;  788.444
310.686;  103.060;   -2.041;  821.749
311.284;   98.107;   -2.351;  766.040
311.882;   95.887;   -4.422;  731.225
312.480;   92.060;   -4.192;  697.167
313.078;   94.096;   -1.172;  808.331
313.675;   94.855;   -2.601;  691.600
314.273;   90.108;   -1.312;  797.837
314.871;   89.220;   -3.942;  589.829
315.468;   86.690;   -2.802;  652.090
316.066;   90.147;   -0.701;  694.427
316.664;   82.517;   -4.362;  656.351
317.261;   86.533;   -2.872;  910.128
317.859;   81.884;   -2.022;  768.735
318.456;   83.657;   -0.531;  830.096
319.054;   78.794;   -3.912;  787.828
319.651;   77.653;   -4.752;  759.928
320.249;   75.753;   -2.602;  810.188
320.846;   74.643;   -0.821;  714.286
321.443;   71.346;   -4.642;  832.135
322.041;   69.493;   -5.002;  812.315
322.638;   66.235;   -3.982;  701.456
323.235;   67.726;   -3.411;  665.683
323.833;   63.552;   -7.361;  740.354
324.430;   59.500;   -8.611;  615.900
325.027;   61.297;   -4.061;  876.855
325.624;   60.807;   -4.031;  644.532
326.221;   57.146;   -7.481;  689.717
326.818;   56.595;   -5.281;  818.332
327.415;   59.357;   -7.460;  748.828
328.012;   58.925;   -5.510;  690.585
328.609;   57.051;   -7.880;  731.389
329.206;   56.021;   -8.331;  778.621
329.803;   56.495;   -5.121;  737.841
330.400;   58.949;   -4.510;  704.260
330.997;   59.571;   -6.441;  817.147
331.594;   58.330;   -8.831;  788.185
332.191;   63.369;   -7.621;  728.722
332.787;   67.299;   -4.591;  844.463
333.384;   66.965;   -7.412;  763.093
333.981;   65.626;   -8.293;  815.687
334.578;   68.681;   -7.052;  708.378
335.174;   70.876;   -3.102;  731.469
335.771;   69.618;   -5.943;  836.456
336.367;   67.313;   -7.393;  710.631
336.964;   72.100;   -4.063;  793.266
337.561;   69.382;   -3.813;  731.112
338.157;   64.903;   -4.654;  911.916
338.754;   63.631;   -7.934;  796.589
339.350;   61.544;   -4.414;  722.493
339.946;   64.815;   -4.664;  773.135
340.543;   56.029;   -6.375;  846.136
341.139;   49.887;   -9.815;  720.836
341.735;   46.686;   -4.526;  772.593
342.332;   45.953;   -4.895;  691.472
342.928;   46.218;   -4.295;  795.394
343.524;   39.326;   -5.476;  761.684
344.120;   34.973;   -5.856;  738.562
344.716;   39.728;   -2.155;  723.717
345.313;   35.965;   -6.275;  795.342
345.909;   30.989;   -8.815;  627.336
346.505;   32.251;   -5.305;  740.247
347.101;   33.187;   -2.674;  827.864
347.697;   32.448;   -4.344;  785.398
348.293;   27.962;   -9.975;  627.244
348.889;   29.233;   -5.774;  745.914
349.485;   28.425;   -5.004;  688.205
350.081;   28.880;   -4.704;  772.592
350.676;   24.001;   -6.635;  691.606
351.272;   28.633;   -4.504;  809.530
351.868;   27.598;   -3.914;  780.497
352.464;   25.174;   -9.044;  723.932
353.059;   21.188;   -8.314;  646.017
353.655;   24.652;   -7.024;  777.063
354.251;   26.899;   -5.343;  759.845
354.846;   20.538;   -8.604;  740.646
355.442;   18.092;   -6.945;  753.071
356.038;   19.544;   -7.564;  751.708
356.633;   19.685;   -5.814;  728.594
357.229;   17.923;   -7.364;  724.757
357.824;   16.415;   -8.024;  703.600
358.420;   15.395;   -9.384;  679.726
359.015;   16.720;   -5.104;  695.357
359.610;   16.253;   -6.854;  763.920
360.206;   10.059;  -10.185;  603.240
360.801;   12.707;   -7.054;  646.503
361.396;   16.081;   -5.034;  725.975
361.992;   11.220;   -8.284;  668.220
362.587;    7.864;   -8.625;  670.160
363.182;    9.638;   -7.674;  689.631
363.777;   11.433;   -5.164;  738.242
364.372;   11.304;   -8.604;  737.314
364.967;    7.056;   -9.055;  680.744
365.563;   10.993;   -6.114;  815.567
366.158;    7.840;   -5.814;  685.161
366.753;    8.989;   -7.854;  649.263
367.348;    6.757;   -7.804;  746.056
367.942;    6.515;   -7.954;  697.298
368.537;    6.829;   -4.984;  754.245
369.132;    6.314;   -8.564;  703.428
369.727;    1.873;   -8.855;  638.079
370.322;    3.822;   -6.245;  580.186
370.917;    3.329;   -6.425;  710.646
371.511;    6.208;   -6.294;  861.834
372.106;    2.672;   -7.685;  776.964
372.701;   -0.718;   -7.335;  585.988
373.296;    5.341;   -4.564;  863.135
373.890;   -0.634;  -10.235;  647.840
374.485;   -2.505;   -7.885;  691.199
375.079;    2.120;   -7.324;  738.685
375.674;    2.423;   -3.494;  812.970
376.268;   -1.781;   -8.525;  691.759
376.863;   -6.555;  -10.086;  580.327
377.457;    0.103;   -7.025;  662.490
378.052;   -2.810;   -3.585;  764.884
378.646;   -3.378;   -7.595;  741.167
379.240;   -3.962;   -8.335;  721.176
379.835;   -3.875;   -5.785;  636.978
380.429;   -5.658;   -4.335;  562.557
381.023;   -6.013;   -6.805;  779.205
381.617;   -7.964;   -9.195;  680.106
382.212;   -4.225;   -6.905;  685.303
382.806;   -2.665;   -3.745;  760.690
383.400;   -7.501;   -7.745;  672.281
383.994;   -8.765;   -9.765;  664.870
384.588;   -4.517;   -6.564;  697.701
385.182;   -3.401;   -5.344;  726.624
385.776;   -5.625;   -8.514;  706.875
386.370;   -8.231;   -9.555;  681.968
386.964;   -7.619;   -8.715;  684.155
387.558;   -5.747;   -6.174;  598.360
388.152;   -9.142;   -8.725;  681.959
388.745;   -7.715;   -7.965;  814.707
389.339;   -5.969;   -5.924;  747.642
389.933;   -4.804;   -5.524;  695.370
390.527;   -5.277;   -7.114;  859.029
391.120;  -12.007;  -10.725;  595.318
391.714;   -9.043;   -8.035;  711.633
392.308;   -5.247;   -3.574;  780.253
392.901;   -9.973;   -7.245;  642.460
393.495;  -11.281;   -9.285;  595.414
394.089;   -8.816;   -5.895;  760.452
394.682;   -9.893;   -4.295;  697.188
395.275;  -10.601;   -9.875;  719.927
395.869;  -11.951;   -8.485;  667.314
396.462;   -9.652;   -7.455;  616.609
397.056;   -6.049;   -5.424;  776.621
397.649;  -10.946;   -6.605;  731.575
398.242;   -8.262;   -8.224;  712.645
398.836;   -7.107;   -7.474;  766.408
399.429;   -8.559;   -7.094;  631.041
400.022;  -12.043;   -9.475;  665.902
400.615;   -9.203;   -7.145;  805.609
401.208;   -7.047;   -7.174;  691.451
401.802;   -9.604;   -5.515;  699.329
402.395;  -10.317;   -9.875;  683.502
402.988;  -11.309;   -8.845;  696.627
403.581;   -8.741;   -8.874;  646.878
404.174;   -6.283;   -5.324;  686.568
404.767;   -9.597;   -9.575;  638.583
405.360;  -12.390;  -10.965;  621.445
405.953;   -6.290;   -8.764;  759.034
406.545;   -5.822;   -7.514;  725.342
407.138;  -10.032;  -10.025;  618.350
407.731;   -8.902;  -10.034;  613.303
408.324;   -5.127;   -9.374;  660.554
408.917;   -5.897;   -6.534;  681.864
409.509;   -7.926;   -8.004;  740.396
410.102;   -9.466;   -9.875;  643.948
410.695;   -3.470;   -8.604;  665.758
411.287;   -4.544;   -6.794;  599.821
411.880;   -5.560;   -9.334;  585.421
412.472;   -9.004;  -10.254;  613.092
413.065;   -5.643;   -6.714;  629.408
413.657;   -3.767;   -7.234;  576.678
414.250;   -3.902;  -10.544;  646.681
414.842;   -6.273;   -9.744;  676.353
415.434;   -3.074;   -6.994;  570.463
416.027;    1.063;   -5.893;  652.196
416.619;   -1.552;   -7.264;  713.400
417.211;   -1.950;  -10.374;  599.352
417.804;    2.199;   -7.993;  628.499
418.396;   -1.565;   -7.234;  607.643
418.988;   -0.051;   -9.443;  659.238
419.580;   -3.584;  -10.724;  568.276
420.172;   -1.327;  -10.323;  536.196
420.764;    3.373;   -8.793;  672.482
421.356;    1.862;  -11.143;  636.898
421.948;    0.854;   -8.293;  677.661
422.540;    6.090;   -7.893;  680.027
423.132;    5.843;   -7.082;  600.641
423.724;    2.546;   -8.653;  561.267
424.316;    4.059;  -10.213;  621.345
424.908;    7.272;   -9.762;  591.517
425.500;    9.190;   -5.572;  647.978
426.092;    9.109;   -8.422;  648.268
426.683;    7.874;   -9.283;  684.836
427.275;   11.157;   -7.852;  641.471
427.867;   12.628;   -5.272;  668.948
428.458;   13.163;   -7.682;  732.344
429.050;   11.502;  -10.612;  680.749
429.642;   13.713;   -9.882;  743.124
430.233;   15.549;   -6.962;  569.356
430.825;   16.098;   -6.842;  724.809
431.416;   12.926;   -9.672;  698.241
432.008;   16.634;   -6.552;  651.723
432.599;   17.625;   -6.891;  656.073
433.190;   14.018;  -10.912;  637.670
433.782;   13.793;  -11.172;  590.395
434.373;   20.872;   -6.061;  884.765
434.964;   19.403;   -8.251;  602.920
435.556;   16.977;   -9.722;  634.537
436.147;   19.626;   -9.082;  758.490
436.738;   21.237;   -8.041;  701.099
437.329;   26.224;   -7.341;  721.723
437.920;   18.560;   -8.162;  666.688
438.511;   18.257;  -11.802;  564.526
439.103;   25.123;  -10.191;  623.998
439.694;   27.861;   -7.601;  681.583
440.285;   27.611;   -8.541;  764.432
440.876;   26.134;   -9.751;  845.738
441.466;   25.690;   -9.401;  575.162
442.057;   31.204;   -7.760;  665.814
442.648;   29.711;   -9.971;  746.255
443.239;   27.771;  -11.001;  620.477
443.830;   33.341;   -7.990;  704.958
444.421;   34.700;   -7.910;  655.474
445.011;   31.879;   -8.131;  693.619
445.602;   30.687;   -7.111;  743.126
446.193;   33.738;  -10.920;  488.117
446.783;   37.615;   -6.500;  640.397
447.374;   32.612;   -8.671;  692.759
447.964;   33.297;  -10.781;  713.770
448.555;   42.571;   -9.650;  822.742
449.145;   39.934;   -8.660;  662.853
449.736;   39.929;   -8.990;  803.179
450.326;   38.992;   -9.500;  713.626
450.917;   44.099;   -8.680;  675.324
451.507;   44.250;   -7.520;  600.661
452.097;   45.345;   -8.590;  746.267
452.688;   45.632;  -11.340;  742.160
453.278;   44.692;  -10.100;  566.840
453.868;   49.591;   -6.019;  793.550
454.458;   47.158;   -9.440;  651.141
455.048;   47.882;  -10.560;  711.783
455.639;   49.174;  -11.799;  567.096
456.229;   53.118;   -6.899;  710.694
456.819;   55.460;   -7.389;  751.158
457.409;   55.273;  -11.119;  773.993
457.999;   58.650;   -9.289;  737.505
458.589;   58.878;   -6.139;  686.606
459.179;   57.788;   -8.729;  717.658
459.769;   56.411;   -9.789;  627.099
460.358;   61.517;  -10.259;  797.262
460.948;   60.965;   -7.299;  689.503
461.538;   63.153;  -10.289;  660.677
462.128;   61.199;  -11.269;  664.934
462.717;   67.710;   -9.368;  710.326
463.307;   70.550;   -7.908;  705.846
463.897;   66.764;   -9.599;  656.942
464.486;   66.233;   -9.769;  837.128
465.076;   70.081;   -8.048;  733.776
465.666;   74.021;   -9.358;  652.900
466.255;   71.377;   -7.919;  785.651
466.845;   70.481;  -11.689;  666.749
467.434;   74.311;   -7.818;  725.873
468.023;   76.620;   -7.678;  658.357
468.613;   73.600;  -10.939;  713.946
469.202;   78.104;  -10.118;  646.507
469.791;   81.674;   -9.108;  737.811
470.381;   83.884;   -6.058;  742.813
470.970;   82.876;  -10.428;  711.099
471.559;   82.880;  -10.268;  733.291
472.148;   87.262;   -8.448;  675.737
472.738;   89.306;   -6.917;  765.466
473.327;   89.139;  -11.978;  637.529
473.916;   88.169;  -11.888;  737.446
474.505;   92.689;   -9.437;  751.703
475.094;   96.488;   -6.747;  806.570
475.683;   95.854;   -9.367;  797.699
476.272;   96.804;  -12.637;  730.632
476.861;   99.269;  -10.027;  706.754
477.449;  105.562;   -8.716;  728.487
478.038;  100.188;   -9.577;  692.513
478.627;  101.362;   -9.718;  714.852
479.216;  108.706;   -8.947;  769.441
479.805;  111.467;   -6.256;  783.375
480.393;  110.327;   -7.937; 1008.945
480.982;  109.953;   -7.717;  874.501
481.571;  116.310;   -9.266;  858.333
482.159;  119.022;   -7.636;  705.386
482.748;  117.981;   -9.667;  821.385
483.336;  121.883;  -10.376;  858.209
483.925;  123.407;   -7.147;  774.373
484.513;  130.108;   -7.996;  758.962
485.102;  127.854;  -10.027;  810.965
485.690;  135.997;  -10.446; 1011.050
486.278;  138.166;   -8.446;  979.329
486.867;  138.817;   -6.356;  809.662
487.455;  141.509;   -9.136;  898.229
488.043;  142.513;  -10.646;  748.361
488.631;  152.364;   -7.456; 1005.079
489.220;  157.219;   -6.636;  908.626
489.808;  156.704;  -11.036;  741.415
490.396;  166.848;  -10.246;  914.645
490.984;  174.130;   -8.556;  830.161
491.572;  186.110;   -5.886;  940.315
492.160;  195.088;   -9.486;  919.081
492.748;  209.396;  -10.976;  884.341
493.336;  233.598;   -8.776; 1019.693
493.924;  265.531;   -5.465;  958.077
494.512;  303.918;   -9.986; 1066.638
495.100;  354.739;  -10.636; 1103.280
495.687;  422.637;  -10.885; 1206.373
496.275;  484.479;   -8.126; 1150.796
496.863;  556.512;  -10.586; 1281.171
497.451;  682.484;  -11.926; 1386.805
498.038;  804.721;  -10.885; 1556.729
498.626;  914.029;   -6.315; 1741.407
499.214; 1088.622;   -7.326; 2016.609
499.801; 1332.907;  -11.906; 2220.633
500.389; 1603.920;  -10.466; 2312.494
500.976; 1872.557;   -5.236; 2744.849
501.564; 2340.094;   -8.936; 3148.565
502.151; 2863.991;  -13.176; 3515.999
502.738; 3429.152;  -10.646; 3971.274
503.326; 3858.743;   -9.525; 4403.796
503.913; 4166.354;  -10.856; 5161.749
504.500; 4707.125;  -11.586; 5986.420
505.088; 5092.755;  -10.336; 6381.201
505.675; 5577.977;   -6.355; 6925.547
506.262; 6093.829;   -9.046; 7619.060
506.849; 6643.748;  -10.416; 8733.969
507.436; 7108.418;  -10.305; 9790.121
508.023; 7587.345;   -5.496; 9985.472
508.610; 8570.765;   -7.856;10434.618
509.197;10090.747;  -10.097;11198.435
509.784;11626.715;  -10.886;12391.194
510.371;13081.870;   -9.315;13603.713
510.958;14011.538;   -9.936;14426.586
511.545;14686.286;   -9.326;15243.775
512.132;15349.369;  -10.075;15945.876
512.719;15464.081;   -7.796;16340.369
513.305;16334.521;  -10.606;18011.766
513.892;17857.059;  -11.486;19754.971
514.479;19826.932;   -9.126;20967.805
515.066;21690.088;   -6.026;22299.793
515.652;22106.426;   -8.466;22908.660
516.239;23120.828;  -10.886;23798.875
516.825;25296.650;  -11.496;25567.275
517.412;27406.912;   -5.796;28154.959
517.998;29587.689;  -10.506;28344.111
518.585;29221.084;  -10.076;27134.219
519.171;27673.307;   -8.315;27268.576
519.758;28535.861;   -8.596;28964.129
520.344;29877.396;   -8.466;30664.494
520.930;32619.133;  -11.006;32550.605
521.516;33113.258;  -10.495;35422.895
522.103;31516.209;   -5.526;38280.004
522.689;31991.012;   -8.746;37835.117
523.275;33805.945;  -11.376;37288.613
523.861;35776.398;  -11.156;37281.395
524.447;39303.973;   -8.135;37846.949
525.033;40517.895;   -7.896;38321.949
525.619;40174.266;  -12.476;38579.285
526.205;40186.195;   -9.516;40622.875
526.791;39799.770;   -6.926;42258.836
527.377;41244.707;   -8.346;42966.902
527.963;43132.438;   -8.717;42018.949
528.549;41961.012;  -11.016;42476.828
529.135;42138.473;   -8.536;41854.852
529.721;41682.449;   -9.666;41237.711
530.306;39815.059;  -10.066;41259.445
530.892;39789.996;  -11.356;41506.047
531.478;39129.375;   -6.596;43559.613
532.063;39508.023;   -8.836;47695.563
532.649;43553.098;  -10.047;50808.324
533.235;45334.117;   -9.746;51787.500
533.820;44462.484;   -6.566;52145.035
534.406;43359.297;  -10.817;51133.488
534.991;46398.156;   -9.416;49996.805
535.576;47774.465;   -9.036;48882.852
536.162;47993.836;   -6.156;46942.285
536.747;49122.352;  -11.607;45711.746
537.333;49631.438;  -11.787;48510.180
537.918;49484.074;  -12.437;50439.891
538.503;50552.574;   -7.196;50863.711
539.088;48308.234;  -10.556;50906.922
539.673;46774.160;   -8.767;52621.965
540.259;47857.797;  -10.026;52368.094
540.844;49811.402;   -7.416;50879.109
541.429;48706.113;   -9.467;52077.777
542.014;48339.383;   -9.527;52716.695
542.599;50577.512;   -9.946;52363.281
543.184;53596.883;   -7.927;53187.137
543.769;52341.742;   -9.297;54697.605
544.354;48603.094;  -10.127;53913.914
544.938;46220.223;   -9.267;49680.164
545.523;48580.590;   -6.506;47386.277
546.108;52916.398;   -9.787;49151.949
546.693;52324.098;  -11.587;51384.637
547.278;51953.203;  -10.986;51853.254
547.862;48560.203;   -8.206;51173.750
548.447;45929.934;  -10.067;51691.395
549.031;46788.789;   -9.637;52456.703
549.616;47852.672;   -9.926;52714.516
550.201;46705.004;   -6.347;52414.598
550.785;46012.383;   -7.917;52355.059
551.370;46962.270;  -10.867;54589.453
551.954;47858.875;   -9.047;58267.348
552.538;49145.949;   -7.827;59062.176
553.123;48862.926;  -10.287;58115.285
553.707;44307.621;  -12.178;56556.285
554.291;45278.738;   -8.717;56201.668
554.876;48890.867;   -7.457;55335.762
555.460;50097.723;  -10.387;54155.703
556.044;50802.117;   -9.618;53721.484
556.628;49951.211;  -11.567;53731.016
557.212;47875.504;   -8.097;54312.531
557.796;48976.445;  -11.077;53797.773
558.380;46817.371;  -11.108;56145.984
558.964;45463.863;   -9.057;57277.930
559.548;45539.063;   -6.977;56459.641
560.132;44739.398;  -11.457;54434.543
560.716;43557.461;  -11.378;54800.617
561.300;44531.191;   -9.577;57606.945
561.884;46586.883;   -7.127;58972.445
562.467;47389.223;   -7.118;57327.570
563.051;47005.496;  -13.358;54962.434
563.635;44668.848;  -10.178;52594.473
564.219;44024.410;   -7.837;50610.410
564.802;43537.805;  -11.398;49551.180
565.386;44602.109;  -12.788;48370.953
565.969;45370.457;   -9.077;48178.871
566.553;45725.094;   -6.207;49957.305
567.136;42965.867;   -8.568;50369.594
567.720;41892.805;  -11.868;49492.004
568.303;41894.082;   -8.268;50616.352
568.887;40471.520;   -8.698;50727.148
569.470;40592.445;   -6.808;51698.379
570.053;39126.957;  -13.188;52122.078
570.637;37666.117;  -12.037;52536.438
571.220;37136.020;   -8.577;51186.098
571.803;37671.898;   -8.498;51032.762
572.386;40356.758;  -10.498;49609.887
572.969;42245.609;   -9.388;48285.926
573.552;38504.996;   -8.338;47624.285
574.135;36311.898;   -8.518;45498.641
574.718;32976.426;  -13.628;41970.434
575.301;32430.660;  -10.893;41447.137
575.884;31884.895;   -8.158;40923.836
576.467;36921.234;  -10.328;45267.723
577.050;35493.828;  -13.058;48175.543
577.633;34263.547;   -9.458;47729.328
578.216;35477.078;   -8.928;47579.793
578.799;36667.711;   -9.358;47820.996
579.381;36347.754;  -11.388;48115.551
579.964;33433.621;  -11.718;47333.766
580.547;33353.891;   -8.588;46668.969
581.129;34906.418;   -8.859;44466.141
581.712;35319.750;  -10.729;44164.922
582.294;36555.090;  -11.118;46477.855
582.877;34355.090;   -5.218;48244.254
583.459;34322.492;   -8.679;47437.895
584.042;36318.422;  -10.709;46943.219
584.624;38589.266;  -11.669;46792.227
585.206;37604.965;   -8.218;46557.250
585.789;36089.098;  -10.569;45793.773
586.371;36202.844;  -11.859;43836.391
586.953;34679.543;  -10.719;42972.492
587.536;36145.574;   -7.198;42487.211
588.118;37613.582;   -8.720;42086.414
588.700;37079.738;  -10.439;43389.930
589.282;37158.129;   -9.198;43646.039
589.864;36014.457;   -9.199;43438.109
590.446;33606.438;  -11.319;43151.926
591.028;33204.898;  -11.159;42781.867
591.610;33244.520;  -11.779;42839.098
592.192;30323.770;   -7.668;42820.402
592.774;31068.436;  -11.949;40724.277
593.356;32118.666;  -12.129;39874.789
593.937;30173.256;  -10.669;39980.648
594.519;31531.432;   -6.509;42069.633
595.101;33535.078;  -10.849;42976.031
595.683;32364.695;  -11.679;44084.441
596.264;31724.264;   -9.049;43478.797
596.846;33569.125;   -8.849;43803.672
597.427;33700.828;   -9.570;42986.934
598.009;34547.074;  -12.620;42832.219
598.591;33868.285;  -10.039;42580.086
599.172;33025.559;  -10.369;43061.805
599.753;31324.188;   -9.140;41691.469
600.335;31167.273;  -11.430;40692.520
600.916;31877.520;   -9.939;39982.422
601.498;30747.500;   -8.479;40318.617
602.079;29236.092;  -10.920;40670.609
602.660;31297.225;  -11.480;41450.898
603.241;33003.668;  -11.699;41137.738
603.823;33355.477;   -9.579;38868.797
604.404;32906.836;  -10.620;38182.785
604.985;31568.709;  -10.450;38078.047
605.566;31002.799;   -9.129;38056.633
606.147;30845.643;   -7.510;37020.418
606.728;31861.357;  -10.660;37883.359
607.309;32839.559;  -11.740;38748.273
607.890;32572.621;   -9.759;38850.230
608.471;31155.279;   -8.250;37457.918
609.051;31579.520;   -9.240;36066.457
609.632;29788.691;  -12.120;35991.074
610.213;28497.195;   -9.110;37402.641
610.794;30108.039;   -8.030;38383.363
611.374;32635.988;   -8.110;40562.387
611.955;32684.334;  -13.560;38533.727
612.536;30126.359;  -11.400;36951.789
613.116;28870.543;   -8.070;37197.891
613.697;30914.361;  -10.830;38411.125
614.277;32261.076;  -11.641;38673.938
614.858;31678.402;  -13.310;37075.863
615.438;30141.336;   -7.460;35092.906
616.019;28459.199;   -7.601;33666.301
616.599;29091.260;  -12.020;34189.023
617.179;30747.648;  -11.780;36952.047
617.760;33330.523;   -8.570;39582.574
618.340;33484.590;  -11.471;38943.977
618.920;32071.107;  -11.170;37594.156
619.500;34004.148;  -11.071;37866.938
620.080;34266.418;   -7.750;37869.043
620.660;32509.482;  -12.711;36868.617
621.241;30969.584;  -10.211;36352.309
621.821;29825.020;  -10.961;35459.520
622.401;28914.316;   -7.720;35207.414
622.980;30028.695;   -8.981;35980.422
623.560;30357.332;   -9.331;37351.328
624.140;29264.203;   -9.850;34388.582
624.720;26983.727;   -7.451;32368.764
625.300;25322.607;   -9.070;32638.629
625.880;28723.129;  -12.601;34599.035
626.459;30620.457;  -11.751;36831.738
627.039;31288.045;   -9.281;38299.098
627.619;33151.332;   -8.801;38289.574
628.198;32485.600;  -12.071;37220.695
628.778;31275.963;   -9.461;37632.563
629.357;32301.600;   -8.491;38003.012
629.937;32550.016;   -9.721;38402.039
630.516;32746.707;   -9.951;37868.801
631.096;33023.996;  -11.731;35760.410
631.675;34286.469;   -8.572;35225.219
632.254;33851.828;  -11.282;35130.289
632.834;33333.949;  -13.322;35794.570
633.413;32991.648;  -10.301;35788.922
633.992;32158.775;   -8.582;34532.863
634.571;33630.922;   -8.352;33590.113
635.151;33746.262;  -11.912;34943.863
635.730;32936.496;  -10.511;35352.523
636.309;35067.250;   -7.731;35366.605
636.888;33130.629;   -9.952;36165.637
637.467;31319.609;  -11.672;37515.902
638.046;31196.449;   -8.901;39288.695
638.625;32044.088;   -7.912;38279.699
639.204;32511.420;  -10.022;37741.598
639.782;30709.977;  -12.252;38364.551
640.361;28827.373;  -10.041;36740.621
640.940;27834.205;  -11.161;34950.082
641.519;28929.539;   -9.701;34137.398
642.097;30769.852;  -11.271;35654.258
642.676;32364.174;   -8.651;35637.957
643.255;33546.934;   -8.711;36567.074
643.833;31142.902;   -9.581;37809.434
644.412;28749.787;  -13.711;37337.293
644.990;30573.564;  -11.811;37018.531
645.569;33240.063;   -9.411;36518.469
646.147;32613.492;  -10.291;36186.430
646.726;31448.031;  -12.401;36267.688
647.304;31412.445;  -10.411;36647.625
647.882;30620.412;   -9.651;39286.742
648.461;31983.170;   -9.631;39157.703
649.039;35303.707;  -11.881;35412.883
649.617;35506.898;   -9.661;34744.918
650.195;33266.781;   -9.301;35403.098
650.773;32201.979;  -10.511;35053.797
651.352;31491.844;  -11.521;33756.816
651.930;28946.959;  -12.211;31868.773
652.508;25780.627;   -9.171;33121.551
653.086;26704.172;   -9.371;33564.793
653.663;32326.430;  -13.161;34054.668
654.241;35962.320;  -13.031;35693.309
654.819;36969.988;   -9.371;36422.906
655.397;37038.531;  -10.511;38213.484
655.975;33573.867;  -10.371;39507.625
656.553;30554.863;  -10.051;39498.223
657.130;29093.021;  -10.061;40395.480
657.708;27161.230;   -9.561;39242.020
658.286;24395.369;  -11.511;38920.020
658.863;26366.980;  -10.261;40202.898
659.441;30328.973;   -7.531;39677.938
660.018;32287.482;   -9.501;40413.355
660.596;31441.785;  -13.301;39931.414
661.173;30995.758;  -11.211;39604.531
661.750;32664.109;   -9.951;39700.070
662.328;31741.287;   -9.390;39292.809
662.905;30586.885;  -11.330;38235.648
663.482;28170.168;   -9.050;36212.305
664.060;25445.150;   -8.240;35944.945
664.637;26116.736;  -10.050;35170.785
665.214;29515.537;  -11.760;34197.523
665.791;30254.715;  -10.530;34549.520
666.368;28949.598;   -9.690;35118.578
666.945;30015.473;   -9.320;36019.418
667.522;30410.600;  -11.860;36048.438
668.099;31740.059;  -10.770;36243.914
668.676;31759.775;   -6.260;35958.875
669.253;34407.742;   -7.000;37384.730
669.830;35898.328;  -10.190;36779.629
670.407;32818.668;   -9.550;35231.289
670.984;33249.242;   -9.260;35544.270
671.560;30584.057;   -9.280;35466.867
672.137;26305.924;  -11.810;34280.863
672.714;28057.719;  -11.490;34632.863
673.290;31701.311;   -7.740;35135.422
673.867;31294.104;  -10.660;36114.480
674.443;31442.863;  -12.230;36152.859
675.020;31204.412;  -10.450;35327.238
675.596;30030.814;   -9.260;35795.176
676.173;29036.818;  -10.780;35430.355
676.749;28608.092;  -13.690;33549.516
677.326;28534.902;  -11.980;32210.012
677.902;27999.539;   -8.630;32068.871
678.478;29577.895;  -10.730;32583.891
679.054;30308.008;  -10.520;32088.928
679.631;29747.658;  -11.920;30978.848
680.207;29765.369;   -7.490;33160.887
680.783;31501.066;   -9.860;35570.363
681.359;32819.320;  -13.380;36125.184
681.935;33336.941;  -12.480;35240.922
682.511;32623.176;   -7.900;34429.961
683.087;31511.934;   -7.710;34463.680
683.663;31156.584;  -11.480;34648.898
684.239;29952.391;  -14.090;34546.457
684.815;28931.318;   -7.560;35586.375
685.390;29318.258;   -9.910;35821.895
685.966;30601.668;  -11.159;35085.871
686.542;31999.441;  -11.169;34198.230
687.118;33410.758;   -5.959;32847.707
687.693;32418.135;  -10.329;32794.027
688.269;33199.770;  -12.059;33072.367
688.844;33384.191;  -10.909;33141.664
689.420;30757.453;   -8.019;33965.742
689.995;29393.391;   -8.399;34655.523
690.571;30916.514;  -10.949;33576.742
691.146;30570.104;   -9.619;32657.219
691.722;28933.475;   -8.999;32526.979
692.297;28193.133;  -11.589;33014.617
692.872;28202.695;  -11.739;34012.254
693.448;30997.420;  -11.059;34237.434
694.023;31613.893;  -10.139;34142.672
694.598;29532.105;   -9.029;34132.031
695.173;30493.680;  -13.319;34205.250
695.748;31068.807;  -10.169;32882.488
696.323;28854.703;   -8.339;32864.906
696.898;27164.584;   -8.169;33170.004
697.473;27639.730;  -12.309;32432.984
698.048;27694.977;  -10.989;31649.303
698.623;26511.586;   -9.329;30778.141
699.198;27466.637;   -9.849;31140.119
699.773;28489.072;  -12.329;31764.299
700.348;29785.482;  -10.389;31780.816
700.922;30061.186;   -9.269;32046.375
701.497;30898.787;   -9.329;32603.574
702.072;31989.457;  -10.789;34799.871
702.646;31018.711;  -10.839;35793.172
703.221;30345.629;   -9.099;35201.590
703.795;32303.652;  -10.939;34764.527
704.370;29817.160;  -12.859;34307.367
704.944;28248.416;  -11.559;33509.887
705.519;29137.143;   -7.939;31388.584
706.093;31282.564;  -10.499;31340.104
706.668;33525.664;  -11.289;32630.281
707.242;32991.578;  -11.509;32728.779
707.816;30983.150;   -9.639;32947.238
708.390;29709.150;  -11.429;33277.855
708.965;29093.021;  -11.869;33834.336
709.539;30565.635;  -11.689;33709.273
710.113;30975.088;  -10.478;33044.313
710.687;30168.217;  -10.228;31953.992
711.261;29301.387;  -13.698;30505.949
711.835;29754.943;  -13.378;30262.369
712.409;28868.205;   -9.698;31254.447
712.983;28214.893;  -11.898;32754.986
713.557;30566.146;  -15.138;34018.824
714.131;28833.551;  -14.098;34579.625
714.704;28365.387;   -9.958;33890.262
715.278;30389.654;  -10.028;33531.102
715.852;28982.891;  -11.148;33601.660
716.425;27858.777;   -9.068;33515.117
716.999;26568.346;  -10.038;33185.555
717.573;26411.211;   -9.798;33905.996
718.146;25845.400;  -12.378;35199.293
718.720;26108.867;  -11.918;35060.551
719.293;26464.373;   -8.088;34973.230
719.867;28765.285;  -10.888;36394.449
720.440;30553.254;  -11.938;36663.008
721.013;31220.008;  -12.818;35102.426
721.587;29088.982;  -10.298;33985.266
722.160;27211.227;  -10.048;33524.965
722.733;26487.813;  -12.108;32987.043
723.306;26726.938;  -10.818;33066.301
723.880;28465.529;   -8.908;33399.500
724.453;28049.605;   -9.878;33468.297
725.026;28212.408;  -11.188;33816.637
725.599;30943.916;  -11.678;32797.996
726.172;30418.627;   -9.618;33187.434
726.745;27764.820;   -8.258;35136.613
727.318;27273.537;  -12.978;35751.730
727.891;26856.018;  -12.148;35890.430
728.463;26054.979;   -8.968;34822.090
729.036;25813.816;  -10.188;32895.086
729.609;25710.826;  -11.788;31823.225
730.182;23788.826;  -11.788;31445.283
730.754;22439.031;  -10.268;32373.223
731.327;22526.152;   -9.998;33676.820
731.900;23729.627;  -12.228;33417.000
732.472;23777.848;  -13.848;31978.498
733.045;23058.670;   -8.698;30368.777
733.617;22508.869;  -10.607;30574.215
734.190;24274.162;  -11.507;31280.975
734.762;25147.350;  -13.647;31674.412
735.334;26477.373;   -9.767;31247.291
735.907;26996.512;   -9.897;29876.211
736.479;26598.938;  -11.637;29808.488
737.051;27549.506;   -9.567;30233.547
737.623;27069.508;   -8.187;31469.086
738.195;25904.670;  -11.187;31784.225
738.768;24693.906;  -12.337;32120.523
739.340;23043.256;  -12.227;32094.342
739.912;22237.902;  -11.057;31312.680
740.484;22280.633;  -10.207;31946.238
741.056;21966.201;  -10.047;32984.059
741.628;22893.908;  -13.627;33897.715
742.199;23742.143;   -7.177;33213.016
742.771;25848.688;  -10.797;31369.113
743.343;26707.486;  -11.997;31865.473
743.915;26471.826;  -12.867;32388.631
744.487;24000.453;   -7.617;31079.568
745.058;21142.502;   -9.557;30570.107
745.630;22191.914;   -9.877;29970.127
746.201;23844.350;  -14.177;29186.766
746.773;24411.568;   -9.237;28805.723
747.344;22566.885;   -9.847;29591.223
747.916;20773.607;  -11.657;31412.201
748.487;21811.357;  -10.587;32194.898
749.059;23586.916;   -8.707;32533.719
749.630;23821.725;  -10.537;32158.518
750.201;23157.721;  -11.687;30855.395
750.773;21896.258;  -11.647;28622.555
751.344;21618.227;   -7.147;28405.732
751.915;23583.221;   -9.757;28461.551
752.486;24651.258;  -12.427;27842.850
753.057;23661.150;  -12.227;27845.008
753.628;23738.705;  -10.417;27728.107
754.199;23292.467;  -11.767;27381.086
754.770;22891.531;  -11.187;25882.203
755.341;21934.779;  -10.507;25886.184
755.912;20360.582;   -9.387;26050.861
756.483;18863.590;  -10.647;26798.779
757.054;19306.004;  -11.837;27048.238
757.625;19368.568;  -12.716;26294.838
758.195;19176.242;   -9.666;26142.076
758.766;19489.232;   -8.656;26392.234
759.337;19040.762;  -12.856;26334.594
759.907;18816.008;  -13.366;27579.652
760.478;18516.445;   -8.576;28352.770
761.048;19422.207;  -10.526;27325.088
761.619;19543.855;  -11.116;26460.428
762.189;18249.904;  -12.136;26029.826
762.760;17921.164;   -9.456;26430.145
763.330;18382.924;   -7.136;26670.902
763.900;18577.373;  -11.786;26603.021
764.471;18048.904;  -11.546;25542.740
765.041;17109.656;   -8.096;24358.459
765.611;16383.661;   -8.876;23991.297
766.181;16347.397;  -12.196;24470.236
766.751;16110.770;  -11.636;24845.975
767.321;17072.443;  -10.156;24533.633
767.891;16485.146;  -11.766;24916.492
768.461;16647.209;  -14.936;24776.771
769.031;17643.908;  -12.356;24757.988
769.601;18295.488;   -7.526;24181.088
770.171;18116.418;  -10.766;23670.387
770.741;17333.250;  -13.176;22960.045
771.311;16912.961;  -10.616;22917.523
771.880;17232.074;   -9.576;23562.941
772.450;16923.285;  -10.336;24216.500
773.020;16471.568;  -13.516;24140.398
773.589;16986.586;  -13.466;24414.857
774.159;16825.959;   -8.686;23858.717
774.729;15576.016;   -9.476;22942.135
775.298;13901.306;  -13.666;22324.033
775.867;13559.162;  -11.716;21140.313
776.437;13724.031;   -9.906;20838.092
777.006;13057.305;  -12.166;20599.510
777.576;12532.516;  -12.356;20508.809
778.145;12455.131;  -11.646;20732.947
778.714;12873.970;   -8.226;21062.465
779.283;13833.768;   -9.556;20949.664
779.853;14455.398;  -14.116;20508.623
780.422;13910.755;  -11.506;20649.082
780.991;13434.126;   -9.556;21527.520
781.560;13111.720;   -9.095;22632.658
782.129;12992.710;  -12.135;23048.277
782.698;12915.490;  -10.865;23438.555
783.267;12532.631;   -9.335;23267.734
783.836;12569.341;  -11.045;22415.133
784.404;13244.700;  -13.865;20443.152
784.973;12590.580;  -13.095;19699.150
785.542;11328.817;  -11.575;19763.828
786.111;10742.756;   -9.705;20341.408
786.679;11399.856;  -12.105;20207.967
787.248;11646.242;  -12.455;19516.465
787.817;11313.142;  -11.535;18900.363
788.385;11439.448;   -9.765;17879.121
788.954;11512.467;  -14.005;17658.301
789.522;10961.410;  -11.955;17788.879
790.090;11150.246;  -10.135;18118.277
790.659;12068.030;  -10.975;18338.736
791.227;11968.673;  -13.375;18508.615
791.795;11357.230;  -12.375;17898.254
792.364;10858.903;  -10.725;17295.133
792.932;11020.263;   -9.715;16822.051
793.500;11170.448;  -12.675;17040.148
794.068;10964.322;  -13.495;17179.787
794.636; 9855.856;  -10.885;16664.246
795.204; 8866.156;  -11.045;16524.545
795.772; 9505.316;  -13.175;17274.564
796.340;10619.430;  -12.445;17891.002
796.908;10409.501;   -9.735;17648.561
797.476;10741.431;   -9.815;17064.080
798.044;11516.775;  -13.985;16672.777
798.612;11350.185;  -13.115;17023.996
799.180;10155.483;  -10.185;16561.615
799.747; 9173.902;   -9.055;15962.773
800.315; 8493.328;  -12.385;15296.992
800.883; 8719.407;  -15.035;14801.771
801.450; 9026.579;  -10.365;14534.430
802.018; 9172.834;   -9.855;14173.248
802.585; 9339.184;  -11.905;14029.547
803.153; 8918.768;  -11.585;13836.846
803.720; 8304.615;   -9.095;13567.324
804.287; 8361.479;   -9.135;13360.622
804.855; 8679.304;  -11.604;13681.981
805.422; 8809.974;  -11.794;13536.560
805.989; 8675.342;  -10.734;13355.958
806.556; 8230.212;  -10.444;13747.896
807.124; 8090.157;  -12.764;13987.376
807.691; 8651.076;  -12.964;14038.674
808.258; 9030.480;  -11.134;14120.152
808.825; 9200.108;   -9.854;13860.111
809.392; 8883.230;  -10.504;13268.790
809.959; 8454.113;  -13.054;12680.389
810.526; 8304.696;   -8.294;12427.308
811.093; 7988.502;   -8.394;12030.105
811.659; 7272.794;  -12.304;11653.664
812.226; 7073.730;  -13.944;11637.183
812.793; 7563.487;  -10.484;11611.521
813.360; 7683.597;  -10.144;11885.181
813.926; 7003.927;  -11.684;12770.539
814.493; 6403.112;  -13.644;12677.638
815.060; 6242.997;   -9.724;11974.336
815.626; 6547.820;   -9.854;11594.715
816.193; 6589.065;  -13.254;11579.474
816.759; 6570.829;  -13.204;11666.972
817.325; 6358.246;   -9.434;11325.530
817.892; 6052.525;  -10.134;11105.369
818.458; 5986.209;  -13.474;10843.928
819.024; 5980.704;  -11.854;10714.406
819.591; 6258.089;  -10.244;10469.165
820.157; 6367.279;  -10.704;10235.523
820.723; 6642.619;  -12.324;10847.563
821.289; 7052.164;   -9.444;11040.980
821.855; 7094.689;   -8.374;10357.100
822.421; 6697.842;  -10.234; 9978.918
822.987; 6450.623;  -13.294; 9754.177
823.553; 6317.630;  -10.884;10065.755
824.119; 5899.279;   -8.884;10036.294
824.685; 5717.347;   -6.784;10029.192
825.251; 5666.877;  -12.004;10199.230
825.816; 5782.423;  -11.474; 9820.189
826.382; 5565.139;   -9.174; 9297.248
826.948; 5274.627;   -9.214; 9381.347
827.513; 5044.163;  -10.774; 9450.726
828.079; 5005.106;  -11.924; 9472.444
828.645; 5092.679;  -10.543; 9292.643
829.210; 5294.389;  -10.533; 9065.341
829.776; 5309.414;  -10.753; 9132.620
830.341; 5221.741;  -10.173; 9092.878
830.906; 5321.769;  -10.743; 9078.557
831.472; 5199.994;  -11.113; 8534.535
832.037; 4711.884;  -10.603; 8677.874
832.602; 4621.155;  -13.323; 8628.692
833.167; 4980.772;  -10.823; 8879.031
833.733; 4952.551;  -10.113; 9189.790
834.298; 4691.335;  -13.583; 9052.608
834.863; 4562.377;  -12.703; 8895.087
835.428; 4444.649;  -10.523; 8824.266
835.993; 4390.707;   -6.963; 8845.385
836.558; 4475.975;  -10.763; 8888.563
837.123; 4590.438;   -9.903; 8966.582
837.688; 4436.346;   -9.913; 8617.860
838.253; 4302.270;  -10.283; 8590.699
838.817; 4455.275;  -12.963; 8443.797
839.382; 4607.693;  -14.243; 8799.356
839.947; 4467.097;  -10.733; 8810.595
840.511; 4554.758;   -9.383; 8796.394
841.076; 4616.963;  -12.563; 8347.231
841.641; 4439.122;  -12.953; 8224.330
842.205; 4148.002;   -7.043; 8223.349
842.770; 4083.814;   -8.163; 8622.107
843.334; 4132.948;  -12.503; 8410.386
843.898; 4121.183;  -11.693; 8337.465
844.463; 4022.099;  -10.203; 8506.283
845.027; 3919.494;   -9.533; 8280.962
845.591; 3954.780;  -13.443; 8231.141
846.156; 3874.407;  -13.143; 7969.179
846.720; 3684.737;   -9.433; 7768.278
847.284; 3395.955;  -11.033; 7630.957
847.848; 3241.742;  -10.403; 7472.395
848.412; 3264.153;  -11.553; 7437.394
848.976; 3456.635;   -8.393; 7674.592
849.540; 3510.791;   -8.713; 7836.011
850.104; 3487.920;  -12.463; 7913.669
850.668; 3607.130;  -12.973; 7694.508
851.232; 3629.900;  -10.793; 7756.887
851.796; 3538.064;  -10.662; 7926.545
852.359; 3570.033;  -13.082; 7827.844
852.923; 3340.601;  -12.192; 7641.163
853.487; 3254.747;  -11.912; 7342.501
854.050; 3418.065;  -10.892; 7042.820
854.614; 3405.328;  -13.992; 7151.338
855.177; 3276.953;  -11.732; 7105.077
855.741; 3187.066;   -8.962; 6989.675
856.304; 3080.585;   -9.442; 6596.634
856.868; 2839.230;  -14.192; 6356.272
857.431; 2629.874;  -12.702; 6468.571
857.995; 2672.022;   -9.942; 6373.210
858.558; 2707.017;   -9.112; 6324.448
859.121; 2529.724;  -12.932; 6408.327
859.684; 2461.176;  -13.442; 6347.886
860.247; 2864.024;  -10.632; 6321.264
860.810; 3187.916;  -11.272; 6301.903
861.374; 3192.623;   -9.832; 6607.881
861.937; 3158.031;  -11.762; 6408.200
862.500; 3032.441;   -9.722; 6572.639
863.062; 2742.624;  -10.512; 6387.297
863.625; 2627.971;  -11.232; 6190.836
864.188; 2623.246;  -14.112; 5807.254
864.751; 2626.233;  -11.302; 5682.413
865.314; 2741.799;  -10.112; 5547.492
865.876; 2779.251;  -12.182; 5500.150
866.439; 2699.917;  -10.722; 5415.909
867.002; 2553.757;   -9.252; 5501.567
867.564; 2454.061;   -9.572; 5413.946
868.127; 2329.240;  -13.142; 5160.325
868.689; 2058.365;  -12.902; 5133.183
869.252; 1926.822;   -9.732; 5252.382
869.814; 1938.031;   -9.432; 5297.141
870.377; 2037.054;  -11.552; 5390.919
870.939; 2020.968;   -9.052; 5599.898
871.501; 1946.780;  -10.982; 5248.336
872.063; 1965.156;  -12.292; 4854.235
872.626; 1960.514;  -14.912; 4817.074
873.188; 1958.724;  -13.112; 4987.732
873.750; 1915.473;  -13.442; 4868.651
874.312; 1972.495;   -9.402; 4779.330
874.874; 2103.583;  -11.062; 4866.348
875.436; 1993.025;  -13.931; 4718.887
875.998; 1712.693;   -9.561; 4660.005
876.560; 1566.365;  -11.321; 4462.964
877.122; 1561.068;  -12.221; 4145.042
877.683; 1537.699;  -12.191; 4056.481
878.245; 1617.353;  -12.101; 3950.740
878.807; 1766.055;   -8.971; 4058.958
879.369; 1804.179;  -12.071; 3954.677
879.930; 1739.065;  -14.621; 3941.495
880.492; 1576.264;  -10.311; 4067.014
881.053; 1423.293;  -10.901; 3859.633
881.615; 1401.279;  -14.411; 3776.071
882.176; 1430.744;  -13.761; 3734.750
882.738; 1452.083;   -9.181; 3678.489
883.299; 1413.472;  -11.791; 3405.407
883.860; 1333.907;  -13.121; 3351.106
884.422; 1228.068;  -11.211; 3394.044
884.983; 1154.122;  -10.091; 3166.443
885.544; 1132.669;   -8.461; 3189.802
886.105; 1077.737;  -12.361; 3160.360
886.666; 1003.389;  -14.141; 3093.059
887.227;  974.328;  -11.361; 2941.957
887.788;  989.882;  -11.401; 2974.836
888.349;  947.315;  -13.791; 2721.214
888.910;  855.089;  -13.191; 2696.493
889.471;  756.936;   -9.881; 2560.172
890.032;  687.943;   -9.881; 2558.190
890.593;  686.639;  -10.371; 2567.669
891.153;  688.307;  -13.301; 2460.307
891.714;  627.315;  -11.431; 2372.046
892.275;  576.591;  -11.291; 2309.505
892.835;  564.201;  -11.471; 2382.543
893.396;  551.599;  -11.541; 2295.502
893.956;  545.914;  -11.181; 2162.420
894.517;  531.420;  -11.741; 2125.439
895.077;  484.416;  -11.671; 2086.978
895.638;  434.293;  -11.311; 2126.316
896.198;  414.985;   -9.831; 1838.275
896.758;  416.254;   -8.421; 1892.813
897.319;  410.078;  -12.351; 1792.232
897.879;  392.539;  -13.511; 1762.751
898.439;  366.584;  -12.001; 1661.149
898.999;  348.281;  -10.180; 1781.468
899.559;  333.444;  -12.030; 1703.347
900.119;  326.316;  -15.710; 1537.525
900.679;  306.985;   -8.900; 1638.384
901.239;  280.476;   -8.340; 1527.902
901.799;  265.881;  -13.910; 1456.441
902.359;  256.886;  -13.460; 1357.140
902.919;  251.665;  -11.490; 1331.118
903.479;  249.451;  -12.110; 1317.257
904.038;  242.064;  -11.720; 1262.595
904.598;  227.661;  -13.610; 1152.034
905.158;  216.260;  -11.040; 1240.893
905.717;  210.580;  -10.900; 1233.691
906.277;  204.655;  -15.080; 1217.330
906.836;  202.505;  -13.380; 1222.408
907.396;  199.977;  -10.780; 1193.047
907.955;  193.834;   -8.500; 1182.526
908.515;  185.129;  -12.760; 1099.364
909.074;  182.165;  -11.900; 1092.863
909.633;  180.030;   -8.950; 1069.121
910.192;  175.909;   -8.770; 1196.460
910.752;  172.502;  -12.390; 1029.960
911.311;  169.037;  -13.680; 1009.780
911.870;  165.019;  -12.370;  971.460
912.429;  161.678;  -10.900; 1094.080
912.988;  159.022;  -11.690; 1081.060
913.547;  154.912;  -13.240;  940.380
914.106;  154.551;  -11.990;  999.420
914.665;  153.763;   -9.990;  984.020
915.224;  152.861;  -12.880; 1035.760
915.782;  151.963;  -12.350;  922.560
916.341;  152.454;   -9.110; 1049.840
916.900;  150.720;   -9.270;  925.260
917.458;  147.037;  -13.240;  884.220
918.017;  145.256;  -13.550;  942.600
918.576;  145.106;  -12.320;  904.440
919.134;  144.445;  -11.490;  837.980
919.693;  143.503;  -13.670;  893.060
920.251;  141.319;  -15.470;  876.500
920.809;  140.568;  -11.290;  839.580
921.368;  140.039;  -10.210;  885.360
921.926;  139.940;  -12.140;  842.940
922.484;  138.364;  -13.080;  903.360
923.042;  138.684;  -11.720;  880.340
923.601;  140.428;   -7.480;  998.680
924.159;  139.108;  -11.570;  935.560
924.717;  137.140;  -13.840;  841.080
925.275;  139.237;  -10.640;  903.240
925.833;  138.021;  -11.540;  779.320
926.391;  139.297;  -12.960;  938.380
926.949;  138.497;  -14.130;  857.680
927.506;  139.275;  -11.750;  903.500
928.064;  137.548;  -10.250;  877.580
928.622;  136.509;  -13.030;  880.100
929.180;  137.075;  -13.400;  814.180
929.737;  139.730;  -10.700;  808.540
930.295;  141.296;  -10.070;  928.480
930.853;  140.576;  -11.960;  849.100
931.410;  139.608;  -13.120;  821.120
931.968;  140.973;  -10.770;  940.660
932.525;  142.417;  -10.680;  909.380
933.082;  143.955;  -13.130;  811.440
933.640;  149.748;  -13.210;  925.900
934.197;  151.141;  -11.060;  886.360
934.754;  150.820;   -9.580;  897.780
935.312;  151.715;  -14.000;  863.340
935.869;  155.320;  -10.710; 1012.980
936.426;  153.752;   -9.860;  872.800
936.983;  151.722;   -9.710;  889.020
937.540;  149.931;  -13.990;  838.280
938.097;  149.581;  -14.040;  940.120
938.654;  152.807;  -10.310;  898.860
939.211;  153.062;  -10.560;  952.480
939.768;  151.324;  -13.900;  915.420
940.324;  152.149;  -14.760;  904.200
940.881;  156.970;  -10.370;  878.500
941.438;  163.096;   -8.260; 1021.200
941.995;  164.006;  -12.540;  992.560
942.551;  161.747;  -14.670;  875.620
943.108;  162.101;  -10.450;  937.920
943.664;  162.994;  -10.750;  869.340
944.221;  168.453;  -11.550; 1088.140
944.777;  170.153;  -14.770;  869.680
945.334;  169.415;  -12.820;  884.840
945.890;  168.315;  -10.130;  946.480
946.446;  165.372;  -13.470;  947.020
947.003;  165.107;  -12.120;  964.940
947.559;  166.045;   -9.980; 1063.040
948.115;  162.351;   -9.080; 1026.540
948.671;  159.012;  -10.830;  967.300
949.227;  157.251;  -12.440;  859.560
949.783;  157.617;  -12.910;  858.900
950.339;  159.785;  -10.270;  991.000
950.895;  160.099;  -13.630; 1023.840
951.451;  158.995;  -15.100;  925.280
952.007;  158.721;  -11.330;  998.540
952.563;  156.872;  -10.580;  937.780
953.118;  152.822;  -13.440;  904.940
953.674;  149.342;  -12.710;  935.780
954.230;  152.259;  -10.350;  949.640
954.785;  155.303;   -9.190;  936.640
955.341;  155.447;  -11.200;  998.160
955.897;  153.074;  -16.560;  834.660
956.452;  150.808;  -12.570;  953.840
957.008;  149.310;   -7.970; 1083.640
957.563;  147.841;  -11.940; 1009.540
958.118;  145.844;  -13.450;  877.700
958.674;  145.427;  -12.030;  946.780
959.229;  145.912;   -9.410; 1013.980
959.784;  144.180;  -12.000;  832.400
960.339;  140.387;  -14.780; 1001.280
960.894;  135.609;   -9.860;  963.760
961.449;  129.630;   -9.970;  859.960
962.004;  127.690;  -10.900; 1212.840
962.559;  122.621;  -13.150;  860.140
963.114;  120.798;  -13.740;  742.480
963.669;  123.438;   -9.820;  915.500
964.224;  122.364;  -13.890;  874.340
964.779;  122.093;  -12.600;  828.420
965.334;  122.703;  -10.950; 1017.860
965.888;  121.427;  -11.170;  875.360
966.443;  121.933;  -12.540;  972.380
966.998;  121.215;  -15.780;  819.460
967.552;  121.861;   -9.760;  908.380
968.107;  116.391;   -9.060;  868.300
968.661;  114.557;  -11.950;  922.440
969.216;  113.893;  -12.800;  856.280
969.770;  113.811;  -11.210;  917.200
970.324;  111.188;  -11.610;  923.140
970.879;  109.397;  -11.370;  947.180
971.433;  108.009;  -12.540;  952.720
971.987;  106.994;  -11.320;  895.340
972.541;  105.054;  -10.720;  917.100
973.095;  106.371;   -9.680; 1009.460
973.649;  105.296;  -11.440;  809.480
974.203;  106.129;  -11.210;  829.040
974.757;  105.958;  -10.240;  855.220
975.311;  106.544;  -13.720;  872.600
975.865;  106.714;  -13.770;  881.820
976.419;  105.863;  -11.690;  857.400
976.973;  105.201;   -9.510;  849.620
977.526;  105.419;  -12.620;  949.920
978.080;  101.333;  -12.010;  796.780
978.634;  101.034;  -10.170;  921.320
979.187;   97.328;   -9.020;  905.400
979.741;   96.486;   -9.820; 1018.380
980.294;   91.992;  -14.870;  789.160
980.848;   87.964;  -12.380;  717.220
981.401;   88.934;  -10.350;  816.540
981.955;   87.800;  -13.720;  844.300
982.508;   85.301;  -11.490;  746.340
983.061;   85.066;  -10.000;  915.260
983.615;   84.590;  -11.480;  798.800
984.168;   83.418;  -13.220;  770.080
984.721;   83.095;  -13.960;  880.760
985.274;   82.156;  -10.870;  867.500
985.827;   80.184;   -9.790;  834.220
986.380;   78.373;  -13.120;  721.340
986.933;   79.433;  -12.450;  864.800
987.486;   79.068;  -10.210;  861.920
988.039;   78.803;   -8.430;  863.100
988.591;   75.469;  -10.520;  893.260
989.144;   71.697;  -14.860;  737.260
989.697;   70.803;  -13.080;  758.740
990.250;   70.188;  -10.150;  858.100
990.802;   66.797;  -13.430;  755.860
991.355;   66.539;  -12.750;  974.880
991.907;   64.368;  -12.040;  864.320
992.460;   62.196;  -11.330;  753.760
993.012;   61.184;  -13.610;  749.540
993.565;   60.254;  -13.460;  711.360
994.117;   62.000;   -9.360;  950.780
994.669;   58.881;  -11.300;  701.320
995.221;   58.410;  -13.540;  791.920
995.774;   57.516;  -13.430;  787.580
996.326;   57.283;  -12.520;  740.220
996.878;   57.217;  -10.950;  838.420
997.430;   54.260;  -14.300;  699.860
997.982;   53.780;  -13.760;  750.140
998.534;   53.236;  -11.530;  739.060
999.086;   51.307;  -10.310;  738.220
999.638;   50.486;  -12.530;  661.380
1000.190;   49.488;  -11.840;  699.320
1000.741;   50.224;  -10.260;  742.700
1001.293;   49.497;   -8.860;  686.020
1001.845;   48.026;  -13.700;  676.640
1002.396;   48.803;  -12.100;  743.400
1002.948;   48.302;  -12.760;  737.400
1003.500;   47.344;  -10.380;  723.780
1004.051;   47.383;  -11.900;  907.580
1004.603;   45.389;  -12.250;  791.820
1005.154;   42.913;  -13.210;  608.980
1005.705;   42.211;  -10.950;  723.960
1006.257;   41.420;  -13.880;  707.220
1006.808;   40.997;  -12.840;  685.460
1007.359;   41.118;  -10.570;  763.240
1007.910;   39.686;   -9.620;  646.640
1008.461;   39.720;  -13.630;  732.940
1009.013;   38.235;  -17.200;  588.340
1009.564;   39.194;  -10.200;  793.520
1010.115;   37.305;  -12.570;  597.040
1010.665;   37.083;  -15.150;  602.160
1011.216;   37.441;  -14.480;  667.920
1011.767;   36.738;  -11.340;  697.920
1012.318;   37.474;   -9.780;  736.980
1012.869;   36.163;  -12.380;  679.000
1013.419;   35.785;  -15.560;  603.120
1013.970;   35.348;  -11.010;  666.640
1014.521;   35.425;  -11.610;  620.620
1015.071;   35.179;  -13.450;  670.380
1015.622;   34.706;  -13.870;  635.460
1016.172;   34.588;  -11.610;  596.820
1016.723;   34.063;  -12.120;  614.380
1017.273;   33.573;  -13.620;  604.160
1017.823;   33.622;  -14.140;  650.340
1018.374;   33.181;  -12.800;  611.760
1018.924;   33.194;  -12.340;  716.880
1019.474;   33.733;  -11.410;  718.880
1020.024;   31.514;  -14.770;  657.580
1020.574;   32.771;   -9.780;  726.160
1021.124;   33.401;   -8.560;  673.580
1021.674;   31.304;  -15.190;  559.120
1022.224;   32.669;  -13.530;  708.940
1022.774;   31.824;  -13.280;  668.820
1023.324;   34.125;  -10.690;  753.520
1023.874;   33.313;  -10.240;  875.760
1024.423;   30.733;  -12.540;  613.700
1024.973;   30.056;  -10.010;  610.760
1025.523;   30.765;  -10.550;  620.960
1026.072;   29.804;  -13.560;  606.420
1026.622;   28.586;  -15.120;  675.740
1027.172;   30.414;  -11.260;  715.660
1027.721;   29.716;  -11.410;  601.220
1028.270;   29.695;  -13.530;  663.400
1028.820;   29.458;  -13.680;  638.080
1029.369;   28.949;  -13.520;  612.700
1029.918;   30.368;  -10.980;  649.840
1030.468;   28.602;  -13.530;  564.780
1031.017;   29.085;  -13.170;  634.800
1031.566;   28.169;  -12.200;  608.900
1032.115;   28.373;   -9.960;  694.500
1032.664;   27.519;  -13.210;  596.480
1033.213;   28.592;  -12.500;  735.420
1033.762;   27.420;  -11.910;  635.620
1034.311;   27.420;   -9.640;  677.220
1034.860;   27.393;  -13.310;  691.000
1035.408;   27.787;  -11.830;  722.720
1035.957;   27.878;  -12.000;  719.540
1036.506;   25.259;  -11.690;  530.800
1037.055;   28.339;  -10.990;  844.320
1037.603;   26.444;  -15.120;  664.000
1038.152;   24.815;  -12.450;  534.760
1038.700;   26.330;  -10.560;  585.740
1039.249;   25.241;  -11.080;  681.220
1039.797;   25.862;  -12.540;  633.360
1040.345;   25.831;  -11.920;  705.420
1040.894;   25.212;  -11.410;  625.300
1041.442;   24.937;  -14.320;  632.200
1041.990;   23.699;  -16.240;  559.160
1042.538;   23.720;  -11.680;  536.180
1043.087;   24.046;  -10.760;  570.860
1043.635;   24.605;  -11.850;  670.500
1044.183;   23.563;  -15.480;  586.400
1044.731;   23.904;  -11.770;  576.000
1045.279;   23.977;  -13.090;  674.920
1045.827;   25.581;  -12.440;  892.400
1046.374;   21.907;  -13.840;  515.420
1046.922;   22.893;  -13.220;  590.580
1047.470;   23.695;  -10.230;  691.300
1048.018;   23.870;  -14.590;  647.960
1048.565;   23.596;  -12.050;  708.600
1049.113;   22.660;  -11.650;  557.000
1049.660;   22.700;  -10.510;  629.660
1050.208;   23.300;  -13.310;  675.640
1050.755;   21.529;  -15.900;  606.580
1051.303;   22.645;  -11.430;  686.820
1051.850;   22.821;   -8.480;  635.120
1052.397;   19.847;  -15.010;  473.960
1052.945;   21.025;  -13.960;  617.760
1053.492;   22.393;  -13.150;  741.840
1054.039;   21.956;   -9.630;  720.180
1054.586;   21.260;  -13.680;  557.240
1055.133;   21.755;  -14.570;  693.140
1055.680;   21.274;  -13.820;  646.620
1056.227;   20.717;  -11.730;  542.780
1056.774;   22.426;  -12.480;  794.980
1057.321;   19.068;  -13.930;  523.260
1057.868;   20.054;  -11.690;  651.320
1058.415;   20.605;   -9.520;  651.980
1058.961;   20.440;  -13.160;  678.940
1059.508;   19.620;  -12.920;  643.820
1060.055;   20.031;  -11.920;  581.780
1060.601;   20.837;  -11.500;  624.300
1061.148;   20.097;  -14.330;  616.820
1061.694;   19.064;  -16.870;  592.580
1062.241;   19.894;  -10.330;  596.320
1062.787;   19.893;  -10.620;  663.140
1063.334;   20.343;  -10.110;  808.560
1063.880;   19.331;  -13.400;  668.360
1064.426;   19.676;  -10.680;  706.820
1064.972;   18.176;   -9.920;  601.340
1065.518;   17.642;  -10.980;  566.640
1066.065;   18.219;  -14.890;  624.460
1066.611;   17.887;  -12.870;  598.800
1067.157;   18.794;  -12.950;  641.860
1067.703;   17.746;  -13.540;  668.480
1068.249;   18.071;  -13.540;  605.220
1068.794;   18.227;  -12.600;  626.880
1069.340;   17.530;  -10.620;  578.960
1069.886;   17.351;  -12.830;  590.700
1070.432;   16.479;  -14.870;  541.720
1070.977;   17.106;  -11.980;  601.080
1071.523;   16.988;   -8.200;  573.060
1072.068;   16.210;  -12.330;  582.000
1072.614;   15.897;  -16.370;  527.760
1073.160;   17.437;  -11.100;  687.040
1073.705;   15.671;  -10.480;  572.520
1074.250;   16.145;  -14.520;  559.900
1074.796;   16.684;  -11.460;  655.160
1075.341;   17.291;  -11.950;  664.100
1075.886;   16.897;  -11.460;  594.240
1076.431;   15.905;  -13.770;  649.880
1076.976;   16.045;  -12.680;  639.220
1077.521;   15.565;  -13.170;  583.080
1078.067;   15.443;  -10.860;  579.400
1078.612;   15.387;  -13.920;  661.620
1079.156;   14.550;  -13.880;  601.540
1079.701;   15.173;  -13.120;  693.260
1080.246;   16.882;   -9.940;  696.300
1080.791;   15.473;  -14.740;  625.020
1081.336;   15.296;  -13.750;  659.320
1081.880;   14.896;  -13.400;  649.680
1082.425;   14.460;  -12.220;  573.480
1082.970;   16.076;  -11.610;  717.040
1083.514;   14.289;  -13.580;  597.000
1084.059;   13.929;  -12.810;  586.720
1084.603;   14.417;  -12.320;  565.840
1085.147;   13.783;  -13.190;  645.220
1085.692;   14.315;  -12.480;  716.800
1086.236;   12.818;  -13.020;  503.140
1086.780;   15.183;   -9.190;  751.440
1087.325;   13.826;  -12.480;  654.620
1087.869;   14.048;  -12.450;  610.700
1088.413;   14.325;  -12.240;  705.040
1088.957;   11.798;   -9.020;  543.400
1089.501;   14.714;  -10.320;  766.640
1090.045;   13.610;  -12.720;  726.480
1090.589;   11.746;  -13.690;  569.920
1091.133;   12.627;  -10.020;  673.340
1091.676;   12.496;  -12.330;  591.940
1092.220;   12.259;  -14.970;  600.920
1092.764;   13.509;  -12.430;  706.960
1093.307;   13.199;   -9.800;  673.780
1093.851;   11.572;  -14.970;  556.540
1094.395;   12.665;  -15.310;  683.140
1094.938;   11.790;  -10.370;  632.520
1095.482;   12.185;  -11.050;  559.800
1096.025;   12.743;  -11.840;  710.880
1096.568;   13.351;  -12.840;  779.280
1097.112;   10.054;  -14.700;  508.180
1097.655;   11.942;   -8.720;  603.000
1098.198;   10.475;  -13.610;  600.180
1098.741;   10.802;  -13.350;  612.860
1099.285;   11.993;  -11.230;  657.300
1099.828;   10.282;  -11.840;  439.400
1100.371;   10.760;  -10.840;  608.160
1100.914;   11.142;  -14.190;  682.660
1101.457;   11.396;  -11.240;  679.900
1101.999;   10.153;  -11.270;  584.680
1102.542;   10.278;  -11.480;  641.440
1103.085;    9.423;  -11.750;  658.500
1103.628;   11.266;  -11.400;  762.060
1104.170;    9.937;  -10.490;  588.280
1104.713;    9.882;  -10.600;  646.700
1105.256;    9.355;  -14.360;  557.440
1105.798;    8.765;  -13.210;  499.980
1106.341;   11.096;  -10.270;  728.900
1106.883;    9.479;  -12.200;  521.340
1107.425;    9.559;  -13.110;  668.180
1107.968;    8.390;  -12.840;  612.380
1108.510;   10.205;   -6.480;  684.960
1109.052;    7.885;  -13.940;  612.620
1109.594;    8.581;  -13.690;  554.440
1110.136;    9.238;  -11.880;  643.220
1110.679;    8.380;   -9.500;  633.080
1111.221;    9.017;  -14.160;  604.460
1111.763;    8.893;  -13.980;  559.220
1112.304;    8.390;  -13.880;  547.140
1112.846;    8.747;  -12.210;  666.240
1113.388;   11.112;  -11.390;  942.180
1113.930;    8.489;  -14.540;  694.200
1114.472;    7.592;  -12.640;  606.540
1115.013;    6.755;  -11.620;  551.280
1115.555;    6.481;  -13.640;  587.100
1116.097;    6.415;  -15.380;  579.480
1116.638;    7.659;  -12.640;  684.600
1117.180;    8.099;   -9.850;  667.740
1117.721;    7.198;  -13.690;  568.580
1118.262;    8.070;  -12.680;  677.960
1118.804;    7.526;  -12.530;  637.340
1119.345;    6.946;  -11.690;  578.400
1119.886;    7.874;  -13.380;  704.040
1120.427;    5.974;  -14.070;  589.020
1120.969;    6.024;  -13.500;  597.920
1121.510;    6.631;  -11.480;  563.060
1122.051;    6.945;  -12.830;  723.580
1122.592;    5.751;  -14.290;  655.420
1123.133;    4.664;  -12.400;  547.940
1123.673;    6.763;  -10.130;  706.480
1124.214;    6.030;  -12.930;  612.460
1124.755;    6.816;  -14.380;  639.460
1125.296;    6.253;  -14.000;  627.320
1125.836;    7.573;  -10.070;  691.500
1126.377;    5.483;  -12.640;  599.660
1126.918;    6.107;  -12.960;  614.980
1127.458;    5.190;  -13.350;  622.220
1127.999;    6.789;  -10.750;  656.980
1128.539;    6.620;  -12.350;  694.240
1129.079;    4.810;  -14.860;  632.720
1129.620;    4.743;  -13.840;  558.100
1130.160;    4.907;  -12.330;  539.480
1130.700;    5.513;  -14.530;  640.840
1131.240;    5.476;  -12.530;  643.700
1131.781;    5.264;  -14.450;  619.680
1132.321;    4.718;   -9.790;  599.120
1132.861;    3.700;  -14.860;  564.200
1133.401;    4.531;  -14.290;  593.940
1133.941;    4.701;  -11.750;  626.280
1134.481;    4.383;   -9.920;  597.580
1135.020;    3.867;  -12.290;  609.160
1135.560;    4.286;  -11.650;  674.940
1136.100;    3.217;  -16.270;  501.160
1136.640;    3.768;  -10.890;  510.480
1137.179;    3.472;  -14.180;  537.960
1137.719;    3.817;  -16.250;  605.400
1138.258;    4.193;  -14.230;  587.360
1138.798;    4.622;   -9.090;  663.780
1139.337;    3.005;  -15.130;  482.840
1139.877;    3.696;  -13.680;  642.360
1140.416;    5.133;  -11.320;  878.060
1140.955;    3.346;  -10.860;  535.380
1141.494;    3.008;  -12.920;  669.280
1142.034;    2.675;  -13.930;  583.520
1142.573;    3.539;  -11.440;  646.280
1143.112;    2.657;  -12.000;  553.480
1143.651;    3.223;  -13.670;  536.480
1144.190;    3.817;  -12.730;  691.640
1144.729;    3.270;  -14.560;  607.420
1145.267;    3.217;  -11.830;  584.900
1145.806;    3.251;  -12.230;  637.040
1146.345;    2.525;  -14.130;  635.020
1146.884;    2.376;  -11.590;  622.500
1147.422;    1.837;  -12.550;  533.060
1147.961;    4.146;  -11.180;  708.460
1148.500;    2.853;  -11.510;  669.720
1149.038;    3.672;  -11.640;  632.500
1149.577;    3.018;  -10.130;  698.640
1150.115;    0.249;  -13.970;  452.280
1150.653;    2.402;  -14.520;  607.340
1151.192;    1.992;  -12.810;  552.920
1151.730;    2.483;   -9.100;  652.560
1152.268;    1.013;  -12.220;  589.520
1152.806;    1.197;  -14.140;  571.180
1153.344;    0.432;  -12.350;  577.640
1153.882;    2.296;   -8.980;  600.060
1154.421;    0.241;  -15.190;  470.620
1154.958;    0.375;  -15.210;  595.240
1155.496;    1.900;  -12.850;  645.280
1156.034;    1.868;   -9.940;  721.880
1156.572;    2.275;  -13.570;  667.060
1157.110;   -0.020;  -14.590;  473.940
1157.647;    1.728;  -13.030;  676.960
1158.185;    0.833;  -12.140;  564.320
1158.723;    0.511;  -14.390;  509.200
1159.260;    1.092;  -14.090;  701.700
1159.798;    1.803;  -11.920;  658.160
1160.335;    1.147;  -11.110;  631.820

