
Integration time [ms]:   3.276
Averaging Nr. [scans]: 1000
Smoothing Nr. [pixels]: 0
Data measured with spectrometer [name]: 7414430SP
Wave   ;Sample   ;Dark     ;Reference
[nm]   ;[counts] ;[counts] ;[counts] 

288.544;  152.015;    7.793;  793.890
289.143;  156.001;    7.462;  681.602
289.742;  156.443;    8.602;  828.814
290.341;  140.806;    1.321;  789.841
290.940;  129.346;   -0.709;  730.702
291.538;  132.003;    0.881;  881.108
292.137;  131.276;    0.122;  792.581
292.736;  136.108;   -1.929;  975.101
293.335;  132.283;   -8.229;  735.086
293.934;  132.494;   -5.279;  781.677
294.532;  130.679;   -1.369; 1031.958
295.131;  116.080;   -7.641;  834.394
295.730;  116.841;   -8.420;  809.588
296.328;  116.532;   -5.611;  783.442
296.927;  117.153;   -5.781;  779.652
297.525;  116.741;   -6.361;  781.236
298.124;  107.642;  -11.382;  654.009
298.722;  112.200;   -7.641;  761.933
299.321;  109.976;   -6.811;  708.597
299.919;  107.354;   -6.991;  751.918
300.518;  104.860;  -10.362;  689.338
301.116;  106.608;   -9.581;  691.381
301.715;  106.724;   -4.891;  730.222
302.313;  104.636;   -8.801;  704.943
302.911;  100.469;   -8.522;  733.830
303.509;  106.112;   -6.171;  925.627
304.108;  104.549;   -7.311;  760.383
304.706;  102.356;   -8.321;  801.664
305.304;   96.304;  -10.222;  796.707
305.902;  103.108;   -6.021;  784.484
306.500;   98.377;   -4.971;  728.200
307.098;   96.683;   -7.061;  746.560
307.696;   94.515;   -8.801;  780.432
308.294;   95.856;   -6.411;  731.359
308.892;   97.850;   -2.901;  759.769
309.490;   92.908;   -5.041;  712.161
310.088;   91.392;   -5.002;  788.444
310.686;   96.126;   -2.041;  821.749
311.284;   92.030;   -2.351;  766.040
311.882;   88.335;   -4.422;  731.225
312.480;   85.769;   -4.192;  697.167
313.078;   88.095;   -1.172;  808.331
313.675;   89.034;   -2.601;  691.600
314.273;   83.450;   -1.312;  797.837
314.871;   82.189;   -3.942;  589.829
315.468;   80.655;   -2.802;  652.090
316.066;   84.491;   -0.701;  694.427
316.664;   76.039;   -4.362;  656.351
317.261;   79.333;   -2.872;  910.128
317.859;   76.226;   -2.022;  768.735
318.456;   77.167;   -0.531;  830.096
319.054;   72.226;   -3.912;  787.828
319.651;   71.078;   -4.752;  759.928
320.249;   70.817;   -2.602;  810.188
320.846;   67.939;   -0.821;  714.286
321.443;   64.604;   -4.642;  832.135
322.041;   62.172;   -5.002;  812.315
322.638;   60.035;   -3.982;  701.456
323.235;   61.929;   -3.411;  665.683
323.833;   58.145;   -7.361;  740.354
324.430;   53.959;   -8.611;  615.900
325.027;   55.517;   -4.061;  876.855
325.624;   54.742;   -4.031;  644.532
326.221;   51.528;   -7.481;  689.717
326.818;   51.113;   -5.281;  818.332
327.415;   54.478;   -7.460;  748.828
328.012;   53.724;   -5.510;  690.585
328.609;   51.786;   -7.880;  731.389
329.206;   50.473;   -8.331;  778.621
329.803;   50.855;   -5.121;  737.841
330.400;   53.760;   -4.510;  704.260
330.997;   54.391;   -6.441;  817.147
331.594;   53.587;   -8.831;  788.185
332.191;   59.313;   -7.621;  728.722
332.787;   61.888;   -4.591;  844.463
333.384;   60.058;   -7.412;  763.093
333.981;   57.892;   -8.293;  815.687
334.578;   61.992;   -7.052;  708.378
335.174;   65.071;   -3.102;  731.469
335.771;   64.263;   -5.943;  836.456
336.367;   60.346;   -7.393;  710.631
336.964;   64.735;   -4.063;  793.266
337.561;   62.462;   -3.813;  731.112
338.157;   57.886;   -4.654;  911.916
338.754;   54.999;   -7.934;  796.589
339.350;   53.105;   -4.414;  722.493
339.946;   55.199;   -4.664;  773.135
340.543;   46.705;   -6.375;  846.136
341.139;   42.071;   -9.815;  720.836
341.735;   40.852;   -4.526;  772.593
342.332;   38.487;   -4.895;  691.472
342.928;   38.451;   -4.295;  795.394
343.524;   32.717;   -5.476;  761.684
344.120;   30.432;   -5.856;  738.562
344.716;   33.165;   -2.155;  723.717
345.313;   30.234;   -6.275;  795.342
345.909;   25.384;   -8.815;  627.336
346.505;   27.486;   -5.305;  740.247
347.101;   28.467;   -2.674;  827.864
347.697;   27.788;   -4.344;  785.398
348.293;   22.260;   -9.975;  627.244
348.889;   23.015;   -5.774;  745.914
349.485;   23.446;   -5.004;  688.205
350.081;   22.248;   -4.704;  772.592
350.676;   17.819;   -6.635;  691.606
351.272;   23.189;   -4.504;  809.530
351.868;   23.296;   -3.914;  780.497
352.464;   18.537;   -9.044;  723.932
353.059;   15.463;   -8.314;  646.017
353.655;   19.437;   -7.024;  777.063
354.251;   19.984;   -5.343;  759.845
354.846;   13.842;   -8.604;  740.646
355.442;   12.461;   -6.945;  753.071
356.038;   14.822;   -7.564;  751.708
356.633;   14.993;   -5.814;  728.594
357.229;   11.531;   -7.364;  724.757
357.824;   10.484;   -8.024;  703.600
358.420;    9.592;   -9.384;  679.726
359.015;   10.693;   -5.104;  695.357
359.610;   11.341;   -6.854;  763.920
360.206;    4.999;  -10.185;  603.240
360.801;    7.995;   -7.054;  646.503
361.396;   10.734;   -5.034;  725.975
361.992;    5.852;   -8.284;  668.220
362.587;    2.652;   -8.625;  670.160
363.182;    5.699;   -7.674;  689.631
363.777;    6.664;   -5.164;  738.242
364.372;    5.382;   -8.604;  737.314
364.967;    1.818;   -9.055;  680.744
365.563;    5.838;   -6.114;  815.567
366.158;    2.879;   -5.814;  685.161
366.753;    4.042;   -7.854;  649.263
367.348;    1.863;   -7.804;  746.056
367.942;    2.515;   -7.954;  697.298
368.537;    1.291;   -4.984;  754.245
369.132;    0.459;   -8.564;  703.428
369.727;   -2.719;   -8.855;  638.079
370.322;   -0.954;   -6.245;  580.186
370.917;   -1.307;   -6.425;  710.646
371.511;    0.202;   -6.294;  861.834
372.106;   -3.053;   -7.685;  776.964
372.701;   -5.921;   -7.335;  585.988
373.296;    0.201;   -4.564;  863.135
373.890;   -5.805;  -10.235;  647.840
374.485;   -7.493;   -7.885;  691.199
375.079;   -2.503;   -7.324;  738.685
375.674;   -1.662;   -3.494;  812.970
376.268;   -6.551;   -8.525;  691.759
376.863;  -12.116;  -10.086;  580.327
377.457;   -5.531;   -7.025;  662.490
378.052;   -7.248;   -3.585;  764.884
378.646;   -8.561;   -7.595;  741.167
379.240;   -8.855;   -8.335;  721.176
379.835;   -7.211;   -5.785;  636.978
380.429;   -9.835;   -4.335;  562.557
381.023;   -9.488;   -6.805;  779.205
381.617;  -12.584;   -9.195;  680.106
382.212;   -8.278;   -6.905;  685.303
382.806;   -7.709;   -3.745;  760.690
383.400;  -12.244;   -7.745;  672.281
383.994;  -13.463;   -9.765;  664.870
384.588;   -8.721;   -6.564;  697.701
385.182;   -7.414;   -5.344;  726.624
385.776;  -10.035;   -8.514;  706.875
386.370;  -12.936;   -9.555;  681.968
386.964;  -11.210;   -8.715;  684.155
387.558;   -9.612;   -6.174;  598.360
388.152;  -13.775;   -8.725;  681.959
388.745;  -11.905;   -7.965;  814.707
389.339;   -8.747;   -5.924;  747.642
389.933;   -8.867;   -5.524;  695.370
390.527;  -10.869;   -7.114;  859.029
391.120;  -16.365;  -10.725;  595.318
391.714;  -12.515;   -8.035;  711.633
392.308;  -10.243;   -3.574;  780.253
392.901;  -13.675;   -7.245;  642.460
393.495;  -14.946;   -9.285;  595.414
394.089;  -13.031;   -5.895;  760.452
394.682;  -13.727;   -4.295;  697.188
395.275;  -15.606;   -9.875;  719.927
395.869;  -16.188;   -8.485;  667.314
396.462;  -13.302;   -7.455;  616.609
397.056;   -9.794;   -5.424;  776.621
397.649;  -14.970;   -6.605;  731.575
398.242;  -12.821;   -8.224;  712.645
398.836;  -10.937;   -7.474;  766.408
399.429;  -13.156;   -7.094;  631.041
400.022;  -17.069;   -9.475;  665.902
400.615;  -13.901;   -7.145;  805.609
401.208;  -12.635;   -7.174;  691.451
401.802;  -14.393;   -5.515;  699.329
402.395;  -15.117;   -9.875;  683.502
402.988;  -16.603;   -8.845;  696.627
403.581;  -12.803;   -8.874;  646.878
404.174;  -10.273;   -5.324;  686.568
404.767;  -13.963;   -9.575;  638.583
405.360;  -16.456;  -10.965;  621.445
405.953;  -10.886;   -8.764;  759.034
406.545;   -9.844;   -7.514;  725.342
407.138;  -14.759;  -10.025;  618.350
407.731;  -13.868;  -10.034;  613.303
408.324;   -8.918;   -9.374;  660.554
408.917;  -10.081;   -6.534;  681.864
409.509;  -12.391;   -8.004;  740.396
410.102;  -14.114;   -9.875;  643.948
410.695;   -7.417;   -8.604;  665.758
411.287;   -8.714;   -6.794;  599.821
411.880;  -11.124;   -9.334;  585.421
412.472;  -13.309;  -10.254;  613.092
413.065;  -10.470;   -6.714;  629.408
413.657;   -7.959;   -7.234;  576.678
414.250;   -8.023;  -10.544;  646.681
414.842;  -10.469;   -9.744;  676.353
415.434;   -7.063;   -6.994;  570.463
416.027;   -3.050;   -5.893;  652.196
416.619;   -5.764;   -7.264;  713.400
417.211;   -6.373;  -10.374;  599.352
417.804;   -2.519;   -7.993;  628.499
418.396;   -6.477;   -7.234;  607.643
418.988;   -5.094;   -9.443;  659.238
419.580;   -7.838;  -10.724;  568.276
420.172;   -5.423;  -10.323;  536.196
420.764;   -0.948;   -8.793;  672.482
421.356;   -2.726;  -11.143;  636.898
421.948;   -4.122;   -8.293;  677.661
422.540;    2.075;   -7.893;  680.027
423.132;    1.824;   -7.082;  600.641
423.724;   -2.402;   -8.653;  561.267
424.316;   -0.614;  -10.213;  621.345
424.908;    3.704;   -9.762;  591.517
425.500;    3.747;   -5.572;  647.978
426.092;    4.030;   -8.422;  648.268
426.683;    3.032;   -9.283;  684.836
427.275;    6.172;   -7.852;  641.471
427.867;    8.164;   -5.272;  668.948
428.458;    7.939;   -7.682;  732.344
429.050;    6.612;  -10.612;  680.749
429.642;    9.606;   -9.882;  743.124
430.233;    9.805;   -6.962;  569.356
430.825;   10.467;   -6.842;  724.809
431.416;    7.353;   -9.672;  698.241
432.008;   11.860;   -6.552;  651.723
432.599;   12.589;   -6.891;  656.073
433.190;    9.344;  -10.912;  637.670
433.782;    8.905;  -11.172;  590.395
434.373;   16.646;   -6.061;  884.765
434.964;   14.725;   -8.251;  602.920
435.556;   11.869;   -9.722;  634.537
436.147;   15.011;   -9.082;  758.490
436.738;   14.991;   -8.041;  701.099
437.329;   20.754;   -7.341;  721.723
437.920;   13.500;   -8.162;  666.688
438.511;   13.059;  -11.802;  564.526
439.103;   20.279;  -10.191;  623.998
439.694;   22.331;   -7.601;  681.583
440.285;   22.277;   -8.541;  764.432
440.876;   20.684;   -9.751;  845.738
441.466;   20.035;   -9.401;  575.162
442.057;   26.476;   -7.760;  665.814
442.648;   23.319;   -9.971;  746.255
443.239;   22.163;  -11.001;  620.477
443.830;   27.463;   -7.990;  704.958
444.421;   29.816;   -7.910;  655.474
445.011;   25.294;   -8.131;  693.619
445.602;   25.803;   -7.111;  743.126
446.193;   28.340;  -10.920;  488.117
446.783;   32.422;   -6.500;  640.397
447.374;   26.948;   -8.671;  692.759
447.964;   27.528;  -10.781;  713.770
448.555;   36.683;   -9.650;  822.742
449.145;   33.587;   -8.660;  662.853
449.736;   34.051;   -8.990;  803.179
450.326;   33.073;   -9.500;  713.626
450.917;   38.556;   -8.680;  675.324
451.507;   37.730;   -7.520;  600.661
452.097;   37.992;   -8.590;  746.267
452.688;   39.255;  -11.340;  742.160
453.278;   38.922;  -10.100;  566.840
453.868;   43.789;   -6.019;  793.550
454.458;   41.092;   -9.440;  651.141
455.048;   40.613;  -10.560;  711.783
455.639;   44.425;  -11.799;  567.096
456.229;   47.682;   -6.899;  710.694
456.819;   48.360;   -7.389;  751.158
457.409;   48.327;  -11.119;  773.993
457.999;   52.944;   -9.289;  737.505
458.589;   52.536;   -6.139;  686.606
459.179;   51.525;   -8.729;  717.658
459.769;   48.847;   -9.789;  627.099
460.358;   54.838;  -10.259;  797.262
460.948;   54.973;   -7.299;  689.503
461.538;   55.890;  -10.289;  660.677
462.128;   53.763;  -11.269;  664.934
462.717;   60.840;   -9.368;  710.326
463.307;   64.454;   -7.908;  705.846
463.897;   58.965;   -9.599;  656.942
464.486;   58.364;   -9.769;  837.128
465.076;   64.354;   -8.048;  733.776
465.666;   67.478;   -9.358;  652.900
466.255;   64.546;   -7.919;  785.651
466.845;   63.810;  -11.689;  666.749
467.434;   67.005;   -7.818;  725.873
468.023;   68.007;   -7.678;  658.357
468.613;   65.915;  -10.939;  713.946
469.202;   69.701;  -10.118;  646.507
469.791;   73.906;   -9.108;  737.811
470.381;   76.692;   -6.058;  742.813
470.970;   74.362;  -10.428;  711.099
471.559;   75.464;  -10.268;  733.291
472.148;   78.918;   -8.448;  675.737
472.738;   81.234;   -6.917;  765.466
473.327;   80.216;  -11.978;  637.529
473.916;   79.898;  -11.888;  737.446
474.505;   84.956;   -9.437;  751.703
475.094;   88.268;   -6.747;  806.570
475.683;   86.977;   -9.367;  797.699
476.272;   87.311;  -12.637;  730.632
476.861;   90.777;  -10.027;  706.754
477.449;   97.476;   -8.716;  728.487
478.038;   91.398;   -9.577;  692.513
478.627;   92.220;   -9.718;  714.852
479.216;   99.616;   -8.947;  769.441
479.805;  103.158;   -6.256;  783.375
480.393;  102.275;   -7.937; 1008.945
480.982;  100.841;   -7.717;  874.501
481.571;  108.772;   -9.266;  858.333
482.159;  108.640;   -7.636;  705.386
482.748;  107.543;   -9.667;  821.385
483.336;  111.943;  -10.376;  858.209
483.925;  113.499;   -7.147;  774.373
484.513;  120.366;   -7.996;  758.962
485.102;  116.420;  -10.027;  810.965
485.690;  124.739;  -10.446; 1011.050
486.278;  127.097;   -8.446;  979.329
486.867;  128.297;   -6.356;  809.662
487.455;  129.718;   -9.136;  898.229
488.043;  130.483;  -10.646;  748.361
488.631;  140.176;   -7.456; 1005.079
489.220;  144.018;   -6.636;  908.626
489.808;  144.472;  -11.036;  741.415
490.396;  151.493;  -10.246;  914.645
490.984;  157.488;   -8.556;  830.161
491.572;  168.259;   -5.886;  940.315
492.160;  173.784;   -9.486;  919.081
492.748;  184.843;  -10.976;  884.341
493.336;  208.124;   -8.776; 1019.693
493.924;  234.281;   -5.465;  958.077
494.512;  261.934;   -9.986; 1066.638
495.100;  299.075;  -10.636; 1103.280
495.687;  356.159;  -10.885; 1206.373
496.275;  419.094;   -8.126; 1150.796
496.863;  486.189;  -10.586; 1281.171
497.451;  584.566;  -11.926; 1386.805
498.038;  719.300;  -10.885; 1556.729
498.626;  828.871;   -6.315; 1741.407
499.214;  985.036;   -7.326; 2016.609
499.801; 1185.412;  -11.906; 2220.633
500.389; 1418.316;  -10.466; 2312.494
500.976; 1722.199;   -5.236; 2744.849
501.564; 2160.743;   -8.936; 3148.565
502.151; 2520.437;  -13.176; 3515.999
502.738; 2934.834;  -10.646; 3971.274
503.326; 3339.620;   -9.525; 4403.796
503.913; 3769.851;  -10.856; 5161.749
504.500; 4162.524;  -11.586; 5986.420
505.088; 4556.437;  -10.336; 6381.201
505.675; 5089.673;   -6.355; 6925.547
506.262; 5766.329;   -9.046; 7619.060
506.849; 6491.277;  -10.416; 8733.969
507.436; 7048.841;  -10.305; 9790.121
508.023; 7614.500;   -5.496; 9985.472
508.610; 7836.292;   -7.856;10434.618
509.197; 8478.987;  -10.097;11198.435
509.784; 9808.399;  -10.886;12391.194
510.371;11036.528;   -9.315;13603.713
510.958;11822.185;   -9.936;14426.586
511.545;12518.768;   -9.326;15243.775
512.132;13280.089;  -10.075;15945.876
512.719;13792.031;   -7.796;16340.369
513.305;15060.307;  -10.606;18011.766
513.892;15780.770;  -11.486;19754.971
514.479;16921.875;   -9.126;20967.805
515.066;18337.324;   -6.026;22299.793
515.652;19892.357;   -8.466;22908.660
516.239;21123.982;  -10.886;23798.875
516.825;22005.193;  -11.496;25567.275
517.412;23105.795;   -5.796;28154.959
517.998;23851.055;  -10.506;28344.111
518.585;23805.814;  -10.076;27134.219
519.171;24350.727;   -8.315;27268.576
519.758;26184.928;   -8.596;28964.129
520.344;28125.203;   -8.466;30664.494
520.930;27785.277;  -11.006;32550.605
521.516;28787.947;  -10.495;35422.895
522.103;30589.859;   -5.526;38280.004
522.689;31229.604;   -8.746;37835.117
523.275;30680.967;  -11.376;37288.613
523.861;32329.723;  -11.156;37281.395
524.447;34160.590;   -8.135;37846.949
525.033;34015.957;   -7.896;38321.949
525.619;34073.703;  -12.476;38579.285
526.205;35139.195;   -9.516;40622.875
526.791;37926.652;   -6.926;42258.836
527.377;37792.199;   -8.346;42966.902
527.963;38456.992;   -8.717;42018.949
528.549;37520.711;  -11.016;42476.828
529.135;35848.133;   -8.536;41854.852
529.721;33714.211;   -9.666;41237.711
530.306;31299.143;  -10.066;41259.445
530.892;30050.445;  -11.356;41506.047
531.478;32273.666;   -6.596;43559.613
532.063;37675.598;   -8.836;47695.563
532.649;40224.566;  -10.047;50808.324
533.235;40900.137;   -9.746;51787.500
533.820;40737.996;   -6.566;52145.035
534.406;41189.516;  -10.817;51133.488
534.991;39803.207;   -9.416;49996.805
535.576;36111.324;   -9.036;48882.852
536.162;33829.109;   -6.156;46942.285
536.747;33132.398;  -11.607;45711.746
537.333;37537.004;  -11.787;48510.180
537.918;44408.949;  -12.437;50439.891
538.503;47841.262;   -7.196;50863.711
539.088;46667.699;  -10.556;50906.922
539.673;47393.164;   -8.767;52621.965
540.259;48088.559;  -10.026;52368.094
540.844;45403.152;   -7.416;50879.109
541.429;47033.469;   -9.467;52077.777
542.014;48905.117;   -9.527;52716.695
542.599;47774.371;   -9.946;52363.281
543.184;44720.688;   -7.927;53187.137
543.769;46031.910;   -9.297;54697.605
544.354;46504.355;  -10.127;53913.914
544.938;44993.520;   -9.267;49680.164
545.523;46714.863;   -6.506;47386.277
546.108;49591.461;   -9.787;49151.949
546.693;51253.859;  -11.587;51384.637
547.278;51602.289;  -10.986;51853.254
547.862;48709.961;   -8.206;51173.750
548.447;44074.281;  -10.067;51691.395
549.031;42933.785;   -9.637;52456.703
549.616;47576.590;   -9.926;52714.516
550.201;47691.406;   -6.347;52414.598
550.785;49193.996;   -7.917;52355.059
551.370;48214.648;  -10.867;54589.453
551.954;47503.301;   -9.047;58267.348
552.538;48313.578;   -7.827;59062.176
553.123;46478.996;  -10.287;58115.285
553.707;44095.262;  -12.178;56556.285
554.291;45727.633;   -8.717;56201.668
554.876;49089.930;   -7.457;55335.762
555.460;49205.773;  -10.387;54155.703
556.044;49160.352;   -9.618;53721.484
556.628;47016.738;  -11.567;53731.016
557.212;45946.195;   -8.097;54312.531
557.796;44789.691;  -11.077;53797.773
558.380;44928.266;  -11.108;56145.984
558.964;45286.742;   -9.057;57277.930
559.548;46147.730;   -6.977;56459.641
560.132;43952.406;  -11.457;54434.543
560.716;42443.629;  -11.378;54800.617
561.300;43919.863;   -9.577;57606.945
561.884;45243.082;   -7.127;58972.445
562.467;43171.809;   -7.118;57327.570
563.051;42177.824;  -13.358;54962.434
563.635;43566.477;  -10.178;52594.473
564.219;44466.051;   -7.837;50610.410
564.802;45233.230;  -11.398;49551.180
565.386;44675.371;  -12.788;48370.953
565.969;44093.125;   -9.077;48178.871
566.553;42796.113;   -6.207;49957.305
567.136;43778.383;   -8.568;50369.594
567.720;40511.957;  -11.868;49492.004
568.303;38225.102;   -8.268;50616.352
568.887;38012.887;   -8.698;50727.148
569.470;38657.961;   -6.808;51698.379
570.053;37887.449;  -13.188;52122.078
570.637;35418.148;  -12.037;52536.438
571.220;35251.668;   -8.577;51186.098
571.803;36255.180;   -8.498;51032.762
572.386;38442.797;  -10.498;49609.887
572.969;41119.465;   -9.388;48285.926
573.552;39399.027;   -8.338;47624.285
574.135;37749.527;   -8.518;45498.641
574.718;35236.559;  -13.628;41970.434
575.301;34534.090;  -10.893;41447.137
575.884;33831.625;   -8.158;40923.836
576.467;34854.449;  -10.328;45267.723
577.050;36316.105;  -13.058;48175.543
577.633;37588.336;   -9.458;47729.328
578.216;36809.785;   -8.928;47579.793
578.799;36015.582;   -9.358;47820.996
579.381;35103.852;  -11.388;48115.551
579.964;32961.012;  -11.718;47333.766
580.547;34871.910;   -8.588;46668.969
581.129;35436.402;   -8.859;44466.141
581.712;36122.582;  -10.729;44164.922
582.294;36534.684;  -11.118;46477.855
582.877;36824.016;   -5.218;48244.254
583.459;35231.711;   -8.679;47437.895
584.042;32990.801;  -10.709;46943.219
584.624;32788.293;  -11.669;46792.227
585.206;32756.061;   -8.218;46557.250
585.789;33369.426;  -10.569;45793.773
586.371;35752.059;  -11.859;43836.391
586.953;36324.184;  -10.719;42972.492
587.536;37244.504;   -7.198;42487.211
588.118;37746.613;   -8.720;42086.414
588.700;33830.074;  -10.439;43389.930
589.282;32866.961;   -9.198;43646.039
589.864;33753.645;   -9.199;43438.109
590.446;34873.969;  -11.319;43151.926
591.028;34656.230;  -11.159;42781.867
591.610;33420.359;  -11.779;42839.098
592.192;30881.686;   -7.668;42820.402
592.774;29559.982;  -11.949;40724.277
593.356;28651.012;  -12.129;39874.789
593.937;27655.539;  -10.669;39980.648
594.519;29963.281;   -6.509;42069.633
595.101;31978.795;  -10.849;42976.031
595.683;32037.016;  -11.679;44084.441
596.264;32785.965;   -9.049;43478.797
596.846;32499.576;   -8.849;43803.672
597.427;32239.631;   -9.570;42986.934
598.009;33412.301;  -12.620;42832.219
598.591;33922.598;  -10.039;42580.086
599.172;33698.098;  -10.369;43061.805
599.753;33900.535;   -9.140;41691.469
600.335;34967.273;  -11.430;40692.520
600.916;33048.559;   -9.939;39982.422
601.498;31067.541;   -8.479;40318.617
602.079;29559.311;  -10.920;40670.609
602.660;29192.213;  -11.480;41450.898
603.241;30964.713;  -11.699;41137.738
603.823;29566.461;   -9.579;38868.797
604.404;28845.385;  -10.620;38182.785
604.985;30685.332;  -10.450;38078.047
605.566;30732.295;   -9.129;38056.633
606.147;30767.957;   -7.510;37020.418
606.728;32320.801;  -10.660;37883.359
607.309;30981.895;  -11.740;38748.273
607.890;30690.781;   -9.759;38850.230
608.471;30220.717;   -8.250;37457.918
609.051;29620.297;   -9.240;36066.457
609.632;28354.895;  -12.120;35991.074
610.213;28531.736;   -9.110;37402.641
610.794;29585.578;   -8.030;38383.363
611.374;29603.375;   -8.110;40562.387
611.955;30404.643;  -13.560;38533.727
612.536;31821.561;  -11.400;36951.789
613.116;31475.244;   -8.070;37197.891
613.697;31696.506;  -10.830;38411.125
614.277;29801.277;  -11.641;38673.938
614.858;30390.387;  -13.310;37075.863
615.438;30116.781;   -7.460;35092.906
616.019;28032.422;   -7.601;33666.301
616.599;28201.969;  -12.020;34189.023
617.179;29759.850;  -11.780;36952.047
617.760;30928.162;   -8.570;39582.574
618.340;31725.326;  -11.471;38943.977
618.920;32504.063;  -11.170;37594.156
619.500;32463.170;  -11.071;37866.938
620.080;31534.291;   -7.750;37869.043
620.660;32609.545;  -12.711;36868.617
621.241;34598.152;  -10.211;36352.309
621.821;35070.434;  -10.961;35459.520
622.401;33761.586;   -7.720;35207.414
622.980;32645.895;   -8.981;35980.422
623.560;31198.914;   -9.331;37351.328
624.140;29962.240;   -9.850;34388.582
624.720;25172.855;   -7.451;32368.764
625.300;21743.096;   -9.070;32638.629
625.880;25138.727;  -12.601;34599.035
626.459;29374.021;  -11.751;36831.738
627.039;32196.895;   -9.281;38299.098
627.619;32095.088;   -8.801;38289.574
628.198;30532.975;  -12.071;37220.695
628.778;29467.141;   -9.461;37632.563
629.357;30108.484;   -8.491;38003.012
629.937;30215.244;   -9.721;38402.039
630.516;29683.115;   -9.951;37868.801
631.096;29479.867;  -11.731;35760.410
631.675;31779.355;   -8.572;35225.219
632.254;36898.371;  -11.282;35130.289
632.834;36304.414;  -13.322;35794.570
633.413;34728.652;  -10.301;35788.922
633.992;32345.377;   -8.582;34532.863
634.571;32813.457;   -8.352;33590.113
635.151;35164.543;  -11.912;34943.863
635.730;33777.746;  -10.511;35352.523
636.309;30616.756;   -7.731;35366.605
636.888;28160.764;   -9.952;36165.637
637.467;28617.203;  -11.672;37515.902
638.046;30003.402;   -8.901;39288.695
638.625;32954.211;   -7.912;38279.699
639.204;33016.582;  -10.022;37741.598
639.782;31914.523;  -12.252;38364.551
640.361;27864.723;  -10.041;36740.621
640.940;25127.225;  -11.161;34950.082
641.519;25776.182;   -9.701;34137.398
642.097;28764.666;  -11.271;35654.258
642.676;31724.061;   -8.651;35637.957
643.255;32925.848;   -8.711;36567.074
643.833;32203.016;   -9.581;37809.434
644.412;32157.594;  -13.711;37337.293
644.990;31035.998;  -11.811;37018.531
645.569;31023.313;   -9.411;36518.469
646.147;30937.379;  -10.291;36186.430
646.726;30917.324;  -12.401;36267.688
647.304;31769.318;  -10.411;36647.625
647.882;33185.234;   -9.651;39286.742
648.461;34989.621;   -9.631;39157.703
649.039;33492.523;  -11.881;35412.883
649.617;32253.154;   -9.661;34744.918
650.195;31323.734;   -9.301;35403.098
650.773;30004.646;  -10.511;35053.797
651.352;27782.723;  -11.521;33756.816
651.930;25419.447;  -12.211;31868.773
652.508;23704.436;   -9.171;33121.551
653.086;27651.129;   -9.371;33564.793
653.663;30790.875;  -13.161;34054.668
654.241;29500.385;  -13.031;35693.309
654.819;30996.859;   -9.371;36422.906
655.397;30772.641;  -10.511;38213.484
655.975;30030.449;  -10.371;39507.625
656.553;29626.070;  -10.051;39498.223
657.130;28399.740;  -10.061;40395.480
657.708;27682.980;   -9.561;39242.020
658.286;27705.904;  -11.511;38920.020
658.863;28794.586;  -10.261;40202.898
659.441;32225.672;   -7.531;39677.938
660.018;32402.764;   -9.501;40413.355
660.596;31039.285;  -13.301;39931.414
661.173;32576.828;  -11.211;39604.531
661.750;33090.457;   -9.951;39700.070
662.328;32109.338;   -9.390;39292.809
662.905;31105.932;  -11.330;38235.648
663.482;26696.848;   -9.050;36212.305
664.060;24685.303;   -8.240;35944.945
664.637;27597.705;  -10.050;35170.785
665.214;29062.111;  -11.760;34197.523
665.791;30765.436;  -10.530;34549.520
666.368;30091.826;   -9.690;35118.578
666.945;30387.582;   -9.320;36019.418
667.522;31948.533;  -11.860;36048.438
668.099;31790.881;  -10.770;36243.914
668.676;30266.215;   -6.260;35958.875
669.253;28873.494;   -7.000;37384.730
669.830;29101.500;  -10.190;36779.629
670.407;29159.893;   -9.550;35231.289
670.984;29081.813;   -9.260;35544.270
671.560;29836.105;   -9.280;35466.867
672.137;29092.504;  -11.810;34280.863
672.714;30137.959;  -11.490;34632.863
673.290;31527.945;   -7.740;35135.422
673.867;31409.564;  -10.660;36114.480
674.443;31231.740;  -12.230;36152.859
675.020;29179.117;  -10.450;35327.238
675.596;30238.240;   -9.260;35795.176
676.173;31178.668;  -10.780;35430.355
676.749;30801.514;  -13.690;33549.516
677.326;30302.199;  -11.980;32210.012
677.902;30048.910;   -8.630;32068.871
678.478;29361.105;  -10.730;32583.891
679.054;28398.260;  -10.520;32088.928
679.631;28991.830;  -11.920;30978.848
680.207;30444.145;   -7.490;33160.887
680.783;31823.941;   -9.860;35570.363
681.359;30930.055;  -13.380;36125.184
681.935;30786.645;  -12.480;35240.922
682.511;30701.057;   -7.900;34429.961
683.087;31034.600;   -7.710;34463.680
683.663;30199.625;  -11.480;34648.898
684.239;28748.143;  -14.090;34546.457
684.815;28108.281;   -7.560;35586.375
685.390;28117.875;   -9.910;35821.895
685.966;28630.980;  -11.159;35085.871
686.542;31183.842;  -11.169;34198.230
687.118;33660.508;   -5.959;32847.707
687.693;34116.344;  -10.329;32794.027
688.269;33797.797;  -12.059;33072.367
688.844;32013.150;  -10.909;33141.664
689.420;30067.758;   -8.019;33965.742
689.995;28371.182;   -8.399;34655.523
690.571;27147.621;  -10.949;33576.742
691.146;27128.105;   -9.619;32657.219
691.722;26903.438;   -8.999;32526.979
692.297;26569.598;  -11.589;33014.617
692.872;27732.400;  -11.739;34012.254
693.448;27487.965;  -11.059;34237.434
694.023;26472.191;  -10.139;34142.672
694.598;28533.859;   -9.029;34132.031
695.173;29404.994;  -13.319;34205.250
695.748;28403.053;  -10.169;32882.488
696.323;28186.551;   -8.339;32864.906
696.898;28194.539;   -8.169;33170.004
697.473;28333.496;  -12.309;32432.984
698.048;27600.230;  -10.989;31649.303
698.623;27209.105;   -9.329;30778.141
699.198;28581.428;   -9.849;31140.119
699.773;30138.795;  -12.329;31764.299
700.348;29162.396;  -10.389;31780.816
700.922;29164.063;   -9.269;32046.375
701.497;30074.996;   -9.329;32603.574
702.072;30071.172;  -10.789;34799.871
702.646;28766.996;  -10.839;35793.172
703.221;26766.313;   -9.099;35201.590
703.795;28514.547;  -10.939;34764.527
704.370;28996.846;  -12.859;34307.367
704.944;29219.795;  -11.559;33509.887
705.519;29817.156;   -7.939;31388.584
706.093;30944.701;  -10.499;31340.104
706.668;31556.129;  -11.289;32630.281
707.242;30527.197;  -11.509;32728.779
707.816;29297.922;   -9.639;32947.238
708.390;27805.168;  -11.429;33277.855
708.965;28163.846;  -11.869;33834.336
709.539;28141.934;  -11.689;33709.273
710.113;28169.316;  -10.478;33044.313
710.687;27644.336;  -10.228;31953.992
711.261;26139.520;  -13.698;30505.949
711.835;26176.785;  -13.378;30262.369
712.409;26622.539;   -9.698;31254.447
712.983;28649.574;  -11.898;32754.986
713.557;29964.908;  -15.138;34018.824
714.131;29783.705;  -14.098;34579.625
714.704;28640.270;   -9.958;33890.262
715.278;26182.559;  -10.028;33531.102
715.852;25006.043;  -11.148;33601.660
716.425;26097.566;   -9.068;33515.117
716.999;27332.496;  -10.038;33185.555
717.573;28156.105;   -9.798;33905.996
718.146;28997.787;  -12.378;35199.293
718.720;29019.943;  -11.918;35060.551
719.293;28920.803;   -8.088;34973.230
719.867;31881.242;  -10.888;36394.449
720.440;31727.408;  -11.938;36663.008
721.013;29927.439;  -12.818;35102.426
721.587;28237.000;  -10.298;33985.266
722.160;27004.279;  -10.048;33524.965
722.733;26068.176;  -12.108;32987.043
723.306;26390.029;  -10.818;33066.301
723.880;28393.555;   -8.908;33399.500
724.453;30617.309;   -9.878;33468.297
725.026;29899.268;  -11.188;33816.637
725.599;27132.938;  -11.678;32797.996
726.172;27014.959;   -9.618;33187.434
726.745;28019.262;   -8.258;35136.613
727.318;29399.164;  -12.978;35751.730
727.891;30140.104;  -12.148;35890.430
728.463;29700.373;   -8.968;34822.090
729.036;28275.605;  -10.188;32895.086
729.609;28710.707;  -11.788;31823.225
730.182;25868.135;  -11.788;31445.283
730.754;23459.857;  -10.268;32373.223
731.327;23820.504;   -9.998;33676.820
731.900;24300.520;  -12.228;33417.000
732.472;25088.242;  -13.848;31978.498
733.045;26768.479;   -8.698;30368.777
733.617;26716.627;  -10.607;30574.215
734.190;26942.238;  -11.507;31280.975
734.762;24639.994;  -13.647;31674.412
735.334;22688.217;   -9.767;31247.291
735.907;23033.377;   -9.897;29876.211
736.479;23388.203;  -11.637;29808.488
737.051;23214.500;   -9.567;30233.547
737.623;23777.705;   -8.187;31469.086
738.195;24035.055;  -11.187;31784.225
738.768;26209.225;  -12.337;32120.523
739.340;27236.021;  -12.227;32094.342
739.912;26293.336;  -11.057;31312.680
740.484;24805.842;  -10.207;31946.238
741.056;23200.832;  -10.047;32984.059
741.628;24381.781;  -13.627;33897.715
742.199;26620.037;   -7.177;33213.016
742.771;25301.246;  -10.797;31369.113
743.343;23206.896;  -11.997;31865.473
743.915;22176.916;  -12.867;32388.631
744.487;21944.508;   -7.617;31079.568
745.058;21799.395;   -9.557;30570.107
745.630;22345.289;   -9.877;29970.127
746.201;23787.551;  -14.177;29186.766
746.773;24930.984;   -9.237;28805.723
747.344;24813.467;   -9.847;29591.223
747.916;22846.662;  -11.657;31412.201
748.487;22685.734;  -10.587;32194.898
749.059;24014.563;   -8.707;32533.719
749.630;24864.020;  -10.537;32158.518
750.201;24054.801;  -11.687;30855.395
750.773;22313.281;  -11.647;28622.555
751.344;22020.715;   -7.147;28405.732
751.915;22924.064;   -9.757;28461.551
752.486;23029.473;  -12.427;27842.850
753.057;20971.051;  -12.227;27845.008
753.628;19692.072;  -10.417;27728.107
754.199;20549.420;  -11.767;27381.086
754.770;21642.250;  -11.187;25882.203
755.341;21950.395;  -10.507;25886.184
755.912;22245.240;   -9.387;26050.861
756.483;21986.463;  -10.647;26798.779
757.054;20136.041;  -11.837;27048.238
757.625;18549.514;  -12.716;26294.838
758.195;18325.285;   -9.666;26142.076
758.766;18069.043;   -8.656;26392.234
759.337;18607.912;  -12.856;26334.594
759.907;19955.779;  -13.366;27579.652
760.478;20907.213;   -8.576;28352.770
761.048;20460.510;  -10.526;27325.088
761.619;19371.652;  -11.116;26460.428
762.189;19427.984;  -12.136;26029.826
762.760;20488.004;   -9.456;26430.145
763.330;21681.719;   -7.136;26670.902
763.900;21333.875;  -11.786;26603.021
764.471;18940.453;  -11.546;25542.740
765.041;17353.287;   -8.096;24358.459
765.611;17060.092;   -8.876;23991.297
766.181;17414.658;  -12.196;24470.236
766.751;18694.799;  -11.636;24845.975
767.321;18482.906;  -10.156;24533.633
767.891;16275.914;  -11.766;24916.492
768.461;15605.698;  -14.936;24776.771
769.031;16195.541;  -12.356;24757.988
769.601;17949.854;   -7.526;24181.088
770.171;18114.051;  -10.766;23670.387
770.741;17238.537;  -13.176;22960.045
771.311;17264.537;  -10.616;22917.523
771.880;17829.189;   -9.576;23562.941
772.450;17782.346;  -10.336;24216.500
773.020;17722.248;  -13.516;24140.398
773.589;16851.148;  -13.466;24414.857
774.159;16127.852;   -8.686;23858.717
774.729;15749.957;   -9.476;22942.135
775.298;15408.337;  -13.666;22324.033
775.867;14983.703;  -11.716;21140.313
776.437;15164.929;   -9.906;20838.092
777.006;14977.909;  -12.166;20599.510
777.576;14617.203;  -12.356;20508.809
778.145;14563.102;  -11.646;20732.947
778.714;14628.047;   -8.226;21062.465
779.283;14182.534;   -9.556;20949.664
779.853;13621.563;  -14.116;20508.623
780.422;14031.430;  -11.506;20649.082
780.991;13616.195;   -9.556;21527.520
781.560;12231.905;   -9.095;22632.658
782.129;11894.189;  -12.135;23048.277
782.698;11895.017;  -10.865;23438.555
783.267;11542.329;   -9.335;23267.734
783.836;11480.762;  -11.045;22415.133
784.404;12478.461;  -13.865;20443.152
784.973;13169.997;  -13.095;19699.150
785.542;13253.814;  -11.575;19763.828
786.111;13081.575;   -9.705;20341.408
786.679;12614.315;  -12.105;20207.967
787.248;12409.444;  -12.455;19516.465
787.817;12211.283;  -11.535;18900.363
788.385;11756.701;   -9.765;17879.121
788.954;11153.084;  -14.005;17658.301
789.522;10568.485;  -11.955;17788.879
790.090;10996.181;  -10.135;18118.277
790.659;11603.752;  -10.975;18338.736
791.227;11184.913;  -13.375;18508.615
791.795;11479.700;  -12.375;17898.254
792.364;11762.014;  -10.725;17295.133
792.932;12155.834;   -9.715;16822.051
793.500;12538.166;  -12.675;17040.148
794.068;12843.695;  -13.495;17179.787
794.636;13029.484;  -10.885;16664.246
795.204;12283.311;  -11.045;16524.545
795.772;12248.349;  -13.175;17274.564
796.340;11769.992;  -12.445;17891.002
796.908;11469.843;   -9.735;17648.561
797.476;11320.039;   -9.815;17064.080
798.044;10912.048;  -13.985;16672.777
798.612;10239.518;  -13.115;17023.996
799.180; 9885.914;  -10.185;16561.615
799.747; 9715.910;   -9.055;15962.773
800.315; 9416.387;  -12.385;15296.992
800.883; 9213.183;  -15.035;14801.771
801.450; 9419.378;  -10.365;14534.430
802.018; 9543.554;   -9.855;14173.248
802.585; 9534.822;  -11.905;14029.547
803.153; 9504.750;  -11.585;13836.846
803.720; 9290.454;   -9.095;13567.324
804.287; 8717.197;   -9.135;13360.622
804.855; 8189.610;  -11.604;13681.981
805.422; 8089.235;  -11.794;13536.560
805.989; 8192.616;  -10.734;13355.958
806.556; 8414.688;  -10.444;13747.896
807.124; 8696.997;  -12.764;13987.376
807.691; 8661.253;  -12.964;14038.674
808.258; 8432.135;  -11.134;14120.152
808.825; 8032.054;   -9.854;13860.111
809.392; 8164.257;  -10.504;13268.790
809.959; 7775.019;  -13.054;12680.389
810.526; 7252.413;   -8.294;12427.308
811.093; 7181.034;   -8.394;12030.105
811.659; 7795.970;  -12.304;11653.664
812.226; 8372.374;  -13.944;11637.183
812.793; 8117.934;  -10.484;11611.521
813.360; 7458.183;  -10.144;11885.181
813.926; 7109.261;  -11.684;12770.539
814.493; 6929.855;  -13.644;12677.638
815.060; 6570.289;   -9.724;11974.336
815.626; 6506.615;   -9.854;11594.715
816.193; 6867.715;  -13.254;11579.474
816.759; 6908.888;  -13.204;11666.972
817.325; 6908.295;   -9.434;11325.530
817.892; 7241.106;  -10.134;11105.369
818.458; 7678.140;  -13.474;10843.928
819.024; 7321.507;  -11.854;10714.406
819.591; 7061.925;  -10.244;10469.165
820.157; 6905.216;  -10.704;10235.523
820.723; 6401.302;  -12.324;10847.563
821.289; 6101.961;   -9.444;11040.980
821.855; 6053.887;   -8.374;10357.100
822.421; 6027.798;  -10.234; 9978.918
822.987; 5956.151;  -13.294; 9754.177
823.553; 5550.481;  -10.884;10065.755
824.119; 5347.168;   -8.884;10036.294
824.685; 5512.994;   -6.784;10029.192
825.251; 5653.928;  -12.004;10199.230
825.816; 5608.279;  -11.474; 9820.189
826.382; 5301.895;   -9.174; 9297.248
826.948; 5416.493;   -9.214; 9381.347
827.513; 5845.042;  -10.774; 9450.726
828.079; 5743.476;  -11.924; 9472.444
828.645; 5150.828;  -10.543; 9292.643
829.210; 4952.559;  -10.533; 9065.341
829.776; 4909.184;  -10.753; 9132.620
830.341; 4794.689;  -10.173; 9092.878
830.906; 4946.276;  -10.743; 9078.557
831.472; 5296.560;  -11.113; 8534.535
832.037; 5128.811;  -10.603; 8677.874
832.602; 4614.562;  -13.323; 8628.692
833.167; 4343.893;  -10.823; 8879.031
833.733; 4279.438;  -10.113; 9189.790
834.298; 4417.503;  -13.583; 9052.608
834.863; 4575.950;  -12.703; 8895.087
835.428; 4606.933;  -10.523; 8824.266
835.993; 4456.905;   -6.963; 8845.385
836.558; 4256.113;  -10.763; 8888.563
837.123; 4318.408;   -9.903; 8966.582
837.688; 4588.466;   -9.913; 8617.860
838.253; 4846.444;  -10.283; 8590.699
838.817; 5023.684;  -12.963; 8443.797
839.382; 4960.932;  -14.243; 8799.356
839.947; 4661.288;  -10.733; 8810.595
840.511; 4349.744;   -9.383; 8796.394
841.076; 3948.016;  -12.563; 8347.231
841.641; 3978.658;  -12.953; 8224.330
842.205; 4069.481;   -7.043; 8223.349
842.770; 4087.968;   -8.163; 8622.107
843.334; 4222.894;  -12.503; 8410.386
843.898; 4193.645;  -11.693; 8337.465
844.463; 4201.725;  -10.203; 8506.283
845.027; 4012.908;   -9.533; 8280.962
845.591; 3839.520;  -13.443; 8231.141
846.156; 3847.664;  -13.143; 7969.179
846.720; 3772.906;   -9.433; 7768.278
847.284; 3674.692;  -11.033; 7630.957
847.848; 3524.971;  -10.403; 7472.395
848.412; 3406.644;  -11.553; 7437.394
848.976; 3433.381;   -8.393; 7674.592
849.540; 3357.483;   -8.713; 7836.011
850.104; 3393.169;  -12.463; 7913.669
850.668; 3750.263;  -12.973; 7694.508
851.232; 3934.698;  -10.793; 7756.887
851.796; 3807.906;  -10.662; 7926.545
852.359; 3483.288;  -13.082; 7827.844
852.923; 3296.584;  -12.192; 7641.163
853.487; 3158.860;  -11.912; 7342.501
854.050; 3148.566;  -10.892; 7042.820
854.614; 3290.607;  -13.992; 7151.338
855.177; 3392.200;  -11.732; 7105.077
855.741; 3422.374;   -8.962; 6989.675
856.304; 3331.786;   -9.442; 6596.634
856.868; 3318.222;  -14.192; 6356.272
857.431; 3434.264;  -12.702; 6468.571
857.995; 3571.286;   -9.942; 6373.210
858.558; 3602.199;   -9.112; 6324.448
859.121; 3336.341;  -12.932; 6408.327
859.684; 3150.400;  -13.442; 6347.886
860.247; 3230.236;  -10.632; 6321.264
860.810; 3266.753;  -11.272; 6301.903
861.374; 3029.454;   -9.832; 6607.881
861.937; 2756.965;  -11.762; 6408.200
862.500; 2749.806;   -9.722; 6572.639
863.062; 2898.841;  -10.512; 6387.297
863.625; 3033.296;  -11.232; 6190.836
864.188; 3197.236;  -14.112; 5807.254
864.751; 3302.328;  -11.302; 5682.413
865.314; 3234.319;  -10.112; 5547.492
865.876; 3010.155;  -12.182; 5500.150
866.439; 2966.189;  -10.722; 5415.909
867.002; 2923.630;   -9.252; 5501.567
867.564; 2735.307;   -9.572; 5413.946
868.127; 2515.223;  -13.142; 5160.325
868.689; 2388.176;  -12.902; 5133.183
869.252; 2275.468;   -9.732; 5252.382
869.814; 2168.285;   -9.432; 5297.141
870.377; 2172.359;  -11.552; 5390.919
870.939; 2247.369;   -9.052; 5599.898
871.501; 2337.121;  -10.982; 5248.336
872.063; 2353.806;  -12.292; 4854.235
872.626; 2287.717;  -14.912; 4817.074
873.188; 2276.924;  -13.112; 4987.732
873.750; 2259.502;  -13.442; 4868.651
874.312; 2178.901;   -9.402; 4779.330
874.874; 2098.487;  -11.062; 4866.348
875.436; 2015.321;  -13.931; 4718.887
875.998; 2015.641;   -9.561; 4660.005
876.560; 2054.594;  -11.321; 4462.964
877.122; 1997.813;  -12.221; 4145.042
877.683; 1888.221;  -12.191; 4056.481
878.245; 1806.747;  -12.101; 3950.740
878.807; 1837.521;   -8.971; 4058.958
879.369; 1862.201;  -12.071; 3954.677
879.930; 1778.722;  -14.621; 3941.495
880.492; 1722.355;  -10.311; 4067.014
881.053; 1696.513;  -10.901; 3859.633
881.615; 1598.656;  -14.411; 3776.071
882.176; 1496.792;  -13.761; 3734.750
882.738; 1436.411;   -9.181; 3678.489
883.299; 1412.483;  -11.791; 3405.407
883.860; 1424.529;  -13.121; 3351.106
884.422; 1466.434;  -11.211; 3394.044
884.983; 1493.017;  -10.091; 3166.443
885.544; 1411.984;   -8.461; 3189.802
886.105; 1185.129;  -12.361; 3160.360
886.666;  902.551;  -14.141; 3093.059
887.227;  686.368;  -11.361; 2941.957
887.788;  581.082;  -11.401; 2974.836
888.349;  553.693;  -13.791; 2721.214
888.910;  580.116;  -13.191; 2696.493
889.471;  617.259;   -9.881; 2560.172
890.032;  634.495;   -9.881; 2558.190
890.593;  638.310;  -10.371; 2567.669
891.153;  641.785;  -13.301; 2460.307
891.714;  626.357;  -11.431; 2372.046
892.275;  615.490;  -11.291; 2309.505
892.835;  598.083;  -11.471; 2382.543
893.396;  560.897;  -11.541; 2295.502
893.956;  515.777;  -11.181; 2162.420
894.517;  481.703;  -11.741; 2125.439
895.077;  478.128;  -11.671; 2086.978
895.638;  483.095;  -11.311; 2126.316
896.198;  460.449;   -9.831; 1838.275
896.758;  423.321;   -8.421; 1892.813
897.319;  396.728;  -12.351; 1792.232
897.879;  384.473;  -13.511; 1762.751
898.439;  363.025;  -12.001; 1661.149
898.999;  338.874;  -10.180; 1781.468
899.559;  328.494;  -12.030; 1703.347
900.119;  325.205;  -15.710; 1537.525
900.679;  323.338;   -8.900; 1638.384
901.239;  310.290;   -8.340; 1527.902
901.799;  299.355;  -13.910; 1456.441
902.359;  292.930;  -13.460; 1357.140
902.919;  288.656;  -11.490; 1331.118
903.479;  276.088;  -12.110; 1317.257
904.038;  256.600;  -11.720; 1262.595
904.598;  241.969;  -13.610; 1152.034
905.158;  239.844;  -11.040; 1240.893
905.717;  233.054;  -10.900; 1233.691
906.277;  223.087;  -15.080; 1217.330
906.836;  212.663;  -13.380; 1222.408
907.396;  203.026;  -10.780; 1193.047
907.955;  194.163;   -8.500; 1182.526
908.515;  187.805;  -12.760; 1099.364
909.074;  183.114;  -11.900; 1092.863
909.633;  179.092;   -8.950; 1069.121
910.192;  175.091;   -8.770; 1196.460
910.752;  169.349;  -12.390; 1029.960
911.311;  165.695;  -13.680; 1009.780
911.870;  164.600;  -12.370;  971.460
912.429;  165.353;  -10.900; 1094.080
912.988;  163.595;  -11.690; 1081.060
913.547;  159.579;  -13.240;  940.380
914.106;  155.867;  -11.990;  999.420
914.665;  152.429;   -9.990;  984.020
915.224;  151.057;  -12.880; 1035.760
915.782;  152.450;  -12.350;  922.560
916.341;  151.849;   -9.110; 1049.840
916.900;  146.983;   -9.270;  925.260
917.458;  144.406;  -13.240;  884.220
918.017;  144.574;  -13.550;  942.600
918.576;  145.511;  -12.320;  904.440
919.134;  142.636;  -11.490;  837.980
919.693;  140.779;  -13.670;  893.060
920.251;  140.217;  -15.470;  876.500
920.809;  139.223;  -11.290;  839.580
921.368;  139.367;  -10.210;  885.360
921.926;  136.726;  -12.140;  842.940
922.484;  136.309;  -13.080;  903.360
923.042;  137.272;  -11.720;  880.340
923.601;  139.466;   -7.480;  998.680
924.159;  136.334;  -11.570;  935.560
924.717;  134.015;  -13.840;  841.080
925.275;  134.555;  -10.640;  903.240
925.833;  132.710;  -11.540;  779.320
926.391;  133.157;  -12.960;  938.380
926.949;  131.797;  -14.130;  857.680
927.506;  132.755;  -11.750;  903.500
928.064;  133.682;  -10.250;  877.580
928.622;  131.925;  -13.030;  880.100
929.180;  132.317;  -13.400;  814.180
929.737;  132.965;  -10.700;  808.540
930.295;  136.112;  -10.070;  928.480
930.853;  137.243;  -11.960;  849.100
931.410;  138.163;  -13.120;  821.120
931.968;  138.278;  -10.770;  940.660
932.525;  136.949;  -10.680;  909.380
933.082;  137.966;  -13.130;  811.440
933.640;  138.737;  -13.210;  925.900
934.197;  137.868;  -11.060;  886.360
934.754;  138.997;   -9.580;  897.780
935.312;  141.186;  -14.000;  863.340
935.869;  145.249;  -10.710; 1012.980
936.426;  146.514;   -9.860;  872.800
936.983;  147.080;   -9.710;  889.020
937.540;  145.726;  -13.990;  838.280
938.097;  145.507;  -14.040;  940.120
938.654;  147.079;  -10.310;  898.860
939.211;  148.487;  -10.560;  952.480
939.768;  151.298;  -13.900;  915.420
940.324;  154.636;  -14.760;  904.200
940.881;  157.823;  -10.370;  878.500
941.438;  158.197;   -8.260; 1021.200
941.995;  153.500;  -12.540;  992.560
942.551;  151.132;  -14.670;  875.620
943.108;  150.341;  -10.450;  937.920
943.664;  153.307;  -10.750;  869.340
944.221;  156.281;  -11.550; 1088.140
944.777;  153.469;  -14.770;  869.680
945.334;  155.082;  -12.820;  884.840
945.890;  156.146;  -10.130;  946.480
946.446;  156.228;  -13.470;  947.020
947.003;  157.534;  -12.120;  964.940
947.559;  162.102;   -9.980; 1063.040
948.115;  160.220;   -9.080; 1026.540
948.671;  157.658;  -10.830;  967.300
949.227;  154.907;  -12.440;  859.560
949.783;  153.598;  -12.910;  858.900
950.339;  155.780;  -10.270;  991.000
950.895;  155.336;  -13.630; 1023.840
951.451;  154.426;  -15.100;  925.280
952.007;  155.240;  -11.330;  998.540
952.563;  153.456;  -10.580;  937.780
953.118;  151.981;  -13.440;  904.940
953.674;  151.538;  -12.710;  935.780
954.230;  151.575;  -10.350;  949.640
954.785;  149.362;   -9.190;  936.640
955.341;  146.733;  -11.200;  998.160
955.897;  144.092;  -16.560;  834.660
956.452;  147.382;  -12.570;  953.840
957.008;  146.473;   -7.970; 1083.640
957.563;  143.616;  -11.940; 1009.540
958.118;  138.226;  -13.450;  877.700
958.674;  139.372;  -12.030;  946.780
959.229;  140.655;   -9.410; 1013.980
959.784;  137.947;  -12.000;  832.400
960.339;  137.641;  -14.780; 1001.280
960.894;  134.405;   -9.860;  963.760
961.449;  129.974;   -9.970;  859.960
962.004;  129.541;  -10.900; 1212.840
962.559;  124.787;  -13.150;  860.140
963.114;  122.450;  -13.740;  742.480
963.669;  122.525;   -9.820;  915.500
964.224;  119.499;  -13.890;  874.340
964.779;  118.543;  -12.600;  828.420
965.334;  119.970;  -10.950; 1017.860
965.888;  119.775;  -11.170;  875.360
966.443;  121.878;  -12.540;  972.380
966.998;  122.094;  -15.780;  819.460
967.552;  120.594;   -9.760;  908.380
968.107;  117.106;   -9.060;  868.300
968.661;  117.415;  -11.950;  922.440
969.216;  118.227;  -12.800;  856.280
969.770;  118.547;  -11.210;  917.200
970.324;  118.285;  -11.610;  923.140
970.879;  113.816;  -11.370;  947.180
971.433;  111.248;  -12.540;  952.720
971.987;  107.018;  -11.320;  895.340
972.541;  103.648;  -10.720;  917.100
973.095;  102.023;   -9.680; 1009.460
973.649;  100.964;  -11.440;  809.480
974.203;  100.613;  -11.210;  829.040
974.757;  100.451;  -10.240;  855.220
975.311;  100.889;  -13.720;  872.600
975.865;  100.381;  -13.770;  881.820
976.419;   98.629;  -11.690;  857.400
976.973;   98.584;   -9.510;  849.620
977.526;   99.750;  -12.620;  949.920
978.080;   98.755;  -12.010;  796.780
978.634;  100.860;  -10.170;  921.320
979.187;   98.133;   -9.020;  905.400
979.741;   96.180;   -9.820; 1018.380
980.294;   90.533;  -14.870;  789.160
980.848;   88.700;  -12.380;  717.220
981.401;   91.100;  -10.350;  816.540
981.955;   92.188;  -13.720;  844.300
982.508;   91.601;  -11.490;  746.340
983.061;   92.568;  -10.000;  915.260
983.615;   88.642;  -11.480;  798.800
984.168;   84.364;  -13.220;  770.080
984.721;   84.723;  -13.960;  880.760
985.274;   84.294;  -10.870;  867.500
985.827;   82.929;   -9.790;  834.220
986.380;   79.066;  -13.120;  721.340
986.933;   79.545;  -12.450;  864.800
987.486;   79.188;  -10.210;  861.920
988.039;   77.359;   -8.430;  863.100
988.591;   74.569;  -10.520;  893.260
989.144;   72.540;  -14.860;  737.260
989.697;   72.342;  -13.080;  758.740
990.250;   72.315;  -10.150;  858.100
990.802;   69.851;  -13.430;  755.860
991.355;   71.506;  -12.750;  974.880
991.907;   69.259;  -12.040;  864.320
992.460;   67.012;  -11.330;  753.760
993.012;   66.186;  -13.610;  749.540
993.565;   65.371;  -13.460;  711.360
994.117;   67.860;   -9.360;  950.780
994.669;   63.890;  -11.300;  701.320
995.221;   61.599;  -13.540;  791.920
995.774;   59.983;  -13.430;  787.580
996.326;   59.342;  -12.520;  740.220
996.878;   58.708;  -10.950;  838.420
997.430;   55.831;  -14.300;  699.860
997.982;   54.962;  -13.760;  750.140
998.534;   55.770;  -11.530;  739.060
999.086;   54.826;  -10.310;  738.220
999.638;   51.652;  -12.530;  661.380
1000.190;   51.168;  -11.840;  699.320
1000.741;   52.179;  -10.260;  742.700
1001.293;   51.759;   -8.860;  686.020
1001.845;   49.860;  -13.700;  676.640
1002.396;   50.277;  -12.100;  743.400
1002.948;   50.186;  -12.760;  737.400
1003.500;   48.019;  -10.380;  723.780
1004.051;   48.210;  -11.900;  907.580
1004.603;   46.602;  -12.250;  791.820
1005.154;   43.913;  -13.210;  608.980
1005.705;   42.800;  -10.950;  723.960
1006.257;   41.643;  -13.880;  707.220
1006.808;   40.619;  -12.840;  685.460
1007.359;   41.757;  -10.570;  763.240
1007.910;   40.222;   -9.620;  646.640
1008.461;   38.651;  -13.630;  732.940
1009.013;   37.964;  -17.200;  588.340
1009.564;   40.277;  -10.200;  793.520
1010.115;   37.289;  -12.570;  597.040
1010.665;   37.373;  -15.150;  602.160
1011.216;   36.790;  -14.480;  667.920
1011.767;   36.877;  -11.340;  697.920
1012.318;   36.945;   -9.780;  736.980
1012.869;   35.146;  -12.380;  679.000
1013.419;   35.620;  -15.560;  603.120
1013.970;   36.483;  -11.010;  666.640
1014.521;   34.337;  -11.610;  620.620
1015.071;   35.118;  -13.450;  670.380
1015.622;   34.032;  -13.870;  635.460
1016.172;   34.542;  -11.610;  596.820
1016.723;   34.063;  -12.120;  614.380
1017.273;   33.265;  -13.620;  604.160
1017.823;   33.223;  -14.140;  650.340
1018.374;   33.402;  -12.800;  611.760
1018.924;   33.255;  -12.340;  716.880
1019.474;   32.892;  -11.410;  718.880
1020.024;   31.316;  -14.770;  657.580
1020.574;   33.163;   -9.780;  726.160
1021.124;   32.778;   -8.560;  673.580
1021.674;   30.704;  -15.190;  559.120
1022.224;   31.727;  -13.530;  708.940
1022.774;   32.230;  -13.280;  668.820
1023.324;   32.866;  -10.690;  753.520
1023.874;   32.967;  -10.240;  875.760
1024.423;   30.279;  -12.540;  613.700
1024.973;   31.193;  -10.010;  610.760
1025.523;   30.214;  -10.550;  620.960
1026.072;   28.681;  -13.560;  606.420
1026.622;   29.190;  -15.120;  675.740
1027.172;   31.035;  -11.260;  715.660
1027.721;   29.882;  -11.410;  601.220
1028.270;   29.370;  -13.530;  663.400
1028.820;   29.180;  -13.680;  638.080
1029.369;   29.252;  -13.520;  612.700
1029.918;   29.064;  -10.980;  649.840
1030.468;   27.956;  -13.530;  564.780
1031.017;   28.421;  -13.170;  634.800
1031.566;   28.164;  -12.200;  608.900
1032.115;   28.509;   -9.960;  694.500
1032.664;   26.997;  -13.210;  596.480
1033.213;   28.345;  -12.500;  735.420
1033.762;   28.277;  -11.910;  635.620
1034.311;   27.771;   -9.640;  677.220
1034.860;   27.413;  -13.310;  691.000
1035.408;   26.481;  -11.830;  722.720
1035.957;   27.791;  -12.000;  719.540
1036.506;   25.606;  -11.690;  530.800
1037.055;   26.714;  -10.990;  844.320
1037.603;   25.764;  -15.120;  664.000
1038.152;   25.417;  -12.450;  534.760
1038.700;   25.138;  -10.560;  585.740
1039.249;   25.110;  -11.080;  681.220
1039.797;   25.636;  -12.540;  633.360
1040.345;   26.041;  -11.920;  705.420
1040.894;   25.268;  -11.410;  625.300
1041.442;   24.167;  -14.320;  632.200
1041.990;   23.523;  -16.240;  559.160
1042.538;   23.541;  -11.680;  536.180
1043.087;   23.836;  -10.760;  570.860
1043.635;   24.499;  -11.850;  670.500
1044.183;   23.236;  -15.480;  586.400
1044.731;   24.101;  -11.770;  576.000
1045.279;   23.330;  -13.090;  674.920
1045.827;   25.147;  -12.440;  892.400
1046.374;   21.941;  -13.840;  515.420
1046.922;   21.799;  -13.220;  590.580
1047.470;   24.139;  -10.230;  691.300
1048.018;   22.797;  -14.590;  647.960
1048.565;   22.984;  -12.050;  708.600
1049.113;   22.354;  -11.650;  557.000
1049.660;   22.506;  -10.510;  629.660
1050.208;   22.416;  -13.310;  675.640
1050.755;   21.615;  -15.900;  606.580
1051.303;   22.957;  -11.430;  686.820
1051.850;   21.124;   -8.480;  635.120
1052.397;   19.156;  -15.010;  473.960
1052.945;   19.851;  -13.960;  617.760
1053.492;   22.916;  -13.150;  741.840
1054.039;   22.549;   -9.630;  720.180
1054.586;   19.904;  -13.680;  557.240
1055.133;   20.952;  -14.570;  693.140
1055.680;   21.495;  -13.820;  646.620
1056.227;   20.004;  -11.730;  542.780
1056.774;   20.654;  -12.480;  794.980
1057.321;   19.372;  -13.930;  523.260
1057.868;   20.254;  -11.690;  651.320
1058.415;   20.323;   -9.520;  651.980
1058.961;   19.782;  -13.160;  678.940
1059.508;   19.675;  -12.920;  643.820
1060.055;   19.595;  -11.920;  581.780
1060.601;   19.802;  -11.500;  624.300
1061.148;   18.868;  -14.330;  616.820
1061.694;   18.072;  -16.870;  592.580
1062.241;   19.163;  -10.330;  596.320
1062.787;   19.308;  -10.620;  663.140
1063.334;   19.786;  -10.110;  808.560
1063.880;   17.969;  -13.400;  668.360
1064.426;   19.058;  -10.680;  706.820
1064.972;   17.681;   -9.920;  601.340
1065.518;   16.445;  -10.980;  566.640
1066.065;   18.012;  -14.890;  624.460
1066.611;   17.712;  -12.870;  598.800
1067.157;   18.891;  -12.950;  641.860
1067.703;   17.081;  -13.540;  668.480
1068.249;   17.525;  -13.540;  605.220
1068.794;   17.821;  -12.600;  626.880
1069.340;   16.448;  -10.620;  578.960
1069.886;   16.703;  -12.830;  590.700
1070.432;   15.124;  -14.870;  541.720
1070.977;   16.591;  -11.980;  601.080
1071.523;   17.172;   -8.200;  573.060
1072.068;   16.447;  -12.330;  582.000
1072.614;   15.737;  -16.370;  527.760
1073.160;   17.588;  -11.100;  687.040
1073.705;   15.432;  -10.480;  572.520
1074.250;   15.316;  -14.520;  559.900
1074.796;   17.177;  -11.460;  655.160
1075.341;   16.613;  -11.950;  664.100
1075.886;   15.867;  -11.460;  594.240
1076.431;   14.621;  -13.770;  649.880
1076.976;   14.500;  -12.680;  639.220
1077.521;   14.995;  -13.170;  583.080
1078.067;   14.625;  -10.860;  579.400
1078.612;   14.530;  -13.920;  661.620
1079.156;   14.817;  -13.880;  601.540
1079.701;   15.110;  -13.120;  693.260
1080.246;   15.688;   -9.940;  696.300
1080.791;   14.329;  -14.740;  625.020
1081.336;   14.604;  -13.750;  659.320
1081.880;   15.295;  -13.400;  649.680
1082.425;   13.568;  -12.220;  573.480
1082.970;   14.568;  -11.610;  717.040
1083.514;   14.014;  -13.580;  597.000
1084.059;   13.450;  -12.810;  586.720
1084.603;   13.421;  -12.320;  565.840
1085.147;   13.679;  -13.190;  645.220
1085.692;   13.446;  -12.480;  716.800
1086.236;   12.388;  -13.020;  503.140
1086.780;   15.474;   -9.190;  751.440
1087.325;   13.050;  -12.480;  654.620
1087.869;   13.024;  -12.450;  610.700
1088.413;   13.789;  -12.240;  705.040
1088.957;   11.758;   -9.020;  543.400
1089.501;   13.217;  -10.320;  766.640
1090.045;   13.023;  -12.720;  726.480
1090.589;   12.293;  -13.690;  569.920
1091.133;   12.897;  -10.020;  673.340
1091.676;   12.684;  -12.330;  591.940
1092.220;   11.303;  -14.970;  600.920
1092.764;   13.609;  -12.430;  706.960
1093.307;   12.545;   -9.800;  673.780
1093.851;   11.088;  -14.970;  556.540
1094.395;   11.364;  -15.310;  683.140
1094.938;   11.651;  -10.370;  632.520
1095.482;   11.800;  -11.050;  559.800
1096.025;   11.423;  -11.840;  710.880
1096.568;   11.662;  -12.840;  779.280
1097.112;   10.246;  -14.700;  508.180
1097.655;   11.425;   -8.720;  603.000
1098.198;    9.902;  -13.610;  600.180
1098.741;   10.024;  -13.350;  612.860
1099.285;   11.617;  -11.230;  657.300
1099.828;    9.875;  -11.840;  439.400
1100.371;    9.598;  -10.840;  608.160
1100.914;    9.789;  -14.190;  682.660
1101.457;   10.446;  -11.240;  679.900
1101.999;    9.051;  -11.270;  584.680
1102.542;    9.792;  -11.480;  641.440
1103.085;    9.101;  -11.750;  658.500
1103.628;   10.238;  -11.400;  762.060
1104.170;   10.169;  -10.490;  588.280
1104.713;    9.111;  -10.600;  646.700
1105.256;    8.008;  -14.360;  557.440
1105.798;    8.502;  -13.210;  499.980
1106.341;   10.780;  -10.270;  728.900
1106.883;    8.447;  -12.200;  521.340
1107.425;    8.379;  -13.110;  668.180
1107.968;    9.388;  -12.840;  612.380
1108.510;    9.790;   -6.480;  684.960
1109.052;    6.999;  -13.940;  612.620
1109.594;    7.827;  -13.690;  554.440
1110.136;    8.963;  -11.880;  643.220
1110.679;    8.131;   -9.500;  633.080
1111.221;    7.913;  -14.160;  604.460
1111.763;    7.228;  -13.980;  559.220
1112.304;    7.751;  -13.880;  547.140
1112.846;    8.447;  -12.210;  666.240
1113.388;   10.226;  -11.390;  942.180
1113.930;    7.638;  -14.540;  694.200
1114.472;    7.530;  -12.640;  606.540
1115.013;    7.044;  -11.620;  551.280
1115.555;    5.812;  -13.640;  587.100
1116.097;    5.716;  -15.380;  579.480
1116.638;    7.859;  -12.640;  684.600
1117.180;    7.369;   -9.850;  667.740
1117.721;    6.474;  -13.690;  568.580
1118.262;    7.270;  -12.680;  677.960
1118.804;    7.680;  -12.530;  637.340
1119.345;    6.588;  -11.690;  578.400
1119.886;    7.289;  -13.380;  704.040
1120.427;    5.468;  -14.070;  589.020
1120.969;    6.203;  -13.500;  597.920
1121.510;    6.300;  -11.480;  563.060
1122.051;    5.674;  -12.830;  723.580
1122.592;    5.159;  -14.290;  655.420
1123.133;    4.995;  -12.400;  547.940
1123.673;    6.980;  -10.130;  706.480
1124.214;    4.989;  -12.930;  612.460
1124.755;    5.595;  -14.380;  639.460
1125.296;    5.659;  -14.000;  627.320
1125.836;    6.742;  -10.070;  691.500
1126.377;    5.138;  -12.640;  599.660
1126.918;    5.859;  -12.960;  614.980
1127.458;    5.173;  -13.350;  622.220
1127.999;    6.363;  -10.750;  656.980
1128.539;    4.654;  -12.350;  694.240
1129.079;    3.870;  -14.860;  632.720
1129.620;    4.575;  -13.840;  558.100
1130.160;    4.856;  -12.330;  539.480
1130.700;    4.860;  -14.530;  640.840
1131.240;    5.093;  -12.530;  643.700
1131.781;    4.708;  -14.450;  619.680
1132.321;    4.587;   -9.790;  599.120
1132.861;    3.116;  -14.860;  564.200
1133.401;    2.226;  -14.290;  593.940
1133.941;    4.241;  -11.750;  626.280
1134.481;    4.265;   -9.920;  597.580
1135.020;    2.282;  -12.290;  609.160
1135.560;    3.925;  -11.650;  674.940
1136.100;    3.849;  -16.270;  501.160
1136.640;    3.149;  -10.890;  510.480
1137.179;    3.058;  -14.180;  537.960
1137.719;    2.766;  -16.250;  605.400
1138.258;    3.812;  -14.230;  587.360
1138.798;    4.185;   -9.090;  663.780
1139.337;    1.640;  -15.130;  482.840
1139.877;    2.610;  -13.680;  642.360
1140.416;    5.790;  -11.320;  878.060
1140.955;    2.748;  -10.860;  535.380
1141.494;    2.537;  -12.920;  669.280
1142.034;    1.951;  -13.930;  583.520
1142.573;    3.811;  -11.440;  646.280
1143.112;    2.783;  -12.000;  553.480
1143.651;    1.547;  -13.670;  536.480
1144.190;    2.934;  -12.730;  691.640
1144.729;    2.350;  -14.560;  607.420
1145.267;    3.029;  -11.830;  584.900
1145.806;    2.585;  -12.230;  637.040
1146.345;    1.440;  -14.130;  635.020
1146.884;    2.153;  -11.590;  622.500
1147.422;    1.441;  -12.550;  533.060
1147.961;    2.535;  -11.180;  708.460
1148.500;    2.300;  -11.510;  669.720
1149.038;    2.930;  -11.640;  632.500
1149.577;    2.364;  -10.130;  698.640
1150.115;    0.152;  -13.970;  452.280
1150.653;    1.248;  -14.520;  607.340
1151.192;    1.783;  -12.810;  552.920
1151.730;    2.143;   -9.100;  652.560
1152.268;    0.306;  -12.220;  589.520
1152.806;    0.773;  -14.140;  571.180
1153.344;    0.312;  -12.350;  577.640
1153.882;    1.432;   -8.980;  600.060
1154.421;   -0.166;  -15.190;  470.620
1154.958;   -0.017;  -15.210;  595.240
1155.496;    2.079;  -12.850;  645.280
1156.034;    1.756;   -9.940;  721.880
1156.572;    1.372;  -13.570;  667.060
1157.110;   -1.059;  -14.590;  473.940
1157.647;    1.952;  -13.030;  676.960
1158.185;    0.745;  -12.140;  564.320
1158.723;   -0.919;  -14.390;  509.200
1159.260;    0.119;  -14.090;  701.700
1159.798;    1.284;  -11.920;  658.160
1160.335;    0.774;  -11.110;  631.820

