
Integration time [ms]:   3.882
Averaging Nr. [scans]: 1000
Smoothing Nr. [pixels]: 0
Data measured with spectrometer [name]: 7414430SP
Wave   ;Sample   ;Dark     ;Reference
[nm]   ;[counts] ;[counts] ;[counts] 

288.544;  140.204;    7.153;  793.890
289.143;  144.161;    8.402;  681.602
289.742;  146.099;    7.062;  828.814
290.341;  132.860;    0.191;  789.841
290.940;  122.341;    0.321;  730.702
291.538;  122.865;    3.811;  881.108
292.137;  123.018;   -3.438;  792.581
292.736;  126.143;   -2.809;  975.101
293.335;  121.692;   -5.239;  735.086
293.934;  122.432;   -4.939;  781.677
294.532;  123.919;   -2.199; 1031.958
295.131;  109.489;   -6.831;  834.394
295.730;  108.569;   -6.620;  809.588
296.328;  105.969;   -6.471;  783.442
296.927;  106.478;   -6.571;  779.652
297.525;  107.877;   -7.391;  781.236
298.124;   97.637;   -9.402;  654.009
298.722;  102.662;   -5.781;  761.933
299.321;  102.425;   -6.351;  708.597
299.919;   99.329;   -8.661;  751.918
300.518;   93.923;  -11.922;  689.338
301.116;   95.919;   -6.941;  691.381
301.715;   96.871;   -5.471;  730.222
302.313;   96.281;   -8.361;  704.943
302.911;   90.539;   -9.082;  733.830
303.509;   96.564;   -4.571;  925.627
304.108;   94.474;   -7.111;  760.383
304.706;   93.528;   -7.681;  801.664
305.304;   88.037;   -9.162;  796.707
305.902;   93.450;   -6.761;  784.484
306.500;   89.513;   -6.921;  728.200
307.098;   87.160;   -6.491;  746.560
307.696;   85.663;   -6.941;  780.432
308.294;   86.333;   -6.301;  731.359
308.892;   89.174;   -4.771;  759.769
309.490;   84.465;   -5.141;  712.161
310.088;   81.861;   -2.912;  788.444
310.686;   86.684;   -0.421;  821.749
311.284;   83.816;   -3.461;  766.040
311.882;   80.590;   -6.282;  731.225
312.480;   76.827;   -3.632;  697.167
313.078;   79.131;   -2.112;  808.331
313.675;   80.446;   -1.931;  691.600
314.273;   75.402;   -1.442;  797.837
314.871;   74.598;   -3.002;  589.829
315.468;   72.458;   -2.252;  652.090
316.066;   76.335;   -1.091;  694.427
316.664;   68.989;   -4.512;  656.351
317.261;   72.830;   -0.062;  910.128
317.859;   68.008;   -0.952;  768.735
318.456;   70.058;    0.719;  830.096
319.054;   65.837;   -4.002;  787.828
319.651;   64.078;   -4.972;  759.928
320.249;   62.942;   -1.162;  810.188
320.846;   61.120;   -2.651;  714.286
321.443;   59.062;   -3.832;  832.135
322.041;   55.081;   -4.312;  812.315
322.638;   53.005;   -3.872;  701.456
323.235;   55.867;   -4.361;  665.683
323.833;   53.533;   -4.821;  740.354
324.430;   47.911;   -6.971;  615.900
325.027;   48.874;   -4.361;  876.855
325.624;   50.168;   -5.581;  644.532
326.221;   47.228;   -6.601;  689.717
326.818;   46.647;   -7.301;  818.332
327.415;   49.175;   -6.180;  748.828
328.012;   48.406;   -5.920;  690.585
328.609;   46.867;   -8.390;  731.389
329.206;   45.187;   -6.121;  778.621
329.803;   43.935;   -5.241;  737.841
330.400;   47.724;   -7.420;  704.260
330.997;   47.569;   -5.931;  817.147
331.594;   44.971;   -5.641;  788.185
332.191;   51.151;   -6.451;  728.722
332.787;   55.077;   -4.651;  844.463
333.384;   52.635;   -5.472;  763.093
333.981;   49.218;   -6.303;  815.687
334.578;   53.523;   -5.892;  708.378
335.174;   55.856;   -4.102;  731.469
335.771;   53.590;   -8.053;  836.456
336.367;   50.713;   -7.363;  710.631
336.964;   55.517;   -6.243;  793.266
337.561;   54.521;   -5.653;  731.112
338.157;   49.331;   -7.074;  911.916
338.754;   47.357;   -5.474;  796.589
339.350;   45.689;   -5.624;  722.493
339.946;   48.676;   -5.054;  773.135
340.543;   40.929;   -6.695;  846.136
341.139;   34.032;   -6.215;  720.836
341.735;   32.469;   -5.746;  772.593
342.332;   32.617;   -7.335;  691.472
342.928;   32.730;   -4.835;  795.394
343.524;   25.609;   -4.586;  761.684
344.120;   22.802;   -3.946;  738.562
344.716;   26.746;   -4.835;  723.717
345.313;   24.773;   -5.325;  795.342
345.909;   19.411;   -6.535;  627.336
346.505;   20.657;   -4.725;  740.247
347.101;   22.283;   -4.164;  827.864
347.697;   22.644;   -5.274;  785.398
348.293;   16.273;   -7.145;  627.244
348.889;   17.363;   -4.364;  745.914
349.485;   17.684;   -6.404;  688.205
350.081;   18.711;   -7.534;  772.592
350.676;   12.199;   -6.995;  691.606
351.272;   17.460;   -3.544;  809.530
351.868;   18.316;   -5.324;  780.497
352.464;   15.282;   -7.204;  723.932
353.059;   10.558;   -6.894;  646.017
353.655;   14.508;   -3.754;  777.063
354.251;   16.106;   -6.143;  759.845
354.846;   10.418;   -9.464;  740.646
355.442;    7.576;   -7.555;  753.071
356.038;    9.287;   -5.474;  751.708
356.633;   10.482;   -5.914;  728.594
357.229;    8.810;   -8.944;  724.757
357.824;    5.933;   -6.794;  703.600
358.420;    5.366;   -5.754;  679.726
359.015;    6.606;   -5.664;  695.357
359.610;    6.893;   -8.004;  763.920
360.206;    0.430;   -8.815;  603.240
360.801;    3.733;   -8.834;  646.503
361.396;    7.026;   -6.274;  725.975
361.992;    2.641;   -8.574;  668.220
362.587;   -1.131;   -9.265;  670.160
363.182;    0.580;   -5.484;  689.631
363.777;    2.183;   -5.164;  738.242
364.372;    1.931;   -6.954;  737.314
364.967;   -2.350;   -7.065;  680.744
365.563;    1.813;   -5.684;  815.567
366.158;   -0.631;   -6.484;  685.161
366.753;    0.521;   -8.004;  649.263
367.348;   -2.381;  -10.114;  746.056
367.942;   -1.709;   -7.764;  697.298
368.537;   -2.380;   -4.554;  754.245
369.132;   -1.737;   -7.664;  703.428
369.727;   -6.757;   -8.905;  638.079
370.322;   -5.833;   -4.945;  580.186
370.917;   -4.678;   -7.095;  710.646
371.511;   -2.241;   -6.574;  861.834
372.106;   -6.546;   -6.515;  776.964
372.701;   -9.591;   -8.225;  585.988
373.296;   -2.593;   -4.494;  863.135
373.890;   -8.050;   -7.965;  647.840
374.485;  -11.143;   -9.745;  691.199
375.079;   -6.415;   -5.554;  738.685
375.674;   -3.735;   -4.724;  812.970
376.268;   -8.690;   -8.365;  691.759
376.863;  -15.449;   -8.126;  580.327
377.457;   -8.794;   -6.045;  662.490
378.052;  -10.099;   -6.835;  764.884
378.646;  -10.828;   -9.375;  741.167
379.240;  -11.459;   -6.185;  721.176
379.835;  -11.144;   -6.135;  636.978
380.429;  -12.495;   -8.365;  562.557
381.023;  -12.057;   -7.935;  779.205
381.617;  -15.267;   -8.325;  680.106
382.212;  -11.675;   -7.405;  685.303
382.806;  -10.316;   -4.155;  760.690
383.400;  -14.585;   -8.945;  672.281
383.994;  -15.560;   -8.365;  664.870
384.588;  -11.246;   -7.824;  697.701
385.182;  -10.050;   -7.984;  726.624
385.776;  -11.759;  -10.404;  706.875
386.370;  -15.551;   -7.335;  681.968
386.964;  -14.488;   -7.485;  684.155
387.558;  -11.346;   -8.174;  598.360
388.152;  -15.285;  -10.415;  681.959
388.745;  -13.679;   -9.595;  814.707
389.339;  -11.762;   -6.454;  747.642
389.933;  -10.911;   -5.804;  695.370
390.527;  -11.151;   -6.854;  859.029
391.120;  -19.042;   -7.665;  595.318
391.714;  -16.136;   -7.245;  711.633
392.308;  -11.797;   -4.514;  780.253
392.901;  -15.558;   -7.935;  642.460
393.495;  -18.304;   -8.585;  595.414
394.089;  -15.446;   -5.245;  760.452
394.682;  -16.062;   -6.305;  697.188
395.275;  -16.395;   -9.335;  719.927
395.869;  -19.371;   -7.375;  667.314
396.462;  -17.522;   -7.055;  616.609
397.056;  -11.645;   -5.434;  776.621
397.649;  -16.253;   -9.525;  731.575
398.242;  -15.030;   -7.574;  712.645
398.836;  -13.532;   -5.134;  766.408
399.429;  -14.370;   -6.544;  631.041
400.022;  -18.415;   -9.215;  665.902
400.615;  -16.308;   -8.105;  805.609
401.208;  -14.140;   -7.614;  691.451
401.802;  -15.630;   -8.085;  699.329
402.395;  -17.275;   -9.575;  683.502
402.988;  -18.655;   -9.285;  696.627
403.581;  -16.043;   -7.514;  646.878
404.174;  -12.205;   -6.404;  686.568
404.767;  -15.442;   -8.775;  638.583
405.360;  -18.289;   -7.415;  621.445
405.953;  -13.016;   -5.624;  759.034
406.545;  -11.418;   -6.474;  725.342
407.138;  -16.689;   -8.445;  618.350
407.731;  -15.926;  -10.044;  613.303
408.324;  -11.925;   -8.484;  660.554
408.917;  -11.395;   -7.624;  681.864
409.509;  -13.369;   -8.304;  740.396
410.102;  -16.806;   -8.495;  643.948
410.695;  -10.385;   -7.824;  665.758
411.287;  -10.561;   -7.754;  599.821
411.880;  -11.517;   -9.294;  585.421
412.472;  -15.326;   -8.814;  613.092
413.065;  -11.568;   -6.674;  629.408
413.657;   -9.557;   -9.664;  576.678
414.250;   -9.567;  -10.264;  646.681
414.842;  -11.233;   -8.664;  676.353
415.434;   -9.799;   -8.584;  570.463
416.027;   -4.482;   -9.423;  652.196
416.619;   -6.690;  -10.764;  713.400
417.211;   -8.086;   -7.404;  599.352
417.804;   -4.273;   -7.383;  628.499
418.396;   -8.104;   -8.334;  607.643
418.988;   -5.882;   -9.633;  659.238
419.580;   -9.306;  -10.554;  568.276
420.172;   -7.619;   -8.683;  536.196
420.764;   -2.727;   -9.713;  672.482
421.356;   -4.446;  -11.303;  636.898
421.948;   -5.756;   -8.453;  677.661
422.540;   -0.463;   -5.793;  680.027
423.132;   -0.459;   -7.162;  600.641
423.724;   -4.467;   -7.933;  561.267
424.316;   -2.295;   -9.083;  621.345
424.908;    0.892;   -8.392;  591.517
425.500;    2.970;   -8.062;  647.978
426.092;    2.687;   -9.692;  648.268
426.683;    1.084;   -8.223;  684.836
427.275;    3.301;   -8.602;  641.471
427.867;    6.632;   -8.382;  668.948
428.458;    6.601;  -10.472;  732.344
429.050;    3.831;   -9.112;  680.749
429.642;    6.836;   -7.752;  743.124
430.233;    7.852;   -8.832;  569.356
430.825;    9.075;   -8.292;  724.809
431.416;    4.949;   -7.522;  698.241
432.008;    8.580;   -9.262;  651.723
432.599;   10.991;   -6.441;  656.073
433.190;    8.390;   -9.222;  637.670
433.782;    5.805;  -11.832;  590.395
434.373;   13.771;   -7.121;  884.765
434.964;   12.942;   -9.141;  602.920
435.556;   10.755;   -9.332;  634.537
436.147;   12.620;   -8.892;  758.490
436.738;   12.299;   -8.151;  701.099
437.329;   18.940;   -8.281;  721.723
437.920;   11.674;   -9.062;  666.688
438.511;   10.512;  -11.182;  564.526
439.103;   17.130;   -7.461;  623.998
439.694;   20.152;   -8.541;  681.583
440.285;   21.242;   -7.351;  764.432
440.876;   18.755;   -8.201;  845.738
441.466;   17.327;  -10.381;  575.162
442.057;   22.923;   -7.620;  665.814
442.648;   22.316;   -8.461;  746.255
443.239;   19.944;   -8.991;  620.477
443.830;   25.107;   -7.910;  704.958
444.421;   27.170;   -7.340;  655.474
445.011;   23.701;   -8.981;  693.619
445.602;   22.606;   -9.341;  743.126
446.193;   24.024;  -11.390;  488.117
446.783;   30.570;  -11.240;  640.397
447.374;   25.236;   -8.471;  692.759
447.964;   24.280;   -8.471;  713.770
448.555;   33.259;   -6.590;  822.742
449.145;   30.092;   -8.200;  662.853
449.736;   31.652;  -11.040;  803.179
450.326;   30.672;   -9.640;  713.626
450.917;   35.413;   -9.480;  675.324
451.507;   34.711;   -8.020;  600.661
452.097;   35.397;  -10.210;  746.267
452.688;   36.229;   -7.810;  742.160
453.278;   35.654;   -9.360;  566.840
453.868;   41.966;   -8.669;  793.550
454.458;   38.690;  -10.950;  651.141
455.048;   38.675;  -10.200;  711.783
455.639;   40.418;   -9.369;  567.096
456.229;   44.663;   -7.739;  710.694
456.819;   46.053;   -8.939;  751.158
457.409;   45.980;   -7.169;  773.993
457.999;   48.096;   -7.779;  737.505
458.589;   49.113;   -7.039;  686.606
459.179;   48.468;   -9.019;  717.658
459.769;   46.062;   -8.909;  627.099
460.358;   51.405;   -8.659;  797.262
460.948;   51.713;   -8.209;  689.503
461.538;   53.270;   -9.879;  660.677
462.128;   50.239;   -9.379;  664.934
462.717;   56.914;   -9.158;  710.326
463.307;   61.048;   -8.638;  705.846
463.897;   56.658;   -8.869;  656.942
464.486;   55.425;   -7.409;  837.128
465.076;   60.656;   -9.618;  733.776
465.666;   64.136;   -7.578;  652.900
466.255;   61.650;   -9.369;  785.651
466.845;   59.529;  -10.049;  666.749
467.434;   62.759;   -8.168;  725.873
468.023;   65.042;   -9.188;  658.357
468.613;   61.628;   -9.849;  713.946
469.202;   65.924;  -12.958;  646.507
469.791;   69.595;   -9.488;  737.811
470.381;   72.240;   -6.468;  742.813
470.970;   71.808;  -10.248;  711.099
471.559;   71.816;  -11.428;  733.291
472.148;   74.543;   -9.738;  675.737
472.738;   77.344;   -7.877;  765.466
473.327;   76.632;  -11.868;  637.529
473.916;   76.196;   -8.578;  737.446
474.505;   79.738;  -11.137;  751.703
475.094;   84.115;   -9.407;  806.570
475.683;   83.177;   -9.977;  797.699
476.272;   82.633;  -10.807;  730.632
476.861;   85.540;  -11.017;  706.754
477.449;   93.594;  -10.316;  728.487
478.038;   87.394;  -10.187;  692.513
478.627;   87.388;  -12.458;  714.852
479.216;   94.841;  -10.127;  769.441
479.805;   98.265;   -6.256;  783.375
480.393;   97.755;   -8.737; 1008.945
480.982;   95.997;   -9.087;  874.501
481.571;  101.782;   -7.806;  858.333
482.159;  102.607;  -10.596;  705.386
482.748;  102.381;  -11.507;  821.385
483.336;  106.011;   -8.366;  858.209
483.925;  106.574;   -7.497;  774.373
484.513;  114.323;   -8.326;  758.962
485.102;  110.855;  -10.277;  810.965
485.690;  118.154;   -8.256; 1011.050
486.278;  120.195;   -7.146;  979.329
486.867;  121.024;   -7.986;  809.662
487.455;  123.358;   -9.926;  898.229
488.043;  123.540;  -10.026;  748.361
488.631;  132.244;   -7.226; 1005.079
489.220;  136.713;   -8.696;  908.626
489.808;  136.015;  -12.276;  741.415
490.396;  142.740;   -9.386;  914.645
490.984;  147.535;   -8.506;  830.161
491.572;  158.008;   -8.226;  940.315
492.160;  163.779;   -9.836;  919.081
492.748;  173.011;  -10.316;  884.341
493.336;  191.631;   -7.146; 1019.693
493.924;  214.048;   -7.965;  958.077
494.512;  237.894;  -10.316; 1066.638
495.100;  271.050;  -10.186; 1103.280
495.687;  319.157;   -7.805; 1206.373
496.275;  377.715;   -9.686; 1150.796
496.863;  453.583;  -11.566; 1281.171
497.451;  539.800;  -11.406; 1386.805
498.038;  664.130;   -8.235; 1556.729
498.626;  773.912;   -7.485; 1741.407
499.214;  916.306;   -8.646; 2016.609
499.801; 1134.189;   -9.936; 2220.633
500.389; 1314.531;   -8.056; 2312.494
500.976; 1503.217;   -6.166; 2744.849
501.564; 1697.596;   -9.126; 3148.565
502.151; 1981.649;  -12.456; 3515.999
502.738; 2373.160;  -10.056; 3971.274
503.326; 2748.275;  -10.605; 4403.796
503.913; 3027.015;  -10.576; 5161.749
504.500; 3472.259;   -9.056; 5986.420
505.088; 3933.715;  -10.136; 6381.201
505.675; 4677.270;   -9.075; 6925.547
506.262; 5220.261;  -11.346; 7619.060
506.849; 5751.806;   -9.376; 8733.969
507.436; 6237.771;   -7.365; 9790.121
508.023; 6545.466;   -8.686; 9985.472
508.610; 6944.548;   -8.846;10434.618
509.197; 7867.812;   -9.077;11198.435
509.784; 9066.444;  -10.246;12391.194
510.371; 9685.711;   -9.825;13603.713
510.958;10618.460;  -10.896;14426.586
511.545;11456.053;   -9.006;15243.775
512.132;12149.483;   -8.765;15945.876
512.719;13082.286;   -8.286;16340.369
513.305;14775.064;   -9.256;18011.766
513.892;16699.354;  -11.106;19754.971
514.479;18248.758;   -8.576;20967.805
515.066;19243.486;   -9.046;22299.793
515.652;19936.406;  -10.676;22908.660
516.239;21559.455;  -10.166;23798.875
516.825;21768.570;  -11.266;25567.275
517.412;21136.252;   -7.446;28154.959
517.998;21495.727;  -10.916;28344.111
518.585;21028.717;   -9.166;27134.219
519.171;20918.320;  -10.135;27268.576
519.758;22255.305;   -8.806;28964.129
520.344;23473.771;   -6.716;30664.494
520.930;22590.939;  -10.166;32550.605
521.516;22706.025;   -9.615;35422.895
522.103;26204.115;   -8.656;38280.004
522.689;30868.361;   -9.646;37835.117
523.275;33113.902;  -10.786;37288.613
523.861;34519.445;   -9.266;37281.395
524.447;34415.938;   -8.285;37846.949
525.033;34591.809;   -9.426;38321.949
525.619;33879.227;   -9.836;38579.285
526.205;34626.035;   -8.136;40622.875
526.791;35932.496;   -9.986;42258.836
527.377;37283.863;   -8.236;42966.902
527.963;35730.445;  -12.117;42018.949
528.549;34018.863;   -8.376;42476.828
529.135;34521.023;   -8.696;41854.852
529.721;36132.457;   -9.686;41237.711
530.306;38382.840;   -8.616;41259.445
530.892;41569.148;   -9.396;41506.047
531.478;42384.773;   -9.926;43559.613
532.063;43722.246;  -10.236;47695.563
532.649;46443.145;   -8.257;50808.324
533.235;48227.699;  -11.476;51787.500
533.820;46631.535;   -8.156;52145.035
534.406;44940.688;  -12.257;51133.488
534.991;42870.805;   -8.686;49996.805
535.576;40476.266;   -9.426;48882.852
536.162;40338.090;   -8.436;46942.285
536.747;39356.867;  -10.957;45711.746
537.333;38827.676;  -13.147;48510.180
537.918;42040.742;   -9.027;50439.891
538.503;43096.723;   -8.256;50863.711
539.088;46260.289;  -10.576;50906.922
539.673;47966.039;  -10.907;52621.965
540.259;47958.113;   -9.126;52368.094
540.844;45004.715;   -9.026;50879.109
541.429;45793.422;   -9.597;52077.777
542.014;49859.270;  -11.447;52716.695
542.599;50720.574;   -9.236;52363.281
543.184;48647.488;  -12.267;53187.137
543.769;49263.176;  -10.367;54697.605
544.354;48470.230;  -10.887;53913.914
544.938;41361.512;  -11.687;49680.164
545.523;34641.211;   -8.286;47386.277
546.108;33100.801;   -9.317;49151.949
546.693;34785.484;  -10.187;51384.637
547.278;36810.086;   -9.926;51853.254
547.862;40017.102;   -9.196;51173.750
548.447;41718.965;   -9.657;51691.395
549.031;42901.410;   -9.127;52456.703
549.616;47274.559;  -10.836;52714.516
550.201;50502.789;   -8.507;52414.598
550.785;50056.234;  -10.537;52355.059
551.370;50452.258;  -11.727;54589.453
551.954;50866.363;   -9.457;58267.348
552.538;50317.070;   -8.147;59062.176
553.123;49534.496;   -9.397;58115.285
553.707;47189.000;   -9.558;56556.285
554.291;47518.949;   -9.417;56201.668
554.876;47512.422;   -7.627;55335.762
555.460;45799.941;  -10.457;54155.703
556.044;43955.410;  -10.078;53721.484
556.628;44138.137;   -9.407;53731.016
557.212;44359.535;   -7.957;54312.531
557.796;44700.605;  -11.327;53797.773
558.380;48943.156;  -10.868;56145.984
558.964;49675.363;   -9.637;57277.930
559.548;47354.457;   -8.807;56459.641
560.132;47536.609;  -10.187;54434.543
560.716;46514.281;   -9.868;54800.617
561.300;47821.707;  -10.217;57606.945
561.884;49364.750;   -4.947;58972.445
562.467;48754.438;   -9.588;57327.570
563.051;46550.172;  -11.138;54962.434
563.635;44557.887;   -9.358;52594.473
564.219;44109.941;   -9.797;50610.410
564.802;44463.066;   -9.918;49551.180
565.386;42470.996;  -10.838;48370.953
565.969;41526.523;   -8.037;48178.871
566.553;40442.664;   -5.667;49957.305
567.136;39176.406;   -8.258;50369.594
567.720;38752.297;  -11.278;49492.004
568.303;41277.859;   -9.028;50616.352
568.887;41548.484;   -7.508;50727.148
569.470;40190.324;  -11.068;51698.379
570.053;40103.172;  -10.028;52122.078
570.637;38191.215;  -11.077;52536.438
571.220;37500.926;   -8.747;51186.098
571.803;39049.934;   -8.868;51032.762
572.386;40765.984;  -10.608;49609.887
572.969;40783.816;  -10.548;48285.926
573.552;38660.012;   -7.898;47624.285
574.135;39817.840;   -9.918;45498.641
574.718;36096.254;  -10.328;41970.434
575.301;33294.781;   -9.548;41447.137
575.884;30493.313;   -8.768;40923.836
576.467;33641.676;   -9.858;45267.723
577.050;34051.891;  -11.018;48175.543
577.633;34749.680;  -10.048;47729.328
578.216;33993.305;  -10.268;47579.793
578.799;31522.520;  -11.808;47820.996
579.381;32258.385;   -7.338;48115.551
579.964;34713.043;   -9.728;47333.766
580.547;35813.582;   -8.928;46668.969
581.129;37285.434;   -9.149;44466.141
581.712;37716.340;  -11.359;44164.922
582.294;35243.824;  -10.738;46477.855
582.877;34245.992;   -8.788;48244.254
583.459;34718.297;   -9.859;47437.895
584.042;36539.277;   -9.649;46943.219
584.624;36358.402;  -10.529;46792.227
585.206;35248.707;  -10.298;46557.250
585.789;34874.543;  -11.029;45793.773
586.371;32723.404;   -9.359;43836.391
586.953;31431.422;   -8.799;42972.492
587.536;30922.766;   -8.928;42487.211
588.118;31124.449;   -9.180;42086.414
588.700;30602.482;  -10.519;43389.930
589.282;29708.184;   -8.098;43646.039
589.864;29666.080;   -8.139;43438.109
590.446;31343.439;  -10.509;43151.926
591.028;32150.949;  -11.119;42781.867
591.610;33322.492;  -10.019;42839.098
592.192;33139.996;   -8.838;42820.402
592.774;30341.539;  -11.549;40724.277
593.356;27748.234;  -11.609;39874.789
593.937;26622.543;  -10.019;39980.648
594.519;29077.754;   -7.839;42069.633
595.101;32163.850;  -10.779;42976.031
595.683;33467.438;  -10.049;44084.441
596.264;33067.375;   -9.969;43478.797
596.846;33248.594;   -9.699;43803.672
597.427;32439.531;  -10.970;42986.934
598.009;31543.158;  -13.090;42832.219
598.591;30642.313;   -9.509;42580.086
599.172;31057.178;   -9.019;43061.805
599.753;31689.164;  -13.310;41691.469
600.335;32329.555;  -11.010;40692.520
600.916;31406.459;  -10.309;39982.422
601.498;30364.834;   -8.209;40318.617
602.079;29844.227;  -11.440;40670.609
602.660;31284.166;   -8.690;41450.898
603.241;32821.512;  -12.759;41137.738
603.823;31880.230;  -10.409;38868.797
604.404;31407.951;  -11.790;38182.785
604.985;32860.164;  -10.280;38078.047
605.566;34146.730;   -8.059;38056.633
606.147;31116.607;   -8.960;37020.418
606.728;29128.793;  -10.710;37883.359
607.309;28734.262;  -12.760;38748.273
607.890;27295.240;   -9.959;38850.230
608.471;27541.428;   -9.780;37457.918
609.051;29057.934;   -8.940;36066.457
609.632;29746.252;  -12.070;35991.074
610.213;29697.969;   -9.610;37402.641
610.794;29935.719;   -8.750;38383.363
611.374;30744.477;  -11.100;40562.387
611.955;31113.512;  -12.200;38533.727
612.536;31013.717;  -10.410;36951.789
613.116;30223.158;  -10.010;37197.891
613.697;28375.598;  -10.480;38411.125
614.277;28176.553;  -12.751;38673.938
614.858;27258.285;  -11.600;37075.863
615.438;27670.902;   -8.190;35092.906
616.019;26559.109;   -8.941;33666.301
616.599;28072.180;  -13.540;34189.023
617.179;30667.076;  -10.890;36952.047
617.760;30055.479;   -7.610;39582.574
618.340;28262.201;  -14.441;38943.977
618.920;27953.516;   -9.180;37594.156
619.500;30245.154;  -11.881;37866.938
620.080;31726.111;   -9.870;37869.043
620.660;30877.648;  -13.211;36868.617
621.241;30016.248;  -11.921;36352.309
621.821;29619.783;  -10.271;35459.520
622.401;30435.613;   -8.200;35207.414
622.980;31849.143;  -11.141;35980.422
623.560;31279.135;  -14.321;37351.328
624.140;29677.096;   -9.360;34388.582
624.720;25512.445;   -7.481;32368.764
625.300;23060.203;  -12.730;32638.629
625.880;26712.955;  -11.441;34599.035
626.459;30212.971;  -10.971;36831.738
627.039;34112.590;   -9.011;38299.098
627.619;34492.785;   -8.521;38289.574
628.198;32685.684;   -9.861;37220.695
628.778;31584.121;   -8.841;37632.563
629.357;31975.316;   -9.891;38003.012
629.937;32235.363;  -11.871;38402.039
630.516;31938.199;  -10.641;37868.801
631.096;33817.066;  -11.391;35760.410
631.675;34963.648;   -6.622;35225.219
632.254;32405.582;  -13.002;35130.289
632.834;31135.496;  -11.622;35794.570
633.413;32434.264;   -8.321;35788.922
633.992;30722.369;   -7.732;34532.863
634.571;30655.787;  -10.992;33590.113
635.151;29977.191;  -10.422;34943.863
635.730;30521.521;  -11.511;35352.523
636.309;30255.535;   -7.901;35366.605
636.888;29755.838;  -11.452;36165.637
637.467;29274.520;  -10.672;37515.902
638.046;29844.576;   -9.301;39288.695
638.625;31308.166;  -11.452;38279.699
639.204;31998.086;  -12.262;37741.598
639.782;32442.629;  -11.892;38364.551
640.361;30698.168;  -11.411;36740.621
640.940;25228.734;  -11.501;34950.082
641.519;27289.977;  -10.921;34137.398
642.097;31013.238;  -10.101;35654.258
642.676;29579.436;  -10.821;35637.957
643.255;30604.164;   -8.631;36567.074
643.833;33172.922;  -11.411;37809.434
644.412;35732.871;  -12.021;37337.293
644.990;35789.629;  -12.271;37018.531
645.569;34496.207;   -9.741;36518.469
646.147;32080.838;   -9.051;36186.430
646.726;32179.066;  -13.861;36267.688
647.304;32585.455;   -9.461;36647.625
647.882;33000.559;  -13.171;39286.742
648.461;33454.188;  -11.911;39157.703
649.039;31972.826;   -9.541;35412.883
649.617;31141.977;   -8.901;34744.918
650.195;29215.453;   -8.591;35403.098
650.773;28648.311;  -13.031;35053.797
651.352;27837.063;  -12.211;33756.816
651.930;25425.412;  -11.361;31868.773
652.508;22613.469;   -8.601;33121.551
653.086;25702.912;   -9.991;33564.793
653.663;29833.789;  -11.931;34054.668
654.241;32233.898;  -10.821;35693.309
654.819;33314.820;   -9.341;36422.906
655.397;31358.021;  -10.851;38213.484
655.975;30503.807;  -11.461;39507.625
656.553;30367.260;   -8.841;39498.223
657.130;29642.822;  -10.371;40395.480
657.708;30607.500;  -11.071;39242.020
658.286;30371.152;  -11.141;38920.020
658.863;31316.086;  -10.861;40202.898
659.441;35196.969;  -11.181;39677.938
660.018;35277.883;  -10.851;40413.355
660.596;34582.164;  -12.571;39931.414
661.173;34593.035;  -12.141;39604.531
661.750;34475.098;  -11.571;39700.070
662.328;32331.828;  -10.780;39292.809
662.905;29672.389;  -10.750;38235.648
663.482;26857.678;  -11.320;36212.305
664.060;26342.908;  -10.160;35944.945
664.637;30887.871;  -13.120;35170.785
665.214;32598.059;  -11.500;34197.523
665.791;31093.732;  -12.430;34549.520
666.368;29049.775;   -9.840;35118.578
666.945;28230.857;  -11.290;36019.418
667.522;28722.227;  -13.540;36048.438
668.099;28851.572;  -10.250;36243.914
668.676;27442.559;  -11.270;35958.875
669.253;26604.563;   -8.210;37384.730
669.830;26568.547;   -9.710;36779.629
670.407;26542.168;   -9.700;35231.289
670.984;27220.695;   -9.190;35544.270
671.560;26274.691;   -9.560;35466.867
672.137;25726.975;  -11.820;34280.863
672.714;28542.916;  -12.460;34632.863
673.290;32858.000;  -10.940;35135.422
673.867;32953.480;  -10.510;36114.480
674.443;29789.904;  -12.110;36152.859
675.020;31281.527;  -11.760;35327.238
675.596;32669.465;   -9.380;35795.176
676.173;31693.057;  -11.120;35430.355
676.749;30156.920;  -13.390;33549.516
677.326;29454.658;  -12.600;32210.012
677.902;28749.967;  -10.830;32068.871
678.478;28554.406;  -12.400;32583.891
679.054;30040.910;   -8.610;32088.928
679.631;30211.352;  -11.640;30978.848
680.207;29964.139;   -8.140;33160.887
680.783;30947.258;  -12.300;35570.363
681.359;30153.146;  -10.910;36125.184
681.935;30113.672;  -11.040;35240.922
682.511;30188.727;  -11.130;34429.961
683.087;30154.393;  -11.080;34463.680
683.663;32688.803;  -10.530;34648.898
684.239;32672.449;  -12.120;34546.457
684.815;30149.572;   -8.870;35586.375
685.390;29505.742;   -8.940;35821.895
685.966;29658.123;  -12.109;35085.871
686.542;28527.043;  -13.539;34198.230
687.118;27879.209;  -10.379;32847.707
687.693;28249.863;  -10.189;32794.027
688.269;27220.758;  -12.939;33072.367
688.844;26223.598;   -8.679;33141.664
689.420;26877.678;  -10.919;33965.742
689.995;27299.955;   -7.489;34655.523
690.571;27251.283;  -12.199;33576.742
691.146;28026.672;   -8.979;32657.219
691.722;29724.475;   -9.119;32526.979
692.297;27513.732;  -10.519;33014.617
692.872;26370.301;  -10.629;34012.254
693.448;26794.064;  -12.119;34237.434
694.023;27389.932;   -8.219;34142.672
694.598;25834.918;  -13.209;34132.031
695.173;25405.172;  -11.879;34205.250
695.748;25809.014;  -12.039;32882.488
696.323;25542.412;  -11.779;32864.906
696.898;26388.869;  -10.219;33170.004
697.473;27387.996;  -13.639;32432.984
698.048;27907.676;  -11.239;31649.303
698.623;29755.531;  -10.859;30778.141
699.198;31092.465;  -13.379;31140.119
699.773;32463.652;  -13.409;31764.299
700.348;33561.242;  -12.329;31780.816
700.922;33529.430;   -8.749;32046.375
701.497;32926.957;  -12.449;32603.574
702.072;31235.088;   -8.879;34799.871
702.646;29412.473;  -10.719;35793.172
703.221;28574.316;   -8.469;35201.590
703.795;28745.023;  -11.389;34764.527
704.370;28568.627;  -12.499;34307.367
704.944;28062.559;  -11.449;33509.887
705.519;27275.979;  -10.659;31388.584
706.093;26913.211;  -12.909;31340.104
706.668;27536.533;  -13.509;32630.281
707.242;26656.283;  -10.049;32728.779
707.816;24263.607;  -10.629;32947.238
708.390;23598.613;  -11.829;33277.855
708.965;24068.199;  -11.159;33834.336
709.539;25120.273;  -11.069;33709.273
710.113;24617.783;  -10.908;33044.313
710.687;23049.568;   -9.488;31953.992
711.261;23439.945;  -13.068;30505.949
711.835;26364.063;  -12.748;30262.369
712.409;27189.166;  -10.678;31254.447
712.983;25796.305;  -11.658;32754.986
713.557;26036.811;  -13.718;34018.824
714.131;26163.391;  -13.388;34579.625
714.704;26965.375;   -9.818;33890.262
715.278;28311.230;  -11.818;33531.102
715.852;29672.010;  -11.328;33601.660
716.425;30233.207;   -9.118;33515.117
716.999;30331.078;  -10.188;33185.555
717.573;30171.887;   -9.808;33905.996
718.146;32659.207;  -11.478;35199.293
718.720;32861.324;  -10.998;35060.551
719.293;31188.195;   -9.508;34973.230
719.867;30545.244;  -12.138;36394.449
720.440;29140.830;  -11.288;36663.008
721.013;31514.863;  -11.428;35102.426
721.587;33208.141;  -11.698;33985.266
722.160;34652.242;  -11.608;33524.965
722.733;33397.680;  -11.428;32987.043
723.306;31834.217;  -12.518;33066.301
723.880;31476.766;   -7.408;33399.500
724.453;30201.113;  -11.048;33468.297
725.026;28811.330;  -11.678;33816.637
725.599;27477.166;  -10.978;32797.996
726.172;26422.984;   -8.838;33187.434
726.745;27416.936;  -11.438;35136.613
727.318;28378.939;   -9.828;35751.730
727.891;27527.244;  -10.868;35890.430
728.463;25843.535;  -11.348;34822.090
729.036;24105.141;  -11.608;32895.086
729.609;24166.545;  -14.738;31823.225
730.182;25529.945;   -8.448;31445.283
730.754;26745.070;  -11.228;32373.223
731.327;26863.105;  -12.018;33676.820
731.900;28536.637;  -13.748;33417.000
732.472;28619.982;  -10.928;31978.498
733.045;27090.996;   -9.478;30368.777
733.617;25385.727;  -12.967;30574.215
734.190;24429.836;  -11.707;31280.975
734.762;23405.561;  -11.067;31674.412
735.334;22786.563;  -10.587;31247.291
735.907;21768.061;  -11.947;29876.211
736.479;22198.600;  -11.667;29808.488
737.051;24769.918;  -10.187;30233.547
737.623;27143.531;   -6.887;31469.086
738.195;30071.031;  -12.117;31784.225
738.768;32109.346;  -14.077;32120.523
739.340;31211.055;  -12.207;32094.342
739.912;27898.910;   -8.977;31312.680
740.484;26027.760;  -11.017;31946.238
741.056;26879.840;  -13.517;32984.059
741.628;28609.711;  -11.507;33897.715
742.199;28682.744;   -7.597;33213.016
742.771;29351.795;  -12.227;31369.113
743.343;28829.955;  -12.427;31865.473
743.915;27215.305;   -9.827;32388.631
744.487;26157.531;  -10.007;31079.568
745.058;24489.734;  -11.887;30570.107
745.630;23937.248;  -10.787;29970.127
746.201;23626.807;  -10.887;29186.766
746.773;23759.305;   -9.707;28805.723
747.344;24444.248;  -11.137;29591.223
747.916;24516.887;  -11.887;31412.201
748.487;23990.406;   -9.707;32194.898
749.059;23350.828;  -10.027;32533.719
749.630;23043.061;  -11.787;32158.518
750.201;22099.008;  -12.767;30855.395
750.773;22212.605;  -11.497;28622.555
751.344;22978.770;   -9.937;28405.732
751.915;23417.172;  -11.567;28461.551
752.486;22918.209;  -13.267;27842.850
753.057;20926.961;  -10.627;27845.008
753.628;19528.990;  -11.657;27728.107
754.199;21688.541;  -12.097;27381.086
754.770;22931.668;  -11.447;25882.203
755.341;22757.170;  -11.997;25886.184
755.912;20892.959;  -10.207;26050.861
756.483;19312.252;  -10.937;26798.779
757.054;18831.654;  -11.527;27048.238
757.625;18758.871;  -12.886;26294.838
758.195;19253.643;  -11.226;26142.076
758.766;19431.740;  -12.366;26392.234
759.337;18263.225;  -11.946;26334.594
759.907;18335.363;  -13.856;27579.652
760.478;19310.992;   -9.606;28352.770
761.048;19614.326;  -11.606;27325.088
761.619;19982.068;  -11.036;26460.428
762.189;19080.197;  -12.206;26029.826
762.760;19956.518;   -9.666;26430.145
763.330;20817.215;   -9.796;26670.902
763.900;19115.326;  -10.896;26603.021
764.471;17811.887;  -11.726;25542.740
765.041;18355.293;   -9.656;24358.459
765.611;19150.412;  -11.276;23991.297
766.181;18906.396;  -12.116;24470.236
766.751;18250.545;  -12.376;24845.975
767.321;18032.715;  -11.626;24533.633
767.891;18208.033;  -10.426;24916.492
768.461;17088.096;  -13.456;24776.771
769.031;15265.360;  -11.616;24757.988
769.601;15326.164;  -11.356;24181.088
770.171;15764.759;  -11.586;23670.387
770.741;16216.178;  -12.696;22960.045
771.311;16118.012;  -10.226;22917.523
771.880;15682.835;  -11.146;23562.941
772.450;16192.699;  -11.716;24216.500
773.020;16535.518;  -13.226;24140.398
773.589;16353.744;  -12.586;24414.857
774.159;16079.806;  -10.246;23858.717
774.729;15640.330;  -11.586;22942.135
775.298;14822.925;  -15.926;22324.033
775.867;14825.527;  -10.426;21140.313
776.437;14624.863;  -11.416;20838.092
777.006;13096.661;  -12.766;20599.510
777.576;13203.442;  -13.666;20508.809
778.145;13800.293;  -10.066;20732.947
778.714;13513.937;  -10.276;21062.465
779.283;13881.773;  -12.086;20949.664
779.853;15455.014;  -14.016;20508.623
780.422;16108.633;  -12.376;20649.082
780.991;15151.046;   -9.246;21527.520
781.560;14093.162;   -9.775;22632.658
782.129;13508.234;  -12.495;23048.277
782.698;12913.578;  -11.775;23438.555
783.267;13091.289;  -10.065;23267.734
783.836;13699.063;  -12.455;22415.133
784.404;14568.450;  -13.385;20443.152
784.973;15523.292;  -11.045;19699.150
785.542;15126.430;   -9.505;19763.828
786.111;14053.874;   -9.385;20341.408
786.679;13862.534;  -13.475;20207.967
787.248;13835.420;  -11.245;19516.465
787.817;11997.011;  -12.485;18900.363
788.385;10465.646;  -11.165;17879.121
788.954;11155.950;  -11.755;17658.301
789.522;11720.485;   -9.625;17788.879
790.090;11311.210;   -9.665;18118.277
790.659;10955.781;   -9.295;18338.736
791.227;12075.899;  -12.175;18508.615
791.795;13563.683;  -12.145;17898.254
792.364;13525.769;  -11.575;17295.133
792.932;12134.290;  -11.085;16822.051
793.500;10845.568;  -11.345;17040.148
794.068;10833.042;  -12.565;17179.787
794.636;12101.146;  -12.105;16664.246
795.204;12669.641;  -11.995;16524.545
795.772;12045.815;  -12.615;17274.564
796.340;11636.644;  -12.425;17891.002
796.908;11417.598;  -11.455;17648.561
797.476;10744.433;  -12.165;17064.080
798.044;10224.127;  -15.795;16672.777
798.612;10351.304;  -10.985;17023.996
799.180;11096.357;  -12.055;16561.615
799.747;11411.125;  -12.525;15962.773
800.315;10244.946;  -14.765;15296.992
800.883; 9019.672;  -12.435;14801.771
801.450; 8955.620;  -11.295;14534.430
802.018; 9413.414;  -11.185;14173.248
802.585; 9324.157;  -11.625;14029.547
803.153; 8322.006;  -10.665;13836.846
803.720; 7850.405;  -10.275;13567.324
804.287; 7799.478;  -12.865;13360.622
804.855; 8022.094;  -12.324;13681.981
805.422; 8248.740;  -11.574;13536.560
805.989; 8136.747;  -11.004;13355.958
806.556; 8378.912;  -12.214;13747.896
807.124; 8747.211;  -13.304;13987.376
807.691; 8439.159;  -12.034;14038.674
808.258; 7817.340;  -11.014;14120.152
808.825; 7711.016;  -11.804;13860.111
809.392; 7636.787;  -11.544;13268.790
809.959; 7517.097;  -14.954;12680.389
810.526; 7775.772;  -10.214;12427.308
811.093; 8242.289;  -10.754;12030.105
811.659; 7990.038;  -12.194;11653.664
812.226; 6877.498;   -9.194;11637.183
812.793; 6504.612;   -9.644;11611.521
813.360; 7250.854;  -11.544;11885.181
813.926; 8074.987;  -12.814;12770.539
814.493; 8052.075;  -11.524;12677.638
815.060; 7755.983;  -12.254;11974.336
815.626; 7293.893;  -12.114;11594.715
816.193; 7024.320;  -11.994;11579.474
816.759; 6926.232;  -11.464;11666.972
817.325; 6622.977;  -10.444;11325.530
817.892; 6357.861;  -11.124;11105.369
818.458; 6203.812;  -11.864;10843.928
819.024; 6447.438;  -10.634;10714.406
819.591; 6573.903;  -10.554;10469.165
820.157; 6845.257;  -13.334;10235.523
820.723; 7122.042;  -13.044;10847.563
821.289; 7297.140;   -9.664;11040.980
821.855; 7457.800;  -10.994;10357.100
822.421; 7469.071;  -11.784; 9978.918
822.987; 7452.421;  -12.554; 9754.177
823.553; 7813.987;  -12.554;10065.755
824.119; 7687.510;   -8.544;10036.294
824.685; 6788.121;  -12.144;10029.192
825.251; 6226.647;  -12.754;10199.230
825.816; 5746.381;  -11.354; 9820.189
826.382; 5422.995;  -11.004; 9297.248
826.948; 5417.890;  -11.004; 9381.347
827.513; 5318.359;  -12.474; 9450.726
828.079; 5288.611;  -13.084; 9472.444
828.645; 5462.708;  -10.813; 9292.643
829.210; 5301.693;  -11.593; 9065.341
829.776; 5214.940;  -12.633; 9132.620
830.341; 5161.338;  -10.473; 9092.878
830.906; 4993.134;   -8.763; 9078.557
831.472; 4738.543;  -13.453; 8534.535
832.037; 4144.480;  -12.173; 8677.874
832.602; 3952.024;  -14.093; 8628.692
833.167; 4227.037;  -13.593; 8879.031
833.733; 4734.461;  -10.793; 9189.790
834.298; 5097.077;  -14.783; 9052.608
834.863; 4685.024;  -11.023; 8895.087
835.428; 4451.438;  -11.113; 8824.266
835.993; 4959.295;   -9.983; 8845.385
836.558; 5260.643;  -13.003; 8888.563
837.123; 5071.005;  -10.733; 8966.582
837.688; 4650.277;   -9.683; 8617.860
838.253; 4448.776;  -12.253; 8590.699
838.817; 4436.075;  -11.643; 8443.797
839.382; 4407.674;  -11.953; 8799.356
839.947; 4482.769;  -11.443; 8810.595
840.511; 4774.285;  -10.843; 8796.394
841.076; 5001.563;  -13.533; 8347.231
841.641; 4786.085;  -11.743; 8224.330
842.205; 4243.692;  -10.013; 8223.349
842.770; 3939.057;  -11.023; 8622.107
843.334; 4042.057;  -14.273; 8410.386
843.898; 4415.723;  -11.323; 8337.465
844.463; 4777.050;  -10.263; 8506.283
845.027; 4961.274;  -10.353; 8280.962
845.591; 4925.171;  -12.163; 8231.141
846.156; 4784.037;  -12.263; 7969.179
846.720; 4771.292;  -11.553; 7768.278
847.284; 4591.821;  -12.393; 7630.957
847.848; 3809.188;  -12.623; 7472.395
848.412; 3204.248;  -11.863; 7437.394
848.976; 3136.652;  -10.203; 7674.592
849.540; 3328.517;  -10.603; 7836.011
850.104; 3536.425;  -12.423; 7913.669
850.668; 3566.270;  -14.613; 7694.508
851.232; 3576.979;  -12.873; 7756.887
851.796; 3785.969;  -14.192; 7926.545
852.359; 3977.879;  -13.652; 7827.844
852.923; 3901.352;  -11.402; 7641.163
853.487; 3603.429;  -12.022; 7342.501
854.050; 3467.245;  -15.202; 7042.820
854.614; 3468.734;  -14.592; 7151.338
855.177; 3403.755;  -12.572; 7105.077
855.741; 3412.316;   -9.932; 6989.675
856.304; 3381.071;  -12.192; 6596.634
856.868; 3309.975;  -13.462; 6356.272
857.431; 3337.880;  -11.542; 6468.571
857.995; 3424.144;  -12.062; 6373.210
858.558; 3229.772;  -11.142; 6324.448
859.121; 3075.158;  -11.742; 6408.327
859.684; 3124.337;  -10.332; 6347.886
860.247; 3256.185;  -11.962; 6321.264
860.810; 3336.715;  -12.332; 6301.903
861.374; 3244.582;  -10.292; 6607.881
861.937; 3085.094;  -12.062; 6408.200
862.500; 3096.746;  -11.702; 6572.639
863.062; 3223.190;  -13.852; 6387.297
863.625; 3314.268;  -12.972; 6190.836
864.188; 3283.721;  -10.292; 5807.254
864.751; 3209.870;  -12.382; 5682.413
865.314; 2994.580;  -13.232; 5547.492
865.876; 2683.154;  -12.772; 5500.150
866.439; 2472.108;  -11.952; 5415.909
867.002; 2668.922;   -9.332; 5501.567
867.564; 3310.634;  -11.712; 5413.946
868.127; 3768.521;  -12.012; 5160.325
868.689; 3241.876;  -11.882; 5133.183
869.252; 2387.919;  -11.572; 5252.382
869.814; 1790.876;  -10.692; 5297.141
870.377; 1416.947;  -12.392; 5390.919
870.939; 1272.513;  -10.582; 5599.898
871.501; 1353.583;  -12.782; 5248.336
872.063; 1524.580;  -15.612; 4854.235
872.626; 1693.156;  -13.922; 4817.074
873.188; 1758.726;  -13.832; 4987.732
873.750; 1811.530;  -10.962; 4868.651
874.312; 1964.611;  -11.022; 4779.330
874.874; 2088.891;  -13.152; 4866.348
875.436; 2057.985;  -13.401; 4718.887
875.998; 1957.943;   -8.891; 4660.005
876.560; 1877.126;  -12.591; 4462.964
877.122; 1838.282;  -14.531; 4145.042
877.683; 1824.682;  -10.781; 4056.481
878.245; 1741.619;  -14.281; 3950.740
878.807; 1681.040;  -10.311; 4058.958
879.369; 1634.910;  -13.201; 3954.677
879.930; 1603.431;  -12.061; 3941.495
880.492; 1609.618;   -9.181; 4067.014
881.053; 1630.280;  -12.051; 3859.633
881.615; 1588.247;  -11.501; 3776.071
882.176; 1481.541;  -12.221; 3734.750
882.738; 1366.384;   -8.931; 3678.489
883.299; 1308.765;  -13.571; 3405.407
883.860; 1344.282;  -12.331; 3351.106
884.422; 1309.842;  -10.201; 3394.044
884.983; 1185.099;  -12.521; 3166.443
885.544; 1067.849;  -12.291; 3189.802
886.105; 1013.228;  -12.991; 3160.360
886.666;  995.272;  -12.901; 3093.059
887.227;  983.862;  -12.061; 2941.957
887.788;  956.508;  -11.641; 2974.836
888.349;  910.240;  -14.691; 2721.214
888.910;  865.089;   -9.681; 2696.493
889.471;  861.707;   -9.971; 2560.172
890.032;  871.299;  -13.151; 2558.190
890.593;  849.453;  -12.051; 2567.669
891.153;  810.329;  -12.841; 2460.307
891.714;  777.083;  -13.561; 2372.046
892.275;  747.308;  -12.401; 2309.505
892.835;  713.800;  -13.191; 2382.543
893.396;  678.690;  -12.551; 2295.502
893.956;  654.567;  -11.981; 2162.420
894.517;  632.256;  -12.221; 2125.439
895.077;  595.355;  -12.021; 2086.978
895.638;  535.677;  -10.891; 2126.316
896.198;  482.576;  -13.171; 1838.275
896.758;  449.128;  -11.891; 1892.813
897.319;  425.311;  -12.491; 1792.232
897.879;  410.158;  -12.401; 1762.751
898.439;  384.007;  -13.431; 1661.149
898.999;  368.145;  -11.340; 1781.468
899.559;  359.713;  -13.930; 1703.347
900.119;  339.578;  -13.730; 1537.525
900.679;  320.790;   -9.210; 1638.384
901.239;  304.773;  -10.860; 1527.902
901.799;  286.079;  -11.450; 1456.441
902.359;  267.440;  -13.800; 1357.140
902.919;  261.305;  -12.130; 1331.118
903.479;  263.396;  -12.650; 1317.257
904.038;  256.188;  -16.110; 1262.595
904.598;  241.615;  -13.690; 1152.034
905.158;  228.918;  -10.290; 1240.893
905.717;  222.596;  -10.670; 1233.691
906.277;  220.098;  -14.040; 1217.330
906.836;  219.473;  -13.510; 1222.408
907.396;  215.418;  -11.530; 1193.047
907.955;  205.592;  -13.190; 1182.526
908.515;  194.196;  -12.950; 1099.364
909.074;  184.670;  -12.390; 1092.863
909.633;  181.001;  -10.340; 1069.121
910.192;  179.345;  -11.170; 1196.460
910.752;  174.037;  -14.200; 1029.960
911.311;  168.314;  -13.810; 1009.780
911.870;  166.103;  -12.750;  971.460
912.429;  165.311;  -12.380; 1094.080
912.988;  162.189;  -11.930; 1081.060
913.547;  156.488;  -10.990;  940.380
914.106;  152.999;  -11.200;  999.420
914.665;  151.739;  -13.150;  984.020
915.224;  149.963;  -13.310; 1035.760
915.782;  147.378;  -13.340;  922.560
916.341;  147.160;  -10.710; 1049.840
916.900;  145.832;  -12.980;  925.260
917.458;  142.814;  -13.060;  884.220
918.017;  140.714;  -10.900;  942.600
918.576;  139.667;  -11.630;  904.440
919.134;  140.615;  -12.860;  837.980
919.693;  140.098;  -15.160;  893.060
920.251;  139.757;  -13.470;  876.500
920.809;  139.730;  -13.700;  839.580
921.368;  141.033;  -13.420;  885.360
921.926;  140.503;  -14.710;  842.940
922.484;  140.121;  -12.560;  903.360
923.042;  139.961;  -11.930;  880.340
923.601;  139.507;  -10.270;  998.680
924.159;  136.562;  -12.960;  935.560
924.717;  132.908;  -13.040;  841.080
925.275;  133.871;  -12.560;  903.240
925.833;  135.493;  -13.040;  779.320
926.391;  137.450;  -13.360;  938.380
926.949;  136.256;  -13.940;  857.680
927.506;  138.639;   -9.400;  903.500
928.064;  139.995;  -10.940;  877.580
928.622;  138.595;  -13.180;  880.100
929.180;  138.389;  -12.730;  814.180
929.737;  140.416;  -12.840;  808.540
930.295;  145.360;  -11.810;  928.480
930.853;  148.793;  -13.650;  849.100
931.410;  150.725;  -13.580;  821.120
931.968;  151.802;  -12.020;  940.660
932.525;  152.252;  -13.320;  909.380
933.082;  154.453;  -13.800;  811.440
933.640;  158.919;  -11.380;  925.900
934.197;  160.836;  -11.480;  886.360
934.754;  165.787;  -13.220;  897.780
935.312;  165.044;  -14.950;  863.340
935.869;  161.094;  -10.940; 1012.980
936.426;  156.451;  -12.100;  872.800
936.983;  156.887;  -12.930;  889.020
937.540;  157.380;  -14.250;  838.280
938.097;  161.547;  -12.600;  940.120
938.654;  166.626;  -11.260;  898.860
939.211;  172.097;  -13.020;  952.480
939.768;  173.538;  -15.760;  915.420
940.324;  174.251;  -13.920;  904.200
940.881;  170.019;  -11.620;  878.500
941.438;  167.592;   -9.870; 1021.200
941.995;  164.227;  -13.920;  992.560
942.551;  160.171;  -12.830;  875.620
943.108;  163.514;  -11.980;  937.920
943.664;  167.495;  -13.740;  869.340
944.221;  172.542;  -12.670; 1088.140
944.777;  170.667;  -13.250;  869.680
945.334;  170.244;  -13.000;  884.840
945.890;  171.517;  -13.020;  946.480
946.446;  170.606;  -13.880;  947.020
947.003;  172.348;  -12.660;  964.940
947.559;  173.591;   -8.730; 1063.040
948.115;  169.630;  -11.960; 1026.540
948.671;  166.324;  -12.360;  967.300
949.227;  162.853;  -12.700;  859.560
949.783;  160.068;  -13.450;  858.900
950.339;  159.780;  -10.620;  991.000
950.895;  156.681;  -14.770; 1023.840
951.451;  153.949;  -13.650;  925.280
952.007;  153.925;  -11.180;  998.540
952.563;  154.043;  -11.680;  937.780
953.118;  152.324;  -13.280;  904.940
953.674;  153.968;  -12.510;  935.780
954.230;  153.746;  -12.220;  949.640
954.785;  150.424;  -12.190;  936.640
955.341;  145.096;  -12.270;  998.160
955.897;  139.096;  -14.900;  834.660
956.452;  139.143;  -12.520;  953.840
957.008;  139.529;   -9.410; 1083.640
957.563;  138.127;  -11.280; 1009.540
958.118;  134.811;  -13.470;  877.700
958.674;  137.083;  -12.190;  946.780
959.229;  140.826;  -12.760; 1013.980
959.784;  144.792;  -15.710;  832.400
960.339;  151.476;  -12.540; 1001.280
960.894;  152.342;  -11.680;  963.760
961.449;  149.102;  -11.410;  859.960
962.004;  146.910;  -10.430; 1212.840
962.559;  140.082;  -14.040;  860.140
963.114;  137.396;  -14.270;  742.480
963.669;  138.421;  -11.320;  915.500
964.224;  137.277;  -14.620;  874.340
964.779;  134.238;  -14.150;  828.420
965.334;  134.451;  -10.850; 1017.860
965.888;  134.265;  -14.530;  875.360
966.443;  135.655;  -13.520;  972.380
966.998;  130.884;  -13.370;  819.460
967.552;  128.208;   -9.960;  908.380
968.107;  124.504;  -12.360;  868.300
968.661;  123.715;  -12.270;  922.440
969.216;  123.293;  -12.140;  856.280
969.770;  124.203;  -11.860;  917.200
970.324;  124.840;  -12.170;  923.140
970.879;  122.382;  -14.160;  947.180
971.433;  120.301;  -12.940;  952.720
971.987;  116.393;  -10.180;  895.340
972.541;  115.931;  -12.130;  917.100
973.095;  116.456;  -14.980; 1009.460
973.649;  114.612;  -14.480;  809.480
974.203;  116.592;  -13.530;  829.040
974.757;  119.828;  -12.060;  855.220
975.311;  117.684;  -13.240;  872.600
975.865;  113.617;  -12.550;  881.820
976.419;  111.711;  -13.180;  857.400
976.973;  111.174;  -14.100;  849.620
977.526;  109.470;  -13.330;  949.920
978.080;  105.290;  -15.390;  796.780
978.634;  106.637;  -11.670;  921.320
979.187;  104.457;  -10.640;  905.400
979.741;  104.151;  -13.330; 1018.380
980.294;   99.787;  -14.480;  789.160
980.848;   98.133;  -13.420;  717.220
981.401;   96.779;  -12.360;  816.540
981.955;   95.313;  -12.480;  844.300
982.508;   90.241;  -14.000;  746.340
983.061;   91.145;  -10.440;  915.260
983.615;   86.672;  -14.340;  798.800
984.168;   84.303;  -14.950;  770.080
984.721;   84.049;  -13.270;  880.760
985.274;   82.385;  -12.240;  867.500
985.827;   80.497;  -12.720;  834.220
986.380;   76.679;  -14.920;  721.340
986.933;   75.520;  -12.860;  864.800
987.486;   75.176;  -10.440;  861.920
988.039;   74.569;  -11.820;  863.100
988.591;   73.039;  -13.760;  893.260
989.144;   70.948;  -14.080;  737.260
989.697;   71.793;  -13.440;  758.740
990.250;   73.749;  -12.050;  858.100
990.802;   71.501;  -14.550;  755.860
991.355;   71.481;  -10.770;  974.880
991.907;   69.118;  -11.710;  864.320
992.460;   66.756;  -12.650;  753.760
993.012;   65.130;  -13.860;  749.540
993.565;   62.612;  -14.310;  711.360
994.117;   64.108;   -9.920;  950.780
994.669;   60.722;  -13.420;  701.320
995.221;   59.474;  -14.200;  791.920
995.774;   57.987;  -13.400;  787.580
996.326;   57.772;  -11.850;  740.220
996.878;   58.274;  -12.230;  838.420
997.430;   55.145;  -14.260;  699.860
997.982;   55.210;  -11.430;  750.140
998.534;   55.032;  -11.590;  739.060
999.086;   54.939;  -11.960;  738.220
999.638;   53.021;  -13.640;  661.380
1000.190;   52.092;  -13.660;  699.320
1000.741;   51.853;   -9.980;  742.700
1001.293;   52.268;  -11.860;  686.020
1001.845;   50.840;  -14.280;  676.640
1002.396;   50.292;  -12.270;  743.400
1002.948;   49.893;  -13.670;  737.400
1003.500;   49.904;  -12.010;  723.780
1004.051;   50.368;  -11.890;  907.580
1004.603;   48.769;  -11.220;  791.820
1005.154;   44.883;  -13.210;  608.980
1005.705;   46.083;  -11.850;  723.960
1006.257;   44.810;  -13.670;  707.220
1006.808;   43.098;  -12.060;  685.460
1007.359;   42.612;  -10.250;  763.240
1007.910;   41.507;  -13.440;  646.640
1008.461;   40.748;  -13.170;  732.940
1009.013;   39.274;  -14.590;  588.340
1009.564;   41.372;  -12.100;  793.520
1010.115;   39.446;  -14.000;  597.040
1010.665;   38.808;  -15.020;  602.160
1011.216;   38.814;  -12.560;  667.920
1011.767;   38.867;  -11.330;  697.920
1012.318;   39.544;  -11.450;  736.980
1012.869;   37.998;  -11.000;  679.000
1013.419;   37.179;  -11.760;  603.120
1013.970;   37.454;  -11.800;  666.640
1014.521;   37.045;  -14.750;  620.620
1015.071;   37.179;  -14.430;  670.380
1015.622;   35.826;  -14.170;  635.460
1016.172;   36.060;  -11.700;  596.820
1016.723;   36.210;  -13.230;  614.380
1017.273;   36.149;  -16.120;  604.160
1017.823;   35.285;  -13.360;  650.340
1018.374;   34.487;  -13.710;  611.760
1018.924;   35.199;  -11.050;  716.880
1019.474;   36.173;  -14.120;  718.880
1020.024;   33.445;  -12.990;  657.580
1020.574;   34.446;  -12.010;  726.160
1021.124;   34.728;  -12.080;  673.580
1021.674;   33.013;  -15.860;  559.120
1022.224;   33.302;  -11.710;  708.940
1022.774;   33.120;  -13.030;  668.820
1023.324;   34.688;  -11.000;  753.520
1023.874;   35.667;  -13.270;  875.760
1024.423;   32.126;  -14.570;  613.700
1024.973;   32.394;  -12.620;  610.760
1025.523;   31.790;  -12.630;  620.960
1026.072;   31.352;  -14.110;  606.420
1026.622;   30.367;  -15.390;  675.740
1027.172;   31.762;   -9.090;  715.660
1027.721;   31.162;  -12.250;  601.220
1028.270;   31.729;  -15.590;  663.400
1028.820;   30.239;  -13.840;  638.080
1029.369;   29.715;  -13.170;  612.700
1029.918;   31.543;  -14.080;  649.840
1030.468;   30.209;  -13.860;  564.780
1031.017;   30.112;  -12.970;  634.800
1031.566;   28.572;  -12.320;  608.900
1032.115;   30.942;  -13.140;  694.500
1032.664;   29.087;  -14.560;  596.480
1033.213;   29.941;  -11.620;  735.420
1033.762;   28.338;  -13.190;  635.620
1034.311;   29.278;  -13.460;  677.220
1034.860;   28.730;  -15.770;  691.000
1035.408;   28.707;  -13.100;  722.720
1035.957;   29.217;  -12.880;  719.540
1036.506;   27.096;  -13.640;  530.800
1037.055;   30.200;  -12.420;  844.320
1037.603;   28.163;  -13.740;  664.000
1038.152;   26.816;  -13.840;  534.760
1038.700;   27.341;  -10.770;  585.740
1039.249;   27.316;  -13.520;  681.220
1039.797;   26.226;  -13.060;  633.360
1040.345;   26.554;  -11.760;  705.420
1040.894;   26.855;  -10.790;  625.300
1041.442;   25.673;  -15.420;  632.200
1041.990;   24.718;  -14.550;  559.160
1042.538;   24.176;  -15.620;  536.180
1043.087;   25.443;  -14.940;  570.860
1043.635;   27.257;  -12.100;  670.500
1044.183;   24.767;  -13.200;  586.400
1044.731;   24.769;  -11.630;  576.000
1045.279;   24.411;  -14.200;  674.920
1045.827;   27.382;  -12.510;  892.400
1046.374;   22.675;  -14.960;  515.420
1046.922;   22.573;  -11.850;  590.580
1047.470;   25.373;  -13.770;  691.300
1048.018;   24.029;  -15.380;  647.960
1048.565;   24.368;  -14.010;  708.600
1049.113;   22.671;  -14.620;  557.000
1049.660;   23.584;  -14.940;  629.660
1050.208;   23.918;  -14.540;  675.640
1050.755;   22.009;  -13.710;  606.580
1051.303;   23.253;  -11.880;  686.820
1051.850;   23.352;  -12.160;  635.120
1052.397;   21.449;  -15.110;  473.960
1052.945;   21.347;  -14.770;  617.760
1053.492;   23.391;  -12.320;  741.840
1054.039;   23.206;  -13.290;  720.180
1054.586;   21.625;  -15.210;  557.240
1055.133;   21.908;  -12.920;  693.140
1055.680;   22.021;  -12.610;  646.620
1056.227;   21.607;  -12.620;  542.780
1056.774;   23.658;  -13.010;  794.980
1057.321;   20.766;  -16.180;  523.260
1057.868;   20.997;  -11.230;  651.320
1058.415;   21.432;  -10.890;  651.980
1058.961;   22.078;  -12.530;  678.940
1059.508;   20.807;  -14.120;  643.820
1060.055;   20.566;  -13.340;  581.780
1060.601;   20.941;  -12.920;  624.300
1061.148;   20.084;  -14.430;  616.820
1061.694;   19.853;  -14.140;  592.580
1062.241;   19.488;  -12.550;  596.320
1062.787;   20.570;  -13.370;  663.140
1063.334;   22.739;  -12.260;  808.560
1063.880;   19.764;  -10.800;  668.360
1064.426;   19.968;   -9.920;  706.820
1064.972;   19.714;  -12.970;  601.340
1065.518;   17.583;  -14.440;  566.640
1066.065;   18.811;  -12.680;  624.460
1066.611;   18.324;  -13.520;  598.800
1067.157;   19.217;  -11.100;  641.860
1067.703;   18.881;  -14.100;  668.480
1068.249;   18.446;  -13.750;  605.220
1068.794;   18.266;  -11.070;  626.880
1069.340;   18.013;  -13.210;  578.960
1069.886;   18.908;  -14.850;  590.700
1070.432;   16.822;  -14.580;  541.720
1070.977;   17.270;  -12.930;  601.080
1071.523;   17.846;  -11.970;  573.060
1072.068;   18.236;  -13.730;  582.000
1072.614;   15.891;  -14.550;  527.760
1073.160;   17.477;  -13.690;  687.040
1073.705;   17.435;  -14.780;  572.520
1074.250;   17.141;  -15.430;  559.900
1074.796;   17.682;  -11.620;  655.160
1075.341;   17.596;  -11.580;  664.100
1075.886;   17.592;  -13.190;  594.240
1076.431;   16.770;  -13.630;  649.880
1076.976;   16.521;  -11.670;  639.220
1077.521;   15.411;  -11.600;  583.080
1078.067;   16.109;  -13.920;  579.400
1078.612;   16.490;  -12.910;  661.620
1079.156;   15.860;  -15.340;  601.540
1079.701;   15.662;  -12.560;  693.260
1080.246;   16.708;  -12.490;  696.300
1080.791;   15.879;  -14.550;  625.020
1081.336;   15.630;  -15.210;  659.320
1081.880;   15.538;  -11.280;  649.680
1082.425;   15.404;  -12.830;  573.480
1082.970;   16.619;  -11.680;  717.040
1083.514;   14.360;  -15.500;  597.000
1084.059;   14.032;  -11.770;  586.720
1084.603;   14.675;  -13.480;  565.840
1085.147;   14.485;  -13.940;  645.220
1085.692;   15.171;  -13.170;  716.800
1086.236;   13.386;  -15.740;  503.140
1086.780;   15.153;  -10.750;  751.440
1087.325;   14.701;  -14.900;  654.620
1087.869;   13.441;  -15.160;  610.700
1088.413;   14.362;  -11.030;  705.040
1088.957;   13.611;  -15.210;  543.400
1089.501;   15.757;  -12.310;  766.640
1090.045;   14.121;  -12.790;  726.480
1090.589;   11.237;  -14.040;  569.920
1091.133;   13.733;  -12.800;  673.340
1091.676;   13.235;  -13.600;  591.940
1092.220;   12.706;  -12.960;  600.920
1092.764;   13.967;  -10.830;  706.960
1093.307;   13.614;  -12.390;  673.780
1093.851;   12.242;  -15.850;  556.540
1094.395;   12.539;  -12.980;  683.140
1094.938;   12.159;  -13.670;  632.520
1095.482;   12.212;  -12.740;  559.800
1096.025;   13.480;  -13.340;  710.880
1096.568;   12.972;  -10.500;  779.280
1097.112;    9.833;  -13.500;  508.180
1097.655;   12.279;  -13.060;  603.000
1098.198;   11.163;  -13.240;  600.180
1098.741;   10.512;  -15.490;  612.860
1099.285;   11.258;  -13.410;  657.300
1099.828;    9.779;  -15.640;  439.400
1100.371;   11.651;  -13.980;  608.160
1100.914;   11.330;  -13.990;  682.660
1101.457;   11.474;  -15.030;  679.900
1101.999;   10.457;  -12.480;  584.680
1102.542;   11.500;  -12.410;  641.440
1103.085;   10.110;  -14.730;  658.500
1103.628;   11.318;  -12.190;  762.060
1104.170;   10.465;  -12.360;  588.280
1104.713;   10.578;  -13.350;  646.700
1105.256;    9.701;  -14.930;  557.440
1105.798;    8.336;  -15.150;  499.980
1106.341;   11.518;  -13.230;  728.900
1106.883;    9.021;  -14.680;  521.340
1107.425;   10.344;  -14.810;  668.180
1107.968;    9.659;  -12.940;  612.380
1108.510;   10.621;  -10.550;  684.960
1109.052;    8.931;  -15.640;  612.620
1109.594;    8.553;  -14.440;  554.440
1110.136;    9.393;  -11.380;  643.220
1110.679;    8.559;  -13.090;  633.080
1111.221;    9.201;  -14.230;  604.460
1111.763;    7.268;  -14.260;  559.220
1112.304;    6.805;  -14.510;  547.140
1112.846;    9.652;  -14.700;  666.240
1113.388;   12.327;  -12.270;  942.180
1113.930;    8.760;  -13.340;  694.200
1114.472;    7.722;  -12.560;  606.540
1115.013;    7.442;  -14.280;  551.280
1115.555;    8.181;  -14.010;  587.100
1116.097;    6.377;  -14.730;  579.480
1116.638;    7.932;  -12.160;  684.600
1117.180;    8.617;  -14.320;  667.740
1117.721;    7.781;  -15.730;  568.580
1118.262;    8.010;  -13.480;  677.960
1118.804;    7.968;  -11.530;  637.340
1119.345;    7.058;  -13.540;  578.400
1119.886;    8.439;  -14.470;  704.040
1120.427;    6.940;  -13.030;  589.020
1120.969;    6.435;  -13.150;  597.920
1121.510;    7.228;  -13.940;  563.060
1122.051;    7.832;  -12.310;  723.580
1122.592;    6.204;  -13.870;  655.420
1123.133;    4.682;  -12.890;  547.940
1123.673;    7.205;  -13.300;  706.480
1124.214;    6.222;  -14.000;  612.460
1124.755;    6.681;  -13.210;  639.460
1125.296;    5.659;  -13.450;  627.320
1125.836;    7.281;  -12.610;  691.500
1126.377;    6.134;  -15.840;  599.660
1126.918;    6.705;  -11.830;  614.980
1127.458;    5.167;  -11.830;  622.220
1127.999;    6.589;  -11.490;  656.980
1128.539;    6.924;  -12.900;  694.240
1129.079;    5.166;  -14.910;  632.720
1129.620;    4.592;  -12.920;  558.100
1130.160;    4.774;  -14.640;  539.480
1130.700;    5.397;  -13.270;  640.840
1131.240;    5.197;  -14.110;  643.700
1131.781;    4.563;  -13.130;  619.680
1132.321;    5.290;  -15.220;  599.120
1132.861;    4.503;  -15.670;  564.200
1133.401;    3.719;  -13.970;  593.940
1133.941;    4.718;  -13.740;  626.280
1134.481;    4.949;  -13.200;  597.580
1135.020;    5.174;  -14.830;  609.160
1135.560;    4.357;  -14.590;  674.940
1136.100;    3.260;  -13.730;  501.160
1136.640;    3.743;  -15.240;  510.480
1137.179;    3.990;  -14.710;  537.960
1137.719;    3.975;  -14.090;  605.400
1138.258;    3.671;  -12.470;  587.360
1138.798;    5.416;  -12.580;  663.780
1139.337;    3.240;  -16.480;  482.840
1139.877;    3.619;  -13.970;  642.360
1140.416;    6.689;   -9.870;  878.060
1140.955;    3.097;  -14.860;  535.380
1141.494;    4.447;  -14.530;  669.280
1142.034;    2.612;  -13.940;  583.520
1142.573;    3.789;  -11.160;  646.280
1143.112;    2.807;  -15.050;  553.480
1143.651;    2.975;  -15.390;  536.480
1144.190;    3.399;  -12.990;  691.640
1144.729;    2.860;  -12.220;  607.420
1145.267;    3.736;  -14.020;  584.900
1145.806;    4.680;  -12.740;  637.040
1146.345;    2.492;  -14.810;  635.020
1146.884;    1.985;  -12.920;  622.500
1147.422;    1.827;  -13.930;  533.060
1147.961;    4.477;  -11.830;  708.460
1148.500;    2.355;  -12.710;  669.720
1149.038;    3.105;  -14.420;  632.500
1149.577;    2.965;  -13.920;  698.640
1150.115;    0.554;  -17.050;  452.280
1150.653;    1.824;  -14.890;  607.340
1151.192;    2.609;  -15.270;  552.920
1151.730;    3.092;  -13.160;  652.560
1152.268;    2.039;  -15.430;  589.520
1152.806;    1.263;  -15.880;  571.180
1153.344;    0.484;  -13.240;  577.640
1153.882;    2.225;  -13.010;  600.060
1154.421;    0.378;  -16.180;  470.620
1154.958;    0.572;  -13.880;  595.240
1155.496;    2.441;  -13.590;  645.280
1156.034;    2.286;  -11.910;  721.880
1156.572;    2.753;  -12.010;  667.060
1157.110;    0.167;  -16.250;  473.940
1157.647;    1.217;  -15.230;  676.960
1158.185;    1.798;  -13.770;  564.320
1158.723;    0.177;  -15.300;  509.200
1159.260;    1.511;  -13.130;  701.700
1159.798;    1.361;  -11.300;  658.160
1160.335;    1.232;  -13.210;  631.820

