
Integration time [ms]:   3.276
Averaging Nr. [scans]: 1000
Smoothing Nr. [pixels]: 0
Data measured with spectrometer [name]: 7414430SP
Wave   ;Sample   ;Dark     ;Reference
[nm]   ;[counts] ;[counts] ;[counts] 

288.544;  150.521;    7.793;  793.890
289.143;  154.244;    7.462;  681.602
289.742;  154.329;    8.602;  828.814
290.341;  139.459;    1.321;  789.841
290.940;  128.448;   -0.709;  730.702
291.538;  129.694;    0.881;  881.108
292.137;  130.129;    0.122;  792.581
292.736;  134.806;   -1.929;  975.101
293.335;  130.661;   -8.229;  735.086
293.934;  131.337;   -5.279;  781.677
294.532;  130.182;   -1.369; 1031.958
295.131;  115.641;   -7.641;  834.394
295.730;  116.338;   -8.420;  809.588
296.328;  114.884;   -5.611;  783.442
296.927;  115.815;   -5.781;  779.652
297.525;  115.609;   -6.361;  781.236
298.124;  107.347;  -11.382;  654.009
298.722;  110.549;   -7.641;  761.933
299.321;  108.906;   -6.811;  708.597
299.919;  106.845;   -6.991;  751.918
300.518;  103.565;  -10.362;  689.338
301.116;  104.871;   -9.581;  691.381
301.715;  104.438;   -4.891;  730.222
302.313;  103.973;   -8.801;  704.943
302.911;   99.618;   -8.522;  733.830
303.509;  104.908;   -6.171;  925.627
304.108;  102.353;   -7.311;  760.383
304.706;  101.735;   -8.321;  801.664
305.304;   95.935;  -10.222;  796.707
305.902;  101.483;   -6.021;  784.484
306.500;   96.993;   -4.971;  728.200
307.098;   94.926;   -7.061;  746.560
307.696;   93.521;   -8.801;  780.432
308.294;   94.196;   -6.411;  731.359
308.892;   96.458;   -2.901;  759.769
309.490;   91.833;   -5.041;  712.161
310.088;   90.549;   -5.002;  788.444
310.686;   94.776;   -2.041;  821.749
311.284;   90.600;   -2.351;  766.040
311.882;   89.006;   -4.422;  731.225
312.480;   85.887;   -4.192;  697.167
313.078;   86.383;   -1.172;  808.331
313.675;   87.735;   -2.601;  691.600
314.273;   82.565;   -1.312;  797.837
314.871;   81.506;   -3.942;  589.829
315.468;   79.723;   -2.802;  652.090
316.066;   81.734;   -0.701;  694.427
316.664;   75.534;   -4.362;  656.351
317.261;   79.502;   -2.872;  910.128
317.859;   74.673;   -2.022;  768.735
318.456;   75.369;   -0.531;  830.096
319.054;   71.313;   -3.912;  787.828
319.651;   70.257;   -4.752;  759.928
320.249;   69.282;   -2.602;  810.188
320.846;   66.642;   -0.821;  714.286
321.443;   64.027;   -4.642;  832.135
322.041;   61.544;   -5.002;  812.315
322.638;   58.193;   -3.982;  701.456
323.235;   60.548;   -3.411;  665.683
323.833;   57.778;   -7.361;  740.354
324.430;   53.022;   -8.611;  615.900
325.027;   54.445;   -4.061;  876.855
325.624;   53.487;   -4.031;  644.532
326.221;   50.987;   -7.481;  689.717
326.818;   49.747;   -5.281;  818.332
327.415;   53.454;   -7.460;  748.828
328.012;   52.307;   -5.510;  690.585
328.609;   51.555;   -7.880;  731.389
329.206;   49.687;   -8.331;  778.621
329.803;   49.523;   -5.121;  737.841
330.400;   52.392;   -4.510;  704.260
330.997;   53.509;   -6.441;  817.147
331.594;   52.693;   -8.831;  788.185
332.191;   57.308;   -7.621;  728.722
332.787;   60.377;   -4.591;  844.463
333.384;   58.667;   -7.412;  763.093
333.981;   57.040;   -8.293;  815.687
334.578;   60.329;   -7.052;  708.378
335.174;   64.032;   -3.102;  731.469
335.771;   63.130;   -5.943;  836.456
336.367;   60.174;   -7.393;  710.631
336.964;   62.872;   -4.063;  793.266
337.561;   61.055;   -3.813;  731.112
338.157;   56.559;   -4.654;  911.916
338.754;   54.964;   -7.934;  796.589
339.350;   52.718;   -4.414;  722.493
339.946;   54.434;   -4.664;  773.135
340.543;   47.285;   -6.375;  846.136
341.139;   41.599;   -9.815;  720.836
341.735;   39.408;   -4.526;  772.593
342.332;   37.807;   -4.895;  691.472
342.928;   38.224;   -4.295;  795.394
343.524;   31.630;   -5.476;  761.684
344.120;   28.786;   -5.856;  738.562
344.716;   32.290;   -2.155;  723.717
345.313;   29.309;   -6.275;  795.342
345.909;   23.969;   -8.815;  627.336
346.505;   26.226;   -5.305;  740.247
347.101;   27.232;   -2.674;  827.864
347.697;   27.080;   -4.344;  785.398
348.293;   21.077;   -9.975;  627.244
348.889;   22.018;   -5.774;  745.914
349.485;   21.884;   -5.004;  688.205
350.081;   22.661;   -4.704;  772.592
350.676;   17.347;   -6.635;  691.606
351.272;   22.549;   -4.504;  809.530
351.868;   21.649;   -3.914;  780.497
352.464;   18.077;   -9.044;  723.932
353.059;   15.691;   -8.314;  646.017
353.655;   18.544;   -7.024;  777.063
354.251;   19.323;   -5.343;  759.845
354.846;   14.600;   -8.604;  740.646
355.442;   11.868;   -6.945;  753.071
356.038;   13.686;   -7.564;  751.708
356.633;   14.204;   -5.814;  728.594
357.229;   11.986;   -7.364;  724.757
357.824;   10.001;   -8.024;  703.600
358.420;    9.660;   -9.384;  679.726
359.015;   10.208;   -5.104;  695.357
359.610;   10.173;   -6.854;  763.920
360.206;    4.913;  -10.185;  603.240
360.801;    7.496;   -7.054;  646.503
361.396;    9.587;   -5.034;  725.975
361.992;    5.393;   -8.284;  668.220
362.587;    2.744;   -8.625;  670.160
363.182;    4.593;   -7.674;  689.631
363.777;    5.501;   -5.164;  738.242
364.372;    4.699;   -8.604;  737.314
364.967;    1.019;   -9.055;  680.744
365.563;    4.896;   -6.114;  815.567
366.158;    2.700;   -5.814;  685.161
366.753;    2.974;   -7.854;  649.263
367.348;    1.032;   -7.804;  746.056
367.942;    1.565;   -7.954;  697.298
368.537;    0.688;   -4.984;  754.245
369.132;    0.074;   -8.564;  703.428
369.727;   -2.587;   -8.855;  638.079
370.322;   -2.491;   -6.245;  580.186
370.917;   -2.540;   -6.425;  710.646
371.511;    0.717;   -6.294;  861.834
372.106;   -3.662;   -7.685;  776.964
372.701;   -6.136;   -7.335;  585.988
373.296;   -0.885;   -4.564;  863.135
373.890;   -5.263;  -10.235;  647.840
374.485;   -8.043;   -7.885;  691.199
375.079;   -3.775;   -7.324;  738.685
375.674;   -2.361;   -3.494;  812.970
376.268;   -7.545;   -8.525;  691.759
376.863;  -12.796;  -10.086;  580.327
377.457;   -6.059;   -7.025;  662.490
378.052;   -8.132;   -3.585;  764.884
378.646;   -9.047;   -7.595;  741.167
379.240;   -9.525;   -8.335;  721.176
379.835;   -7.887;   -5.785;  636.978
380.429;  -10.377;   -4.335;  562.557
381.023;  -10.761;   -6.805;  779.205
381.617;  -12.670;   -9.195;  680.106
382.212;   -9.532;   -6.905;  685.303
382.806;   -9.036;   -3.745;  760.690
383.400;  -13.234;   -7.745;  672.281
383.994;  -13.499;   -9.765;  664.870
384.588;  -10.326;   -6.564;  697.701
385.182;   -8.543;   -5.344;  726.624
385.776;  -10.463;   -8.514;  706.875
386.370;  -13.655;   -9.555;  681.968
386.964;  -11.874;   -8.715;  684.155
387.558;  -10.830;   -6.174;  598.360
388.152;  -13.970;   -8.725;  681.959
388.745;  -12.171;   -7.965;  814.707
389.339;  -10.910;   -5.924;  747.642
389.933;   -9.665;   -5.524;  695.370
390.527;  -10.829;   -7.114;  859.029
391.120;  -17.080;  -10.725;  595.318
391.714;  -13.683;   -8.035;  711.633
392.308;  -10.983;   -3.574;  780.253
392.901;  -14.305;   -7.245;  642.460
393.495;  -16.237;   -9.285;  595.414
394.089;  -13.776;   -5.895;  760.452
394.682;  -14.552;   -4.295;  697.188
395.275;  -15.228;   -9.875;  719.927
395.869;  -16.365;   -8.485;  667.314
396.462;  -14.785;   -7.455;  616.609
397.056;  -11.508;   -5.424;  776.621
397.649;  -15.811;   -6.605;  731.575
398.242;  -13.093;   -8.224;  712.645
398.836;  -11.824;   -7.474;  766.408
399.429;  -13.023;   -7.094;  631.041
400.022;  -17.195;   -9.475;  665.902
400.615;  -13.885;   -7.145;  805.609
401.208;  -12.384;   -7.174;  691.451
401.802;  -14.764;   -5.515;  699.329
402.395;  -16.183;   -9.875;  683.502
402.988;  -17.177;   -8.845;  696.627
403.581;  -13.939;   -8.874;  646.878
404.174;  -11.666;   -5.324;  686.568
404.767;  -14.454;   -9.575;  638.583
405.360;  -17.071;  -10.965;  621.445
405.953;  -11.007;   -8.764;  759.034
406.545;  -11.167;   -7.514;  725.342
407.138;  -15.708;  -10.025;  618.350
407.731;  -13.988;  -10.034;  613.303
408.324;  -10.001;   -9.374;  660.554
408.917;  -10.932;   -6.534;  681.864
409.509;  -12.935;   -8.004;  740.396
410.102;  -14.145;   -9.875;  643.948
410.695;   -9.509;   -8.604;  665.758
411.287;   -9.768;   -6.794;  599.821
411.880;  -11.775;   -9.334;  585.421
412.472;  -14.012;  -10.254;  613.092
413.065;  -11.678;   -6.714;  629.408
413.657;   -9.294;   -7.234;  576.678
414.250;   -8.259;  -10.544;  646.681
414.842;  -10.978;   -9.744;  676.353
415.434;   -8.356;   -6.994;  570.463
416.027;   -4.472;   -5.893;  652.196
416.619;   -6.735;   -7.264;  713.400
417.211;   -7.725;  -10.374;  599.352
417.804;   -3.578;   -7.993;  628.499
418.396;   -6.520;   -7.234;  607.643
418.988;   -5.521;   -9.443;  659.238
419.580;   -8.886;  -10.724;  568.276
420.172;   -6.581;  -10.323;  536.196
420.764;   -1.816;   -8.793;  672.482
421.356;   -2.802;  -11.143;  636.898
421.948;   -4.141;   -8.293;  677.661
422.540;    0.565;   -7.893;  680.027
423.132;    0.286;   -7.082;  600.641
423.724;   -3.871;   -8.653;  561.267
424.316;   -1.154;  -10.213;  621.345
424.908;    2.441;   -9.762;  591.517
425.500;    2.569;   -5.572;  647.978
426.092;    3.504;   -8.422;  648.268
426.683;    2.042;   -9.283;  684.836
427.275;    5.009;   -7.852;  641.471
427.867;    6.979;   -5.272;  668.948
428.458;    7.000;   -7.682;  732.344
429.050;    5.213;  -10.612;  680.749
429.642;    7.148;   -9.882;  743.124
430.233;    8.356;   -6.962;  569.356
430.825;    9.524;   -6.842;  724.809
431.416;    6.343;   -9.672;  698.241
432.008;   10.662;   -6.552;  651.723
432.599;   11.062;   -6.891;  656.073
433.190;    7.879;  -10.912;  637.670
433.782;    7.885;  -11.172;  590.395
434.373;   14.686;   -6.061;  884.765
434.964;   13.787;   -8.251;  602.920
435.556;   11.428;   -9.722;  634.537
436.147;   13.886;   -9.082;  758.490
436.738;   15.085;   -8.041;  701.099
437.329;   19.732;   -7.341;  721.723
437.920;   12.154;   -8.162;  666.688
438.511;   12.042;  -11.802;  564.526
439.103;   19.178;  -10.191;  623.998
439.694;   20.867;   -7.601;  681.583
440.285;   21.329;   -8.541;  764.432
440.876;   19.052;   -9.751;  845.738
441.466;   18.596;   -9.401;  575.162
442.057;   24.486;   -7.760;  665.814
442.648;   23.675;   -9.971;  746.255
443.239;   21.249;  -11.001;  620.477
443.830;   25.893;   -7.990;  704.958
444.421;   27.863;   -7.910;  655.474
445.011;   24.459;   -8.131;  693.619
445.602;   24.286;   -7.111;  743.126
446.193;   26.254;  -10.920;  488.117
446.783;   30.206;   -6.500;  640.397
447.374;   25.247;   -8.671;  692.759
447.964;   26.080;  -10.781;  713.770
448.555;   34.803;   -9.650;  822.742
449.145;   31.743;   -8.660;  662.853
449.736;   32.345;   -8.990;  803.179
450.326;   31.832;   -9.500;  713.626
450.917;   37.169;   -8.680;  675.324
451.507;   36.264;   -7.520;  600.661
452.097;   37.374;   -8.590;  746.267
452.688;   37.718;  -11.340;  742.160
453.278;   37.360;  -10.100;  566.840
453.868;   41.827;   -6.019;  793.550
454.458;   39.492;   -9.440;  651.141
455.048;   39.732;  -10.560;  711.783
455.639;   41.196;  -11.799;  567.096
456.229;   45.188;   -6.899;  710.694
456.819;   47.595;   -7.389;  751.158
457.409;   47.468;  -11.119;  773.993
457.999;   50.043;   -9.289;  737.505
458.589;   49.943;   -6.139;  686.606
459.179;   49.625;   -8.729;  717.658
459.769;   47.846;   -9.789;  627.099
460.358;   53.080;  -10.259;  797.262
460.948;   53.007;   -7.299;  689.503
461.538;   54.582;  -10.289;  660.677
462.128;   52.557;  -11.269;  664.934
462.717;   58.829;   -9.368;  710.326
463.307;   62.114;   -7.908;  705.846
463.897;   58.485;   -9.599;  656.942
464.486;   57.061;   -9.769;  837.128
465.076;   61.574;   -8.048;  733.776
465.666;   65.619;   -9.358;  652.900
466.255;   63.143;   -7.919;  785.651
466.845;   61.269;  -11.689;  666.749
467.434;   65.905;   -7.818;  725.873
468.023;   66.073;   -7.678;  658.357
468.613;   63.645;  -10.939;  713.946
469.202;   67.840;  -10.118;  646.507
469.791;   72.372;   -9.108;  737.811
470.381;   74.069;   -6.058;  742.813
470.970;   73.660;  -10.428;  711.099
471.559;   73.423;  -10.268;  733.291
472.148;   75.388;   -8.448;  675.737
472.738;   78.857;   -6.917;  765.466
473.327;   77.978;  -11.978;  637.529
473.916;   78.150;  -11.888;  737.446
474.505;   82.611;   -9.437;  751.703
475.094;   85.434;   -6.747;  806.570
475.683;   84.332;   -9.367;  797.699
476.272;   85.992;  -12.637;  730.632
476.861;   88.690;  -10.027;  706.754
477.449;   95.112;   -8.716;  728.487
478.038;   88.897;   -9.577;  692.513
478.627;   90.060;   -9.718;  714.852
479.216;   97.566;   -8.947;  769.441
479.805;  100.015;   -6.256;  783.375
480.393;   99.778;   -7.937; 1008.945
480.982;   98.627;   -7.717;  874.501
481.571;  104.707;   -9.266;  858.333
482.159;  105.522;   -7.636;  705.386
482.748;  105.800;   -9.667;  821.385
483.336;  110.396;  -10.376;  858.209
483.925;  109.901;   -7.147;  774.373
484.513;  117.017;   -7.996;  758.962
485.102;  114.440;  -10.027;  810.965
485.690;  121.630;  -10.446; 1011.050
486.278;  124.723;   -8.446;  979.329
486.867;  125.393;   -6.356;  809.662
487.455;  126.866;   -9.136;  898.229
488.043;  127.757;  -10.646;  748.361
488.631;  137.428;   -7.456; 1005.079
489.220;  140.267;   -6.636;  908.626
489.808;  140.936;  -11.036;  741.415
490.396;  148.720;  -10.246;  914.645
490.984;  154.982;   -8.556;  830.161
491.572;  163.172;   -5.886;  940.315
492.160;  169.436;   -9.486;  919.081
492.748;  181.472;  -10.976;  884.341
493.336;  203.686;   -8.776; 1019.693
493.924;  230.086;   -5.465;  958.077
494.512;  256.517;   -9.986; 1066.638
495.100;  292.291;  -10.636; 1103.280
495.687;  347.503;  -10.885; 1206.373
496.275;  407.653;   -8.126; 1150.796
496.863;  477.190;  -10.586; 1281.171
497.451;  575.226;  -11.926; 1386.805
498.038;  706.256;  -10.885; 1556.729
498.626;  809.737;   -6.315; 1741.407
499.214;  955.407;   -7.326; 2016.609
499.801; 1150.894;  -11.906; 2220.633
500.389; 1377.749;  -10.466; 2312.494
500.976; 1674.560;   -5.236; 2744.849
501.564; 2086.827;   -8.936; 3148.565
502.151; 2436.880;  -13.176; 3515.999
502.738; 2857.405;  -10.646; 3971.274
503.326; 3241.514;   -9.525; 4403.796
503.913; 3639.871;  -10.856; 5161.749
504.500; 4012.394;  -11.586; 5986.420
505.088; 4381.482;  -10.336; 6381.201
505.675; 4891.669;   -6.355; 6925.547
506.262; 5567.714;   -9.046; 7619.060
506.849; 6280.284;  -10.416; 8733.969
507.436; 6819.924;  -10.305; 9790.121
508.023; 7372.119;   -5.496; 9985.472
508.610; 7560.537;   -7.856;10434.618
509.197; 8149.027;  -10.097;11198.435
509.784; 9455.819;  -10.886;12391.194
510.371;10563.281;   -9.315;13603.713
510.958;11291.255;   -9.936;14426.586
511.545;11992.535;   -9.326;15243.775
512.132;12858.699;  -10.075;15945.876
512.719;13447.008;   -7.796;16340.369
513.305;14577.085;  -10.606;18011.766
513.892;15310.264;  -11.486;19754.971
514.479;16432.674;   -9.126;20967.805
515.066;17750.057;   -6.026;22299.793
515.652;19248.756;   -8.466;22908.660
516.239;20514.006;  -10.886;23798.875
516.825;21445.025;  -11.496;25567.275
517.412;22528.115;   -5.796;28154.959
517.998;23249.943;  -10.506;28344.111
518.585;23142.252;  -10.076;27134.219
519.171;23617.592;   -8.315;27268.576
519.758;25620.189;   -8.596;28964.129
520.344;27565.604;   -8.466;30664.494
520.930;27192.365;  -11.006;32550.605
521.516;28411.104;  -10.495;35422.895
522.103;30359.592;   -5.526;38280.004
522.689;31060.250;   -8.746;37835.117
523.275;30469.908;  -11.376;37288.613
523.861;31927.762;  -11.156;37281.395
524.447;33626.961;   -8.135;37846.949
525.033;33440.590;   -7.896;38321.949
525.619;33821.027;  -12.476;38579.285
526.205;35162.980;   -9.516;40622.875
526.791;37648.102;   -6.926;42258.836
527.377;37458.906;   -8.346;42966.902
527.963;38631.395;   -8.717;42018.949
528.549;37963.117;  -11.016;42476.828
529.135;36793.055;   -8.536;41854.852
529.721;35780.414;   -9.666;41237.711
530.306;35252.102;  -10.066;41259.445
530.892;35163.535;  -11.356;41506.047
531.478;35936.504;   -6.596;43559.613
532.063;39089.676;   -8.836;47695.563
532.649;40067.766;  -10.047;50808.324
533.235;40813.895;   -9.746;51787.500
533.820;41483.980;   -6.566;52145.035
534.406;42784.340;  -10.817;51133.488
534.991;42615.602;   -9.416;49996.805
535.576;41173.754;   -9.036;48882.852
536.162;41833.789;   -6.156;46942.285
536.747;43081.613;  -11.607;45711.746
537.333;46013.164;  -11.787;48510.180
537.918;48549.992;  -12.437;50439.891
538.503;47798.383;   -7.196;50863.711
539.088;44799.914;  -10.556;50906.922
539.673;45185.691;   -8.767;52621.965
540.259;45764.859;  -10.026;52368.094
540.844;42973.137;   -7.416;50879.109
541.429;44245.691;   -9.467;52077.777
542.014;46451.363;   -9.527;52716.695
542.599;45860.555;   -9.946;52363.281
543.184;42793.926;   -7.927;53187.137
543.769;43811.668;   -9.297;54697.605
544.354;44173.270;  -10.127;53913.914
544.938;42843.879;   -9.267;49680.164
545.523;44341.996;   -6.506;47386.277
546.108;46872.480;   -9.787;49151.949
546.693;48842.695;  -11.587;51384.637
547.278;49233.199;  -10.986;51853.254
547.862;46106.988;   -8.206;51173.750
548.447;41642.859;  -10.067;51691.395
549.031;41143.852;   -9.637;52456.703
549.616;45826.363;   -9.926;52714.516
550.201;45443.469;   -6.347;52414.598
550.785;46604.004;   -7.917;52355.059
551.370;46030.371;  -10.867;54589.453
551.954;45902.723;   -9.047;58267.348
552.538;46607.738;   -7.827;59062.176
553.123;44930.480;  -10.287;58115.285
553.707;42925.508;  -12.178;56556.285
554.291;44416.355;   -8.717;56201.668
554.876;47145.918;   -7.457;55335.762
555.460;47193.219;  -10.387;54155.703
556.044;47387.691;   -9.618;53721.484
556.628;45333.172;  -11.567;53731.016
557.212;44221.223;   -8.097;54312.531
557.796;43059.020;  -11.077;53797.773
558.380;43115.805;  -11.108;56145.984
558.964;43253.234;   -9.057;57277.930
559.548;44003.504;   -6.977;56459.641
560.132;42281.672;  -11.457;54434.543
560.716;41065.805;  -11.378;54800.617
561.300;42433.438;   -9.577;57606.945
561.884;43471.695;   -7.127;58972.445
562.467;41470.512;   -7.118;57327.570
563.051;40408.219;  -13.358;54962.434
563.635;41575.129;  -10.178;52594.473
564.219;42558.297;   -7.837;50610.410
564.802;43240.391;  -11.398;49551.180
565.386;42737.105;  -12.788;48370.953
565.969;42205.188;   -9.077;48178.871
566.553;41400.055;   -6.207;49957.305
567.136;42177.961;   -8.568;50369.594
567.720;38857.496;  -11.868;49492.004
568.303;36971.418;   -8.268;50616.352
568.887;36912.168;   -8.698;50727.148
569.470;37442.590;   -6.808;51698.379
570.053;36624.551;  -13.188;52122.078
570.637;34237.242;  -12.037;52536.438
571.220;33806.547;   -8.577;51186.098
571.803;34601.648;   -8.498;51032.762
572.386;36991.027;  -10.498;49609.887
572.969;39443.715;   -9.388;48285.926
573.552;37713.891;   -8.338;47624.285
574.135;36438.086;   -8.518;45498.641
574.718;33846.336;  -13.628;41970.434
575.301;32971.102;  -10.893;41447.137
575.884;32095.867;   -8.158;40923.836
576.467;33215.613;  -10.328;45267.723
577.050;34811.785;  -13.058;48175.543
577.633;35856.848;   -9.458;47729.328
578.216;34933.055;   -8.928;47579.793
578.799;33820.977;   -9.358;47820.996
579.381;32281.469;  -11.388;48115.551
579.964;30130.254;  -11.718;47333.766
580.547;32128.318;   -8.588;46668.969
581.129;33461.066;   -8.859;44466.141
581.712;34611.867;  -10.729;44164.922
582.294;35229.527;  -11.118;46477.855
582.877;35258.930;   -5.218;48244.254
583.459;33303.191;   -8.679;47437.895
584.042;31128.283;  -10.709;46943.219
584.624;31090.217;  -11.669;46792.227
585.206;30674.336;   -8.218;46557.250
585.789;30817.443;  -10.569;45793.773
586.371;32252.834;  -11.859;43836.391
586.953;31361.428;  -10.719;42972.492
587.536;29841.430;   -7.198;42487.211
588.118;28556.324;   -8.720;42086.414
588.700;27016.746;  -10.439;43389.930
589.282;29136.227;   -9.198;43646.039
589.864;32330.813;   -9.199;43438.109
590.446;34388.699;  -11.319;43151.926
591.028;34222.039;  -11.159;42781.867
591.610;32951.914;  -11.779;42839.098
592.192;30511.609;   -7.668;42820.402
592.774;29236.900;  -11.949;40724.277
593.356;28333.223;  -12.129;39874.789
593.937;27465.590;  -10.669;39980.648
594.519;29839.850;   -6.509;42069.633
595.101;31759.561;  -10.849;42976.031
595.683;31749.883;  -11.679;44084.441
596.264;32607.477;   -9.049;43478.797
596.846;32063.744;   -8.849;43803.672
597.427;31824.783;   -9.570;42986.934
598.009;32930.125;  -12.620;42832.219
598.591;33234.043;  -10.039;42580.086
599.172;32851.383;  -10.369;43061.805
599.753;33007.141;   -9.140;41691.469
600.335;34326.516;  -11.430;40692.520
600.916;32716.807;   -9.939;39982.422
601.498;30707.037;   -8.479;40318.617
602.079;29237.045;  -10.920;40670.609
602.660;29108.123;  -11.480;41450.898
603.241;30713.551;  -11.699;41137.738
603.823;29222.865;   -9.579;38868.797
604.404;28774.414;  -10.620;38182.785
604.985;30474.055;  -10.450;38078.047
605.566;30299.252;   -9.129;38056.633
606.147;30297.660;   -7.510;37020.418
606.728;31803.150;  -10.660;37883.359
607.309;30408.549;  -11.740;38748.273
607.890;30125.928;   -9.759;38850.230
608.471;29733.639;   -8.250;37457.918
609.051;29162.355;   -9.240;36066.457
609.632;28014.873;  -12.120;35991.074
610.213;28377.279;   -9.110;37402.641
610.794;29172.740;   -8.030;38383.363
611.374;29165.719;   -8.110;40562.387
611.955;29843.041;  -13.560;38533.727
612.536;31117.754;  -11.400;36951.789
613.116;30867.434;   -8.070;37197.891
613.697;31022.965;  -10.830;38411.125
614.277;29390.715;  -11.641;38673.938
614.858;30226.273;  -13.310;37075.863
615.438;29781.408;   -7.460;35092.906
616.019;27414.199;   -7.601;33666.301
616.599;27564.086;  -12.020;34189.023
617.179;29075.295;  -11.780;36952.047
617.760;30107.252;   -8.570;39582.574
618.340;30925.986;  -11.471;38943.977
618.920;31773.561;  -11.170;37594.156
619.500;31878.953;  -11.071;37866.938
620.080;31165.127;   -7.750;37869.043
620.660;32429.611;  -12.711;36868.617
621.241;34347.715;  -10.211;36352.309
621.821;34613.039;  -10.961;35459.520
622.401;33223.852;   -7.720;35207.414
622.980;32046.855;   -8.981;35980.422
623.560;30625.121;   -9.331;37351.328
624.140;29622.918;   -9.850;34388.582
624.720;24772.678;   -7.451;32368.764
625.300;21345.443;   -9.070;32638.629
625.880;24670.277;  -12.601;34599.035
626.459;28762.176;  -11.751;36831.738
627.039;31629.039;   -9.281;38299.098
627.619;31431.617;   -8.801;38289.574
628.198;29797.902;  -12.071;37220.695
628.778;28852.418;   -9.461;37632.563
629.357;29649.488;   -8.491;38003.012
629.937;30019.182;   -9.721;38402.039
630.516;29573.967;   -9.951;37868.801
631.096;29194.643;  -11.731;35760.410
631.675;31628.088;   -8.572;35225.219
632.254;36764.719;  -11.282;35130.289
632.834;36251.676;  -13.322;35794.570
633.413;34554.824;  -10.301;35788.922
633.992;31793.582;   -8.582;34532.863
634.571;32364.578;   -8.352;33590.113
635.151;34769.719;  -11.912;34943.863
635.730;33360.063;  -10.511;35352.523
636.309;30198.949;   -7.731;35366.605
636.888;27853.926;   -9.952;36165.637
637.467;28480.568;  -11.672;37515.902
638.046;29932.441;   -8.901;39288.695
638.625;32809.715;   -7.912;38279.699
639.204;32721.865;  -10.022;37741.598
639.782;31683.355;  -12.252;38364.551
640.361;27776.143;  -10.041;36740.621
640.940;25081.947;  -11.161;34950.082
641.519;25723.047;   -9.701;34137.398
642.097;28683.289;  -11.271;35654.258
642.676;31439.545;   -8.651;35637.957
643.255;32440.744;   -8.711;36567.074
643.833;31638.313;   -9.581;37809.434
644.412;31825.414;  -13.711;37337.293
644.990;30862.381;  -11.811;37018.531
645.569;30853.832;   -9.411;36518.469
646.147;30352.369;  -10.291;36186.430
646.726;30115.664;  -12.401;36267.688
647.304;30941.650;  -10.411;36647.625
647.882;32422.387;   -9.651;39286.742
648.461;34059.941;   -9.631;39157.703
649.039;32423.252;  -11.881;35412.883
649.617;31427.395;   -9.661;34744.918
650.195;30802.031;   -9.301;35403.098
650.773;29439.277;  -10.511;35053.797
651.352;27238.615;  -11.521;33756.816
651.930;25083.086;  -12.211;31868.773
652.508;23412.256;   -9.171;33121.551
653.086;27273.340;   -9.371;33564.793
653.663;30123.209;  -13.161;34054.668
654.241;28997.566;  -13.031;35693.309
654.819;30544.951;   -9.371;36422.906
655.397;30297.096;  -10.511;38213.484
655.975;29802.227;  -10.371;39507.625
656.553;29459.791;  -10.051;39498.223
657.130;28052.830;  -10.061;40395.480
657.708;27556.850;   -9.561;39242.020
658.286;27623.064;  -11.511;38920.020
658.863;28704.865;  -10.261;40202.898
659.441;32022.393;   -7.531;39677.938
660.018;31938.854;   -9.501;40413.355
660.596;30562.025;  -13.301;39931.414
661.173;32222.332;  -11.211;39604.531
661.750;32732.461;   -9.951;39700.070
662.328;32017.041;   -9.390;39292.809
662.905;31034.197;  -11.330;38235.648
663.482;26302.783;   -9.050;36212.305
664.060;24379.248;   -8.240;35944.945
664.637;27457.623;  -10.050;35170.785
665.214;29022.117;  -11.760;34197.523
665.791;30561.707;  -10.530;34549.520
666.368;29595.996;   -9.690;35118.578
666.945;30074.283;   -9.320;36019.418
667.522;31508.879;  -11.860;36048.438
668.099;31390.637;  -10.770;36243.914
668.676;30090.744;   -6.260;35958.875
669.253;28678.980;   -7.000;37384.730
669.830;28954.031;  -10.190;36779.629
670.407;28949.641;   -9.550;35231.289
670.984;29068.576;   -9.260;35544.270
671.560;29705.043;   -9.280;35466.867
672.137;28880.986;  -11.810;34280.863
672.714;30040.068;  -11.490;34632.863
673.290;31121.020;   -7.740;35135.422
673.867;31176.545;  -10.660;36114.480
674.443;30813.018;  -12.230;36152.859
675.020;28679.332;  -10.450;35327.238
675.596;29877.807;   -9.260;35795.176
676.173;30619.850;  -10.780;35430.355
676.749;30157.197;  -13.690;33549.516
677.326;29904.387;  -11.980;32210.012
677.902;29817.645;   -8.630;32068.871
678.478;29248.785;  -10.730;32583.891
679.054;28475.844;  -10.520;32088.928
679.631;28868.664;  -11.920;30978.848
680.207;30317.965;   -7.490;33160.887
680.783;31801.080;   -9.860;35570.363
681.359;30865.568;  -13.380;36125.184
681.935;30627.648;  -12.480;35240.922
682.511;30340.117;   -7.900;34429.961
683.087;30670.277;   -7.710;34463.680
683.663;30073.006;  -11.480;34648.898
684.239;28596.660;  -14.090;34546.457
684.815;27781.699;   -7.560;35586.375
685.390;27781.770;   -9.910;35821.895
685.966;28276.568;  -11.159;35085.871
686.542;30960.262;  -11.169;34198.230
687.118;33400.789;   -5.959;32847.707
687.693;33740.762;  -10.329;32794.027
688.269;33394.766;  -12.059;33072.367
688.844;31440.295;  -10.909;33141.664
689.420;29349.611;   -8.019;33965.742
689.995;27538.313;   -8.399;34655.523
690.571;26306.611;  -10.949;33576.742
691.146;26433.566;   -9.619;32657.219
691.722;26183.547;   -8.999;32526.979
692.297;26104.906;  -11.589;33014.617
692.872;27562.889;  -11.739;34012.254
693.448;27251.873;  -11.059;34237.434
694.023;26274.063;  -10.139;34142.672
694.598;28331.342;   -9.029;34132.031
695.173;29001.816;  -13.319;34205.250
695.748;27999.438;  -10.169;32882.488
696.323;27616.699;   -8.339;32864.906
696.898;27725.426;   -8.169;33170.004
697.473;27940.865;  -12.309;32432.984
698.048;27301.168;  -10.989;31649.303
698.623;27092.746;   -9.329;30778.141
699.198;28752.633;   -9.849;31140.119
699.773;30119.068;  -12.329;31764.299
700.348;28922.688;  -10.389;31780.816
700.922;28765.559;   -9.269;32046.375
701.497;29555.479;   -9.329;32603.574
702.072;29695.400;  -10.789;34799.871
702.646;28423.605;  -10.839;35793.172
703.221;26487.449;   -9.099;35201.590
703.795;28354.590;  -10.939;34764.527
704.370;28727.826;  -12.859;34307.367
704.944;28898.424;  -11.559;33509.887
705.519;29665.471;   -7.939;31388.584
706.093;30966.420;  -10.499;31340.104
706.668;31174.371;  -11.289;32630.281
707.242;30165.326;  -11.509;32728.779
707.816;29009.340;   -9.639;32947.238
708.390;27443.398;  -11.429;33277.855
708.965;27982.553;  -11.869;33834.336
709.539;28248.898;  -11.689;33709.273
710.113;28281.840;  -10.478;33044.313
710.687;27619.121;  -10.228;31953.992
711.261;26012.783;  -13.698;30505.949
711.835;25963.674;  -13.378;30262.369
712.409;26539.195;   -9.698;31254.447
712.983;28515.412;  -11.898;32754.986
713.557;29761.789;  -15.138;34018.824
714.131;29655.391;  -14.098;34579.625
714.704;28694.609;   -9.958;33890.262
715.278;26102.898;  -10.028;33531.102
715.852;24996.234;  -11.148;33601.660
716.425;26161.158;   -9.068;33515.117
716.999;27206.043;  -10.038;33185.555
717.573;28101.678;   -9.798;33905.996
718.146;29064.785;  -12.378;35199.293
718.720;29102.131;  -11.918;35060.551
719.293;28935.188;   -8.088;34973.230
719.867;31784.104;  -10.888;36394.449
720.440;31345.496;  -11.938;36663.008
721.013;29461.402;  -12.818;35102.426
721.587;28060.268;  -10.298;33985.266
722.160;26950.695;  -10.048;33524.965
722.733;25990.725;  -12.108;32987.043
723.306;26347.379;  -10.818;33066.301
723.880;28374.891;   -8.908;33399.500
724.453;30338.773;   -9.878;33468.297
725.026;29548.180;  -11.188;33816.637
725.599;26947.574;  -11.678;32797.996
726.172;27031.873;   -9.618;33187.434
726.745;28071.410;   -8.258;35136.613
727.318;29477.074;  -12.978;35751.730
727.891;30077.951;  -12.148;35890.430
728.463;29454.795;   -8.968;34822.090
729.036;28122.365;  -10.188;32895.086
729.609;28695.824;  -11.788;31823.225
730.182;25864.307;  -11.788;31445.283
730.754;23557.420;  -10.268;32373.223
731.327;23959.531;   -9.998;33676.820
731.900;24453.596;  -12.228;33417.000
732.472;25296.305;  -13.848;31978.498
733.045;26752.473;   -8.698;30368.777
733.617;26736.658;  -10.607;30574.215
734.190;26906.256;  -11.507;31280.975
734.762;24387.895;  -13.647;31674.412
735.334;22538.660;   -9.767;31247.291
735.907;23032.902;   -9.897;29876.211
736.479;23193.342;  -11.637;29808.488
737.051;22921.289;   -9.567;30233.547
737.623;23565.477;   -8.187;31469.086
738.195;24059.648;  -11.187;31784.225
738.768;26188.801;  -12.337;32120.523
739.340;26843.436;  -12.227;32094.342
739.912;25824.867;  -11.057;31312.680
740.484;24427.414;  -10.207;31946.238
741.056;23006.117;  -10.047;32984.059
741.628;24329.250;  -13.627;33897.715
742.199;26591.484;   -7.177;33213.016
742.771;25243.861;  -10.797;31369.113
743.343;23018.004;  -11.997;31865.473
743.915;22028.768;  -12.867;32388.631
744.487;22081.957;   -7.617;31079.568
745.058;22068.283;   -9.557;30570.107
745.630;22626.303;   -9.877;29970.127
746.201;23881.459;  -14.177;29186.766
746.773;24645.561;   -9.237;28805.723
747.344;24445.629;   -9.847;29591.223
747.916;22731.797;  -11.657;31412.201
748.487;22776.203;  -10.587;32194.898
749.059;24182.078;   -8.707;32533.719
749.630;25070.945;  -10.537;32158.518
750.201;24347.295;  -11.687;30855.395
750.773;22539.496;  -11.647;28622.555
751.344;22094.344;   -7.147;28405.732
751.915;22956.287;   -9.757;28461.551
752.486;22940.779;  -12.427;27842.850
753.057;20911.529;  -12.227;27845.008
753.628;19728.639;  -10.417;27728.107
754.199;20666.598;  -11.767;27381.086
754.770;21658.809;  -11.187;25882.203
755.341;21810.471;  -10.507;25886.184
755.912;21996.943;   -9.387;26050.861
756.483;21622.666;  -10.647;26798.779
757.054;19790.352;  -11.837;27048.238
757.625;18294.717;  -12.716;26294.838
758.195;18122.678;   -9.666;26142.076
758.766;17906.027;   -8.656;26392.234
759.337;18477.566;  -12.856;26334.594
759.907;19961.375;  -13.366;27579.652
760.478;20862.330;   -8.576;28352.770
761.048;20260.154;  -10.526;27325.088
761.619;19293.113;  -11.116;26460.428
762.189;19477.355;  -12.136;26029.826
762.760;20630.264;   -9.456;26430.145
763.330;21714.855;   -7.136;26670.902
763.900;21236.285;  -11.786;26603.021
764.471;18713.799;  -11.546;25542.740
765.041;17152.420;   -8.096;24358.459
765.611;16923.383;   -8.876;23991.297
766.181;17329.277;  -12.196;24470.236
766.751;18583.824;  -11.636;24845.975
767.321;18307.266;  -10.156;24533.633
767.891;16063.063;  -11.766;24916.492
768.461;15419.101;  -14.936;24776.771
769.031;15973.489;  -12.356;24757.988
769.601;17681.465;   -7.526;24181.088
770.171;17883.430;  -10.766;23670.387
770.741;17190.275;  -13.176;22960.045
771.311;17349.752;  -10.616;22917.523
771.880;17899.623;   -9.576;23562.941
772.450;17822.713;  -10.336;24216.500
773.020;17813.037;  -13.516;24140.398
773.589;16952.756;  -13.466;24414.857
774.159;16222.755;   -8.686;23858.717
774.729;15839.576;   -9.476;22942.135
775.298;15461.532;  -13.666;22324.033
775.867;14980.598;  -11.716;21140.313
776.437;15048.400;   -9.906;20838.092
777.006;14777.584;  -12.166;20599.510
777.576;14479.135;  -12.356;20508.809
778.145;14474.583;  -11.646;20732.947
778.714;14520.956;   -8.226;21062.465
779.283;14052.161;   -9.556;20949.664
779.853;13569.984;  -14.116;20508.623
780.422;13986.464;  -11.506;20649.082
780.991;13521.928;   -9.556;21527.520
781.560;12200.034;   -9.095;22632.658
782.129;11953.151;  -12.135;23048.277
782.698;11933.477;  -10.865;23438.555
783.267;11569.108;   -9.335;23267.734
783.836;11566.843;  -11.045;22415.133
784.404;12592.055;  -13.865;20443.152
784.973;13247.819;  -13.095;19699.150
785.542;13317.993;  -11.575;19763.828
786.111;13179.642;   -9.705;20341.408
786.679;12679.463;  -12.105;20207.967
787.248;12401.679;  -12.455;19516.465
787.817;12174.393;  -11.535;18900.363
788.385;11746.724;   -9.765;17879.121
788.954;11147.864;  -14.005;17658.301
789.522;10561.653;  -11.955;17788.879
790.090;11000.580;  -10.135;18118.277
790.659;11567.913;  -10.975;18338.736
791.227;11144.078;  -13.375;18508.615
791.795;11555.479;  -12.375;17898.254
792.364;11841.451;  -10.725;17295.133
792.932;12135.820;   -9.715;16822.051
793.500;12453.619;  -12.675;17040.148
794.068;12767.540;  -13.495;17179.787
794.636;12928.906;  -10.885;16664.246
795.204;12226.522;  -11.045;16524.545
795.772;12181.601;  -13.175;17274.564
796.340;11714.278;  -12.445;17891.002
796.908;11503.050;   -9.735;17648.561
797.476;11372.862;   -9.815;17064.080
798.044;10931.688;  -13.985;16672.777
798.612;10185.360;  -13.115;17023.996
799.180; 9781.506;  -10.185;16561.615
799.747; 9609.718;   -9.055;15962.773
800.315; 9305.818;  -12.385;15296.992
800.883; 9081.640;  -15.035;14801.771
801.450; 9261.075;  -10.365;14534.430
802.018; 9371.375;   -9.855;14173.248
802.585; 9366.051;  -11.905;14029.547
803.153; 9371.869;  -11.585;13836.846
803.720; 9232.071;   -9.095;13567.324
804.287; 8728.144;   -9.135;13360.622
804.855; 8235.746;  -11.604;13681.981
805.422; 8137.899;  -11.794;13536.560
805.989; 8218.790;  -10.734;13355.958
806.556; 8473.184;  -10.444;13747.896
807.124; 8794.553;  -12.764;13987.376
807.691; 8752.309;  -12.964;14038.674
808.258; 8526.428;  -11.134;14120.152
808.825; 8106.733;   -9.854;13860.111
809.392; 8213.372;  -10.504;13268.790
809.959; 7825.048;  -13.054;12680.389
810.526; 7363.213;   -8.294;12427.308
811.093; 7340.920;   -8.394;12030.105
811.659; 7901.407;  -12.304;11653.664
812.226; 8399.700;  -13.944;11637.183
812.793; 8079.306;  -10.484;11611.521
813.360; 7435.931;  -10.144;11885.181
813.926; 7129.859;  -11.684;12770.539
814.493; 6952.795;  -13.644;12677.638
815.060; 6599.497;   -9.724;11974.336
815.626; 6558.169;   -9.854;11594.715
816.193; 6917.070;  -13.254;11579.474
816.759; 6942.060;  -13.204;11666.972
817.325; 7001.665;   -9.434;11325.530
817.892; 7385.834;  -10.134;11105.369
818.458; 7823.566;  -13.474;10843.928
819.024; 7460.859;  -11.854;10714.406
819.591; 7169.911;  -10.244;10469.165
820.157; 6971.183;  -10.704;10235.523
820.723; 6452.121;  -12.324;10847.563
821.289; 6132.901;   -9.444;11040.980
821.855; 6028.483;   -8.374;10357.100
822.421; 5931.114;  -10.234; 9978.918
822.987; 5858.991;  -13.294; 9754.177
823.553; 5508.841;  -10.884;10065.755
824.119; 5355.086;   -8.884;10036.294
824.685; 5532.240;   -6.784;10029.192
825.251; 5670.254;  -12.004;10199.230
825.816; 5618.179;  -11.474; 9820.189
826.382; 5346.964;   -9.174; 9297.248
826.948; 5503.603;   -9.214; 9381.347
827.513; 5888.061;  -10.774; 9450.726
828.079; 5717.211;  -11.924; 9472.444
828.645; 5124.781;  -10.543; 9292.643
829.210; 4978.228;  -10.533; 9065.341
829.776; 4945.195;  -10.753; 9132.620
830.341; 4825.598;  -10.173; 9092.878
830.906; 4993.005;  -10.743; 9078.557
831.472; 5340.251;  -11.113; 8534.535
832.037; 5132.992;  -10.603; 8677.874
832.602; 4603.083;  -13.323; 8628.692
833.167; 4347.068;  -10.823; 8879.031
833.733; 4296.417;  -10.113; 9189.790
834.298; 4423.555;  -13.583; 9052.608
834.863; 4537.559;  -12.703; 8895.087
835.428; 4548.468;  -10.523; 8824.266
835.993; 4393.145;   -6.963; 8845.385
836.558; 4209.554;  -10.763; 8888.563
837.123; 4286.698;   -9.903; 8966.582
837.688; 4528.746;   -9.913; 8617.860
838.253; 4768.993;  -10.283; 8590.699
838.817; 4979.595;  -12.963; 8443.797
839.382; 4942.178;  -14.243; 8799.356
839.947; 4651.927;  -10.733; 8810.595
840.511; 4340.664;   -9.383; 8796.394
841.076; 3946.604;  -12.563; 8347.231
841.641; 3987.222;  -12.953; 8224.330
842.205; 4081.101;   -7.043; 8223.349
842.770; 4122.717;   -8.163; 8622.107
843.334; 4290.120;  -12.503; 8410.386
843.898; 4269.793;  -11.693; 8337.465
844.463; 4266.656;  -10.203; 8506.283
845.027; 4048.010;   -9.533; 8280.962
845.591; 3861.208;  -13.443; 8231.141
846.156; 3850.831;  -13.143; 7969.179
846.720; 3769.538;   -9.433; 7768.278
847.284; 3655.122;  -11.033; 7630.957
847.848; 3510.797;  -10.403; 7472.395
848.412; 3412.061;  -11.553; 7437.394
848.976; 3449.989;   -8.393; 7674.592
849.540; 3371.900;   -8.713; 7836.011
850.104; 3421.444;  -12.463; 7913.669
850.668; 3770.621;  -12.973; 7694.508
851.232; 3929.371;  -10.793; 7756.887
851.796; 3790.961;  -10.662; 7926.545
852.359; 3480.706;  -13.082; 7827.844
852.923; 3311.950;  -12.192; 7641.163
853.487; 3176.769;  -11.912; 7342.501
854.050; 3163.327;  -10.892; 7042.820
854.614; 3293.924;  -13.992; 7151.338
855.177; 3388.308;  -11.732; 7105.077
855.741; 3420.023;   -8.962; 6989.675
856.304; 3326.249;   -9.442; 6596.634
856.868; 3309.961;  -14.192; 6356.272
857.431; 3436.203;  -12.702; 6468.571
857.995; 3569.602;   -9.942; 6373.210
858.558; 3593.893;   -9.112; 6324.448
859.121; 3322.442;  -12.932; 6408.327
859.684; 3144.335;  -13.442; 6347.886
860.247; 3238.975;  -10.632; 6321.264
860.810; 3266.858;  -11.272; 6301.903
861.374; 3013.954;   -9.832; 6607.881
861.937; 2743.479;  -11.762; 6408.200
862.500; 2741.846;   -9.722; 6572.639
863.062; 2897.939;  -10.512; 6387.297
863.625; 3044.667;  -11.232; 6190.836
864.188; 3215.563;  -14.112; 5807.254
864.751; 3312.513;  -11.302; 5682.413
865.314; 3231.267;  -10.112; 5547.492
865.876; 3005.693;  -12.182; 5500.150
866.439; 2971.801;  -10.722; 5415.909
867.002; 2920.450;   -9.252; 5501.567
867.564; 2718.174;   -9.572; 5413.946
868.127; 2500.029;  -13.142; 5160.325
868.689; 2376.504;  -12.902; 5133.183
869.252; 2256.553;   -9.732; 5252.382
869.814; 2145.868;   -9.432; 5297.141
870.377; 2150.422;  -11.552; 5390.919
870.939; 2216.689;   -9.052; 5599.898
871.501; 2296.415;  -10.982; 5248.336
872.063; 2311.681;  -12.292; 4854.235
872.626; 2253.421;  -14.912; 4817.074
873.188; 2247.654;  -13.112; 4987.732
873.750; 2220.734;  -13.442; 4868.651
874.312; 2140.821;   -9.402; 4779.330
874.874; 2054.160;  -11.062; 4866.348
875.436; 1971.122;  -13.931; 4718.887
875.998; 1964.191;   -9.561; 4660.005
876.560; 1987.119;  -11.321; 4462.964
877.122; 1928.226;  -12.221; 4145.042
877.683; 1826.852;  -12.191; 4056.481
878.245; 1750.712;  -12.101; 3950.740
878.807; 1785.663;   -8.971; 4058.958
879.369; 1807.963;  -12.071; 3954.677
879.930; 1719.061;  -14.621; 3941.495
880.492; 1657.549;  -10.311; 4067.014
881.053; 1618.033;  -10.901; 3859.633
881.615; 1511.255;  -14.411; 3776.071
882.176; 1419.682;  -13.761; 3734.750
882.738; 1375.716;   -9.181; 3678.489
883.299; 1351.844;  -11.791; 3405.407
883.860; 1340.758;  -13.121; 3351.106
884.422; 1323.447;  -11.211; 3394.044
884.983; 1280.638;  -10.091; 3166.443
885.544; 1206.677;   -8.461; 3189.802
886.105; 1134.831;  -12.361; 3160.360
886.666; 1071.075;  -14.141; 3093.059
887.227; 1010.704;  -11.361; 2941.957
887.788;  945.694;  -11.401; 2974.836
888.349;  877.795;  -13.791; 2721.214
888.910;  870.770;  -13.191; 2696.493
889.471;  874.716;   -9.881; 2560.172
890.032;  854.926;   -9.881; 2558.190
890.593;  826.155;  -10.371; 2567.669
891.153;  801.583;  -13.301; 2460.307
891.714;  755.240;  -11.431; 2372.046
892.275;  718.511;  -11.291; 2309.505
892.835;  681.562;  -11.471; 2382.543
893.396;  629.017;  -11.541; 2295.502
893.956;  568.970;  -11.181; 2162.420
894.517;  527.918;  -11.741; 2125.439
895.077;  519.738;  -11.671; 2086.978
895.638;  523.191;  -11.311; 2126.316
896.198;  495.555;   -9.831; 1838.275
896.758;  452.522;   -8.421; 1892.813
897.319;  420.906;  -12.351; 1792.232
897.879;  405.221;  -13.511; 1762.751
898.439;  380.380;  -12.001; 1661.149
898.999;  354.593;  -10.180; 1781.468
899.559;  344.150;  -12.030; 1703.347
900.119;  340.123;  -15.710; 1537.525
900.679;  335.924;   -8.900; 1638.384
901.239;  321.013;   -8.340; 1527.902
901.799;  310.989;  -13.910; 1456.441
902.359;  303.808;  -13.460; 1357.140
902.919;  297.258;  -11.490; 1331.118
903.479;  284.851;  -12.110; 1317.257
904.038;  264.595;  -11.720; 1262.595
904.598;  248.737;  -13.610; 1152.034
905.158;  244.873;  -11.040; 1240.893
905.717;  238.191;  -10.900; 1233.691
906.277;  226.689;  -15.080; 1217.330
906.836;  216.508;  -13.380; 1222.408
907.396;  208.454;  -10.780; 1193.047
907.955;  201.407;   -8.500; 1182.526
908.515;  195.809;  -12.760; 1099.364
909.074;  189.465;  -11.900; 1092.863
909.633;  183.968;   -8.950; 1069.121
910.192;  179.446;   -8.770; 1196.460
910.752;  174.071;  -12.390; 1029.960
911.311;  169.498;  -13.680; 1009.780
911.870;  166.576;  -12.370;  971.460
912.429;  167.332;  -10.900; 1094.080
912.988;  166.791;  -11.690; 1081.060
913.547;  162.184;  -13.240;  940.380
914.106;  157.004;  -11.990;  999.420
914.665;  154.605;   -9.990;  984.020
915.224;  153.212;  -12.880; 1035.760
915.782;  154.295;  -12.350;  922.560
916.341;  152.772;   -9.110; 1049.840
916.900;  149.257;   -9.270;  925.260
917.458;  146.513;  -13.240;  884.220
918.017;  146.476;  -13.550;  942.600
918.576;  145.713;  -12.320;  904.440
919.134;  144.022;  -11.490;  837.980
919.693;  142.620;  -13.670;  893.060
920.251;  140.663;  -15.470;  876.500
920.809;  140.443;  -11.290;  839.580
921.368;  138.724;  -10.210;  885.360
921.926;  138.197;  -12.140;  842.940
922.484;  138.082;  -13.080;  903.360
923.042;  136.313;  -11.720;  880.340
923.601;  139.686;   -7.480;  998.680
924.159;  138.492;  -11.570;  935.560
924.717;  134.571;  -13.840;  841.080
925.275;  134.099;  -10.640;  903.240
925.833;  134.248;  -11.540;  779.320
926.391;  134.926;  -12.960;  938.380
926.949;  133.076;  -14.130;  857.680
927.506;  133.812;  -11.750;  903.500
928.064;  133.901;  -10.250;  877.580
928.622;  133.365;  -13.030;  880.100
929.180;  132.217;  -13.400;  814.180
929.737;  133.596;  -10.700;  808.540
930.295;  137.814;  -10.070;  928.480
930.853;  139.666;  -11.960;  849.100
931.410;  140.087;  -13.120;  821.120
931.968;  138.844;  -10.770;  940.660
932.525;  139.502;  -10.680;  909.380
933.082;  139.711;  -13.130;  811.440
933.640;  139.566;  -13.210;  925.900
934.197;  138.808;  -11.060;  886.360
934.754;  140.571;   -9.580;  897.780
935.312;  143.225;  -14.000;  863.340
935.869;  147.475;  -10.710; 1012.980
936.426;  147.710;   -9.860;  872.800
936.983;  149.504;   -9.710;  889.020
937.540;  149.091;  -13.990;  838.280
938.097;  148.090;  -14.040;  940.120
938.654;  148.003;  -10.310;  898.860
939.211;  150.629;  -10.560;  952.480
939.768;  153.726;  -13.900;  915.420
940.324;  157.887;  -14.760;  904.200
940.881;  159.853;  -10.370;  878.500
941.438;  160.431;   -8.260; 1021.200
941.995;  156.867;  -12.540;  992.560
942.551;  153.565;  -14.670;  875.620
943.108;  153.705;  -10.450;  937.920
943.664;  156.011;  -10.750;  869.340
944.221;  159.166;  -11.550; 1088.140
944.777;  156.082;  -14.770;  869.680
945.334;  157.422;  -12.820;  884.840
945.890;  158.752;  -10.130;  946.480
946.446;  159.790;  -13.470;  947.020
947.003;  161.066;  -12.120;  964.940
947.559;  164.669;   -9.980; 1063.040
948.115;  164.171;   -9.080; 1026.540
948.671;  160.883;  -10.830;  967.300
949.227;  158.789;  -12.440;  859.560
949.783;  156.828;  -12.910;  858.900
950.339;  158.818;  -10.270;  991.000
950.895;  159.095;  -13.630; 1023.840
951.451;  158.508;  -15.100;  925.280
952.007;  157.894;  -11.330;  998.540
952.563;  158.110;  -10.580;  937.780
953.118;  156.500;  -13.440;  904.940
953.674;  155.579;  -12.710;  935.780
954.230;  155.400;  -10.350;  949.640
954.785;  153.346;   -9.190;  936.640
955.341;  151.246;  -11.200;  998.160
955.897;  150.856;  -16.560;  834.660
956.452;  151.903;  -12.570;  953.840
957.008;  152.035;   -7.970; 1083.640
957.563;  149.015;  -11.940; 1009.540
958.118;  144.432;  -13.450;  877.700
958.674;  144.416;  -12.030;  946.780
959.229;  146.064;   -9.410; 1013.980
959.784;  145.019;  -12.000;  832.400
960.339;  143.659;  -14.780; 1001.280
960.894;  139.661;   -9.860;  963.760
961.449;  135.554;   -9.970;  859.960
962.004;  135.473;  -10.900; 1212.840
962.559;  130.019;  -13.150;  860.140
963.114;  127.098;  -13.740;  742.480
963.669;  126.860;   -9.820;  915.500
964.224;  125.276;  -13.890;  874.340
964.779;  123.873;  -12.600;  828.420
965.334;  125.236;  -10.950; 1017.860
965.888;  125.783;  -11.170;  875.360
966.443;  128.516;  -12.540;  972.380
966.998;  127.512;  -15.780;  819.460
967.552;  127.475;   -9.760;  908.380
968.107;  123.788;   -9.060;  868.300
968.661;  125.379;  -11.950;  922.440
969.216;  125.147;  -12.800;  856.280
969.770;  126.339;  -11.210;  917.200
970.324;  124.977;  -11.610;  923.140
970.879;  121.117;  -11.370;  947.180
971.433;  117.573;  -12.540;  952.720
971.987;  111.863;  -11.320;  895.340
972.541;  107.817;  -10.720;  917.100
973.095;  108.089;   -9.680; 1009.460
973.649;  106.703;  -11.440;  809.480
974.203;  107.038;  -11.210;  829.040
974.757;  107.894;  -10.240;  855.220
975.311;  107.138;  -13.720;  872.600
975.865;  101.965;  -13.770;  881.820
976.419;   94.429;  -11.690;  857.400
976.973;   86.723;   -9.510;  849.620
977.526;   82.106;  -12.620;  949.920
978.080;   77.667;  -12.010;  796.780
978.634;   79.255;  -10.170;  921.320
979.187;   78.870;   -9.020;  905.400
979.741;   81.012;   -9.820; 1018.380
980.294;   78.966;  -14.870;  789.160
980.848;   77.993;  -12.380;  717.220
981.401;   80.862;  -10.350;  816.540
981.955;   83.833;  -13.720;  844.300
982.508;   83.326;  -11.490;  746.340
983.061;   84.574;  -10.000;  915.260
983.615;   81.758;  -11.480;  798.800
984.168;   79.246;  -13.220;  770.080
984.721;   80.062;  -13.960;  880.760
985.274;   79.974;  -10.870;  867.500
985.827;   78.340;   -9.790;  834.220
986.380;   77.331;  -13.120;  721.340
986.933;   76.639;  -12.450;  864.800
987.486;   75.631;  -10.210;  861.920
988.039;   75.119;   -8.430;  863.100
988.591;   73.109;  -10.520;  893.260
989.144;   71.075;  -14.860;  737.260
989.697;   70.017;  -13.080;  758.740
990.250;   70.866;  -10.150;  858.100
990.802;   69.138;  -13.430;  755.860
991.355;   70.524;  -12.750;  974.880
991.907;   68.688;  -12.040;  864.320
992.460;   66.853;  -11.330;  753.760
993.012;   65.865;  -13.610;  749.540
993.565;   64.454;  -13.460;  711.360
994.117;   67.801;   -9.360;  950.780
994.669;   64.315;  -11.300;  701.320
995.221;   61.450;  -13.540;  791.920
995.774;   58.181;  -13.430;  787.580
996.326;   56.020;  -12.520;  740.220
996.878;   56.346;  -10.950;  838.420
997.430;   54.570;  -14.300;  699.860
997.982;   53.648;  -13.760;  750.140
998.534;   54.801;  -11.530;  739.060
999.086;   52.963;  -10.310;  738.220
999.638;   52.261;  -12.530;  661.380
1000.190;   50.416;  -11.840;  699.320
1000.741;   51.024;  -10.260;  742.700
1001.293;   50.936;   -8.860;  686.020
1001.845;   49.404;  -13.700;  676.640
1002.396;   49.497;  -12.100;  743.400
1002.948;   49.229;  -12.760;  737.400
1003.500;   47.527;  -10.380;  723.780
1004.051;   48.365;  -11.900;  907.580
1004.603;   46.205;  -12.250;  791.820
1005.154;   43.215;  -13.210;  608.980
1005.705;   42.987;  -10.950;  723.960
1006.257;   41.760;  -13.880;  707.220
1006.808;   40.714;  -12.840;  685.460
1007.359;   41.066;  -10.570;  763.240
1007.910;   39.882;   -9.620;  646.640
1008.461;   38.981;  -13.630;  732.940
1009.013;   37.864;  -17.200;  588.340
1009.564;   39.747;  -10.200;  793.520
1010.115;   38.530;  -12.570;  597.040
1010.665;   37.267;  -15.150;  602.160
1011.216;   37.431;  -14.480;  667.920
1011.767;   36.987;  -11.340;  697.920
1012.318;   36.889;   -9.780;  736.980
1012.869;   35.673;  -12.380;  679.000
1013.419;   34.501;  -15.560;  603.120
1013.970;   35.074;  -11.010;  666.640
1014.521;   34.655;  -11.610;  620.620
1015.071;   34.875;  -13.450;  670.380
1015.622;   34.271;  -13.870;  635.460
1016.172;   33.816;  -11.610;  596.820
1016.723;   34.198;  -12.120;  614.380
1017.273;   33.198;  -13.620;  604.160
1017.823;   33.048;  -14.140;  650.340
1018.374;   33.033;  -12.800;  611.760
1018.924;   33.333;  -12.340;  716.880
1019.474;   32.147;  -11.410;  718.880
1020.024;   30.804;  -14.770;  657.580
1020.574;   32.539;   -9.780;  726.160
1021.124;   32.148;   -8.560;  673.580
1021.674;   31.023;  -15.190;  559.120
1022.224;   32.445;  -13.530;  708.940
1022.774;   32.067;  -13.280;  668.820
1023.324;   31.804;  -10.690;  753.520
1023.874;   33.129;  -10.240;  875.760
1024.423;   30.542;  -12.540;  613.700
1024.973;   30.430;  -10.010;  610.760
1025.523;   29.674;  -10.550;  620.960
1026.072;   30.135;  -13.560;  606.420
1026.622;   29.270;  -15.120;  675.740
1027.172;   30.518;  -11.260;  715.660
1027.721;   29.125;  -11.410;  601.220
1028.270;   29.345;  -13.530;  663.400
1028.820;   28.723;  -13.680;  638.080
1029.369;   28.807;  -13.520;  612.700
1029.918;   28.910;  -10.980;  649.840
1030.468;   27.921;  -13.530;  564.780
1031.017;   28.435;  -13.170;  634.800
1031.566;   27.859;  -12.200;  608.900
1032.115;   28.031;   -9.960;  694.500
1032.664;   27.424;  -13.210;  596.480
1033.213;   28.429;  -12.500;  735.420
1033.762;   27.519;  -11.910;  635.620
1034.311;   26.636;   -9.640;  677.220
1034.860;   27.195;  -13.310;  691.000
1035.408;   26.903;  -11.830;  722.720
1035.957;   27.636;  -12.000;  719.540
1036.506;   25.567;  -11.690;  530.800
1037.055;   28.118;  -10.990;  844.320
1037.603;   26.275;  -15.120;  664.000
1038.152;   24.667;  -12.450;  534.760
1038.700;   25.754;  -10.560;  585.740
1039.249;   25.010;  -11.080;  681.220
1039.797;   25.244;  -12.540;  633.360
1040.345;   25.169;  -11.920;  705.420
1040.894;   25.501;  -11.410;  625.300
1041.442;   24.714;  -14.320;  632.200
1041.990;   23.629;  -16.240;  559.160
1042.538;   23.420;  -11.680;  536.180
1043.087;   23.258;  -10.760;  570.860
1043.635;   24.815;  -11.850;  670.500
1044.183;   23.340;  -15.480;  586.400
1044.731;   22.851;  -11.770;  576.000
1045.279;   23.218;  -13.090;  674.920
1045.827;   24.954;  -12.440;  892.400
1046.374;   22.638;  -13.840;  515.420
1046.922;   21.730;  -13.220;  590.580
1047.470;   23.518;  -10.230;  691.300
1048.018;   22.848;  -14.590;  647.960
1048.565;   23.222;  -12.050;  708.600
1049.113;   22.227;  -11.650;  557.000
1049.660;   22.085;  -10.510;  629.660
1050.208;   23.010;  -13.310;  675.640
1050.755;   21.760;  -15.900;  606.580
1051.303;   22.527;  -11.430;  686.820
1051.850;   21.609;   -8.480;  635.120
1052.397;   19.807;  -15.010;  473.960
1052.945;   20.301;  -13.960;  617.760
1053.492;   21.932;  -13.150;  741.840
1054.039;   21.688;   -9.630;  720.180
1054.586;   20.389;  -13.680;  557.240
1055.133;   20.874;  -14.570;  693.140
1055.680;   20.616;  -13.820;  646.620
1056.227;   20.100;  -11.730;  542.780
1056.774;   21.659;  -12.480;  794.980
1057.321;   19.061;  -13.930;  523.260
1057.868;   20.170;  -11.690;  651.320
1058.415;   19.201;   -9.520;  651.980
1058.961;   20.030;  -13.160;  678.940
1059.508;   18.992;  -12.920;  643.820
1060.055;   19.502;  -11.920;  581.780
1060.601;   19.562;  -11.500;  624.300
1061.148;   18.921;  -14.330;  616.820
1061.694;   18.349;  -16.870;  592.580
1062.241;   19.062;  -10.330;  596.320
1062.787;   18.897;  -10.620;  663.140
1063.334;   20.484;  -10.110;  808.560
1063.880;   18.977;  -13.400;  668.360
1064.426;   18.865;  -10.680;  706.820
1064.972;   17.806;   -9.920;  601.340
1065.518;   16.231;  -10.980;  566.640
1066.065;   18.233;  -14.890;  624.460
1066.611;   17.260;  -12.870;  598.800
1067.157;   18.666;  -12.950;  641.860
1067.703;   18.176;  -13.540;  668.480
1068.249;   16.891;  -13.540;  605.220
1068.794;   17.725;  -12.600;  626.880
1069.340;   16.225;  -10.620;  578.960
1069.886;   16.640;  -12.830;  590.700
1070.432;   15.954;  -14.870;  541.720
1070.977;   16.225;  -11.980;  601.080
1071.523;   16.420;   -8.200;  573.060
1072.068;   16.611;  -12.330;  582.000
1072.614;   15.896;  -16.370;  527.760
1073.160;   17.099;  -11.100;  687.040
1073.705;   16.067;  -10.480;  572.520
1074.250;   15.426;  -14.520;  559.900
1074.796;   16.212;  -11.460;  655.160
1075.341;   16.239;  -11.950;  664.100
1075.886;   15.883;  -11.460;  594.240
1076.431;   15.134;  -13.770;  649.880
1076.976;   15.518;  -12.680;  639.220
1077.521;   14.656;  -13.170;  583.080
1078.067;   14.374;  -10.860;  579.400
1078.612;   14.744;  -13.920;  661.620
1079.156;   14.233;  -13.880;  601.540
1079.701;   15.611;  -13.120;  693.260
1080.246;   15.515;   -9.940;  696.300
1080.791;   14.341;  -14.740;  625.020
1081.336;   15.163;  -13.750;  659.320
1081.880;   14.365;  -13.400;  649.680
1082.425;   13.827;  -12.220;  573.480
1082.970;   15.560;  -11.610;  717.040
1083.514;   13.512;  -13.580;  597.000
1084.059;   13.563;  -12.810;  586.720
1084.603;   12.949;  -12.320;  565.840
1085.147;   13.639;  -13.190;  645.220
1085.692;   14.438;  -12.480;  716.800
1086.236;   12.408;  -13.020;  503.140
1086.780;   14.223;   -9.190;  751.440
1087.325;   13.414;  -12.480;  654.620
1087.869;   12.471;  -12.450;  610.700
1088.413;   13.566;  -12.240;  705.040
1088.957;   11.705;   -9.020;  543.400
1089.501;   13.365;  -10.320;  766.640
1090.045;   12.864;  -12.720;  726.480
1090.589;   10.612;  -13.690;  569.920
1091.133;   11.843;  -10.020;  673.340
1091.676;   12.319;  -12.330;  591.940
1092.220;   11.543;  -14.970;  600.920
1092.764;   13.184;  -12.430;  706.960
1093.307;   12.206;   -9.800;  673.780
1093.851;   10.400;  -14.970;  556.540
1094.395;   11.430;  -15.310;  683.140
1094.938;   11.123;  -10.370;  632.520
1095.482;   10.585;  -11.050;  559.800
1096.025;   11.584;  -11.840;  710.880
1096.568;   11.971;  -12.840;  779.280
1097.112;    9.267;  -14.700;  508.180
1097.655;   11.497;   -8.720;  603.000
1098.198;    9.465;  -13.610;  600.180
1098.741;    9.836;  -13.350;  612.860
1099.285;   10.980;  -11.230;  657.300
1099.828;    9.449;  -11.840;  439.400
1100.371;   10.223;  -10.840;  608.160
1100.914;   10.173;  -14.190;  682.660
1101.457;   10.332;  -11.240;  679.900
1101.999;    9.350;  -11.270;  584.680
1102.542;   10.085;  -11.480;  641.440
1103.085;    9.198;  -11.750;  658.500
1103.628;   10.701;  -11.400;  762.060
1104.170;    8.811;  -10.490;  588.280
1104.713;   10.159;  -10.600;  646.700
1105.256;    8.499;  -14.360;  557.440
1105.798;    8.179;  -13.210;  499.980
1106.341;    9.644;  -10.270;  728.900
1106.883;    8.269;  -12.200;  521.340
1107.425;    8.433;  -13.110;  668.180
1107.968;    8.808;  -12.840;  612.380
1108.510;    8.992;   -6.480;  684.960
1109.052;    7.180;  -13.940;  612.620
1109.594;    7.713;  -13.690;  554.440
1110.136;    8.624;  -11.880;  643.220
1110.679;    8.303;   -9.500;  633.080
1111.221;    8.803;  -14.160;  604.460
1111.763;    7.410;  -13.980;  559.220
1112.304;    7.141;  -13.880;  547.140
1112.846;    8.235;  -12.210;  666.240
1113.388;   10.487;  -11.390;  942.180
1113.930;    7.829;  -14.540;  694.200
1114.472;    7.254;  -12.640;  606.540
1115.013;    5.706;  -11.620;  551.280
1115.555;    6.675;  -13.640;  587.100
1116.097;    5.958;  -15.380;  579.480
1116.638;    6.607;  -12.640;  684.600
1117.180;    7.202;   -9.850;  667.740
1117.721;    6.700;  -13.690;  568.580
1118.262;    7.447;  -12.680;  677.960
1118.804;    7.326;  -12.530;  637.340
1119.345;    6.558;  -11.690;  578.400
1119.886;    7.168;  -13.380;  704.040
1120.427;    6.225;  -14.070;  589.020
1120.969;    5.583;  -13.500;  597.920
1121.510;    5.527;  -11.480;  563.060
1122.051;    6.174;  -12.830;  723.580
1122.592;    5.841;  -14.290;  655.420
1123.133;    4.378;  -12.400;  547.940
1123.673;    6.510;  -10.130;  706.480
1124.214;    5.254;  -12.930;  612.460
1124.755;    5.960;  -14.380;  639.460
1125.296;    5.967;  -14.000;  627.320
1125.836;    5.440;  -10.070;  691.500
1126.377;    5.145;  -12.640;  599.660
1126.918;    5.115;  -12.960;  614.980
1127.458;    4.496;  -13.350;  622.220
1127.999;    5.584;  -10.750;  656.980
1128.539;    5.309;  -12.350;  694.240
1129.079;    4.099;  -14.860;  632.720
1129.620;    4.424;  -13.840;  558.100
1130.160;    3.792;  -12.330;  539.480
1130.700;    4.796;  -14.530;  640.840
1131.240;    4.480;  -12.530;  643.700
1131.781;    3.695;  -14.450;  619.680
1132.321;    4.577;   -9.790;  599.120
1132.861;    3.495;  -14.860;  564.200
1133.401;    3.359;  -14.290;  593.940
1133.941;    4.217;  -11.750;  626.280
1134.481;    3.432;   -9.920;  597.580
1135.020;    3.265;  -12.290;  609.160
1135.560;    4.010;  -11.650;  674.940
1136.100;    3.109;  -16.270;  501.160
1136.640;    2.484;  -10.890;  510.480
1137.179;    3.025;  -14.180;  537.960
1137.719;    2.746;  -16.250;  605.400
1138.258;    2.879;  -14.230;  587.360
1138.798;    3.334;   -9.090;  663.780
1139.337;    2.006;  -15.130;  482.840
1139.877;    2.729;  -13.680;  642.360
1140.416;    4.688;  -11.320;  878.060
1140.955;    1.773;  -10.860;  535.380
1141.494;    2.790;  -12.920;  669.280
1142.034;    1.809;  -13.930;  583.520
1142.573;    3.811;  -11.440;  646.280
1143.112;    1.822;  -12.000;  553.480
1143.651;    2.385;  -13.670;  536.480
1144.190;    2.999;  -12.730;  691.640
1144.729;    2.219;  -14.560;  607.420
1145.267;    1.876;  -11.830;  584.900
1145.806;    3.204;  -12.230;  637.040
1146.345;    1.543;  -14.130;  635.020
1146.884;    1.808;  -11.590;  622.500
1147.422;    1.221;  -12.550;  533.060
1147.961;    3.229;  -11.180;  708.460
1148.500;    2.335;  -11.510;  669.720
1149.038;    3.255;  -11.640;  632.500
1149.577;    2.555;  -10.130;  698.640
1150.115;    0.249;  -13.970;  452.280
1150.653;    1.275;  -14.520;  607.340
1151.192;    1.408;  -12.810;  552.920
1151.730;    1.832;   -9.100;  652.560
1152.268;    0.972;  -12.220;  589.520
1152.806;    0.931;  -14.140;  571.180
1153.344;    0.453;  -12.350;  577.640
1153.882;    1.107;   -8.980;  600.060
1154.421;   -0.206;  -15.190;  470.620
1154.958;   -0.148;  -15.210;  595.240
1155.496;    2.102;  -12.850;  645.280
1156.034;    1.282;   -9.940;  721.880
1156.572;    2.321;  -13.570;  667.060
1157.110;   -0.721;  -14.590;  473.940
1157.647;    1.307;  -13.030;  676.960
1158.185;   -0.026;  -12.140;  564.320
1158.723;   -0.698;  -14.390;  509.200
1159.260;    0.231;  -14.090;  701.700
1159.798;    0.760;  -11.920;  658.160
1160.335;   -0.023;  -11.110;  631.820

