
Integration time [ms]:   3.276
Averaging Nr. [scans]: 1000
Smoothing Nr. [pixels]: 0
Data measured with spectrometer [name]: 7414430SP
Wave   ;Sample   ;Dark     ;Reference
[nm]   ;[counts] ;[counts] ;[counts] 

288.544;  151.971;    7.793;  793.890
289.143;  155.018;    7.462;  681.602
289.742;  155.827;    8.602;  828.814
290.341;  140.852;    1.321;  789.841
290.940;  129.763;   -0.709;  730.702
291.538;  130.187;    0.881;  881.108
292.137;  131.019;    0.122;  792.581
292.736;  136.076;   -1.929;  975.101
293.335;  132.357;   -8.229;  735.086
293.934;  132.170;   -5.279;  781.677
294.532;  130.322;   -1.369; 1031.958
295.131;  116.157;   -7.641;  834.394
295.730;  116.477;   -8.420;  809.588
296.328;  115.295;   -5.611;  783.442
296.927;  116.928;   -5.781;  779.652
297.525;  117.152;   -6.361;  781.236
298.124;  107.108;  -11.382;  654.009
298.722;  111.324;   -7.641;  761.933
299.321;  109.593;   -6.811;  708.597
299.919;  107.601;   -6.991;  751.918
300.518;  103.687;  -10.362;  689.338
301.116;  106.154;   -9.581;  691.381
301.715;  105.532;   -4.891;  730.222
302.313;  105.013;   -8.801;  704.943
302.911;   99.789;   -8.522;  733.830
303.509;  105.233;   -6.171;  925.627
304.108;  103.033;   -7.311;  760.383
304.706;  102.405;   -8.321;  801.664
305.304;   97.089;  -10.222;  796.707
305.902;  102.401;   -6.021;  784.484
306.500;   97.083;   -4.971;  728.200
307.098;   96.139;   -7.061;  746.560
307.696;   94.302;   -8.801;  780.432
308.294;   94.980;   -6.411;  731.359
308.892;   97.335;   -2.901;  759.769
309.490;   92.950;   -5.041;  712.161
310.088;   90.981;   -5.002;  788.444
310.686;   95.769;   -2.041;  821.749
311.284;   91.303;   -2.351;  766.040
311.882;   88.494;   -4.422;  731.225
312.480;   86.422;   -4.192;  697.167
313.078;   87.369;   -1.172;  808.331
313.675;   87.246;   -2.601;  691.600
314.273;   83.047;   -1.312;  797.837
314.871;   82.415;   -3.942;  589.829
315.468;   80.553;   -2.802;  652.090
316.066;   83.413;   -0.701;  694.427
316.664;   76.249;   -4.362;  656.351
317.261;   80.068;   -2.872;  910.128
317.859;   76.184;   -2.022;  768.735
318.456;   76.444;   -0.531;  830.096
319.054;   72.564;   -3.912;  787.828
319.651;   70.249;   -4.752;  759.928
320.249;   69.910;   -2.602;  810.188
320.846;   67.223;   -0.821;  714.286
321.443;   64.721;   -4.642;  832.135
322.041;   62.281;   -5.002;  812.315
322.638;   59.380;   -3.982;  701.456
323.235;   60.781;   -3.411;  665.683
323.833;   58.467;   -7.361;  740.354
324.430;   53.541;   -8.611;  615.900
325.027;   53.927;   -4.061;  876.855
325.624;   54.602;   -4.031;  644.532
326.221;   51.723;   -7.481;  689.717
326.818;   50.538;   -5.281;  818.332
327.415;   53.839;   -7.460;  748.828
328.012;   53.781;   -5.510;  690.585
328.609;   52.444;   -7.880;  731.389
329.206;   50.278;   -8.331;  778.621
329.803;   50.127;   -5.121;  737.841
330.400;   52.782;   -4.510;  704.260
330.997;   54.219;   -6.441;  817.147
331.594;   52.896;   -8.831;  788.185
332.191;   58.573;   -7.621;  728.722
332.787;   61.031;   -4.591;  844.463
333.384;   59.808;   -7.412;  763.093
333.981;   58.330;   -8.293;  815.687
334.578;   61.918;   -7.052;  708.378
335.174;   64.204;   -3.102;  731.469
335.771;   64.317;   -5.943;  836.456
336.367;   60.821;   -7.393;  710.631
336.964;   63.909;   -4.063;  793.266
337.561;   61.441;   -3.813;  731.112
338.157;   57.926;   -4.654;  911.916
338.754;   55.464;   -7.934;  796.589
339.350;   53.813;   -4.414;  722.493
339.946;   54.907;   -4.664;  773.135
340.543;   47.668;   -6.375;  846.136
341.139;   42.326;   -9.815;  720.836
341.735;   39.469;   -4.526;  772.593
342.332;   38.226;   -4.895;  691.472
342.928;   38.743;   -4.295;  795.394
343.524;   32.757;   -5.476;  761.684
344.120;   28.929;   -5.856;  738.562
344.716;   32.432;   -2.155;  723.717
345.313;   30.361;   -6.275;  795.342
345.909;   24.830;   -8.815;  627.336
346.505;   26.574;   -5.305;  740.247
347.101;   27.389;   -2.674;  827.864
347.697;   28.473;   -4.344;  785.398
348.293;   21.868;   -9.975;  627.244
348.889;   22.857;   -5.774;  745.914
349.485;   22.314;   -5.004;  688.205
350.081;   23.035;   -4.704;  772.592
350.676;   18.491;   -6.635;  691.606
351.272;   22.136;   -4.504;  809.530
351.868;   21.719;   -3.914;  780.497
352.464;   19.142;   -9.044;  723.932
353.059;   15.224;   -8.314;  646.017
353.655;   18.827;   -7.024;  777.063
354.251;   20.475;   -5.343;  759.845
354.846;   14.637;   -8.604;  740.646
355.442;   12.318;   -6.945;  753.071
356.038;   14.661;   -7.564;  751.708
356.633;   14.412;   -5.814;  728.594
357.229;   12.362;   -7.364;  724.757
357.824;   10.826;   -8.024;  703.600
358.420;    9.982;   -9.384;  679.726
359.015;   10.016;   -5.104;  695.357
359.610;   11.180;   -6.854;  763.920
360.206;    4.926;  -10.185;  603.240
360.801;    7.634;   -7.054;  646.503
361.396;   10.139;   -5.034;  725.975
361.992;    5.722;   -8.284;  668.220
362.587;    2.262;   -8.625;  670.160
363.182;    5.432;   -7.674;  689.631
363.777;    5.860;   -5.164;  738.242
364.372;    6.181;   -8.604;  737.314
364.967;    1.835;   -9.055;  680.744
365.563;    5.558;   -6.114;  815.567
366.158;    3.065;   -5.814;  685.161
366.753;    2.686;   -7.854;  649.263
367.348;    1.864;   -7.804;  746.056
367.942;    1.617;   -7.954;  697.298
368.537;    1.153;   -4.984;  754.245
369.132;    1.410;   -8.564;  703.428
369.727;   -3.030;   -8.855;  638.079
370.322;   -1.544;   -6.245;  580.186
370.917;   -2.192;   -6.425;  710.646
371.511;    0.490;   -6.294;  861.834
372.106;   -2.826;   -7.685;  776.964
372.701;   -6.209;   -7.335;  585.988
373.296;   -0.016;   -4.564;  863.135
373.890;   -5.481;  -10.235;  647.840
374.485;   -7.470;   -7.885;  691.199
375.079;   -3.130;   -7.324;  738.685
375.674;   -2.350;   -3.494;  812.970
376.268;   -6.162;   -8.525;  691.759
376.863;  -12.290;  -10.086;  580.327
377.457;   -6.095;   -7.025;  662.490
378.052;   -7.669;   -3.585;  764.884
378.646;   -8.546;   -7.595;  741.167
379.240;   -9.112;   -8.335;  721.176
379.835;   -7.817;   -5.785;  636.978
380.429;   -9.581;   -4.335;  562.557
381.023;   -9.447;   -6.805;  779.205
381.617;  -12.357;   -9.195;  680.106
382.212;   -9.555;   -6.905;  685.303
382.806;   -8.443;   -3.745;  760.690
383.400;  -11.978;   -7.745;  672.281
383.994;  -13.061;   -9.765;  664.870
384.588;   -8.734;   -6.564;  697.701
385.182;   -7.806;   -5.344;  726.624
385.776;   -9.908;   -8.514;  706.875
386.370;  -13.076;   -9.555;  681.968
386.964;  -11.075;   -8.715;  684.155
387.558;   -9.740;   -6.174;  598.360
388.152;  -13.396;   -8.725;  681.959
388.745;  -11.505;   -7.965;  814.707
389.339;  -10.308;   -5.924;  747.642
389.933;   -9.070;   -5.524;  695.370
390.527;  -10.312;   -7.114;  859.029
391.120;  -16.839;  -10.725;  595.318
391.714;  -12.818;   -8.035;  711.633
392.308;   -9.968;   -3.574;  780.253
392.901;  -13.636;   -7.245;  642.460
393.495;  -15.446;   -9.285;  595.414
394.089;  -14.403;   -5.895;  760.452
394.682;  -14.492;   -4.295;  697.188
395.275;  -14.946;   -9.875;  719.927
395.869;  -15.915;   -8.485;  667.314
396.462;  -14.830;   -7.455;  616.609
397.056;  -11.241;   -5.424;  776.621
397.649;  -15.648;   -6.605;  731.575
398.242;  -13.332;   -8.224;  712.645
398.836;  -11.984;   -7.474;  766.408
399.429;  -13.297;   -7.094;  631.041
400.022;  -16.492;   -9.475;  665.902
400.615;  -13.819;   -7.145;  805.609
401.208;  -11.812;   -7.174;  691.451
401.802;  -14.347;   -5.515;  699.329
402.395;  -15.564;   -9.875;  683.502
402.988;  -16.208;   -8.845;  696.627
403.581;  -13.010;   -8.874;  646.878
404.174;  -11.090;   -5.324;  686.568
404.767;  -13.349;   -9.575;  638.583
405.360;  -16.879;  -10.965;  621.445
405.953;  -11.237;   -8.764;  759.034
406.545;  -10.629;   -7.514;  725.342
407.138;  -14.522;  -10.025;  618.350
407.731;  -14.266;  -10.034;  613.303
408.324;   -9.916;   -9.374;  660.554
408.917;   -9.997;   -6.534;  681.864
409.509;  -12.465;   -8.004;  740.396
410.102;  -14.262;   -9.875;  643.948
410.695;   -8.307;   -8.604;  665.758
411.287;   -9.673;   -6.794;  599.821
411.880;  -10.407;   -9.334;  585.421
412.472;  -13.697;  -10.254;  613.092
413.065;  -11.767;   -6.714;  629.408
413.657;   -8.623;   -7.234;  576.678
414.250;   -8.721;  -10.544;  646.681
414.842;  -10.660;   -9.744;  676.353
415.434;   -8.602;   -6.994;  570.463
416.027;   -3.997;   -5.893;  652.196
416.619;   -5.762;   -7.264;  713.400
417.211;   -5.969;  -10.374;  599.352
417.804;   -2.935;   -7.993;  628.499
418.396;   -7.467;   -7.234;  607.643
418.988;   -5.188;   -9.443;  659.238
419.580;   -8.131;  -10.724;  568.276
420.172;   -6.639;  -10.323;  536.196
420.764;   -1.826;   -8.793;  672.482
421.356;   -2.935;  -11.143;  636.898
421.948;   -3.756;   -8.293;  677.661
422.540;    1.566;   -7.893;  680.027
423.132;    0.587;   -7.082;  600.641
423.724;   -2.765;   -8.653;  561.267
424.316;   -1.052;  -10.213;  621.345
424.908;    2.159;   -9.762;  591.517
425.500;    3.426;   -5.572;  647.978
426.092;    3.823;   -8.422;  648.268
426.683;    2.445;   -9.283;  684.836
427.275;    5.896;   -7.852;  641.471
427.867;    6.983;   -5.272;  668.948
428.458;    7.363;   -7.682;  732.344
429.050;    6.119;  -10.612;  680.749
429.642;    8.741;   -9.882;  743.124
430.233;    8.286;   -6.962;  569.356
430.825;   10.538;   -6.842;  724.809
431.416;    7.740;   -9.672;  698.241
432.008;   11.241;   -6.552;  651.723
432.599;   11.918;   -6.891;  656.073
433.190;    8.574;  -10.912;  637.670
433.782;    8.678;  -11.172;  590.395
434.373;   15.691;   -6.061;  884.765
434.964;   14.015;   -8.251;  602.920
435.556;   11.658;   -9.722;  634.537
436.147;   14.655;   -9.082;  758.490
436.738;   14.258;   -8.041;  701.099
437.329;   20.263;   -7.341;  721.723
437.920;   12.939;   -8.162;  666.688
438.511;   12.187;  -11.802;  564.526
439.103;   19.703;  -10.191;  623.998
439.694;   20.774;   -7.601;  681.583
440.285;   22.270;   -8.541;  764.432
440.876;   20.148;   -9.751;  845.738
441.466;   19.639;   -9.401;  575.162
442.057;   25.183;   -7.760;  665.814
442.648;   23.885;   -9.971;  746.255
443.239;   21.091;  -11.001;  620.477
443.830;   27.113;   -7.990;  704.958
444.421;   28.870;   -7.910;  655.474
445.011;   24.709;   -8.131;  693.619
445.602;   24.890;   -7.111;  743.126
446.193;   27.016;  -10.920;  488.117
446.783;   31.329;   -6.500;  640.397
447.374;   26.620;   -8.671;  692.759
447.964;   27.244;  -10.781;  713.770
448.555;   35.510;   -9.650;  822.742
449.145;   33.127;   -8.660;  662.853
449.736;   33.103;   -8.990;  803.179
450.326;   33.769;   -9.500;  713.626
450.917;   37.539;   -8.680;  675.324
451.507;   36.724;   -7.520;  600.661
452.097;   38.087;   -8.590;  746.267
452.688;   38.636;  -11.340;  742.160
453.278;   38.128;  -10.100;  566.840
453.868;   43.079;   -6.019;  793.550
454.458;   41.390;   -9.440;  651.141
455.048;   40.353;  -10.560;  711.783
455.639;   42.809;  -11.799;  567.096
456.229;   46.596;   -6.899;  710.694
456.819;   47.730;   -7.389;  751.158
457.409;   48.400;  -11.119;  773.993
457.999;   50.408;   -9.289;  737.505
458.589;   50.678;   -6.139;  686.606
459.179;   51.793;   -8.729;  717.658
459.769;   48.704;   -9.789;  627.099
460.358;   53.841;  -10.259;  797.262
460.948;   53.940;   -7.299;  689.503
461.538;   55.281;  -10.289;  660.677
462.128;   53.691;  -11.269;  664.934
462.717;   59.790;   -9.368;  710.326
463.307;   62.941;   -7.908;  705.846
463.897;   59.102;   -9.599;  656.942
464.486;   57.970;   -9.769;  837.128
465.076;   62.511;   -8.048;  733.776
465.666;   66.586;   -9.358;  652.900
466.255;   64.024;   -7.919;  785.651
466.845;   63.102;  -11.689;  666.749
467.434;   66.726;   -7.818;  725.873
468.023;   67.303;   -7.678;  658.357
468.613;   65.016;  -10.939;  713.946
469.202;   69.243;  -10.118;  646.507
469.791;   73.166;   -9.108;  737.811
470.381;   75.521;   -6.058;  742.813
470.970;   75.265;  -10.428;  711.099
471.559;   74.658;  -10.268;  733.291
472.148;   77.767;   -8.448;  675.737
472.738;   79.624;   -6.917;  765.466
473.327;   79.553;  -11.978;  637.529
473.916;   79.405;  -11.888;  737.446
474.505;   83.122;   -9.437;  751.703
475.094;   87.211;   -6.747;  806.570
475.683;   86.054;   -9.367;  797.699
476.272;   86.907;  -12.637;  730.632
476.861;   90.101;  -10.027;  706.754
477.449;   96.009;   -8.716;  728.487
478.038;   90.754;   -9.577;  692.513
478.627;   91.484;   -9.718;  714.852
479.216;   98.561;   -8.947;  769.441
479.805;  100.895;   -6.256;  783.375
480.393;  101.238;   -7.937; 1008.945
480.982;   99.969;   -7.717;  874.501
481.571;  106.665;   -9.266;  858.333
482.159;  106.819;   -7.636;  705.386
482.748;  106.468;   -9.667;  821.385
483.336;  111.311;  -10.376;  858.209
483.925;  111.861;   -7.147;  774.373
484.513;  119.506;   -7.996;  758.962
485.102;  114.962;  -10.027;  810.965
485.690;  123.740;  -10.446; 1011.050
486.278;  125.850;   -8.446;  979.329
486.867;  126.523;   -6.356;  809.662
487.455;  128.212;   -9.136;  898.229
488.043;  129.615;  -10.646;  748.361
488.631;  137.905;   -7.456; 1005.079
489.220;  142.086;   -6.636;  908.626
489.808;  143.162;  -11.036;  741.415
490.396;  149.845;  -10.246;  914.645
490.984;  156.343;   -8.556;  830.161
491.572;  165.096;   -5.886;  940.315
492.160;  171.158;   -9.486;  919.081
492.748;  182.918;  -10.976;  884.341
493.336;  205.006;   -8.776; 1019.693
493.924;  231.183;   -5.465;  958.077
494.512;  257.869;   -9.986; 1066.638
495.100;  294.012;  -10.636; 1103.280
495.687;  349.759;  -10.885; 1206.373
496.275;  411.062;   -8.126; 1150.796
496.863;  479.745;  -10.586; 1281.171
497.451;  577.447;  -11.926; 1386.805
498.038;  709.210;  -10.885; 1556.729
498.626;  816.234;   -6.315; 1741.407
499.214;  968.956;   -7.326; 2016.609
499.801; 1157.417;  -11.906; 2220.633
500.389; 1389.272;  -10.466; 2312.494
500.976; 1685.577;   -5.236; 2744.849
501.564; 2116.222;   -8.936; 3148.565
502.151; 2464.776;  -13.176; 3515.999
502.738; 2864.668;  -10.646; 3971.274
503.326; 3272.405;   -9.525; 4403.796
503.913; 3691.163;  -10.856; 5161.749
504.500; 4058.233;  -11.586; 5986.420
505.088; 4439.920;  -10.336; 6381.201
505.675; 4966.264;   -6.355; 6925.547
506.262; 5653.037;   -9.046; 7619.060
506.849; 6396.649;  -10.416; 8733.969
507.436; 6937.862;  -10.305; 9790.121
508.023; 7472.331;   -5.496; 9985.472
508.610; 7684.798;   -7.856;10434.618
509.197; 8339.053;  -10.097;11198.435
509.784; 9643.492;  -10.886;12391.194
510.371;10818.012;   -9.315;13603.713
510.958;11600.330;   -9.936;14426.586
511.545;12317.452;   -9.326;15243.775
512.132;13088.444;  -10.075;15945.876
512.719;13556.760;   -7.796;16340.369
513.305;14740.528;  -10.606;18011.766
513.892;15413.071;  -11.486;19754.971
514.479;16568.410;   -9.126;20967.805
515.066;18079.244;   -6.026;22299.793
515.652;19620.818;   -8.466;22908.660
516.239;20768.475;  -10.886;23798.875
516.825;21589.355;  -11.496;25567.275
517.412;22604.641;   -5.796;28154.959
517.998;23296.100;  -10.506;28344.111
518.585;23267.598;  -10.076;27134.219
519.171;23908.439;   -8.315;27268.576
519.758;25773.430;   -8.596;28964.129
520.344;27740.441;   -8.466;30664.494
520.930;27477.359;  -11.006;32550.605
521.516;28367.887;  -10.495;35422.895
522.103;30236.131;   -5.526;38280.004
522.689;30833.900;   -8.746;37835.117
523.275;30461.436;  -11.376;37288.613
523.861;32311.928;  -11.156;37281.395
524.447;34023.922;   -8.135;37846.949
525.033;33663.098;   -7.896;38321.949
525.619;33793.789;  -12.476;38579.285
526.205;35052.438;   -9.516;40622.875
526.791;37505.211;   -6.926;42258.836
527.377;37296.750;   -8.346;42966.902
527.963;37980.617;   -8.717;42018.949
528.549;37146.809;  -11.016;42476.828
529.135;35612.949;   -8.536;41854.852
529.721;33574.133;   -9.666;41237.711
530.306;31117.822;  -10.066;41259.445
530.892;29780.057;  -11.356;41506.047
531.478;31839.791;   -6.596;43559.613
532.063;37075.676;   -8.836;47695.563
532.649;39732.648;  -10.047;50808.324
533.235;40491.742;   -9.746;51787.500
533.820;40201.254;   -6.566;52145.035
534.406;40632.555;  -10.817;51133.488
534.991;39241.902;   -9.416;49996.805
535.576;35519.992;   -9.036;48882.852
536.162;33305.824;   -6.156;46942.285
536.747;33007.652;  -11.607;45711.746
537.333;37834.750;  -11.787;48510.180
537.918;44938.930;  -12.437;50439.891
538.503;48231.324;   -7.196;50863.711
539.088;46576.398;  -10.556;50906.922
539.673;47017.652;   -8.767;52621.965
540.259;47818.715;  -10.026;52368.094
540.844;45123.938;   -7.416;50879.109
541.429;46641.227;   -9.467;52077.777
542.014;48639.930;   -9.527;52716.695
542.599;47724.660;   -9.946;52363.281
543.184;44645.781;   -7.927;53187.137
543.769;45513.418;   -9.297;54697.605
544.354;45885.582;  -10.127;53913.914
544.938;44589.340;   -9.267;49680.164
545.523;46403.402;   -6.506;47386.277
546.108;49365.539;   -9.787;49151.949
546.693;50949.543;  -11.587;51384.637
547.278;51044.758;  -10.986;51853.254
547.862;48141.746;   -8.206;51173.750
548.447;43593.285;  -10.067;51691.395
549.031;42526.754;   -9.637;52456.703
549.616;47252.398;   -9.926;52714.516
550.201;47475.945;   -6.347;52414.598
550.785;48694.672;   -7.917;52355.059
551.370;47777.730;  -10.867;54589.453
551.954;46974.039;   -9.047;58267.348
552.538;47932.926;   -7.827;59062.176
553.123;46388.395;  -10.287;58115.285
553.707;43873.949;  -12.178;56556.285
554.291;45196.391;   -8.717;56201.668
554.876;48423.559;   -7.457;55335.762
555.460;48456.227;  -10.387;54155.703
556.044;48497.488;   -9.618;53721.484
556.628;46559.035;  -11.567;53731.016
557.212;45746.695;   -8.097;54312.531
557.796;44658.211;  -11.077;53797.773
558.380;44784.160;  -11.108;56145.984
558.964;44793.160;   -9.057;57277.930
559.548;45754.480;   -6.977;56459.641
560.132;43807.363;  -11.457;54434.543
560.716;42132.836;  -11.378;54800.617
561.300;43204.598;   -9.577;57606.945
561.884;44585.340;   -7.127;58972.445
562.467;42691.359;   -7.118;57327.570
563.051;41801.258;  -13.358;54962.434
563.635;43316.930;  -10.178;52594.473
564.219;44082.051;   -7.837;50610.410
564.802;44647.961;  -11.398;49551.180
565.386;44156.012;  -12.788;48370.953
565.969;43561.754;   -9.077;48178.871
566.553;42305.508;   -6.207;49957.305
567.136;43160.004;   -8.568;50369.594
567.720;40047.945;  -11.868;49492.004
568.303;37909.980;   -8.268;50616.352
568.887;37714.543;   -8.698;50727.148
569.470;38412.527;   -6.808;51698.379
570.053;37684.781;  -13.188;52122.078
570.637;35380.539;  -12.037;52536.438
571.220;35227.004;   -8.577;51186.098
571.803;36218.242;   -8.498;51032.762
572.386;38263.105;  -10.498;49609.887
572.969;40802.129;   -9.388;48285.926
573.552;39206.984;   -8.338;47624.285
574.135;37715.645;   -8.518;45498.641
574.718;35111.934;  -13.628;41970.434
575.301;34445.965;  -10.893;41447.137
575.884;33779.996;   -8.158;40923.836
576.467;34828.910;  -10.328;45267.723
577.050;35978.633;  -13.058;48175.543
577.633;37265.758;   -9.458;47729.328
578.216;36634.664;   -8.928;47579.793
578.799;35801.957;   -9.358;47820.996
579.381;34845.941;  -11.388;48115.551
579.964;32548.660;  -11.718;47333.766
580.547;34526.082;   -8.588;46668.969
581.129;35321.703;   -8.859;44466.141
581.712;36111.535;  -10.729;44164.922
582.294;36545.141;  -11.118;46477.855
582.877;36606.977;   -5.218;48244.254
583.459;34819.355;   -8.679;47437.895
584.042;32758.223;  -10.709;46943.219
584.624;32601.279;  -11.669;46792.227
585.206;32441.086;   -8.218;46557.250
585.789;32831.805;  -10.569;45793.773
586.371;35213.156;  -11.859;43836.391
586.953;35998.664;  -10.719;42972.492
587.536;36909.219;   -7.198;42487.211
588.118;37593.766;   -8.720;42086.414
588.700;33663.395;  -10.439;43389.930
589.282;32542.189;   -9.198;43646.039
589.864;33400.539;   -9.199;43438.109
590.446;34750.645;  -11.319;43151.926
591.028;34697.918;  -11.159;42781.867
591.610;33371.355;  -11.779;42839.098
592.192;30676.107;   -7.668;42820.402
592.774;29351.820;  -11.949;40724.277
593.356;28458.359;  -12.129;39874.789
593.937;27398.357;  -10.669;39980.648
594.519;29602.400;   -6.509;42069.633
595.101;31665.891;  -10.849;42976.031
595.683;31759.545;  -11.679;44084.441
596.264;32585.420;   -9.049;43478.797
596.846;32414.877;   -8.849;43803.672
597.427;32170.219;   -9.570;42986.934
598.009;33228.809;  -12.620;42832.219
598.591;33782.117;  -10.039;42580.086
599.172;33618.715;  -10.369;43061.805
599.753;33893.625;   -9.140;41691.469
600.335;35079.047;  -11.430;40692.520
600.916;33138.105;   -9.939;39982.422
601.498;30975.912;   -8.479;40318.617
602.079;29514.863;  -10.920;40670.609
602.660;29141.941;  -11.480;41450.898
603.241;30861.365;  -11.699;41137.738
603.823;29511.248;   -9.579;38868.797
604.404;28576.619;  -10.620;38182.785
604.985;30387.334;  -10.450;38078.047
605.566;30582.285;   -9.129;38056.633
606.147;30692.518;   -7.510;37020.418
606.728;32298.324;  -10.660;37883.359
607.309;30976.652;  -11.740;38748.273
607.890;30735.242;   -9.759;38850.230
608.471;30177.953;   -8.250;37457.918
609.051;29504.979;   -9.240;36066.457
609.632;28290.852;  -12.120;35991.074
610.213;28463.414;   -9.110;37402.641
610.794;29424.797;   -8.030;38383.363
611.374;29382.150;   -8.110;40562.387
611.955;30074.607;  -13.560;38533.727
612.536;31463.305;  -11.400;36951.789
613.116;31151.979;   -8.070;37197.891
613.697;31568.416;  -10.830;38411.125
614.277;29793.637;  -11.641;38673.938
614.858;30346.172;  -13.310;37075.863
615.438;29922.873;   -7.460;35092.906
616.019;27834.615;   -7.601;33666.301
616.599;28020.662;  -12.020;34189.023
617.179;29631.227;  -11.780;36952.047
617.760;30715.682;   -8.570;39582.574
618.340;31567.244;  -11.471;38943.977
618.920;32388.205;  -11.170;37594.156
619.500;32226.959;  -11.071;37866.938
620.080;31284.180;   -7.750;37869.043
620.660;32408.230;  -12.711;36868.617
621.241;34328.148;  -10.211;36352.309
621.821;34820.766;  -10.961;35459.520
622.401;33540.746;   -7.720;35207.414
622.980;32445.697;   -8.981;35980.422
623.560;31019.379;   -9.331;37351.328
624.140;29756.689;   -9.850;34388.582
624.720;25026.201;   -7.451;32368.764
625.300;21627.705;   -9.070;32638.629
625.880;24990.396;  -12.601;34599.035
626.459;29099.148;  -11.751;36831.738
627.039;31883.090;   -9.281;38299.098
627.619;31792.734;   -8.801;38289.574
628.198;30288.285;  -12.071;37220.695
628.778;29340.859;   -9.461;37632.563
629.357;30071.084;   -8.491;38003.012
629.937;30289.832;   -9.721;38402.039
630.516;29688.607;   -9.951;37868.801
631.096;29460.180;  -11.731;35760.410
631.675;31481.463;   -8.572;35225.219
632.254;36647.906;  -11.282;35130.289
632.834;36296.305;  -13.322;35794.570
633.413;34773.891;  -10.301;35788.922
633.992;32371.367;   -8.582;34532.863
634.571;32832.859;   -8.352;33590.113
635.151;35384.273;  -11.912;34943.863
635.730;33959.082;  -10.511;35352.523
636.309;30500.623;   -7.731;35366.605
636.888;27979.449;   -9.952;36165.637
637.467;28330.258;  -11.672;37515.902
638.046;29824.428;   -8.901;39288.695
638.625;32768.473;   -7.912;38279.699
639.204;32750.432;  -10.022;37741.598
639.782;31616.186;  -12.252;38364.551
640.361;27807.574;  -10.041;36740.621
640.940;25028.535;  -11.161;34950.082
641.519;25702.916;   -9.701;34137.398
642.097;28675.262;  -11.271;35654.258
642.676;31668.707;   -8.651;35637.957
643.255;32984.320;   -8.711;36567.074
643.833;32157.547;   -9.581;37809.434
644.412;32022.580;  -13.711;37337.293
644.990;30949.377;  -11.811;37018.531
645.569;30722.014;   -9.411;36518.469
646.147;30335.898;  -10.291;36186.430
646.726;30388.297;  -12.401;36267.688
647.304;31533.615;  -10.411;36647.625
647.882;32831.305;   -9.651;39286.742
648.461;34446.074;   -9.631;39157.703
649.039;33077.488;  -11.881;35412.883
649.617;32095.814;   -9.661;34744.918
650.195;31264.900;   -9.301;35403.098
650.773;29914.965;  -10.511;35053.797
651.352;27532.859;  -11.521;33756.816
651.930;25083.059;  -12.211;31868.773
652.508;23507.455;   -9.171;33121.551
653.086;27408.500;   -9.371;33564.793
653.663;30533.568;  -13.161;34054.668
654.241;29235.896;  -13.031;35693.309
654.819;30756.252;   -9.371;36422.906
655.397;30592.152;  -10.511;38213.484
655.975;29900.965;  -10.371;39507.625
656.553;29576.127;  -10.051;39498.223
657.130;28301.518;  -10.061;40395.480
657.708;27566.564;   -9.561;39242.020
658.286;27597.666;  -11.511;38920.020
658.863;28765.211;  -10.261;40202.898
659.441;32114.195;   -7.531;39677.938
660.018;32284.209;   -9.501;40413.355
660.596;31006.283;  -13.301;39931.414
661.173;32628.818;  -11.211;39604.531
661.750;33103.543;   -9.951;39700.070
662.328;31873.746;   -9.390;39292.809
662.905;30785.602;  -11.330;38235.648
663.482;26592.924;   -9.050;36212.305
664.060;24535.818;   -8.240;35944.945
664.637;27534.393;  -10.050;35170.785
665.214;28967.236;  -11.760;34197.523
665.791;30664.242;  -10.530;34549.520
666.368;30111.873;   -9.690;35118.578
666.945;30375.990;   -9.320;36019.418
667.522;31787.336;  -11.860;36048.438
668.099;31584.799;  -10.770;36243.914
668.676;30186.611;   -6.260;35958.875
669.253;28905.697;   -7.000;37384.730
669.830;29093.008;  -10.190;36779.629
670.407;29080.557;   -9.550;35231.289
670.984;28916.979;   -9.260;35544.270
671.560;29632.133;   -9.280;35466.867
672.137;28978.775;  -11.810;34280.863
672.714;30066.033;  -11.490;34632.863
673.290;31532.547;   -7.740;35135.422
673.867;31517.395;  -10.660;36114.480
674.443;31397.430;  -12.230;36152.859
675.020;29347.721;  -10.450;35327.238
675.596;30142.133;   -9.260;35795.176
676.173;30860.670;  -10.780;35430.355
676.749;30395.816;  -13.690;33549.516
677.326;30031.582;  -11.980;32210.012
677.902;29867.207;   -8.630;32068.871
678.478;29260.771;  -10.730;32583.891
679.054;28339.041;  -10.520;32088.928
679.631;28789.359;  -11.920;30978.848
680.207;30259.904;   -7.490;33160.887
680.783;31821.561;   -9.860;35570.363
681.359;31060.248;  -13.380;36125.184
681.935;30826.949;  -12.480;35240.922
682.511;30619.541;   -7.900;34429.961
683.087;30831.307;   -7.710;34463.680
683.663;30091.217;  -11.480;34648.898
684.239;28776.521;  -14.090;34546.457
684.815;28056.232;   -7.560;35586.375
685.390;27881.240;   -9.910;35821.895
685.966;28376.521;  -11.159;35085.871
686.542;30882.189;  -11.169;34198.230
687.118;33370.906;   -5.959;32847.707
687.693;34047.488;  -10.329;32794.027
688.269;33791.965;  -12.059;33072.367
688.844;31980.879;  -10.909;33141.664
689.420;29996.078;   -8.019;33965.742
689.995;28341.881;   -8.399;34655.523
690.571;27023.078;  -10.949;33576.742
691.146;26909.275;   -9.619;32657.219
691.722;26666.373;   -8.999;32526.979
692.297;26298.670;  -11.589;33014.617
692.872;27566.363;  -11.739;34012.254
693.448;27367.834;  -11.059;34237.434
694.023;26347.154;  -10.139;34142.672
694.598;28299.170;   -9.029;34132.031
695.173;29237.336;  -13.319;34205.250
695.748;28292.906;  -10.169;32882.488
696.323;28193.699;   -8.339;32864.906
696.898;28250.295;   -8.169;33170.004
697.473;28324.506;  -12.309;32432.984
698.048;27586.203;  -10.989;31649.303
698.623;27190.217;   -9.329;30778.141
699.198;28601.818;   -9.849;31140.119
699.773;30209.367;  -12.329;31764.299
700.348;29065.842;  -10.389;31780.816
700.922;28935.857;   -9.269;32046.375
701.497;29958.209;   -9.329;32603.574
702.072;30239.266;  -10.789;34799.871
702.646;28950.439;  -10.839;35793.172
703.221;26734.799;   -9.099;35201.590
703.795;28625.248;  -10.939;34764.527
704.370;29209.766;  -12.859;34307.367
704.944;29244.449;  -11.559;33509.887
705.519;29804.125;   -7.939;31388.584
706.093;31037.650;  -10.499;31340.104
706.668;31573.563;  -11.289;32630.281
707.242;30476.455;  -11.509;32728.779
707.816;29234.531;   -9.639;32947.238
708.390;27693.545;  -11.429;33277.855
708.965;27946.641;  -11.869;33834.336
709.539;27781.998;  -11.689;33709.273
710.113;27855.719;  -10.478;33044.313
710.687;27524.988;  -10.228;31953.992
711.261;26142.346;  -13.698;30505.949
711.835;26157.689;  -13.378;30262.369
712.409;26534.359;   -9.698;31254.447
712.983;28447.830;  -11.898;32754.986
713.557;29804.439;  -15.138;34018.824
714.131;29715.574;  -14.098;34579.625
714.704;28626.424;   -9.958;33890.262
715.278;26117.645;  -10.028;33531.102
715.852;24846.641;  -11.148;33601.660
716.425;25892.164;   -9.068;33515.117
716.999;26990.115;  -10.038;33185.555
717.573;27779.824;   -9.798;33905.996
718.146;28717.566;  -12.378;35199.293
718.720;28897.059;  -11.918;35060.551
719.293;28751.506;   -8.088;34973.230
719.867;31687.898;  -10.888;36394.449
720.440;31713.918;  -11.938;36663.008
721.013;29909.604;  -12.818;35102.426
721.587;28156.207;  -10.298;33985.266
722.160;26820.789;  -10.048;33524.965
722.733;25845.252;  -12.108;32987.043
723.306;26201.938;  -10.818;33066.301
723.880;28358.467;   -8.908;33399.500
724.453;30744.883;   -9.878;33468.297
725.026;30089.754;  -11.188;33816.637
725.599;27234.125;  -11.678;32797.996
726.172;26940.629;   -9.618;33187.434
726.745;27790.156;   -8.258;35136.613
727.318;29036.775;  -12.978;35751.730
727.891;29998.959;  -12.148;35890.430
728.463;29687.846;   -8.968;34822.090
729.036;28216.422;  -10.188;32895.086
729.609;28653.547;  -11.788;31823.225
730.182;25822.863;  -11.788;31445.283
730.754;23349.125;  -10.268;32373.223
731.327;23634.945;   -9.998;33676.820
731.900;24047.238;  -12.228;33417.000
732.472;24892.992;  -13.848;31978.498
733.045;26678.379;   -8.698;30368.777
733.617;26739.699;  -10.607;30574.215
734.190;27018.467;  -11.507;31280.975
734.762;24736.975;  -13.647;31674.412
735.334;22708.221;   -9.767;31247.291
735.907;22912.445;   -9.897;29876.211
736.479;23212.982;  -11.637;29808.488
737.051;23058.215;   -9.567;30233.547
737.623;23632.209;   -8.187;31469.086
738.195;23860.176;  -11.187;31784.225
738.768;25894.512;  -12.337;32120.523
739.340;27013.078;  -12.227;32094.342
739.912;26173.699;  -11.057;31312.680
740.484;24730.260;  -10.207;31946.238
741.056;23079.727;  -10.047;32984.059
741.628;24242.709;  -13.627;33897.715
742.199;26443.119;   -7.177;33213.016
742.771;25053.713;  -10.797;31369.113
743.343;22861.988;  -11.997;31865.473
743.915;21862.670;  -12.867;32388.631
744.487;21785.988;   -7.617;31079.568
745.058;21829.920;   -9.557;30570.107
745.630;22406.943;   -9.877;29970.127
746.201;23808.832;  -14.177;29186.766
746.773;24924.080;   -9.237;28805.723
747.344;24785.137;   -9.847;29591.223
747.916;22828.656;  -11.657;31412.201
748.487;22605.813;  -10.587;32194.898
749.059;23933.676;   -8.707;32533.719
749.630;24785.438;  -10.537;32158.518
750.201;23985.629;  -11.687;30855.395
750.773;22236.443;  -11.647;28622.555
751.344;21895.332;   -7.147;28405.732
751.915;22920.885;   -9.757;28461.551
752.486;23249.184;  -12.427;27842.850
753.057;21109.959;  -12.227;27845.008
753.628;19692.131;  -10.417;27728.107
754.199;20513.580;  -11.767;27381.086
754.770;21531.346;  -11.187;25882.203
755.341;21719.240;  -10.507;25886.184
755.912;22050.912;   -9.387;26050.861
756.483;21777.395;  -10.647;26798.779
757.054;20097.227;  -11.837;27048.238
757.625;18609.809;  -12.716;26294.838
758.195;18272.305;   -9.666;26142.076
758.766;17916.666;   -8.656;26392.234
759.337;18452.967;  -12.856;26334.594
759.907;19843.840;  -13.366;27579.652
760.478;20800.521;   -8.576;28352.770
761.048;20441.260;  -10.526;27325.088
761.619;19441.143;  -11.116;26460.428
762.189;19449.303;  -12.136;26029.826
762.760;20352.365;   -9.456;26430.145
763.330;21546.861;   -7.136;26670.902
763.900;21245.164;  -11.786;26603.021
764.471;18836.105;  -11.546;25542.740
765.041;17358.260;   -8.096;24358.459
765.611;17143.482;   -8.876;23991.297
766.181;17452.613;  -12.196;24470.236
766.751;18710.225;  -11.636;24845.975
767.321;18564.127;  -10.156;24533.633
767.891;16434.168;  -11.766;24916.492
768.461;15712.725;  -14.936;24776.771
769.031;16178.498;  -12.356;24757.988
769.601;17961.773;   -7.526;24181.088
770.171;18232.949;  -10.766;23670.387
770.741;17317.637;  -13.176;22960.045
771.311;17261.721;  -10.616;22917.523
771.880;17861.648;   -9.576;23562.941
772.450;17842.004;  -10.336;24216.500
773.020;17770.191;  -13.516;24140.398
773.589;16874.613;  -13.466;24414.857
774.159;16093.103;   -8.686;23858.717
774.729;15644.485;   -9.476;22942.135
775.298;15317.408;  -13.666;22324.033
775.867;14911.045;  -11.716;21140.313
776.437;15112.256;   -9.906;20838.092
777.006;14942.393;  -12.166;20599.510
777.576;14609.742;  -12.356;20508.809
778.145;14510.565;  -11.646;20732.947
778.714;14545.356;   -8.226;21062.465
779.283;14092.473;   -9.556;20949.664
779.853;13556.378;  -14.116;20508.623
780.422;13959.840;  -11.506;20649.082
780.991;13543.003;   -9.556;21527.520
781.560;12197.390;   -9.095;22632.658
782.129;11908.750;  -12.135;23048.277
782.698;11891.145;  -10.865;23438.555
783.267;11505.979;   -9.335;23267.734
783.836;11436.918;  -11.045;22415.133
784.404;12439.836;  -13.865;20443.152
784.973;13177.717;  -13.095;19699.150
785.542;13243.677;  -11.575;19763.828
786.111;13027.894;   -9.705;20341.408
786.679;12542.855;  -12.105;20207.967
787.248;12314.571;  -12.455;19516.465
787.817;12150.088;  -11.535;18900.363
788.385;11751.999;   -9.765;17879.121
788.954;11150.975;  -14.005;17658.301
789.522;10510.460;  -11.955;17788.879
790.090;10903.748;  -10.135;18118.277
790.659;11523.480;  -10.975;18338.736
791.227;11123.614;  -13.375;18508.615
791.795;11472.036;  -12.375;17898.254
792.364;11822.203;  -10.725;17295.133
792.932;12233.603;   -9.715;16822.051
793.500;12571.648;  -12.675;17040.148
794.068;12818.374;  -13.495;17179.787
794.636;12996.714;  -10.885;16664.246
795.204;12220.718;  -11.045;16524.545
795.772;12159.477;  -13.175;17274.564
796.340;11723.635;  -12.445;17891.002
796.908;11478.104;   -9.735;17648.561
797.476;11358.206;   -9.815;17064.080
798.044;10907.078;  -13.985;16672.777
798.612;10146.941;  -13.115;17023.996
799.180; 9749.114;  -10.185;16561.615
799.747; 9583.722;   -9.055;15962.773
800.315; 9297.188;  -12.385;15296.992
800.883; 9115.573;  -15.035;14801.771
801.450; 9337.758;  -10.365;14534.430
802.018; 9489.732;   -9.855;14173.248
802.585; 9494.327;  -11.905;14029.547
803.153; 9441.486;  -11.585;13836.846
803.720; 9243.270;   -9.095;13567.324
804.287; 8735.074;   -9.135;13360.622
804.855; 8224.890;  -11.604;13681.981
805.422; 8099.841;  -11.794;13536.560
805.989; 8206.628;  -10.734;13355.958
806.556; 8425.709;  -10.444;13747.896
807.124; 8685.982;  -12.764;13987.376
807.691; 8649.280;  -12.964;14038.674
808.258; 8457.707;  -11.134;14120.152
808.825; 8088.905;   -9.854;13860.111
809.392; 8206.590;  -10.504;13268.790
809.959; 7780.645;  -13.054;12680.389
810.526; 7267.743;   -8.294;12427.308
811.093; 7191.011;   -8.394;12030.105
811.659; 7796.635;  -12.304;11653.664
812.226; 8387.415;  -13.944;11637.183
812.793; 8160.177;  -10.484;11611.521
813.360; 7525.904;  -10.144;11885.181
813.926; 7184.532;  -11.684;12770.539
814.493; 6987.178;  -13.644;12677.638
815.060; 6605.032;   -9.724;11974.336
815.626; 6521.843;   -9.854;11594.715
816.193; 6891.730;  -13.254;11579.474
816.759; 6928.850;  -13.204;11666.972
817.325; 6923.506;   -9.434;11325.530
817.892; 7238.000;  -10.134;11105.369
818.458; 7675.806;  -13.474;10843.928
819.024; 7347.194;  -11.854;10714.406
819.591; 7073.018;  -10.244;10469.165
820.157; 6909.940;  -10.704;10235.523
820.723; 6408.099;  -12.324;10847.563
821.289; 6087.774;   -9.444;11040.980
821.855; 6041.117;   -8.374;10357.100
822.421; 6020.614;  -10.234; 9978.918
822.987; 5985.048;  -13.294; 9754.177
823.553; 5580.473;  -10.884;10065.755
824.119; 5349.500;   -8.884;10036.294
824.685; 5505.523;   -6.784;10029.192
825.251; 5656.288;  -12.004;10199.230
825.816; 5601.144;  -11.474; 9820.189
826.382; 5298.713;   -9.174; 9297.248
826.948; 5389.579;   -9.214; 9381.347
827.513; 5793.421;  -10.774; 9450.726
828.079; 5688.679;  -11.924; 9472.444
828.645; 5094.101;  -10.543; 9292.643
829.210; 4895.474;  -10.533; 9065.341
829.776; 4871.419;  -10.753; 9132.620
830.341; 4775.405;  -10.173; 9092.878
830.906; 4925.035;  -10.743; 9078.557
831.472; 5269.291;  -11.113; 8534.535
832.037; 5118.400;  -10.603; 8677.874
832.602; 4628.929;  -13.323; 8628.692
833.167; 4364.371;  -10.823; 8879.031
833.733; 4292.584;  -10.113; 9189.790
834.298; 4418.690;  -13.583; 9052.608
834.863; 4560.248;  -12.703; 8895.087
835.428; 4584.280;  -10.523; 8824.266
835.993; 4432.669;   -6.963; 8845.385
836.558; 4233.268;  -10.763; 8888.563
837.123; 4289.602;   -9.903; 8966.582
837.688; 4540.083;   -9.913; 8617.860
838.253; 4809.447;  -10.283; 8590.699
838.817; 5011.580;  -12.963; 8443.797
839.382; 4962.326;  -14.243; 8799.356
839.947; 4657.983;  -10.733; 8810.595
840.511; 4352.971;   -9.383; 8796.394
841.076; 3956.802;  -12.563; 8347.231
841.641; 3975.035;  -12.953; 8224.330
842.205; 4067.525;   -7.043; 8223.349
842.770; 4090.090;   -8.163; 8622.107
843.334; 4230.612;  -12.503; 8410.386
843.898; 4196.140;  -11.693; 8337.465
844.463; 4185.583;  -10.203; 8506.283
845.027; 3988.325;   -9.533; 8280.962
845.591; 3806.761;  -13.443; 8231.141
846.156; 3825.937;  -13.143; 7969.179
846.720; 3752.859;   -9.433; 7768.278
847.284; 3644.685;  -11.033; 7630.957
847.848; 3493.448;  -10.403; 7472.395
848.412; 3393.851;  -11.553; 7437.394
848.976; 3444.592;   -8.393; 7674.592
849.540; 3374.883;   -8.713; 7836.011
850.104; 3408.694;  -12.463; 7913.669
850.668; 3765.995;  -12.973; 7694.508
851.232; 3949.849;  -10.793; 7756.887
851.796; 3824.314;  -10.662; 7926.545
852.359; 3500.928;  -13.082; 7827.844
852.923; 3307.501;  -12.192; 7641.163
853.487; 3156.634;  -11.912; 7342.501
854.050; 3139.863;  -10.892; 7042.820
854.614; 3290.418;  -13.992; 7151.338
855.177; 3409.721;  -11.732; 7105.077
855.741; 3454.987;   -8.962; 6989.675
856.304; 3354.185;   -9.442; 6596.634
856.868; 3329.826;  -14.192; 6356.272
857.431; 3441.419;  -12.702; 6468.571
857.995; 3562.020;   -9.942; 6373.210
858.558; 3588.742;   -9.112; 6324.448
859.121; 3317.426;  -12.932; 6408.327
859.684; 3129.364;  -13.442; 6347.886
860.247; 3227.092;  -10.632; 6321.264
860.810; 3270.841;  -11.272; 6301.903
861.374; 3030.557;   -9.832; 6607.881
861.937; 2755.125;  -11.762; 6408.200
862.500; 2738.563;   -9.722; 6572.639
863.062; 2890.280;  -10.512; 6387.297
863.625; 3030.264;  -11.232; 6190.836
864.188; 3193.252;  -14.112; 5807.254
864.751; 3294.888;  -11.302; 5682.413
865.314; 3230.760;  -10.112; 5547.492
865.876; 3002.887;  -12.182; 5500.150
866.439; 2951.716;  -10.722; 5415.909
867.002; 2916.090;   -9.252; 5501.567
867.564; 2731.959;   -9.572; 5413.946
868.127; 2520.592;  -13.142; 5160.325
868.689; 2397.060;  -12.902; 5133.183
869.252; 2292.043;   -9.732; 5252.382
869.814; 2191.541;   -9.432; 5297.141
870.377; 2191.101;  -11.552; 5390.919
870.939; 2253.112;   -9.052; 5599.898
871.501; 2335.227;  -10.982; 5248.336
872.063; 2361.081;  -12.292; 4854.235
872.626; 2296.843;  -14.912; 4817.074
873.188; 2286.007;  -13.112; 4987.732
873.750; 2263.650;  -13.442; 4868.651
874.312; 2173.814;   -9.402; 4779.330
874.874; 2091.069;  -11.062; 4866.348
875.436; 2008.904;  -13.931; 4718.887
875.998; 2005.595;   -9.561; 4660.005
876.560; 2041.162;  -11.321; 4462.964
877.122; 1982.844;  -12.221; 4145.042
877.683; 1873.547;  -12.191; 4056.481
878.245; 1791.772;  -12.101; 3950.740
878.807; 1828.054;   -8.971; 4058.958
879.369; 1852.954;  -12.071; 3954.677
879.930; 1764.586;  -14.621; 3941.495
880.492; 1703.173;  -10.311; 4067.014
881.053; 1689.564;  -10.901; 3859.633
881.615; 1594.915;  -14.411; 3776.071
882.176; 1494.515;  -13.761; 3734.750
882.738; 1434.361;   -9.181; 3678.489
883.299; 1410.612;  -11.791; 3405.407
883.860; 1422.309;  -13.121; 3351.106
884.422; 1468.549;  -11.211; 3394.044
884.983; 1509.487;  -10.091; 3166.443
885.544; 1444.643;   -8.461; 3189.802
886.105; 1223.207;  -12.361; 3160.360
886.666;  930.839;  -14.141; 3093.059
887.227;  695.791;  -11.361; 2941.957
887.788;  581.716;  -11.401; 2974.836
888.349;  548.211;  -13.791; 2721.214
888.910;  573.473;  -13.191; 2696.493
889.471;  611.407;   -9.881; 2560.172
890.032;  630.629;   -9.881; 2558.190
890.593;  637.134;  -10.371; 2567.669
891.153;  639.699;  -13.301; 2460.307
891.714;  623.347;  -11.431; 2372.046
892.275;  610.879;  -11.291; 2309.505
892.835;  595.758;  -11.471; 2382.543
893.396;  562.319;  -11.541; 2295.502
893.956;  516.555;  -11.181; 2162.420
894.517;  483.800;  -11.741; 2125.439
895.077;  478.336;  -11.671; 2086.978
895.638;  481.169;  -11.311; 2126.316
896.198;  460.091;   -9.831; 1838.275
896.758;  422.254;   -8.421; 1892.813
897.319;  394.973;  -12.351; 1792.232
897.879;  383.103;  -13.511; 1762.751
898.439;  361.387;  -12.001; 1661.149
898.999;  338.181;  -10.180; 1781.468
899.559;  328.916;  -12.030; 1703.347
900.119;  325.158;  -15.710; 1537.525
900.679;  321.988;   -8.900; 1638.384
901.239;  308.729;   -8.340; 1527.902
901.799;  299.782;  -13.910; 1456.441
902.359;  293.624;  -13.460; 1357.140
902.919;  287.908;  -11.490; 1331.118
903.479;  275.948;  -12.110; 1317.257
904.038;  256.131;  -11.720; 1262.595
904.598;  242.092;  -13.610; 1152.034
905.158;  238.277;  -11.040; 1240.893
905.717;  233.118;  -10.900; 1233.691
906.277;  221.562;  -15.080; 1217.330
906.836;  211.685;  -13.380; 1222.408
907.396;  201.225;  -10.780; 1193.047
907.955;  193.483;   -8.500; 1182.526
908.515;  187.703;  -12.760; 1099.364
909.074;  183.008;  -11.900; 1092.863
909.633;  176.877;   -8.950; 1069.121
910.192;  174.424;   -8.770; 1196.460
910.752;  170.532;  -12.390; 1029.960
911.311;  166.107;  -13.680; 1009.780
911.870;  163.764;  -12.370;  971.460
912.429;  164.440;  -10.900; 1094.080
912.988;  163.698;  -11.690; 1081.060
913.547;  159.706;  -13.240;  940.380
914.106;  155.819;  -11.990;  999.420
914.665;  151.576;   -9.990;  984.020
915.224;  150.652;  -12.880; 1035.760
915.782;  151.003;  -12.350;  922.560
916.341;  150.334;   -9.110; 1049.840
916.900;  146.847;   -9.270;  925.260
917.458;  144.923;  -13.240;  884.220
918.017;  144.198;  -13.550;  942.600
918.576;  144.609;  -12.320;  904.440
919.134;  143.489;  -11.490;  837.980
919.693;  141.060;  -13.670;  893.060
920.251;  139.266;  -15.470;  876.500
920.809;  138.207;  -11.290;  839.580
921.368;  138.044;  -10.210;  885.360
921.926;  137.234;  -12.140;  842.940
922.484;  135.752;  -13.080;  903.360
923.042;  135.277;  -11.720;  880.340
923.601;  138.292;   -7.480;  998.680
924.159;  136.680;  -11.570;  935.560
924.717;  133.362;  -13.840;  841.080
925.275;  132.989;  -10.640;  903.240
925.833;  131.990;  -11.540;  779.320
926.391;  134.011;  -12.960;  938.380
926.949;  131.922;  -14.130;  857.680
927.506;  131.990;  -11.750;  903.500
928.064;  132.834;  -10.250;  877.580
928.622;  132.312;  -13.030;  880.100
929.180;  130.763;  -13.400;  814.180
929.737;  132.340;  -10.700;  808.540
930.295;  136.156;  -10.070;  928.480
930.853;  137.628;  -11.960;  849.100
931.410;  137.960;  -13.120;  821.120
931.968;  137.262;  -10.770;  940.660
932.525;  137.415;  -10.680;  909.380
933.082;  138.056;  -13.130;  811.440
933.640;  138.170;  -13.210;  925.900
934.197;  136.524;  -11.060;  886.360
934.754;  137.875;   -9.580;  897.780
935.312;  141.247;  -14.000;  863.340
935.869;  145.026;  -10.710; 1012.980
936.426;  145.656;   -9.860;  872.800
936.983;  145.813;   -9.710;  889.020
937.540;  146.863;  -13.990;  838.280
938.097;  144.742;  -14.040;  940.120
938.654;  146.135;  -10.310;  898.860
939.211;  147.893;  -10.560;  952.480
939.768;  151.686;  -13.900;  915.420
940.324;  155.223;  -14.760;  904.200
940.881;  156.338;  -10.370;  878.500
941.438;  158.097;   -8.260; 1021.200
941.995;  154.032;  -12.540;  992.560
942.551;  150.400;  -14.670;  875.620
943.108;  149.789;  -10.450;  937.920
943.664;  152.838;  -10.750;  869.340
944.221;  156.298;  -11.550; 1088.140
944.777;  152.969;  -14.770;  869.680
945.334;  152.448;  -12.820;  884.840
945.890;  155.426;  -10.130;  946.480
946.446;  155.759;  -13.470;  947.020
947.003;  157.349;  -12.120;  964.940
947.559;  160.653;   -9.980; 1063.040
948.115;  159.522;   -9.080; 1026.540
948.671;  158.165;  -10.830;  967.300
949.227;  154.448;  -12.440;  859.560
949.783;  152.373;  -12.910;  858.900
950.339;  154.152;  -10.270;  991.000
950.895;  154.106;  -13.630; 1023.840
951.451;  153.380;  -15.100;  925.280
952.007;  152.814;  -11.330;  998.540
952.563;  152.762;  -10.580;  937.780
953.118;  151.293;  -13.440;  904.940
953.674;  150.853;  -12.710;  935.780
954.230;  151.075;  -10.350;  949.640
954.785;  149.360;   -9.190;  936.640
955.341;  146.894;  -11.200;  998.160
955.897;  144.862;  -16.560;  834.660
956.452;  146.172;  -12.570;  953.840
957.008;  146.870;   -7.970; 1083.640
957.563;  143.382;  -11.940; 1009.540
958.118;  138.578;  -13.450;  877.700
958.674;  138.726;  -12.030;  946.780
959.229;  139.857;   -9.410; 1013.980
959.784;  137.987;  -12.000;  832.400
960.339;  137.131;  -14.780; 1001.280
960.894;  133.960;   -9.860;  963.760
961.449;  129.977;   -9.970;  859.960
962.004;  130.025;  -10.900; 1212.840
962.559;  124.765;  -13.150;  860.140
963.114;  123.084;  -13.740;  742.480
963.669;  121.803;   -9.820;  915.500
964.224;  120.386;  -13.890;  874.340
964.779;  118.680;  -12.600;  828.420
965.334;  118.889;  -10.950; 1017.860
965.888;  119.101;  -11.170;  875.360
966.443;  121.857;  -12.540;  972.380
966.998;  121.369;  -15.780;  819.460
967.552;  120.673;   -9.760;  908.380
968.107;  116.779;   -9.060;  868.300
968.661;  118.526;  -11.950;  922.440
969.216;  117.686;  -12.800;  856.280
969.770;  118.296;  -11.210;  917.200
970.324;  116.608;  -11.610;  923.140
970.879;  114.118;  -11.370;  947.180
971.433;  110.769;  -12.540;  952.720
971.987;  105.503;  -11.320;  895.340
972.541;  103.047;  -10.720;  917.100
973.095;  103.217;   -9.680; 1009.460
973.649;  101.290;  -11.440;  809.480
974.203;   99.930;  -11.210;  829.040
974.757;  100.147;  -10.240;  855.220
975.311;  100.697;  -13.720;  872.600
975.865;   99.452;  -13.770;  881.820
976.419;   98.089;  -11.690;  857.400
976.973;   97.692;   -9.510;  849.620
977.526;   99.292;  -12.620;  949.920
978.080;   97.949;  -12.010;  796.780
978.634;   99.713;  -10.170;  921.320
979.187;   97.346;   -9.020;  905.400
979.741;   96.018;   -9.820; 1018.380
980.294;   89.994;  -14.870;  789.160
980.848;   87.455;  -12.380;  717.220
981.401;   90.793;  -10.350;  816.540
981.955;   92.743;  -13.720;  844.300
982.508;   90.646;  -11.490;  746.340
983.061;   91.476;  -10.000;  915.260
983.615;   87.607;  -11.480;  798.800
984.168;   84.679;  -13.220;  770.080
984.721;   83.877;  -13.960;  880.760
985.274;   82.492;  -10.870;  867.500
985.827;   82.493;   -9.790;  834.220
986.380;   80.245;  -13.120;  721.340
986.933;   79.212;  -12.450;  864.800
987.486;   77.339;  -10.210;  861.920
988.039;   76.584;   -8.430;  863.100
988.591;   74.632;  -10.520;  893.260
989.144;   72.027;  -14.860;  737.260
989.697;   70.874;  -13.080;  758.740
990.250;   72.074;  -10.150;  858.100
990.802;   70.837;  -13.430;  755.860
991.355;   71.500;  -12.750;  974.880
991.907;   69.654;  -12.040;  864.320
992.460;   67.807;  -11.330;  753.760
993.012;   66.511;  -13.610;  749.540
993.565;   65.451;  -13.460;  711.360
994.117;   66.405;   -9.360;  950.780
994.669;   63.439;  -11.300;  701.320
995.221;   61.295;  -13.540;  791.920
995.774;   60.348;  -13.430;  787.580
996.326;   59.461;  -12.520;  740.220
996.878;   58.775;  -10.950;  838.420
997.430;   56.961;  -14.300;  699.860
997.982;   56.106;  -13.760;  750.140
998.534;   55.324;  -11.530;  739.060
999.086;   53.346;  -10.310;  738.220
999.638;   52.876;  -12.530;  661.380
1000.190;   51.145;  -11.840;  699.320
1000.741;   51.786;  -10.260;  742.700
1001.293;   51.236;   -8.860;  686.020
1001.845;   49.734;  -13.700;  676.640
1002.396;   50.250;  -12.100;  743.400
1002.948;   49.242;  -12.760;  737.400
1003.500;   47.914;  -10.380;  723.780
1004.051;   48.685;  -11.900;  907.580
1004.603;   46.432;  -12.250;  791.820
1005.154;   43.631;  -13.210;  608.980
1005.705;   42.346;  -10.950;  723.960
1006.257;   41.752;  -13.880;  707.220
1006.808;   41.414;  -12.840;  685.460
1007.359;   40.516;  -10.570;  763.240
1007.910;   40.117;   -9.620;  646.640
1008.461;   39.322;  -13.630;  732.940
1009.013;   38.286;  -17.200;  588.340
1009.564;   39.757;  -10.200;  793.520
1010.115;   37.979;  -12.570;  597.040
1010.665;   37.323;  -15.150;  602.160
1011.216;   37.163;  -14.480;  667.920
1011.767;   35.980;  -11.340;  697.920
1012.318;   37.359;   -9.780;  736.980
1012.869;   35.234;  -12.380;  679.000
1013.419;   34.634;  -15.560;  603.120
1013.970;   35.451;  -11.010;  666.640
1014.521;   34.842;  -11.610;  620.620
1015.071;   35.258;  -13.450;  670.380
1015.622;   34.682;  -13.870;  635.460
1016.172;   34.273;  -11.610;  596.820
1016.723;   33.488;  -12.120;  614.380
1017.273;   33.537;  -13.620;  604.160
1017.823;   33.345;  -14.140;  650.340
1018.374;   33.528;  -12.800;  611.760
1018.924;   32.691;  -12.340;  716.880
1019.474;   33.324;  -11.410;  718.880
1020.024;   31.431;  -14.770;  657.580
1020.574;   32.936;   -9.780;  726.160
1021.124;   33.180;   -8.560;  673.580
1021.674;   31.432;  -15.190;  559.120
1022.224;   31.915;  -13.530;  708.940
1022.774;   31.769;  -13.280;  668.820
1023.324;   32.764;  -10.690;  753.520
1023.874;   33.167;  -10.240;  875.760
1024.423;   30.480;  -12.540;  613.700
1024.973;   30.731;  -10.010;  610.760
1025.523;   29.522;  -10.550;  620.960
1026.072;   29.296;  -13.560;  606.420
1026.622;   29.322;  -15.120;  675.740
1027.172;   30.678;  -11.260;  715.660
1027.721;   28.929;  -11.410;  601.220
1028.270;   29.195;  -13.530;  663.400
1028.820;   28.970;  -13.680;  638.080
1029.369;   28.447;  -13.520;  612.700
1029.918;   29.538;  -10.980;  649.840
1030.468;   27.794;  -13.530;  564.780
1031.017;   28.598;  -13.170;  634.800
1031.566;   27.395;  -12.200;  608.900
1032.115;   28.301;   -9.960;  694.500
1032.664;   27.475;  -13.210;  596.480
1033.213;   28.168;  -12.500;  735.420
1033.762;   27.411;  -11.910;  635.620
1034.311;   27.255;   -9.640;  677.220
1034.860;   28.007;  -13.310;  691.000
1035.408;   27.576;  -11.830;  722.720
1035.957;   27.214;  -12.000;  719.540
1036.506;   25.255;  -11.690;  530.800
1037.055;   27.591;  -10.990;  844.320
1037.603;   25.923;  -15.120;  664.000
1038.152;   24.344;  -12.450;  534.760
1038.700;   24.993;  -10.560;  585.740
1039.249;   25.154;  -11.080;  681.220
1039.797;   25.365;  -12.540;  633.360
1040.345;   24.851;  -11.920;  705.420
1040.894;   24.928;  -11.410;  625.300
1041.442;   24.114;  -14.320;  632.200
1041.990;   23.747;  -16.240;  559.160
1042.538;   23.362;  -11.680;  536.180
1043.087;   24.225;  -10.760;  570.860
1043.635;   24.749;  -11.850;  670.500
1044.183;   23.487;  -15.480;  586.400
1044.731;   23.135;  -11.770;  576.000
1045.279;   23.317;  -13.090;  674.920
1045.827;   25.206;  -12.440;  892.400
1046.374;   23.174;  -13.840;  515.420
1046.922;   21.929;  -13.220;  590.580
1047.470;   24.055;  -10.230;  691.300
1048.018;   23.067;  -14.590;  647.960
1048.565;   23.424;  -12.050;  708.600
1049.113;   21.829;  -11.650;  557.000
1049.660;   22.039;  -10.510;  629.660
1050.208;   22.223;  -13.310;  675.640
1050.755;   21.840;  -15.900;  606.580
1051.303;   21.841;  -11.430;  686.820
1051.850;   21.769;   -8.480;  635.120
1052.397;   19.994;  -15.010;  473.960
1052.945;   20.406;  -13.960;  617.760
1053.492;   21.997;  -13.150;  741.840
1054.039;   21.872;   -9.630;  720.180
1054.586;   20.636;  -13.680;  557.240
1055.133;   20.689;  -14.570;  693.140
1055.680;   20.842;  -13.820;  646.620
1056.227;   20.167;  -11.730;  542.780
1056.774;   20.968;  -12.480;  794.980
1057.321;   19.274;  -13.930;  523.260
1057.868;   19.885;  -11.690;  651.320
1058.415;   19.707;   -9.520;  651.980
1058.961;   19.184;  -13.160;  678.940
1059.508;   19.625;  -12.920;  643.820
1060.055;   18.801;  -11.920;  581.780
1060.601;   19.719;  -11.500;  624.300
1061.148;   19.738;  -14.330;  616.820
1061.694;   18.550;  -16.870;  592.580
1062.241;   18.967;  -10.330;  596.320
1062.787;   18.507;  -10.620;  663.140
1063.334;   20.516;  -10.110;  808.560
1063.880;   18.652;  -13.400;  668.360
1064.426;   19.158;  -10.680;  706.820
1064.972;   17.539;   -9.920;  601.340
1065.518;   17.034;  -10.980;  566.640
1066.065;   17.616;  -14.890;  624.460
1066.611;   17.012;  -12.870;  598.800
1067.157;   17.738;  -12.950;  641.860
1067.703;   17.586;  -13.540;  668.480
1068.249;   17.449;  -13.540;  605.220
1068.794;   17.635;  -12.600;  626.880
1069.340;   16.394;  -10.620;  578.960
1069.886;   17.452;  -12.830;  590.700
1070.432;   15.733;  -14.870;  541.720
1070.977;   15.478;  -11.980;  601.080
1071.523;   16.474;   -8.200;  573.060
1072.068;   16.246;  -12.330;  582.000
1072.614;   16.713;  -16.370;  527.760
1073.160;   16.767;  -11.100;  687.040
1073.705;   15.543;  -10.480;  572.520
1074.250;   15.772;  -14.520;  559.900
1074.796;   16.345;  -11.460;  655.160
1075.341;   16.634;  -11.950;  664.100
1075.886;   15.815;  -11.460;  594.240
1076.431;   15.293;  -13.770;  649.880
1076.976;   14.929;  -12.680;  639.220
1077.521;   15.080;  -13.170;  583.080
1078.067;   14.294;  -10.860;  579.400
1078.612;   15.783;  -13.920;  661.620
1079.156;   14.640;  -13.880;  601.540
1079.701;   14.662;  -13.120;  693.260
1080.246;   15.841;   -9.940;  696.300
1080.791;   14.999;  -14.740;  625.020
1081.336;   14.772;  -13.750;  659.320
1081.880;   14.209;  -13.400;  649.680
1082.425;   13.456;  -12.220;  573.480
1082.970;   14.740;  -11.610;  717.040
1083.514;   12.676;  -13.580;  597.000
1084.059;   12.955;  -12.810;  586.720
1084.603;   12.777;  -12.320;  565.840
1085.147;   13.309;  -13.190;  645.220
1085.692;   14.241;  -12.480;  716.800
1086.236;   11.969;  -13.020;  503.140
1086.780;   14.804;   -9.190;  751.440
1087.325;   12.793;  -12.480;  654.620
1087.869;   12.637;  -12.450;  610.700
1088.413;   13.714;  -12.240;  705.040
1088.957;   11.753;   -9.020;  543.400
1089.501;   13.941;  -10.320;  766.640
1090.045;   13.065;  -12.720;  726.480
1090.589;   11.138;  -13.690;  569.920
1091.133;   11.868;  -10.020;  673.340
1091.676;   12.506;  -12.330;  591.940
1092.220;   11.288;  -14.970;  600.920
1092.764;   13.073;  -12.430;  706.960
1093.307;   12.584;   -9.800;  673.780
1093.851;   10.530;  -14.970;  556.540
1094.395;   12.049;  -15.310;  683.140
1094.938;   11.010;  -10.370;  632.520
1095.482;   11.877;  -11.050;  559.800
1096.025;   12.441;  -11.840;  710.880
1096.568;   12.009;  -12.840;  779.280
1097.112;    9.089;  -14.700;  508.180
1097.655;   11.324;   -8.720;  603.000
1098.198;    9.848;  -13.610;  600.180
1098.741;    9.491;  -13.350;  612.860
1099.285;   10.960;  -11.230;  657.300
1099.828;    9.224;  -11.840;  439.400
1100.371;   10.198;  -10.840;  608.160
1100.914;    9.788;  -14.190;  682.660
1101.457;    9.926;  -11.240;  679.900
1101.999;    8.365;  -11.270;  584.680
1102.542;    9.813;  -11.480;  641.440
1103.085;    9.855;  -11.750;  658.500
1103.628;   10.189;  -11.400;  762.060
1104.170;    9.480;  -10.490;  588.280
1104.713;    9.481;  -10.600;  646.700
1105.256;    9.164;  -14.360;  557.440
1105.798;    7.566;  -13.210;  499.980
1106.341;    9.756;  -10.270;  728.900
1106.883;    9.052;  -12.200;  521.340
1107.425;    9.197;  -13.110;  668.180
1107.968;    8.356;  -12.840;  612.380
1108.510;    8.951;   -6.480;  684.960
1109.052;    7.184;  -13.940;  612.620
1109.594;    7.933;  -13.690;  554.440
1110.136;    8.929;  -11.880;  643.220
1110.679;    8.730;   -9.500;  633.080
1111.221;    8.746;  -14.160;  604.460
1111.763;    7.580;  -13.980;  559.220
1112.304;    7.395;  -13.880;  547.140
1112.846;    8.142;  -12.210;  666.240
1113.388;   10.448;  -11.390;  942.180
1113.930;    7.301;  -14.540;  694.200
1114.472;    7.023;  -12.640;  606.540
1115.013;    6.299;  -11.620;  551.280
1115.555;    6.540;  -13.640;  587.100
1116.097;    5.765;  -15.380;  579.480
1116.638;    6.706;  -12.640;  684.600
1117.180;    6.965;   -9.850;  667.740
1117.721;    6.482;  -13.690;  568.580
1118.262;    7.383;  -12.680;  677.960
1118.804;    6.984;  -12.530;  637.340
1119.345;    6.001;  -11.690;  578.400
1119.886;    7.068;  -13.380;  704.040
1120.427;    5.877;  -14.070;  589.020
1120.969;    5.647;  -13.500;  597.920
1121.510;    6.145;  -11.480;  563.060
1122.051;    6.176;  -12.830;  723.580
1122.592;    5.972;  -14.290;  655.420
1123.133;    4.811;  -12.400;  547.940
1123.673;    6.473;  -10.130;  706.480
1124.214;    5.515;  -12.930;  612.460
1124.755;    5.470;  -14.380;  639.460
1125.296;    5.248;  -14.000;  627.320
1125.836;    6.184;  -10.070;  691.500
1126.377;    5.421;  -12.640;  599.660
1126.918;    4.987;  -12.960;  614.980
1127.458;    4.755;  -13.350;  622.220
1127.999;    5.380;  -10.750;  656.980
1128.539;    5.599;  -12.350;  694.240
1129.079;    4.831;  -14.860;  632.720
1129.620;    3.877;  -13.840;  558.100
1130.160;    4.353;  -12.330;  539.480
1130.700;    4.097;  -14.530;  640.840
1131.240;    5.043;  -12.530;  643.700
1131.781;    4.075;  -14.450;  619.680
1132.321;    4.057;   -9.790;  599.120
1132.861;    3.542;  -14.860;  564.200
1133.401;    3.061;  -14.290;  593.940
1133.941;    4.001;  -11.750;  626.280
1134.481;    3.641;   -9.920;  597.580
1135.020;    2.198;  -12.290;  609.160
1135.560;    4.141;  -11.650;  674.940
1136.100;    2.903;  -16.270;  501.160
1136.640;    3.085;  -10.890;  510.480
1137.179;    3.267;  -14.180;  537.960
1137.719;    3.279;  -16.250;  605.400
1138.258;    2.795;  -14.230;  587.360
1138.798;    3.851;   -9.090;  663.780
1139.337;    2.137;  -15.130;  482.840
1139.877;    3.219;  -13.680;  642.360
1140.416;    4.406;  -11.320;  878.060
1140.955;    2.304;  -10.860;  535.380
1141.494;    2.337;  -12.920;  669.280
1142.034;    2.152;  -13.930;  583.520
1142.573;    3.164;  -11.440;  646.280
1143.112;    2.418;  -12.000;  553.480
1143.651;    2.624;  -13.670;  536.480
1144.190;    3.410;  -12.730;  691.640
1144.729;    2.393;  -14.560;  607.420
1145.267;    2.670;  -11.830;  584.900
1145.806;    3.174;  -12.230;  637.040
1146.345;    1.571;  -14.130;  635.020
1146.884;    0.977;  -11.590;  622.500
1147.422;    1.594;  -12.550;  533.060
1147.961;    2.538;  -11.180;  708.460
1148.500;    3.297;  -11.510;  669.720
1149.038;    1.936;  -11.640;  632.500
1149.577;    2.294;  -10.130;  698.640
1150.115;    0.386;  -13.970;  452.280
1150.653;    1.378;  -14.520;  607.340
1151.192;    1.816;  -12.810;  552.920
1151.730;    1.106;   -9.100;  652.560
1152.268;    0.583;  -12.220;  589.520
1152.806;    0.941;  -14.140;  571.180
1153.344;   -0.108;  -12.350;  577.640
1153.882;    0.556;   -8.980;  600.060
1154.421;   -0.392;  -15.190;  470.620
1154.958;    0.091;  -15.210;  595.240
1155.496;    2.082;  -12.850;  645.280
1156.034;    0.200;   -9.940;  721.880
1156.572;    2.399;  -13.570;  667.060
1157.110;   -0.322;  -14.590;  473.940
1157.647;    0.850;  -13.030;  676.960
1158.185;   -0.074;  -12.140;  564.320
1158.723;   -0.811;  -14.390;  509.200
1159.260;    0.462;  -14.090;  701.700
1159.798;    0.569;  -11.920;  658.160
1160.335;   -0.580;  -11.110;  631.820

