gmr_left
Integration time [ms]: 3468.598
Averaging Nr. [scans]: 10
Smoothing Nr. [pixels]: 0
Data measured with spectrometer [name]: 7414430SP
Wave   ;Sample   ;Dark     ;Reference
[nm]   ;[counts] ;[counts] ;[counts] 

288.544; 5143.295; 4983.385;    6.613
289.143; 4190.718; 4054.288;   14.216
289.742; 5455.061; 5296.867;   11.816
290.341; 5237.139; 5071.188;   -4.936
290.940; 4772.322; 4633.392;    0.852
291.538; 6025.325; 5870.872;    1.792
292.137; 5320.449; 5171.827;    6.262
292.736; 6957.839; 6773.389;    8.164
293.335; 4919.128; 4733.773;   -6.418
293.934; 5282.978; 5105.711;   -2.904
294.532; 7452.429; 7282.726;   -5.162
295.131; 5913.444; 5726.518;  -10.283
295.730; 5716.139; 5546.961;  -16.141
296.328; 5514.498; 5353.235;  -14.740
296.927; 5460.741; 5314.389;   -8.768
297.525; 5469.289; 5271.474;  -15.255
298.124; 4456.095; 4280.530;  -22.063
298.722; 5313.212; 5165.127;  -14.796
299.321; 4903.817; 4751.758;  -10.466
299.919; 5261.555; 5105.331;  -10.979
300.518; 4808.646; 4674.793;  -12.077
301.116; 4792.407; 4680.521;  -13.509
301.715; 5095.343; 4971.916;  -11.939
302.313; 4925.410; 4778.250;  -15.424
302.911; 5255.330; 5092.749;  -19.833
303.509; 6905.400; 6712.962;   -3.567
304.108; 5397.636; 5252.457;   -9.553
304.706; 5810.462; 5641.515;   -8.582
305.304; 5865.047; 5735.520;  -12.348
305.902; 5598.087; 5445.572;  -14.411
306.500; 5213.159; 5061.710;   -7.194
307.098; 5381.330; 5250.898;   -9.322
307.696; 5745.392; 5572.651;  -19.192
308.294; 5299.107; 5156.146;   -9.736
308.892; 5511.848; 5383.022;  -15.482
309.490; 5088.197; 4946.583;  -14.107
310.088; 5854.754; 5709.054;  -15.862
310.686; 6011.893; 5862.354;  -10.781
311.284; 5646.371; 5498.425;  -14.878
311.882; 5250.876; 5091.407;   -9.948
312.480; 5072.233; 4933.328;  -15.503
313.078; 6073.111; 5942.025;  -17.262
313.675; 5020.458; 4875.110;   -3.694
314.273; 5989.410; 5857.348;  -18.246
314.871; 4154.311; 4039.000;  -15.190
315.468; 4777.430; 4617.749;  -12.633
316.066; 5089.590; 4944.624;   -5.765
316.664; 4760.598; 4640.783;  -14.317
317.261; 6938.273; 6802.427;   -8.677
317.859; 5860.045; 5734.268;  -11.804
318.456; 6367.411; 6212.525;   -3.107
319.054; 5956.840; 5840.912;   -3.062
319.651; 5687.999; 5547.735;   -6.706
320.249; 6238.398; 6109.685;   -5.206
320.846; 5381.313; 5266.352;   -4.679
321.443; 6456.033; 6334.103;   -7.920
322.041; 6330.000; 6195.737;  -14.105
322.638; 5373.452; 5261.052;   -6.263
323.235; 4980.110; 4863.250;   -7.424
323.833; 5706.447; 5567.545;  -14.765
324.430; 4562.600; 4435.237;  -10.550
325.027; 6822.069; 6712.098;   -9.951
325.624; 4743.399; 4616.812;   -3.712
326.221; 5110.727; 4968.497;   -9.368
326.818; 6253.805; 6091.093;   -5.637
327.415; 5509.291; 5355.476;   -6.699
328.012; 5001.553; 4863.679;   -5.713
328.609; 5305.258; 5162.610;   -9.983
329.206; 5815.920; 5645.363;   -7.154
329.803; 5312.691; 5211.901;   -1.682
330.400; 5029.482; 4900.641;   -2.741
330.997; 5987.029; 5817.924;   -4.339
331.594; 5807.757; 5646.983;  -10.278
332.191; 5187.414; 4995.754;   -6.967
332.787; 6164.751; 5969.677;   -0.480
333.384; 5435.500; 5257.662;  -10.333
333.981; 5916.313; 5771.552;  -19.900
334.578; 4950.144; 4783.916;  -19.816
335.174; 5150.542; 4998.339;  -15.844
335.771; 6117.605; 5919.491;  -12.670
336.367; 5104.250; 4916.472;  -21.124
336.964; 5806.874; 5640.552;  -18.226
337.561; 5268.228; 5090.344;  -13.311
338.157; 6823.239; 6657.257;  -19.006
338.754; 5850.820; 5671.309;  -19.418
339.350; 5209.739; 5050.082;  -29.433
339.946; 5569.327; 5393.192;  -16.622
340.543; 6282.283; 6090.361;  -16.744
341.139; 5239.318; 5095.704;  -21.841
341.735; 5767.221; 5610.534;  -25.012
342.332; 5065.480; 4912.607;  -19.156
342.928; 5877.257; 5749.129;  -20.443
343.524; 5716.116; 5588.802;  -14.397
344.120; 5533.242; 5379.784;  -20.654
344.716; 5259.605; 5094.014;   -5.730
345.313; 5985.492; 5839.472;  -10.929
345.909; 4541.628; 4381.842;  -19.843
346.505; 5534.365; 5364.214;  -19.645
347.101; 6197.879; 6056.932;   -9.618
347.697; 5872.555; 5751.302;  -10.305
348.293; 4508.953; 4347.975;  -23.189
348.889; 5581.307; 5446.116;  -18.418
349.485; 5048.585; 4872.965;  -10.476
350.081; 5817.546; 5670.291;  -17.320
350.676; 5153.669; 5000.419;  -21.088
351.272; 6103.885; 5950.016;  -12.821
351.868; 5774.301; 5612.910;  -13.165
352.464; 5342.205; 5204.664;  -12.464
353.059; 4748.603; 4613.287;  -22.547
353.655; 5888.780; 5722.059;   -9.379
354.251; 5659.913; 5519.300;   -8.266
354.846; 5541.111; 5425.623;  -17.705
355.442; 5610.781; 5447.184;   -9.317
356.038; 5583.985; 5455.090;  -11.049
356.633; 5389.523; 5254.163;  -10.006
357.229; 5402.132; 5228.999;  -13.120
357.824; 5255.418; 5095.231;  -15.647
358.420; 5007.957; 4871.454;  -19.204
359.015; 5097.335; 4953.653;  -12.263
359.610; 5770.058; 5623.981;  -16.421
360.206; 4396.534; 4244.451;  -20.074
360.801; 4713.770; 4567.671;  -13.277
361.396; 5420.927; 5273.642;   -5.822
361.992; 4969.019; 4822.082;  -11.247
362.587; 4973.005; 4866.389;  -21.502
363.182; 5164.539; 5012.657;   -7.461
363.777; 5598.318; 5452.306;   -8.719
364.372; 5560.436; 5417.878;  -14.590
364.967; 5123.495; 4998.401;  -15.145
365.563; 6208.289; 6062.795;   -7.192
366.158; 5093.622; 4955.311;   -5.662
366.753; 4825.025; 4656.940;   -8.378
367.348; 5653.852; 5508.222;  -14.990
367.942; 5206.754; 5090.001;   -6.005
368.537; 5719.801; 5566.585;  -11.504
369.132; 5311.401; 5163.560;  -10.576
369.727; 4712.679; 4572.582;  -12.573
370.322; 4363.398; 4212.081;  -11.560
370.917; 5424.569; 5272.619;  -10.388
371.511; 6715.410; 6595.170;   -9.161
372.106; 6021.995; 5869.301;  -10.245
372.701; 4372.503; 4245.487;  -10.158
373.296; 6643.562; 6521.885;   -4.719
373.890; 4930.405; 4797.689;  -11.802
374.485; 5334.695; 5206.901;  -13.500
375.079; 5725.331; 5582.247;   -6.276
375.674; 6322.346; 6178.866;   -0.447
376.268; 5260.983; 5119.886;   -6.916
376.863; 4451.609; 4325.718;  -14.483
377.457; 5080.588; 4959.743;   -6.903
378.052; 5965.940; 5812.932;   -9.844
378.646; 5832.207; 5688.691;  -12.601
379.240; 5637.757; 5483.954;  -14.715
379.835; 4922.416; 4791.252;  -12.331
380.429; 4263.964; 4139.587;   -9.074
381.023; 6153.107; 6023.366;   -1.729
381.617; 5302.575; 5193.600;  -13.714
382.212; 5309.527; 5199.617;   -7.060
382.806; 5963.888; 5856.393;   -2.303
383.400; 5293.043; 5194.861;   -0.815
383.994; 5276.293; 5127.624;   -4.429
384.588; 5510.112; 5394.073;   -6.261
385.182; 5757.518; 5638.881;    0.008
385.776; 5632.732; 5545.624;   -3.247
386.370; 5393.733; 5300.699;   -1.030
386.964; 5402.577; 5324.055;   -1.346
387.558; 4709.103; 4587.712;   -2.020
388.152; 5453.708; 5338.543;   -5.345
388.745; 6587.091; 6478.322;   -2.774
389.339; 5891.692; 5769.749;    3.510
389.933; 5442.130; 5325.146;    5.280
390.527; 6980.094; 6889.151;    2.610
391.120; 4721.473; 4663.248;   -7.914
391.714; 5611.803; 5553.737;   -1.903
392.308; 6307.942; 6199.287;    6.023
392.901; 5187.060; 5082.758;   -4.103
393.495; 4823.241; 4713.759;    3.284
394.089; 6257.751; 6189.122;    8.655
394.682; 5671.084; 5610.813;    2.312
395.275; 5868.062; 5792.710;   -7.402
395.869; 5449.438; 5370.055;   -1.072
396.462; 5002.236; 4932.678;    6.454
397.056; 6279.525; 6202.715;    8.494
397.649; 6020.164; 5922.913;    1.599
398.242; 5836.805; 5768.239;    3.153
398.836; 6282.127; 6167.017;   11.395
399.429; 5046.270; 5014.096;   14.695
400.022; 5473.895; 5395.776;    3.627
400.615; 6689.510; 6618.121;    8.383
401.208; 5580.198; 5498.181;   13.295
401.802; 5750.439; 5681.382;    6.211
402.395; 5644.295; 5596.026;    7.227
402.988; 5740.552; 5664.872;    2.700
403.581; 5200.074; 5136.675;   11.225
404.174; 5542.011; 5480.048;   18.922
404.767; 5165.001; 5071.610;   14.169
405.360; 5135.836; 5064.078;    8.999
405.953; 6228.365; 6154.089;   13.138
406.545; 5984.277; 5915.479;   13.937
407.138; 5056.758; 4989.331;   10.869
407.731; 5044.356; 4971.279;   12.768
408.324; 5367.607; 5308.193;   22.921
408.917; 5615.518; 5555.781;   15.308
409.509; 6116.025; 6066.265;   12.239
410.102; 5356.458; 5291.206;   13.741
410.695; 5472.723; 5394.863;   20.249
411.287; 4922.635; 4872.253;   21.793
411.880; 4792.306; 4750.541;   22.965
412.472; 5053.036; 4994.453;   15.082
413.065; 5266.556; 5211.779;   23.423
413.657; 4763.352; 4700.924;   21.077
414.250; 5325.794; 5250.026;   12.349
414.842; 5600.297; 5521.505;   20.423
415.434; 4717.313; 4676.125;   19.906
416.027; 5289.702; 5250.987;   26.574
416.619; 5894.497; 5860.780;   15.705
417.211; 4902.618; 4856.906;   17.791
417.804; 5131.898; 5078.208;   30.244
418.396; 5020.338; 4972.632;   24.177
418.988; 5458.637; 5394.105;   24.904
419.580; 4697.249; 4639.345;   20.692
420.172; 4466.592; 4422.949;   22.275
420.764; 5477.443; 5436.114;   26.773
421.356; 5265.821; 5234.536;   25.731
421.948; 5571.078; 5520.057;   24.876
422.540; 5521.965; 5486.917;   30.042
423.132; 4911.957; 4874.056;   32.728
423.724; 4595.371; 4547.598;   21.317
424.316; 5137.107; 5074.269;   29.359
424.908; 4852.151; 4818.475;   28.798
425.500; 5325.374; 5270.527;   30.512
426.092; 5279.975; 5262.205;   26.741
426.683; 5740.315; 5674.779;   27.029
427.275; 5239.126; 5220.344;   32.611
427.867; 5417.389; 5381.797;   33.796
428.458; 6026.821; 5979.088;   34.453
429.050; 5636.297; 5560.808;   34.255
429.642; 6121.196; 6064.581;   39.082
430.233; 4528.297; 4497.833;   41.138
430.825; 6023.737; 5978.757;   31.581
431.416; 5772.141; 5693.486;   35.755
432.008; 5270.983; 5234.766;   40.566
432.599; 5281.714; 5254.004;   46.322
433.190; 5216.449; 5165.022;   46.897
433.782; 4581.261; 4558.587;   41.069
434.373; 7189.416; 7136.306;   48.778
434.964; 4837.229; 4799.398;   50.078
435.556; 5152.294; 5104.428;   52.381
436.147; 6163.218; 6134.034;   38.251
436.738; 5680.623; 5644.065;   47.237
437.329; 5788.540; 5767.012;   61.304
437.920; 5320.156; 5283.781;   48.611
438.511; 4533.041; 4484.836;   44.910
439.103; 4999.898; 4948.235;   62.404
439.694; 5474.165; 5438.619;   63.075
440.285; 5997.586; 5937.420;   61.033
440.876; 6912.885; 6875.643;   57.249
441.466; 4526.429; 4531.124;   61.306
442.057; 5272.703; 5215.991;   65.773
442.648; 6017.553; 5976.379;   65.676
443.239; 4961.991; 4920.651;   55.963
443.830; 5663.737; 5610.384;   69.631
444.421; 5170.784; 5137.718;   69.943
445.011; 5539.991; 5510.426;   72.791
445.602; 5953.997; 5907.933;   68.848
446.193; 3740.344; 3709.493;   80.044
446.783; 4940.212; 4895.904;   82.599
447.374; 5437.920; 5405.238;   77.419
447.964; 5687.841; 5641.364;   72.605
448.555; 6497.650; 6454.327;   82.041
449.145; 5191.806; 5148.146;   76.230
449.736; 6356.960; 6313.438;   75.545
450.326; 5611.017; 5572.809;   67.945
450.917; 5235.524; 5214.044;   77.598
451.507; 4653.928; 4629.224;   68.027
452.097; 5907.056; 5859.108;   67.771
452.688; 5743.176; 5714.359;   62.884
453.278; 4190.006; 4175.920;   65.512
453.868; 6259.521; 6226.240;   71.796
454.458; 5077.102; 4998.066;   60.956
455.048; 5548.218; 5505.911;   62.356
455.639; 4308.355; 4270.608;   58.782
456.229; 5471.669; 5442.075;   65.209
456.819; 5775.458; 5737.538;   61.466
457.409; 6031.117; 5988.460;   59.967
457.999; 5659.200; 5608.689;   58.093
458.589; 5180.796; 5144.935;   59.536
459.179; 5548.488; 5490.749;   55.994
459.769; 4735.322; 4700.417;   43.624
460.358; 6117.262; 6079.692;   46.978
460.948; 5245.458; 5199.387;   49.821
461.538; 4979.675; 4915.584;   54.678
462.128; 5091.369; 4979.425;   49.309
462.717; 5315.552; 5271.431;   52.774
463.307; 5311.937; 5279.012;   48.101
463.897; 4892.391; 4840.453;   45.606
464.486; 6498.928; 6435.799;   45.010
465.076; 5533.566; 5508.673;   45.519
465.666; 4780.754; 4710.358;   50.058
466.255; 5987.622; 5932.642;   44.463
466.845; 4887.048; 4845.475;   41.206
467.434; 5419.525; 5385.521;   44.847
468.023; 4741.173; 4736.857;   46.760
468.613; 5345.796; 5274.485;   39.736
469.202; 4703.646; 4667.222;   46.461
469.791; 5392.674; 5351.184;   47.944
470.381; 5376.623; 5350.895;   47.529
470.970; 5179.505; 5136.348;   43.773
471.559; 5448.364; 5390.396;   41.646
472.148; 4808.142; 4762.518;   37.914
472.738; 5568.373; 5495.057;   48.071
473.327; 4509.288; 4456.801;   47.871
473.916; 5346.404; 5287.146;   37.716
474.505; 5413.334; 5393.509;   40.256
475.094; 5912.153; 5865.358;   43.269
475.683; 5783.445; 5701.447;   36.499
476.272; 5205.884; 5158.572;   44.542
476.861; 4973.969; 4900.277;   42.297
477.449; 5078.665; 5016.748;   46.878
478.038; 4769.307; 4744.075;   35.156
478.627; 4964.155; 4943.110;   42.514
479.216; 5359.316; 5325.338;   43.937
479.805; 5453.389; 5371.653;   51.393
480.393; 7364.993; 7300.708;   53.239
480.982; 6293.219; 6238.065;   38.955
481.571; 6068.370; 6005.705;   45.436
482.159; 4665.938; 4618.991;   51.007
482.748; 5716.451; 5641.481;   49.695
483.336; 5944.225; 5872.924;   48.280
483.925; 5062.434; 4993.409;   47.166
484.513; 5010.018; 4970.040;   55.404
485.102; 5409.748; 5368.277;   54.238
485.690; 7081.716; 7009.038;   55.748
486.278; 6796.494; 6745.635;   55.934
486.867; 5273.507; 5215.002;   57.106
487.455; 5983.980; 5939.843;   56.979
488.043; 4704.701; 4629.218;   57.564
488.631; 6755.776; 6732.188;   57.432
489.220; 5930.140; 5888.118;   63.646
489.808; 4495.447; 4399.126;   65.449
490.396; 5883.104; 5816.073;   61.977
490.984; 5008.137; 4951.264;   68.834
491.572; 5890.286; 5823.526;   70.775
492.160; 5548.101; 5484.568;   67.564
492.748; 5145.697; 5103.664;   66.808
493.336; 5965.642; 5918.320;   79.747
493.924; 5124.719; 5054.267;   88.688
494.512; 5852.844; 5817.397;   84.120
495.100; 5732.078; 5691.016;   86.250
495.687; 6108.726; 6014.601;  103.074
496.275; 4934.538; 4878.941;  108.717
496.863; 5135.954; 5065.160;  107.035
497.451; 5087.016; 5034.038;  117.993
498.038; 5355.991; 5313.558;  120.116
498.626; 5171.517; 5086.890;  143.059
499.214; 5537.894; 5471.485;  153.434
499.801; 5390.902; 5322.221;  175.121
500.389; 4407.123; 4364.446;  185.617
500.976; 5639.707; 5544.377;  215.789
501.564; 5408.746; 5330.850;  240.321
502.151; 3908.182; 3852.220;  267.007
502.738; 5063.464; 5027.823;  317.961
503.326; 5183.548; 5129.429;  361.216
503.913; 5410.548; 5378.604;  401.433
504.500; 5603.785; 5530.499;  446.492
505.088; 4759.511; 4710.506;  512.063
505.675; 5184.346; 5123.102;  586.387
506.262; 5145.204; 5085.023;  671.021
506.849; 5316.323; 5209.396;  759.062
507.436; 5978.405; 5891.975;  849.788
508.023; 5279.578; 5196.791;  944.288
508.610; 5847.225; 5784.424; 1020.690
509.197; 5634.582; 5582.570; 1089.052
509.784; 5302.431; 5220.757; 1133.776
510.371; 4421.310; 4366.182; 1165.501
510.958; 5394.668; 5338.453; 1251.735
511.545; 6206.202; 6150.146; 1350.248
512.132; 5289.722; 5223.521; 1525.945
512.719; 4721.449; 4663.104; 1834.933
513.305; 4889.675; 4822.911; 1965.349
513.892; 6144.673; 6074.784; 1963.265
514.479; 5414.939; 5352.118; 2046.446
515.066; 5920.245; 5865.174; 2252.803
515.652; 5394.698; 5316.741; 2567.247
516.239; 5751.128; 5688.453; 2636.919
516.825; 4495.661; 4440.519; 2482.304
517.412; 6646.331; 6569.657; 2427.031
517.998; 5168.983; 5124.672; 2540.463
518.585; 5116.282; 5041.720; 2609.007
519.171; 5418.719; 5357.517; 2842.088
519.758; 4609.629; 4527.980; 3090.703
520.344; 5888.431; 5801.957; 3176.076
520.930; 4725.158; 4660.865; 3295.037
521.516; 5639.074; 5568.661; 3500.959
522.103; 6192.117; 6109.140; 3736.704
522.689; 5137.633; 5046.509; 3971.022
523.275; 6005.121; 5921.020; 4213.778
523.861; 5219.180; 5141.817; 4190.361
524.447; 5983.084; 5895.449; 4070.602
525.033; 6065.058; 5969.365; 4088.892
525.619; 4885.865; 4824.573; 4416.851
526.205; 4578.025; 4522.824; 4836.835
526.791; 5154.916; 5080.638; 4885.903
527.377; 4941.768; 4886.777; 4544.907
527.963; 5421.792; 5357.608; 4321.995
528.549; 5545.709; 5471.029; 4473.979
529.135; 4867.654; 4799.785; 4788.663
529.721; 5349.105; 5289.275; 4888.577
530.306; 7233.709; 7149.079; 4775.779
530.892; 5094.394; 5035.210; 4793.906
531.478; 4990.887; 4910.001; 4956.948
532.063; 4750.227; 4698.426; 5136.936
532.649; 6596.206; 6475.575; 5336.867
533.235; 4796.930; 4710.380; 5748.092
533.820; 6109.941; 6033.095; 6456.875
534.406; 5206.563; 5133.546; 6590.167
534.991; 4851.390; 4744.730; 6179.622
535.576; 5220.928; 5152.528; 6098.691
536.162; 7259.523; 7175.622; 6441.234
536.747; 4581.525; 4500.724; 6816.224
537.333; 4869.184; 4772.972; 6889.752
537.918; 5254.541; 5181.318; 7154.280
538.503; 4947.216; 4867.438; 7150.848
539.088; 5520.113; 5444.059; 7253.308
539.673; 5094.984; 5018.697; 7625.180
540.259; 4918.573; 4832.009; 8226.793
540.844; 4336.058; 4250.265; 8745.092
541.429; 6440.743; 6360.395; 8762.553
542.014; 4510.084; 4420.172; 8871.497
542.599; 5507.498; 5417.014; 8886.008
543.184; 4635.591; 4561.306; 9079.139
543.769; 4943.844; 4844.123; 9076.182
544.354; 5074.672; 4998.507; 8354.081
544.938; 5487.628; 5396.553; 8236.809
545.523; 6432.637; 6326.764; 8222.179
546.108; 5255.230; 5217.730; 8114.082
546.693; 5256.452; 5178.206; 8535.912
547.278; 5248.392; 5181.683; 9238.322
547.862; 5232.864; 5151.523; 9034.405
548.447; 5914.291; 5833.480; 7795.011
549.031; 5085.731; 5019.655; 7485.099
549.616; 5480.756; 5383.887; 7626.308
550.201; 4957.701; 4859.369; 7627.909
550.785; 5721.284; 5618.947; 7859.125
551.370; 4622.917; 4519.063; 7990.654
551.954; 5869.938; 5785.114; 8196.468
552.538; 5762.179; 5663.715; 7959.495
553.123; 4941.886; 4862.699; 7964.826
553.707; 5115.195; 5038.385; 8515.957
554.291; 6156.012; 6054.031; 8724.024
554.876; 5840.877; 5747.388; 8524.211
555.460; 4990.034; 4892.509; 8704.456
556.044; 4923.792; 4828.855; 9141.473
556.628; 5322.914; 5202.608; 9250.197
557.212; 6051.144; 5944.873; 9444.237
557.796; 5161.191; 5082.906; 9379.783
558.380; 5555.840; 5466.216; 9353.658
558.964; 5409.160; 5321.742; 9210.310
559.548; 4574.213; 4477.608; 8475.153
560.132; 5099.208; 4982.252; 7954.084
560.716; 4692.509; 4593.302; 7489.529
561.300; 4617.154; 4507.485; 7211.952
561.884; 5702.008; 5581.377; 7141.313
562.467; 5632.255; 5549.185; 7155.386
563.051; 5300.368; 5185.900; 7323.158
563.635; 5201.555; 5099.010; 7709.114
564.219; 5284.076; 5166.236; 7678.855
564.802; 5658.428; 5563.201; 7376.187
565.386; 5390.304; 5259.096; 7054.372
565.969; 6170.753; 6057.083; 6589.196
566.553; 6769.272; 6654.257; 6279.371
567.136; 6094.638; 5988.439; 5967.930
567.720; 5418.411; 5255.929; 5660.703
568.303; 5581.000; 5455.691; 5648.615
568.887; 5439.743; 5286.245; 5618.443
569.470; 5581.611; 5440.454; 5411.875
570.053; 5812.695; 5667.810; 5149.274
570.637; 4957.229; 4787.553; 5122.798
571.220; 5878.955; 5681.210; 4957.369
571.803; 6831.708; 6635.300; 4933.018
572.386; 5225.208; 5055.450; 4840.973
572.969; 5254.640; 5062.691; 4592.886
573.552; 5374.185; 5157.522; 4348.387
574.135; 4889.579; 4658.188; 4002.290
574.718; 5082.264; 4835.171; 3654.773
575.301; 5083.367; 4821.937; 3502.288
575.884; 5084.470; 4808.703; 3349.803
576.467; 6252.211; 5951.329; 3191.403
577.050; 5786.778; 5439.763; 3062.418
577.633; 6907.962; 6480.844; 3214.200
578.216; 5504.261; 5073.692; 3284.889
578.799; 5570.515; 5071.508; 3189.777
579.381; 7276.868; 6697.000; 3064.502
579.964; 5393.795; 4809.335; 2888.357
580.547; 6007.146; 5371.672; 2905.760
581.129; 6873.372; 6197.255; 2966.849
581.712; 6283.084; 5529.845; 2887.292
582.294; 6123.899; 5301.864; 2771.631
582.877; 7699.638; 6756.813; 2711.602
583.459; 6280.130; 5236.528; 2577.049
584.042; 6262.920; 5150.640; 2454.707
584.624; 5989.170; 4768.103; 2305.893
585.206; 5471.194; 4114.883; 2189.546
585.789; 6456.760; 4948.339; 2112.577
586.371; 7100.557; 5531.035; 2153.065
586.953; 7384.718; 5740.188; 2197.806
587.536; 7885.061; 6109.292; 2105.489
588.118; 7111.274; 5140.732; 1963.911
588.700; 8418.063; 6115.244; 1843.179
589.282; 8102.304; 5567.221; 1813.834
589.864; 8248.470; 5353.828; 1777.620
590.446; 7471.138; 4281.861; 1733.780
591.028; 8841.967; 5306.373; 1676.008
591.610; 8067.401; 4363.441; 1631.649
592.192; 9128.949; 5368.327; 1632.362
592.774; 8568.665; 4705.171; 1569.507
593.356; 9037.917; 4906.636; 1524.539
593.937; 9362.555; 4876.733; 1569.720
594.519;10686.215; 5891.684; 1569.049
595.101; 9697.595; 4415.508; 1545.452
595.683;10726.619; 4950.863; 1607.568
596.264;11560.005; 5184.795; 1615.506
596.846;11816.831; 5034.453; 1667.622
597.427;12154.107; 4882.123; 1670.469
598.009;12690.761; 4818.189; 1640.312
598.591;13839.574; 5743.932; 1541.022
599.172;13428.800; 5070.064; 1598.665
599.753;13389.921; 4544.065; 1619.068
600.335;15329.905; 6136.621; 1548.612
600.916;14842.687; 5220.222; 1607.510
601.498;15806.110; 5512.527; 1745.181
602.079;16561.588; 5267.174; 1801.011
602.660;17402.734; 5161.532; 1834.640
603.241;16861.891; 4183.903; 1787.351
603.823;17632.359; 4952.837; 1684.266
604.404;17287.221; 4586.540; 1654.241
604.985;17763.537; 4963.834; 1758.741
605.566;19152.449; 5787.352; 1697.679
606.147;19637.703; 5119.091; 1526.728
606.728;20012.051; 4563.777; 1484.086
607.309;21142.967; 4904.498; 1421.070
607.890;21285.447; 4984.097; 1369.867
608.471;21545.412; 4801.079; 1277.826
609.051;22497.914; 5385.582; 1180.416
609.632;22709.898; 4723.337; 1075.816
610.213;24475.406; 5155.071; 1053.313
610.794;25011.766; 4975.971;  979.442
611.374;26164.438; 5465.109;  917.414
611.955;25550.752; 4470.179;  819.987
612.536;27756.285; 5384.845;  752.627
613.116;28404.355; 4959.033;  690.799
613.697;28288.990; 4885.601;  674.974
614.277;28256.705; 4738.818;  663.846
614.858;27721.770; 4877.575;  665.898
615.438;27138.262; 5227.542;  660.712
616.019;27762.969; 6137.323;  632.732
616.599;25901.324; 4113.567;  551.759
617.179;27575.355; 4594.608;  512.871
617.760;31048.100; 6911.514;  473.655
618.340;29201.982; 5155.940;  440.004
618.920;30798.137; 6328.034;  429.731
619.500;30450.502; 5015.039;  441.361
620.080;29889.350; 4725.700;  425.202
620.660;29987.836; 4711.282;  408.164
621.241;30869.129; 5022.023;  387.161
621.821;32054.930; 5282.726;  378.017
622.401;32280.670; 5863.925;  379.188
622.980;30275.137; 4482.932;  350.019
623.560;30706.078; 5026.484;  336.446
624.140;29757.305; 5298.343;  336.473
624.720;28186.920; 5462.688;  334.974
625.300;27143.857; 4728.110;  325.717
625.880;27990.379; 5147.411;  308.519
626.459;30016.260; 5201.913;  307.117
627.039;30635.576; 4350.832;  290.890
627.619;34347.191; 6638.576;  286.635
628.198;34442.547; 5951.995;  282.535
628.778;34919.922; 5586.238;  285.474
629.357;32776.352; 4542.902;  284.103
629.937;32512.029; 4978.398;  292.178
630.516;34205.457; 6239.056;  290.749
631.096;33075.828; 4804.599;  285.489
631.675;34172.602; 6131.162;  287.022
632.254;32913.141; 4798.861;  286.038
632.834;32158.217; 5153.383;  276.451
633.413;32569.564; 6110.794;  279.447
633.992;31767.764; 5855.117;  264.508
634.571;31340.998; 5609.308;  271.010
635.151;31869.953; 4691.204;  277.338
635.730;32712.785; 5087.243;  289.305
636.309;32734.145; 5521.918;  285.306
636.888;32384.975; 5605.305;  254.051
637.467;29602.877; 4264.982;  230.324
638.046;31011.068; 6252.648;  253.349
638.625;30710.297; 6001.558;  246.866
639.204;30419.436; 5370.055;  240.825
639.782;31354.965; 5208.692;  261.970
640.361;31586.477; 6048.680;  277.780
640.940;30379.867; 4878.755;  270.101
641.519;30484.457; 5450.881;  248.622
642.097;31170.947; 5568.007;  239.843
642.676;31334.936; 5261.282;  244.264
643.255;31296.926; 5050.108;  234.985
643.833;32974.816; 5615.533;  244.406
644.412;32959.008; 4987.809;  244.927
644.990;32977.996; 5280.984;  249.948
645.569;32939.188; 5544.160;  249.569
646.147;33035.977; 5836.085;  243.290
646.726;31471.566; 5366.811;  249.511
647.304;31163.455; 4997.137;  228.032
647.882;29446.646; 4258.813;  214.552
648.461;29760.035; 5371.288;  214.973
649.039;30355.326; 5608.514;  223.394
649.617;30112.115; 5628.339;  261.415
650.195;29873.006; 5371.365;  298.736
650.773;29333.496; 4960.740;  309.557
651.352;28135.885; 4143.216;  297.978
651.930;26899.475; 4130.991;  289.399
652.508;28577.365; 5723.267;  285.620
653.086;28200.455; 5507.692;  272.241
653.663;27253.545; 4796.918;  265.062
654.241;26938.535; 4490.293;  286.083
654.819;27754.625; 4615.369;  286.404
655.397;28889.814; 4690.295;  291.825
655.975;29927.605; 5048.920;  299.145
656.553;31230.994; 6218.846;  288.866
657.130;29570.785; 4657.571;  304.087
657.708;29088.775; 5433.847;  302.908
658.286;28678.264; 5296.923;  294.629
658.863;29466.455; 5324.798;  293.350
659.441;29707.844; 5389.874;  318.671
660.018;28365.533; 5097.750;  333.692
660.596;27331.725; 4200.725;  335.013
661.173;28068.514; 4901.000;  371.534
661.750;27925.904; 4702.626;  365.155
662.328;29174.895; 5587.202;  349.976
662.905;27954.383; 4940.777;  332.997
663.482;27348.174; 5083.353;  321.717
664.060;27028.764; 4771.229;  314.438
664.637;27938.654; 5588.704;  306.259
665.214;28520.443; 5335.729;  314.580
665.791;28418.934; 5032.305;  334.501
666.368;28184.023; 4959.781;  329.222
666.945;29530.514; 5684.906;  342.143
667.522;29061.104; 4717.682;  370.964
668.099;29637.992; 5091.607;  396.885
668.676;29093.383; 5118.883;  391.706
669.253;29808.873; 6240.458;  369.627
669.830;29200.063; 6020.684;  360.348
670.407;28644.053; 5106.160;  344.769
670.984;29063.543; 5086.335;  322.890
671.560;29118.133; 5574.311;  316.910
672.137;27748.123; 4961.736;  322.531
672.714;28667.113; 5467.362;  318.552
673.290;29296.902; 5373.288;  324.473
673.867;29350.691; 4833.513;  340.594
674.443;29277.582; 4531.489;  319.515
675.020;29391.373; 5309.114;  286.336
675.596;28393.063; 5018.040;  247.557
676.173;28158.652; 4451.815;  227.778
676.749;28158.441; 3922.141;  224.399
677.326;29095.031; 4368.667;  230.520
677.902;30195.621; 4774.042;  241.841
678.478;31267.912; 4461.667;  239.762
679.054;34692.500; 7564.293;  248.583
679.631;31258.791; 5430.918;  237.503
680.207;31439.682; 6464.444;  245.924
680.783;29077.072; 4093.020;  224.845
681.359;31248.361; 5083.095;  209.666
681.935;32437.852; 5235.421;  191.687
682.511;31923.941; 5215.347;  210.008
683.087;31122.330; 5486.172;  213.329
683.663;30028.922; 4989.798;  216.850
684.239;29629.711; 4471.173;  229.471
684.815;31747.701; 5717.749;  248.792
685.390;32371.791; 6583.324;  231.813
685.966;30222.580; 5212.300;  221.234
686.542;30193.570; 4601.525;  214.255
687.118;32584.061; 5305.601;  212.276
687.693;33058.852; 5532.626;  233.096
688.269;32495.340; 5006.652;  246.917
688.844;32976.031; 5451.178;  236.938
689.420;31902.820; 5201.003;  242.059
689.995;31934.311; 6343.929;  245.480
690.571;31559.301; 6073.555;  244.701
691.146;31188.789; 4956.180;  251.922
691.722;31982.379; 5407.605;  284.743
692.297;32009.270; 4926.881;  320.664
692.872;32393.660; 4713.607;  313.885
693.448;32272.449; 4582.982;  290.106
694.023;33859.441; 5245.058;  304.327
694.598;34849.230; 5270.083;  319.648
695.173;33285.918; 4924.559;  323.169
695.748;31078.609; 4215.834;  376.389
696.323;31761.699; 5105.660;  397.610
696.898;33005.590; 5950.936;  430.231
697.473;31157.979; 4299.711;  454.952
698.048;33105.867; 4971.887;  478.973
698.623;33195.859; 4452.513;  477.094
699.198;33579.648; 5220.988;  496.915
699.773;33250.238; 4741.614;  490.236
700.348;33109.430; 4612.189;  519.957
700.922;34696.320; 5259.115;  575.678
701.497;34993.707; 5148.090;  621.399
702.072;35216.898; 5743.716;  664.420
702.646;34481.488; 5594.742;  690.541
703.221;33190.578; 5313.967;  748.862
703.795;31790.268; 4632.393;  774.282
704.370;30053.959; 3778.718;  799.803
704.944;31237.248; 4895.394;  875.824
705.519;32962.539; 5308.319;  902.945
706.093;33262.930; 4681.495;  889.266
706.668;33711.617; 5455.021;  903.487
707.242;34183.609; 5654.146;  881.708
707.816;33526.098; 4947.872;  892.329
708.390;33195.789; 5124.697;  970.250
708.965;32692.277; 5301.323;  984.671
709.539;32577.867; 4990.148; 1026.092
710.113;32968.355; 5207.074; 1067.913
710.687;32528.146; 5640.149; 1166.434
711.261;31261.236; 4559.725; 1190.854
711.835;32061.627; 4612.951; 1197.275
712.409;33024.117; 4253.726; 1308.096
712.983;33107.508; 4290.602; 1461.617
713.557;33208.598; 4282.777; 1611.838
714.131;33530.387; 5013.153; 1554.359
714.704;32563.377; 4634.329; 1520.780
715.278;33829.066; 5144.154; 1575.101
715.852;34500.156; 5585.030; 1689.822
716.425;35140.246; 6407.255; 1829.143
716.999;32312.936; 4212.281; 2008.664
717.573;32856.727; 5429.156; 2000.485
718.146;34029.316; 6262.982; 1914.506
718.720;34637.406; 5259.257; 1818.026
719.293;36121.797; 5467.333; 1734.147
719.867;35188.484; 4764.059; 1716.968
720.440;36717.176; 6015.034; 1918.589
721.013;35592.164; 4811.760; 1975.410
721.587;34089.656; 4299.285; 2073.331
722.160;34458.746; 5726.411; 2357.852
722.733;32819.137; 5173.437; 2657.073
723.306;31812.025; 5141.112; 2703.894
723.880;31471.316; 5249.688; 2549.415
724.453;32699.605; 5992.313; 2414.336
725.026;31447.096; 4835.539; 2298.557
725.599;32082.984; 5329.164; 2168.778
726.172;31764.875; 5443.940; 2106.099
726.745;31468.365; 5378.465; 2253.320
727.318;32534.154; 5725.491; 2404.740
727.891;33162.547; 5322.967; 2680.161
728.463;33395.035; 5295.292; 2838.882
729.036;31971.525; 4689.868; 2755.103
729.609;31201.314; 4626.493; 2731.824
730.182;32558.004; 5631.519; 2855.645
730.754;31414.295; 3903.344; 2946.866
731.327;33437.883; 5446.720; 2840.187
731.900;31928.275; 4321.945; 2647.608
732.472;32911.363; 5046.071; 2473.929
733.045;34720.555; 4950.497; 2445.750
733.617;33804.945; 4246.672; 2511.771
734.190;34341.734; 5419.898; 2581.592
734.762;34448.926; 5102.974; 2710.813
735.334;34619.113; 5176.299; 3005.733
735.907;33874.504; 5168.075; 3154.954
736.479;34414.094; 5842.250; 3171.675
737.051;34017.785; 5445.776; 3217.496
737.623;34914.773; 5507.851; 3246.217
738.195;33669.965; 4769.227; 2985.238
738.768;32244.754; 4023.802; 2727.559
739.340;33206.145; 4860.628; 2666.880
739.912;33443.035; 5603.554; 2769.601
740.484;32538.924; 5436.879; 2731.422
741.056;31789.514; 4970.305; 2963.043
741.628;31801.203; 4624.780; 3361.364
742.199;32779.395; 5959.956; 3641.185
742.771;31464.982; 4440.481; 3932.005
743.343;32221.773; 4653.057; 4319.926
743.915;32797.961; 5345.033; 4706.647
744.487;33985.852; 5489.258; 4874.968
745.058;34918.645; 5553.984; 4616.589
745.630;34308.031; 5518.659; 4253.410
746.201;33342.422; 4827.835; 4056.131
746.773;33627.512; 5459.160; 3772.952
747.344;33535.703; 5104.136; 3642.473
747.916;33041.094; 5270.111; 3752.294
748.487;32993.082; 5635.887; 4106.215
749.059;31937.271; 4506.013; 4457.835
749.630;32357.963; 4721.138; 4366.457
750.201;33426.352; 5102.164; 4600.078
750.773;32752.342; 4777.889; 4658.499
751.344;32904.832; 5161.865; 4609.319
751.915;32929.422; 5092.241; 4526.440
752.486;32397.313; 4694.116; 4536.061
753.057;32661.801; 5222.992; 4383.282
753.628;32999.992; 4686.817; 4296.503
754.199;34137.980; 4885.593; 4383.224
754.770;34632.473; 5480.368; 4653.545
755.341;33788.262; 5749.894; 4831.666
755.912;32196.551; 4999.419; 4831.387
756.483;32877.141; 5448.545; 4735.808
757.054;31400.230; 4883.271; 4685.029
757.625;30457.021; 4503.046; 4994.250
758.195;31666.012; 4325.572; 5051.471
758.766;32993.699; 5270.748; 5317.792
759.337;31491.191; 4280.773; 5646.512
759.907;30965.381; 4342.999; 5404.133
760.478;31536.170; 4789.124; 5090.954
761.048;32139.660; 5493.399; 4871.175
761.619;31517.250; 5362.475; 4589.396
762.189;31145.939; 5069.951; 4171.317
762.760;30947.930; 5565.626; 3872.538
763.330;30728.920; 5503.752; 3832.259
763.900;30299.311; 5284.328; 4150.180
764.471;29704.699; 4638.003; 4529.801
765.041;30567.789; 5847.179; 4715.922
765.611;30008.180; 5437.304; 4681.442
766.181;30361.170; 5039.780; 4717.063
766.751;30580.459; 5119.005; 4710.285
767.321;29564.049; 4448.131; 4450.305
767.891;29933.439; 5204.557; 4274.126
768.461;29311.729; 5037.032; 4215.047
769.031;29904.219; 5077.508; 4173.068
769.601;31081.910; 5778.733; 4174.689
770.171;29706.199; 4328.109; 4229.310
770.741;29446.189; 4911.034; 4352.031
771.311;29351.379; 5448.910; 4336.652
771.880;28090.270; 4618.485; 4300.873
772.450;28121.459; 4677.311; 4387.194
773.020;28536.350; 4289.887; 4220.415
773.589;28740.939; 4754.562; 4075.835
774.159;28657.928; 4800.438; 4105.756
774.729;28644.219; 4720.813; 4114.978
775.298;28997.309; 4759.439; 3693.298
775.867;29050.299; 4757.714; 3343.119
776.437;29728.988; 5131.040; 3062.040
777.006;28654.178; 4302.866; 2927.161
777.576;29068.469; 5446.941; 3046.482
778.145;28230.857; 5370.917; 3230.203
778.714;27266.248; 5031.542; 3253.324
779.283;27879.639; 5439.118; 3129.745
779.853;27693.627; 5058.943; 2983.566
780.422;28120.617; 5060.219; 2929.887
780.991;28459.207; 5386.495; 2863.908
781.560;29303.898; 5965.070; 2948.029
782.129;28380.988; 5295.696; 3074.149
782.698;28347.178; 5900.921; 2893.970
783.267;27347.867; 4729.297; 2721.391
783.836;27891.158; 5276.172; 2659.712
784.404;27115.748; 4461.098; 2622.233
784.973;26222.938; 3851.023; 2600.754
785.542;26622.227; 5026.349; 2528.475
786.111;27768.518; 5830.775; 2404.396
786.679;27246.508; 5452.550; 2365.717
787.248;25014.697; 4330.676; 2498.438
787.817;24958.586; 4810.651; 2645.659
788.385;25897.377; 5724.877; 2709.280
788.954;24801.768; 4367.553; 2620.500
789.522;26199.057; 5565.378; 2625.422
790.090;24629.746; 4385.804; 2743.843
790.659;25589.836; 4865.079; 2635.163
791.227;26438.627; 4976.205; 2495.484
791.795;26903.717; 5255.430; 2413.705
792.364;26220.906; 4543.306; 2345.326
792.932;26754.695; 5377.682; 2350.447
793.500;25770.887; 4911.007; 2429.768
794.068;24601.576; 4323.183; 2513.589
794.636;25152.865; 4670.558; 2664.310
795.204;25264.455; 4202.534; 2721.431
795.772;25528.445; 4632.659; 2802.052
796.340;25098.635; 4759.435; 2847.173
796.908;24155.227; 4206.960; 2997.194
797.476;24436.715; 4502.336; 3151.615
798.044;24306.906; 4136.012; 3110.735
798.612;24911.996; 4980.737; 2931.656
799.180;24668.785; 5133.313; 2785.777
799.747;23767.275; 5083.138; 2899.098
800.315;22892.666; 4392.014; 2955.519
800.883;22808.256; 4061.490; 2948.940
801.450;23896.846; 5018.665; 2965.361
802.018;24731.234; 5292.940; 3070.582
802.585;24208.926; 5054.666; 3156.103
803.153;23505.215; 4664.492; 3199.524
803.720;23842.705; 4707.517; 3168.845
804.287;24610.494; 4887.243; 3248.366
804.855;26210.584; 5659.468; 3406.187
805.422;25362.775; 4918.644; 3430.907
805.989;24207.465; 4588.070; 3453.528
806.556;23466.754; 4591.795; 3612.649
807.124;24410.244; 5564.021; 3736.570
807.691;23337.033; 4479.996; 3770.491
808.258;23855.924; 5059.472; 3705.012
808.825;24116.414; 5589.797; 3828.733
809.392;24544.203; 5972.673; 3986.754
809.959;23377.094; 5256.549; 4410.075
810.526;23929.084; 6019.674; 4774.996
811.093;23585.373; 5721.400; 4754.217
811.659;22926.064; 5003.125; 4661.238
812.226;22913.553; 4971.901; 4672.559
812.793;23373.643; 5206.876; 4822.979
813.360;23268.633; 4989.102; 5189.800
813.926;23118.523; 5258.478; 5310.622
814.493;22062.514; 4367.403; 5414.542
815.060;21821.004; 4104.079; 5548.963
815.626;22327.492; 4424.154; 5452.284
816.193;23084.383; 5153.030; 5339.305
816.759;22190.473; 4596.655; 5544.426
817.325;20962.063; 4107.481; 5706.547
817.892;22091.553; 5512.756; 5623.468
818.458;21907.443; 5284.882; 5586.689
819.024;22713.232; 5746.008; 5647.910
819.591;22265.322; 5041.883; 5762.031
820.157;21934.012; 4388.759; 6284.452
820.723;22813.602; 5277.134; 6906.973
821.289;24426.992; 7644.560; 7086.894
821.855;21545.582; 5422.386; 7054.915
822.421;21243.373; 4781.211; 7112.035
822.987;20757.662; 4474.437; 7256.156
823.553;20864.352; 4880.512; 7538.077
824.119;21325.342; 5598.288; 7594.298
824.685;21000.631; 5809.763; 7613.619
825.251;20587.223; 5485.439; 7644.140
825.816;21204.512; 6152.064; 7720.261
826.382;20417.902; 5462.590; 8014.282
826.948;20591.992; 5587.666; 8281.503
827.513;19500.682; 4939.641; 8289.624
828.079;18655.072; 4576.167; 8587.045
828.645;19896.162; 5236.742; 8821.865
829.210;19435.752; 4476.118; 9054.486
829.776;19778.842; 5393.894; 9054.607
830.341;19496.031; 5571.819; 9415.628
830.906;19195.221; 5734.745; 9932.449
831.472;18091.012; 4652.970;10150.271
832.037;19588.801; 5600.096; 9420.391
832.602;18826.391; 4780.071; 8664.912
833.167;18798.781; 5128.247; 8491.933
833.733;19212.070; 5597.522; 8872.854
834.298;17761.361; 4517.298; 9370.575
834.863;18011.150; 5262.974; 9610.695
835.428;17953.840; 5239.899; 9655.616
835.993;18471.529; 5386.875; 9437.838
836.558;19118.920; 5484.250; 9441.459
837.123;20354.109; 6723.426; 9600.979
837.688;19021.000; 5300.852; 9798.301
838.253;18555.891; 5286.427; 9902.921
838.817;17969.180; 4945.703;10339.742
839.382;18738.471; 5909.928;10548.363
839.947;18151.260; 5175.404;10252.484
840.511;18537.650; 6070.330;10040.005
841.076;15930.840; 4079.655;10099.926
841.641;16997.129; 5452.181;10347.347
842.205;16595.619; 5323.656;10817.368
842.770;17422.309; 6296.932;11435.289
843.334;16269.699; 5019.107;12072.409
843.898;15716.789; 4823.783;12635.431
844.463;16577.180; 5928.008;12537.252
845.027;15294.569; 4890.584;12759.673
845.591;15942.359; 5662.259;12821.993
846.156;15257.049; 4826.035;12520.914
846.720;15972.938; 5556.960;12390.436
847.284;15835.329; 5252.386;12956.456
847.848;15843.318; 5441.262;13240.177
848.412;14775.509; 5169.087;13216.998
848.976;15000.698; 6061.613;13014.619
849.540;15296.188; 6527.588;12355.740
850.104;14959.179; 5991.064;12208.761
850.668;13338.668; 4184.590;12106.882
851.232;13516.958; 4307.315;11862.103
851.796;14245.748; 5074.941;11700.523
852.359;14711.038; 5627.167;12375.944
852.923;15145.928; 5804.642;13087.966
853.487;14772.618; 5520.167;13297.187
854.050;12699.107; 3571.143;13851.207
854.614;13844.397; 4908.619;14854.229
855.177;14272.288; 5336.494;15802.149
855.741;14166.378; 5383.170;16603.570
856.304;14258.367; 5697.095;16359.891
856.868;13056.657; 4635.771;14365.512
857.431;13168.047; 5137.597;13361.333
857.995;12492.138; 4962.522;14130.554
858.558;12796.627; 5337.897;14883.175
859.121;13096.517; 5622.773;15754.195
859.684;13041.507; 5279.549;15995.017
860.247;12979.797; 5129.674;15149.537
860.810;12801.087; 4926.800;14640.358
861.374;13956.477; 6596.625;15551.079
861.937;11424.366; 4535.751;16519.801
862.500;11277.156; 4851.626;16796.521
863.062;10850.847; 4611.952;16538.742
863.625;11577.437; 5352.228;16716.764
864.188;11178.026; 4892.903;17055.084
864.751;11056.816; 4850.029;17197.705
865.314;11536.807; 5205.104;17151.625
865.876;12139.496; 5766.130;17783.547
866.439;12051.886; 5567.105;19283.467
867.002;12684.676; 6460.231;20256.389
867.564;11959.065; 5861.807;20485.410
868.127;11158.656; 5149.032;20789.730
868.689;11362.746; 5392.908;21981.951
869.252;11733.936; 5834.233;23803.771
869.814;10612.825; 4718.109;24974.094
870.377;11065.716; 5351.635;24690.314
870.939;12891.105; 7392.760;23963.436
871.501;10653.995; 5303.736;25167.156
872.063; 9126.285; 3896.411;26995.477
872.626; 9430.875; 4223.787;27443.098
873.188;10558.265; 5324.163;26718.418
873.750;10283.855; 5080.338;26558.840
874.312;10030.645; 4895.864;26701.561
874.874;11324.135; 6199.339;27970.582
875.436;10637.625; 5680.564;29173.402
875.998;10823.314; 6024.940;30376.623
876.560;10249.505; 5691.266;32507.344
877.122; 9124.795; 4768.292;34833.066
877.683; 9732.385; 5575.017;36458.285
878.245; 8905.874; 4897.792;37248.207
878.807; 9500.064; 5480.068;36758.027
879.369; 8614.055; 4507.444;35223.551
879.930; 8856.944; 4623.719;33824.969
880.492;10100.534; 5949.395;34436.492
881.053; 8743.624; 4672.570;37745.313
881.615; 8674.414; 4868.146;41184.633
882.176; 8685.704; 5057.021;42871.555
882.738; 9137.294; 5618.397;41693.074
883.299; 7491.884; 4152.623;40289.895
883.860; 7625.273; 4284.748;39231.215
884.422; 8943.464; 5557.724;38264.039
884.983; 7883.653; 4626.299;37171.859
885.544; 8350.344; 5340.225;35842.379
886.105; 8033.833; 5211.150;34810.000
886.666; 7601.423; 4913.826;34519.020
887.227; 6902.713; 4302.852;33905.641
887.788; 7920.603; 5344.127;34502.965
888.349; 6902.093; 4439.103;34241.785
888.910; 8009.583; 5573.479;33722.203
889.471; 7733.773; 5316.104;32539.625
890.032; 7514.863; 5162.779;31528.346
890.593; 7835.953; 5543.855;32655.068
891.153; 7248.243; 5135.131;33882.289
891.714; 6460.433; 4414.606;33318.711
892.275; 6484.223; 4501.832;31848.930
892.835; 7645.612; 5723.458;30339.752
893.396; 7443.502; 5634.183;30074.973
893.956; 6745.592; 5032.409;30338.393
894.517; 6935.482; 5302.334;30864.113
895.077; 6954.772; 5403.359;29766.734
895.638; 7698.162; 6198.235;26379.557
896.198; 5973.252; 4584.511;24056.277
896.758; 7049.242; 5675.736;22961.898
897.319; 6406.832; 5074.512;21772.020
897.879; 6423.122; 5141.837;20877.539
898.439; 5575.612; 4307.613;19509.461
898.999; 6733.802; 5535.039;17297.582
899.559; 6635.591; 5431.164;14712.002
900.119; 5750.981; 4616.940;12790.224
900.679; 7162.271; 6113.965;11586.744
901.239; 6554.461; 5570.341;10776.465
901.799; 6194.751; 5233.517; 9691.687
902.359; 5616.141; 4687.342; 8725.907
902.919; 5513.931; 4621.167; 8305.728
903.479; 5563.621; 4659.443; 8172.649
904.038; 5330.111; 4449.169; 7913.870
904.598; 4765.201; 3875.344; 7262.291
905.158; 5736.491; 4863.920; 6609.012
905.717; 5884.980; 5072.996; 6236.133
906.277; 5940.070; 5162.421; 5829.054
906.836; 6236.161; 5462.646; 5396.674
907.396; 6138.550; 5392.572; 4964.195
907.955; 6153.840; 5429.648; 4528.917
908.515; 5659.430; 4933.723; 4223.837
909.074; 5696.720; 4988.649; 4023.958
909.633; 5673.310; 5010.174; 4065.379
910.192; 6940.300; 6207.950; 4066.300
910.752; 5644.800; 4959.600; 3971.600
911.311; 5516.400; 4865.850; 3839.600
911.870; 5385.300; 4688.450; 3684.500
912.429; 6460.000; 5783.650; 3635.600
912.988; 6325.700; 5661.550; 3689.800
913.547; 5277.900; 4605.900; 3737.700
914.106; 5850.600; 5258.100; 3740.300
914.665; 5838.700; 5208.000; 3604.600
915.224; 6350.900; 5768.550; 3358.700
915.782; 5443.900; 4839.550; 3188.400
916.341; 6544.800; 5962.050; 3091.400
916.900; 5495.900; 4909.900; 3044.800
917.458; 5250.900; 4651.400; 2888.600
918.017; 5770.900; 5178.650; 2818.900
918.576; 5538.700; 4931.300; 2838.600
919.134; 4927.500; 4303.950; 2880.100
919.693; 5475.600; 4873.500; 2996.300
920.251; 5382.400; 4780.050; 3183.100
920.809; 5098.900; 4494.900; 3247.000
921.368; 5383.400; 4778.200; 3156.600
921.926; 5182.500; 4589.350; 2964.900
922.484; 5712.500; 5097.850; 2846.300
923.042; 5523.100; 4926.600; 2890.400
923.601; 6527.300; 5921.450; 2987.700
924.159; 6014.000; 5421.100; 3049.800
924.717; 5173.200; 4566.750; 3087.000
925.275; 5744.500; 5131.200; 3093.400
925.833; 4703.000; 4094.750; 3182.400
926.391; 6004.200; 5383.850; 3397.900
926.949; 5412.800; 4799.250; 3575.400
927.506; 5808.200; 5168.150; 3713.400
928.064; 5515.900; 4871.550; 3871.300
928.622; 5577.500; 4950.850; 4092.800
929.180; 5054.400; 4394.550; 4499.300
929.737; 4920.400; 4262.150; 4813.200
930.295; 6003.300; 5342.700; 5084.100
930.853; 5273.000; 4611.400; 5185.000
931.410; 5016.200; 4362.650; 5313.100
931.968; 6089.500; 5435.750; 5339.600
932.525; 5715.700; 5058.050; 5399.900
933.082; 4961.600; 4274.850; 5457.500
933.640; 5928.200; 5255.400; 5692.900
934.197; 5539.100; 4870.600; 5821.200
934.754; 5556.400; 4870.050; 5617.900
935.312; 5294.900; 4606.400; 5512.400
935.869; 6589.400; 5887.300; 5582.400
936.426; 5338.700; 4637.950; 5650.100
936.983; 5469.700; 4807.450; 5657.400
937.540; 5007.200; 4325.550; 5564.300
938.097; 5918.000; 5211.850; 5574.000
938.654; 5478.800; 4733.500; 5665.900
939.211; 5945.100; 5207.750; 5931.600
939.768; 5653.800; 4927.300; 6153.600
940.324; 5522.300; 4788.500; 6397.600
940.881; 5294.900; 4588.100; 6454.200
941.438; 6439.000; 5707.300; 6206.900
941.995; 6227.500; 5495.300; 6003.900
942.551; 5097.600; 4355.850; 6228.300
943.108; 5621.600; 4900.450; 6603.500
943.664; 5142.600; 4401.000; 7188.100
944.221; 6957.400; 6214.550; 7579.900
944.777; 5069.500; 4352.050; 7658.100
945.334; 5181.000; 4460.300; 7670.400
945.890; 5686.900; 4974.650; 7525.100
946.446; 5727.800; 5010.250; 7261.500
947.003; 5866.000; 5163.700; 6949.200
947.559; 6663.500; 5954.200; 6773.100
948.115; 6334.700; 5645.200; 6668.400
948.671; 5865.100; 5137.900; 6488.400
949.227; 4911.400; 4193.750; 6236.600
949.783; 4822.000; 4117.050; 6008.900
950.339; 5951.100; 5242.800; 5934.100
950.895; 6290.300; 5574.850; 5933.500
951.451; 5428.500; 4741.800; 6074.700
952.007; 6037.200; 5352.750; 6066.400
952.563; 5490.100; 4791.800; 5884.100
953.118; 5306.400; 4613.750; 5733.800
953.674; 5601.600; 4922.500; 5734.300
954.230; 5642.400; 4959.300; 6039.700
954.785; 5584.100; 4916.850; 6383.500
955.341; 6090.800; 5416.850; 6568.200
955.897; 4801.100; 4133.300; 6488.600
956.452; 5805.800; 5157.200; 6239.200
957.008; 7011.500; 6357.800; 5954.600
957.563; 6337.600; 5679.400; 5816.700
958.118; 5232.900; 4559.100; 5828.200
958.674; 5753.500; 5078.700; 5717.400
959.229; 6407.600; 5788.900; 5506.800
959.784; 4908.400; 4272.350; 5292.200
960.339; 6413.500; 5738.950; 5101.900
960.894; 6113.300; 5417.000; 5093.200
961.449; 5160.100; 4517.750; 5227.900
962.004; 8188.300; 7532.950; 5349.300
962.559; 5227.800; 4597.600; 5514.900
963.114; 4243.500; 3622.400; 5717.300
963.669; 5643.700; 5023.250; 5841.400
964.224; 5395.900; 4740.150; 5805.900
964.779; 4999.800; 4358.550; 5723.400
965.334; 6406.300; 5790.050; 5779.500
965.888; 5334.000; 4670.950; 5948.500
966.443; 6144.700; 5528.700; 6344.200
966.998; 4779.300; 4132.900; 6666.300
967.552; 5557.800; 4962.650; 6710.100
968.107; 5230.900; 4647.700; 6593.500
968.661; 5757.100; 5145.450; 6344.100
969.216; 5201.300; 4608.150; 6062.400
969.770; 5725.300; 5152.800; 5785.500
970.324; 5763.100; 5182.700; 5426.800
970.879; 6066.000; 5463.500; 5016.800
971.433; 6115.200; 5521.200; 4904.500
971.987; 5625.300; 5071.450; 4991.000
972.541; 5837.800; 5259.650; 4978.500
973.095; 6616.100; 6011.200; 4832.000
973.649; 4865.900; 4331.800; 4767.900
974.203; 5051.000; 4502.500; 4881.200
974.757; 5261.100; 4730.300; 4969.500
975.311; 5481.600; 4921.050; 4953.000
975.865; 5539.400; 4997.600; 4884.300
976.419; 5363.900; 4821.850; 4739.800
976.973; 5294.500; 4742.950; 4698.100
977.526; 6191.600; 5635.700; 4631.100
978.080; 4874.100; 4325.400; 4621.600
978.634; 5866.500; 5383.250; 4650.200
979.187; 5798.200; 5267.150; 4669.200
979.741; 6772.400; 6253.100; 4658.000
980.294; 4870.600; 4361.800; 4579.100
980.848; 4269.200; 3796.150; 4452.800
981.401; 5153.300; 4698.600; 4271.900
981.955; 5443.600; 4978.100; 4087.800
982.508; 4593.600; 4129.250; 3973.900
983.061; 6092.300; 5614.150; 3928.600
983.615; 5022.100; 4550.500; 3851.200
984.168; 4807.000; 4374.550; 3734.800
984.721; 5757.000; 5297.850; 3628.300
985.274; 5640.500; 5179.000; 3564.300
985.827; 5406.400; 4956.350; 3558.100
986.380; 4471.600; 4019.650; 3559.900
986.933; 5655.600; 5235.600; 3688.700
987.486; 5688.900; 5250.250; 3778.500
988.039; 5626.200; 5211.400; 3559.900
988.591; 6013.400; 5577.650; 3219.300
989.144; 4691.500; 4254.600; 2902.900
989.697; 4943.400; 4526.200; 2722.600
990.250; 5823.200; 5416.950; 2618.000
990.802; 4949.800; 4538.700; 2523.900
991.355; 6883.200; 6484.450; 2436.500
991.907; 5974.350; 5581.450; 2412.200
992.460; 5065.500; 4678.450; 2387.900
993.012; 5065.400; 4678.000; 2365.800
993.565; 4722.500; 4384.000; 2311.100
994.117; 6727.800; 6381.400; 2308.700
994.669; 4735.200; 4400.700; 2249.300
995.221; 5555.200; 5229.250; 2158.100
995.774; 5471.900; 5121.500; 2085.600
996.326; 5108.800; 4758.800; 2068.100
996.878; 6032.700; 5677.700; 1975.300
997.430; 4871.200; 4524.900; 1929.500
997.982; 5318.400; 4971.100; 1861.900
998.534; 5244.200; 4937.900; 1830.200
999.086; 5205.300; 4910.300; 1823.200
999.638; 4555.300; 4255.000; 1815.000
1000.190; 5001.400; 4652.250; 1796.600
1000.741; 5322.400; 5014.250; 1738.800
1001.293; 4835.800; 4532.050; 1666.200
1001.845; 4835.600; 4533.200; 1566.500
1002.396; 5382.200; 5081.800; 1471.900
1002.948; 5342.100; 5048.700; 1398.000
1003.500; 5242.400; 4960.550; 1356.500
1004.051; 6885.700; 6624.850; 1294.200
1004.603; 5926.500; 5643.750; 1190.000
1005.154; 4380.400; 4166.050; 1063.900
1005.705; 5372.400; 5158.700;  968.300
1006.257; 5291.300; 5060.350;  889.800
1006.808; 5148.400; 4926.700;  801.500
1007.359; 5872.900; 5655.450;  716.400
1007.910; 4869.700; 4671.000;  639.100
1008.461; 5624.000; 5443.300;  561.600
1009.013; 4410.700; 4188.250;  500.400
1009.564; 6163.300; 5967.100;  476.100
1010.115; 4442.600; 4299.100;  431.600
1010.665; 4581.700; 4390.700;  409.300
1011.216; 5145.900; 4940.700;  399.700
1011.767; 5347.900; 5164.100;  388.100
1012.318; 5592.600; 5392.150;  381.400
1012.869; 5133.900; 4966.150;  375.400
1013.419; 4537.300; 4378.150;  357.600
1013.970; 5171.200; 4961.350;  358.300
1014.521; 4673.400; 4524.950;  344.100
1015.071; 5175.700; 5015.950;  322.800
1015.622; 4845.400; 4668.650;  320.600
1016.172; 4528.300; 4392.750;  301.700
1016.723; 4675.400; 4524.350;  289.800
1017.273; 4640.000; 4471.700;  287.600
1017.823; 4979.700; 4817.050;  278.700
1018.374; 4693.200; 4549.200;  274.400
1018.924; 5607.400; 5442.750;  283.200
1019.474; 5503.300; 5356.750;  278.500
1020.024; 5022.400; 4888.650;  274.700
1020.574; 5667.800; 5503.500;  272.700
1021.124; 5267.000; 5080.200;  278.400
1021.674; 4258.200; 4124.300;  269.200
1022.224; 5555.600; 5407.900;  267.800
1022.774; 5161.800; 5009.550;  258.100
1023.324; 5955.400; 5784.100;  260.000
1023.874; 7004.900; 6859.800;  260.700
1024.423; 4750.900; 4580.650;  252.700
1024.973; 4581.200; 4470.350;  234.700
1025.523; 4789.400; 4626.050;  226.500
1026.072; 4696.800; 4538.100;  225.500
1026.622; 5265.500; 5114.600;  210.100
1027.172; 5591.600; 5425.100;  213.000
1027.721; 4634.200; 4495.400;  207.700
1028.270; 5210.300; 5086.500;  205.400
1028.820; 4990.100; 4850.200;  201.000
1029.369; 4771.200; 4637.950;  201.000
1029.918; 5031.800; 4862.500;  198.400
1030.468; 4382.200; 4243.350;  199.200
1031.017; 4985.400; 4836.350;  192.600
1031.566; 4743.200; 4617.600;  197.400
1032.115; 5459.600; 5331.750;  188.300
1032.664; 4661.800; 4559.450;  193.700
1033.213; 5824.700; 5668.250;  191.900
1033.762; 4991.600; 4830.250;  184.500
1034.311; 5316.000; 5191.500;  194.300
1034.860; 5407.000; 5284.950;  192.300
1035.408; 5756.000; 5610.700;  182.600
1035.957; 5656.300; 5522.400;  173.900
1036.506; 4073.700; 3960.200;  185.200
1037.055; 6738.200; 6586.050;  182.500
1037.603; 5257.900; 5103.350;  167.600
1038.152; 4095.500; 3968.450;  168.200
1038.700; 4565.100; 4427.150;  169.600
1039.249; 5371.600; 5226.650;  164.300
1039.797; 5037.400; 4872.500;  169.600
1040.345; 5571.200; 5424.800;  167.100
1040.894; 4962.500; 4813.700;  164.400
1041.442; 5029.800; 4877.550;  158.300
1041.990; 4388.900; 4262.300;  160.000
1042.538; 4188.700; 4042.350;  156.800
1043.087; 4439.800; 4310.800;  146.600
1043.635; 5395.000; 5260.000;  162.400
1044.183; 4659.200; 4514.800;  156.300
1044.731; 4525.800; 4406.500;  158.100
1045.279; 5361.700; 5219.050;  154.500
1045.827; 7235.000; 7077.300;  146.200
1046.374; 4005.400; 3856.850;  154.000
1046.922; 4655.300; 4528.700;  149.000
1047.470; 5520.600; 5396.150;  154.900
1048.018; 5227.500; 5076.000;  148.400
1048.565; 5713.700; 5586.050;  146.300
1049.113; 4345.800; 4219.750;  156.100
1049.660; 4964.000; 4830.250;  154.300
1050.208; 5372.400; 5232.150;  149.400
1050.755; 4808.100; 4685.600;  157.500
1051.303; 5504.100; 5350.000;  157.700
1051.850; 5028.100; 4900.250;  152.800
1052.397; 3683.500; 3583.350;  146.300
1052.945; 4903.300; 4763.250;  149.500
1053.492; 5982.400; 5860.450;  149.300
1054.039; 5818.900; 5671.700;  163.100
1054.586; 4415.600; 4260.150;  150.400
1055.133; 5579.800; 5451.250;  153.500
1055.680; 5112.900; 5019.000;  155.600
1056.227; 4248.300; 4119.750;  148.700
1056.774; 6428.600; 6272.800;  151.500
1057.321; 4110.500; 3982.050;  143.700
1057.868; 5187.800; 5038.200;  145.300
1058.415; 5231.400; 5095.550;  153.500
1058.961; 5393.000; 5280.150;  149.900
1059.508; 5117.600; 4988.750;  147.300
1060.055; 4629.500; 4525.850;  151.000
1060.601; 4940.200; 4812.050;  148.700
1061.148; 4990.000; 4856.200;  153.800
1061.694; 4748.700; 4607.750;  150.500
1062.241; 4743.700; 4618.400;  149.100
1062.787; 5345.300; 5206.850;  153.000
1063.334; 6494.100; 6355.650;  153.200
1063.880; 5398.500; 5266.000;  148.400
1064.426; 5697.000; 5564.350;  149.200
1064.972; 4768.200; 4656.350;  156.400
1065.518; 4513.700; 4387.200;  144.700
1066.065; 5066.600; 4927.450;  139.400
1066.611; 4819.700; 4690.100;  139.300
1067.157; 5156.800; 5020.700;  138.400
1067.703; 5404.400; 5278.700;  142.700
1068.249; 4775.300; 4640.100;  136.700
1068.794; 5027.400; 4906.750;  139.400
1069.340; 4625.800; 4496.450;  142.700
1069.886; 4773.900; 4653.350;  135.600
1070.432; 4294.200; 4171.150;  133.400
1070.977; 4853.300; 4721.800;  138.200
1071.523; 4515.600; 4393.350;  132.400
1072.068; 4623.300; 4498.200;  132.700
1072.614; 4164.800; 4055.600;  127.000
1073.160; 5593.200; 5477.150;  131.300
1073.705; 4646.200; 4497.900;  135.700
1074.250; 4510.900; 4390.750;  133.000
1074.796; 5306.700; 5194.350;  138.000
1075.341; 5332.800; 5229.600;  137.300
1075.886; 4716.000; 4626.400;  134.300
1076.431; 5315.100; 5204.900;  138.200
1076.976; 5209.500; 5083.800;  132.200
1077.521; 4672.000; 4562.800;  138.900
1078.067; 4660.000; 4576.800;  128.600
1078.612; 5388.300; 5274.850;  138.900
1079.156; 4858.100; 4743.400;  128.900
1079.701; 5635.000; 5527.550;  129.700
1080.246; 5665.000; 5543.800;  128.600
1080.791; 5129.200; 4994.550;  122.600
1081.336; 5332.600; 5231.150;  122.000
1081.880; 5279.800; 5190.550;  123.900
1082.425; 4582.200; 4490.500;  120.600
1082.970; 5848.100; 5734.950;  124.500
1083.514; 4829.500; 4696.700;  112.000
1084.059; 4719.300; 4624.650;  120.700
1084.603; 4585.300; 4479.200;  116.000
1085.147; 5261.000; 5167.200;  116.300
1085.692; 5879.700; 5753.400;  108.200
1086.236; 4056.900; 3966.450;  114.600
1086.780; 6154.100; 6044.500;  118.900
1087.325; 5341.000; 5225.500;  120.400
1087.869; 5005.300; 4879.850;  110.500
1088.413; 5686.400; 5615.250;  114.000
1088.957; 4335.300; 4238.200;  114.300
1089.501; 6298.400; 6206.000;  114.600
1090.045; 5964.700; 5864.600;  114.200
1090.589; 4588.600; 4492.250;  105.500
1091.133; 5476.100; 5377.300;  111.800
1091.676; 4751.000; 4649.250;  110.900
1092.220; 4931.500; 4787.250;  110.100
1092.764; 5747.100; 5672.550;  108.100
1093.307; 5463.600; 5364.100;  109.900
1093.851; 4513.400; 4422.150;  107.500
1094.395; 5595.600; 5493.850;   96.200
1094.938; 5152.300; 5062.000;   99.300
1095.482; 4537.900; 4436.550;   97.700
1096.025; 5815.300; 5711.450;   84.900
1096.568; 6340.200; 6229.550;   88.500
1097.112; 4047.900; 3972.400;   95.700
1097.655; 4836.400; 4744.650;   97.300
1098.198; 4891.200; 4778.850;   92.600
1098.741; 5037.700; 4922.400;   91.800
1099.285; 5334.900; 5240.200;   88.000
1099.828; 3529.200; 3448.600;   91.700
1100.371; 4993.700; 4888.250;   89.900
1100.914; 5620.700; 5508.500;   91.500
1101.457; 5574.900; 5443.850;   88.100
1101.999; 4719.300; 4632.250;   86.400
1102.542; 5214.500; 5117.750;   90.800
1103.085; 5431.300; 5320.700;   95.400
1103.628; 6299.500; 6206.250;   97.700
1104.170; 4773.700; 4684.400;   84.000
1104.713; 5284.600; 5195.850;   93.900
1105.256; 4524.400; 4419.550;   93.000
1105.798; 4070.300; 3988.600;   85.600
1106.341; 5976.300; 5905.300;   87.100
1106.883; 4266.100; 4161.400;   85.200
1107.425; 5537.900; 5414.900;   85.000
1107.968; 5060.500; 4974.500;   84.300
1108.510; 5609.300; 5540.350;   88.200
1109.052; 5077.000; 4988.450;   86.600
1109.594; 4594.300; 4484.800;   79.400
1110.136; 5324.000; 5221.300;   81.700
1110.679; 5158.400; 5066.900;   75.500
1111.221; 4992.100; 4895.250;   88.500
1111.763; 4562.000; 4453.050;   87.700
1112.304; 4484.000; 4373.350;   89.700
1112.846; 5518.400; 5377.400;   81.900
1113.388; 7843.100; 7765.850;   86.400
1113.930; 5732.800; 5628.400;   84.700
1114.472; 4997.800; 4929.350;   78.900
1115.013; 4498.600; 4415.050;   78.100
1115.555; 4840.600; 4761.800;   84.900
1116.097; 4763.400; 4628.450;   79.200
1116.638; 5662.100; 5576.850;   83.700
1117.180; 5469.300; 5357.600;   85.500
1117.721; 4731.400; 4643.900;   78.800
1118.262; 5613.100; 5513.150;   77.400
1118.804; 5244.700; 5150.350;   81.400
1119.345; 4792.800; 4708.600;   77.800
1119.886; 5818.600; 5730.300;   81.200
1120.427; 4853.200; 4749.450;   77.200
1120.969; 4961.300; 4855.250;   75.200
1121.510; 4654.000; 4565.100;   80.900
1122.051; 6005.500; 5882.950;   77.300
1122.592; 5438.400; 5362.150;   73.300
1123.133; 4504.800; 4406.450;   90.100
1123.673; 5883.000; 5780.650;   75.000
1124.214; 5085.400; 4988.450;   80.600
1124.755; 5347.700; 5239.150;   78.000
1125.296; 5143.900; 5071.700;   77.500
1125.836; 5709.000; 5614.350;   80.400
1126.377; 4992.400; 4888.950;   75.600
1126.918; 5099.300; 4990.000;   78.900
1127.458; 5145.800; 5057.400;   78.000
1127.999; 5439.800; 5356.800;   76.100
1128.539; 5752.500; 5660.000;   81.400
1129.079; 5308.100; 5167.400;   77.400
1129.620; 4610.200; 4531.750;   68.000
1130.160; 4451.800; 4398.900;   77.500
1130.700; 5315.400; 5217.650;   76.300
1131.240; 5361.000; 5245.000;   66.800
1131.781; 5155.300; 5091.350;   70.600
1132.321; 4991.900; 4912.100;   77.200
1132.861; 4637.500; 4544.850;   70.400
1133.401; 4942.800; 4886.600;   68.700
1133.941; 5204.900; 5117.700;   68.500
1134.481; 5025.300; 4933.900;   75.900
1135.020; 5057.800; 4968.550;   66.600
1135.560; 5581.300; 5473.300;   68.100
1136.100; 4140.600; 4069.400;   64.900
1136.640; 4251.300; 4176.500;   72.500
1137.179; 4404.300; 4350.650;   69.700
1137.719; 5039.000; 4954.400;   68.400
1138.258; 4896.700; 4803.500;   67.000
1138.798; 5490.200; 5416.400;   69.600
1139.337; 3991.600; 3922.550;   64.000
1139.877; 5325.200; 5230.350;   64.500
1140.416; 7257.800; 7166.500;   74.900
1140.955; 4419.300; 4333.400;   67.200
1141.494; 5606.400; 5532.550;   69.900
1142.034; 4888.700; 4767.300;   59.100
1142.573; 5351.900; 5287.550;   65.900
1143.112; 4597.800; 4512.350;   70.600
1143.651; 4475.100; 4385.950;   67.100
1144.190; 5791.100; 5703.450;   56.700
1144.729; 5076.700; 4955.750;   61.800
1145.267; 4848.900; 4736.950;   62.500
1145.806; 5313.600; 5220.900;   68.500
1146.345; 5357.600; 5257.750;   58.300
1146.884; 5255.400; 5145.950;   63.100
1147.422; 4415.200; 4340.300;   54.800
1147.961; 5943.700; 5848.100;   67.600
1148.500; 5572.500; 5498.250;   64.700
1149.038; 5333.400; 5233.850;   61.000
1149.577; 5844.800; 5777.000;   65.100
1150.115; 3750.800; 3681.900;   58.100
1150.653; 5089.700; 5012.650;   60.500
1151.192; 4663.400; 4567.250;   56.600
1151.730; 5492.900; 5413.950;   62.300
1152.268; 4886.600; 4812.600;   55.500
1152.806; 4799.500; 4734.050;   58.200
1153.344; 4821.600; 4732.600;   55.000
1153.882; 4964.100; 4902.000;   64.200
1154.421; 3880.000; 3841.450;   60.300
1154.958; 4988.600; 4952.800;   58.100
1155.496; 5398.400; 5328.650;   55.800
1156.034; 6063.400; 5973.800;   61.000
1156.572; 5593.900; 5493.900;   56.200
1157.110; 3943.000; 3856.400;   53.200
1157.647; 5683.100; 5588.750;   57.400
1158.185; 4766.300; 4685.000;   55.500
1158.723; 4272.100; 4210.500;   58.000
1159.260; 5857.200; 5779.700;   53.700
1159.798; 5494.300; 5442.950;   51.700
1160.335; 5321.900; 5227.600;   59.600

