gmr_right
Integration time [ms]:   3.882
Averaging Nr. [scans]: 1000
Smoothing Nr. [pixels]: 0
Data measured with spectrometer [name]: 7414430SP
Wave   ;Sample   ;Dark     ;Reference
[nm]   ;[counts] ;[counts] ;[counts] 

288.544;  130.338;   10.292;  793.890
289.143;  132.678;    4.564;  681.602
289.742;  132.795;    6.144;  828.814
290.341;  119.031;    4.396;  789.841
290.940;  110.258;    0.938;  730.702
291.538;  111.837;   -0.684;  881.108
292.137;  109.737;   -2.845;  792.581
292.736;  115.145;   -0.144;  975.101
293.335;  110.171;   -6.352;  735.086
293.934;  110.531;   -7.642;  781.677
294.532;  110.016;   -4.992; 1031.958
295.131;   96.477;   -5.478;  834.394
295.730;   96.716;   -6.549;  809.588
296.328;   96.215;   -9.558;  783.442
296.927;   95.304;   -8.118;  779.652
297.525;   95.551;   -6.908;  781.236
298.124;   86.139;   -9.195;  654.009
298.722;   92.633;   -8.198;  761.933
299.321;   89.137;   -8.817;  708.597
299.919;   87.375;   -7.716;  751.918
300.518;   83.372;  -10.745;  689.338
301.116;   84.971;   -9.647;  691.381
301.715;   85.268;  -10.828;  730.222
302.313;   84.490;   -6.087;  704.943
302.911;   80.239;   -6.824;  733.830
303.509;   85.109;   -8.807;  925.627
304.108;   82.439;   -8.198;  760.383
304.706;   81.968;   -6.218;  801.664
305.304;   77.490;   -7.185;  796.707
305.902;   82.509;   -8.568;  784.484
306.500;   77.049;   -7.737;  728.200
307.098;   76.337;   -6.026;  746.560
307.696;   75.014;   -7.176;  780.432
308.294;   75.276;   -8.656;  731.359
308.892;   77.261;   -6.838;  759.769
309.490;   72.890;   -2.596;  712.161
310.088;   71.469;   -4.485;  788.444
310.686;   76.640;   -3.907;  821.749
311.284;   71.236;   -2.806;  766.040
311.882;   69.394;   -2.845;  731.225
312.480;   66.480;   -3.274;  697.167
313.078;   67.824;   -3.645;  808.331
313.675;   69.084;   -4.997;  691.600
314.273;   64.442;   -0.894;  797.837
314.871;   63.832;   -2.854;  589.829
315.468;   62.037;   -3.644;  652.090
316.066;   65.114;   -3.947;  694.427
316.664;   57.478;   -1.824;  656.351
317.261;   63.246;    1.565;  910.128
317.859;   57.933;   -3.955;  768.735
318.456;   58.708;   -2.886;  830.096
319.054;   54.829;   -0.995;  787.828
319.651;   53.941;   -1.765;  759.928
320.249;   53.408;   -3.685;  810.188
320.846;   50.597;   -3.736;  714.286
321.443;   49.341;   -2.065;  832.135
322.041;   47.134;   -5.635;  812.315
322.638;   45.746;   -5.985;  701.456
323.235;   46.781;   -6.677;  665.683
323.833;   44.203;   -3.497;  740.354
324.430;   39.951;   -6.756;  615.900
325.027;   41.622;   -7.647;  876.855
325.624;   42.745;   -7.598;  644.532
326.221;   39.627;   -5.848;  689.717
326.818;   39.443;   -5.777;  818.332
327.415;   42.472;   -8.769;  748.828
328.012;   40.996;   -6.299;  690.585
328.609;   38.937;   -6.639;  731.389
329.206;   38.423;   -6.358;  778.621
329.803;   37.408;   -8.698;  737.841
330.400;   39.663;   -8.379;  704.260
330.997;   39.921;   -6.178;  817.147
331.594;   38.276;   -5.646;  788.185
332.191;   42.617;   -6.928;  728.722
332.787;   43.138;   -6.057;  844.463
333.384;   41.270;   -6.445;  763.093
333.981;   39.966;   -8.002;  815.687
334.578;   41.207;   -8.443;  708.378
335.174;   43.041;   -6.053;  731.469
335.771;   42.711;   -5.791;  836.456
336.367;   39.664;   -6.570;  710.631
336.964;   42.284;   -6.741;  793.266
337.561;   40.459;   -5.710;  731.112
338.157;   37.302;   -3.928;  911.916
338.754;   34.089;   -5.577;  796.589
339.350;   32.972;   -9.667;  722.493
339.946;   36.080;   -5.269;  773.135
340.543;   28.361;   -4.485;  846.136
341.139;   23.255;   -7.584;  720.836
341.735;   21.230;   -8.553;  772.593
342.332;   20.489;   -4.984;  691.472
342.928;   21.113;   -3.475;  795.394
343.524;   16.241;   -6.653;  761.684
344.120;   14.353;   -7.173;  738.562
344.716;   16.628;   -4.385;  723.717
345.313;   14.534;   -3.565;  795.342
345.909;   10.817;   -7.495;  627.336
346.505;   12.485;   -8.276;  740.247
347.101;   13.009;   -5.697;  827.864
347.697;   13.624;   -4.767;  785.398
348.293;    8.626;   -7.226;  627.244
348.889;    9.992;   -7.547;  745.914
349.485;    9.081;   -9.147;  688.205
350.081;   10.076;   -6.568;  772.592
350.676;    5.552;   -6.516;  691.606
351.272;   10.100;   -7.378;  809.530
351.868;    8.645;   -6.759;  780.497
352.464;    7.410;   -4.798;  723.932
353.059;    3.111;   -7.977;  646.017
353.655;    7.440;   -8.769;  777.063
354.251;    7.556;   -5.920;  759.845
354.846;    1.882;   -7.647;  740.646
355.442;    0.205;   -6.956;  753.071
356.038;    2.138;   -9.928;  751.708
356.633;    1.863;   -7.698;  728.594
357.229;    1.078;   -6.307;  724.757
357.824;   -0.856;   -7.647;  703.600
358.420;   -1.700;  -10.047;  679.726
359.015;   -1.336;   -7.458;  695.357
359.610;    0.378;   -5.748;  763.920
360.206;   -6.006;   -9.346;  603.240
360.801;   -3.039;  -11.268;  646.503
361.396;   -0.755;   -8.789;  725.975
361.992;   -4.300;   -6.347;  668.220
362.587;   -7.547;   -6.476;  670.160
363.182;   -5.865;   -9.457;  689.631
363.777;   -4.899;   -7.147;  738.242
364.372;   -4.134;   -5.507;  737.314
364.967;   -8.536;   -6.386;  680.744
365.563;   -3.379;   -7.858;  815.567
366.158;   -7.136;   -8.517;  685.161
366.753;   -6.096;   -8.728;  649.263
367.348;   -7.510;   -7.677;  746.056
367.942;   -7.998;  -10.387;  697.298
368.537;   -9.808;   -7.187;  754.245
369.132;   -8.834;   -8.587;  703.428
369.727;  -12.746;   -8.606;  638.079
370.322;  -10.268;  -10.426;  580.186
370.917;  -11.203;   -5.776;  710.646
371.511;   -8.303;   -6.007;  861.834
372.106;  -11.159;   -6.686;  776.964
372.701;  -14.861;   -9.335;  585.988
373.296;   -9.252;   -6.777;  863.135
373.890;  -14.100;   -7.546;  647.840
374.485;  -16.116;   -8.755;  691.199
375.079;  -11.476;   -9.797;  738.685
375.674;  -10.428;   -6.327;  812.970
376.268;  -13.870;   -9.046;  691.759
376.863;  -20.365;   -7.993;  580.327
377.457;  -13.782;   -9.206;  662.490
378.052;  -16.294;   -5.345;  764.884
378.646;  -16.751;   -5.605;  741.167
379.240;  -17.168;   -6.825;  721.176
379.835;  -15.904;  -10.476;  636.978
380.429;  -17.587;   -8.676;  562.557
381.023;  -17.332;   -4.945;  779.205
381.617;  -19.779;   -8.094;  680.106
382.212;  -17.067;  -10.646;  685.303
382.806;  -16.300;   -8.136;  760.690
383.400;  -19.969;   -7.855;  672.281
383.994;  -20.237;   -8.125;  664.870
384.588;  -16.257;   -7.637;  697.701
385.182;  -15.773;   -7.458;  726.624
385.776;  -16.179;   -6.277;  706.875
386.370;  -19.329;   -7.485;  681.968
386.964;  -17.886;   -9.416;  684.155
387.558;  -16.609;   -8.518;  598.360
388.152;  -20.319;   -7.096;  681.959
388.745;  -17.865;   -7.656;  814.707
389.339;  -16.400;   -8.927;  747.642
389.933;  -15.278;   -9.538;  695.370
390.527;  -16.966;   -5.857;  859.029
391.120;  -22.642;   -9.455;  595.318
391.714;  -19.944;   -9.746;  711.633
392.308;  -16.651;   -7.857;  780.253
392.901;  -20.659;   -9.106;  642.460
393.495;  -22.289;  -10.365;  595.414
394.089;  -19.538;   -9.696;  760.452
394.682;  -21.025;   -7.016;  697.188
395.275;  -20.577;   -8.466;  719.927
395.869;  -22.138;   -8.985;  667.314
396.462;  -20.847;  -11.496;  616.609
397.056;  -16.259;   -7.838;  776.621
397.649;  -21.129;   -6.895;  731.575
398.242;  -18.502;   -5.017;  712.645
398.836;  -17.280;   -8.787;  766.408
399.429;  -17.922;   -8.967;  631.041
400.022;  -21.433;   -8.815;  665.902
400.615;  -18.725;   -6.276;  805.609
401.208;  -17.012;   -8.407;  691.451
401.802;  -20.175;   -7.296;  699.329
402.395;  -20.992;   -7.585;  683.502
402.988;  -21.838;   -8.015;  696.627
403.581;  -18.165;   -9.577;  646.878
404.174;  -16.459;   -7.588;  686.568
404.767;  -18.960;   -7.906;  638.583
405.360;  -22.222;   -7.875;  621.445
405.953;  -15.767;   -8.127;  759.034
406.545;  -14.695;   -7.198;  725.342
407.138;  -19.693;   -8.916;  618.350
407.731;  -17.530;   -9.767;  613.303
408.324;  -14.329;  -10.659;  660.554
408.917;  -15.365;   -8.068;  681.864
409.509;  -17.320;   -9.837;  740.396
410.102;  -18.591;   -8.146;  643.948
410.695;  -12.316;   -7.969;  665.758
411.287;  -13.976;   -8.579;  599.821
411.880;  -14.610;   -6.968;  585.421
412.472;  -17.556;   -9.487;  613.092
413.065;  -15.146;  -10.338;  629.408
413.657;  -11.992;   -9.169;  576.678
414.250;  -12.300;  -10.119;  646.681
414.842;  -14.093;   -9.938;  676.353
415.434;  -11.507;  -10.409;  570.463
416.027;   -8.047;   -9.591;  652.196
416.619;  -11.251;   -7.379;  713.400
417.211;  -10.149;   -9.159;  599.352
417.804;   -6.663;   -9.191;  628.499
418.396;  -10.535;   -8.159;  607.643
418.988;   -7.712;   -6.960;  659.238
419.580;  -11.522;  -11.389;  568.276
420.172;   -9.590;  -13.460;  536.196
420.764;   -5.165;  -10.701;  672.482
421.356;   -6.303;   -8.961;  636.898
421.948;   -6.942;   -9.770;  677.661
422.540;   -1.197;   -8.832;  680.027
423.132;   -2.513;   -8.153;  600.641
423.724;   -6.444;   -8.481;  561.267
424.316;   -3.622;   -9.261;  621.345
424.908;   -0.052;   -9.643;  591.517
425.500;    0.656;   -8.663;  647.978
426.092;    0.929;   -8.503;  648.268
426.683;    0.148;  -10.522;  684.836
427.275;    3.175;  -11.734;  641.471
427.867;    4.874;  -10.264;  668.948
428.458;    4.599;   -7.644;  732.344
429.050;    3.424;   -7.853;  680.749
429.642;    5.978;   -8.904;  743.124
430.233;    6.429;  -10.795;  569.356
430.825;    7.891;   -7.665;  724.809
431.416;    4.820;   -8.843;  698.241
432.008;    9.245;   -9.885;  651.723
432.599;    8.750;   -9.966;  656.073
433.190;    6.580;   -9.164;  637.670
433.782;    5.506;   -8.584;  590.395
434.373;   13.374;   -8.296;  884.765
434.964;   11.695;   -9.896;  602.920
435.556;    9.199;   -8.255;  634.537
436.147;   12.742;   -8.075;  758.490
436.738;   12.264;   -9.716;  701.099
437.329;   17.705;   -7.318;  721.723
437.920;    9.824;   -6.694;  666.688
438.511;    9.434;   -9.644;  564.526
439.103;   17.415;   -9.427;  623.998
439.694;   19.112;  -10.748;  681.583
440.285;   19.755;   -7.997;  764.432
440.876;   18.674;  -10.046;  845.738
441.466;   17.872;  -13.467;  575.162
442.057;   22.385;   -9.329;  665.814
442.648;   21.559;   -7.707;  746.255
443.239;   19.677;   -9.017;  620.477
443.830;   25.283;  -10.279;  704.958
444.421;   27.080;  -12.630;  655.474
445.011;   22.848;   -8.697;  693.619
445.602;   23.205;   -7.787;  743.126
446.193;   25.024;  -13.329;  488.117
446.783;   29.562;   -9.171;  640.397
447.374;   25.411;   -7.457;  692.759
447.964;   25.813;   -9.277;  713.770
448.555;   35.030;   -9.041;  822.742
449.145;   30.107;   -8.969;  662.853
449.736;   31.213;   -6.809;  803.179
450.326;   31.480;   -7.229;  713.626
450.917;   36.717;  -11.391;  675.324
451.507;   35.618;   -9.501;  600.661
452.097;   36.898;   -8.460;  746.267
452.688;   37.435;  -10.080;  742.160
453.278;   37.369;  -12.861;  566.840
453.868;   41.962;   -8.372;  793.550
454.458;   39.430;   -8.131;  651.141
455.048;   40.201;   -8.520;  711.783
455.639;   41.700;  -13.632;  567.096
456.229;   45.305;  -10.143;  710.694
456.819;   47.394;   -9.163;  751.158
457.409;   47.889;   -8.652;  773.993
457.999;   50.521;   -9.933;  737.505
458.589;   49.830;  -10.363;  686.606
459.179;   49.429;  -10.633;  717.658
459.769;   48.083;  -12.442;  627.099
460.358;   53.620;   -9.844;  797.262
460.948;   52.840;   -9.924;  689.503
461.538;   54.378;  -10.484;  660.677
462.128;   52.269;  -10.703;  664.934
462.717;   58.725;  -11.486;  710.326
463.307;   62.360;  -10.767;  705.846
463.897;   57.862;   -8.814;  656.942
464.486;   58.002;   -8.182;  837.128
465.076;   62.330;   -9.985;  733.776
465.666;   65.743;  -10.447;  652.900
466.255;   62.800;   -7.754;  785.651
466.845;   61.953;  -10.884;  666.749
467.434;   65.871;  -12.525;  725.873
468.023;   66.209;  -11.456;  658.357
468.613;   62.848;   -9.173;  713.946
469.202;   68.216;   -9.306;  646.507
469.791;   72.907;   -8.917;  737.811
470.381;   73.685;   -9.657;  742.813
470.970;   73.837;   -9.947;  711.099
471.559;   74.162;   -9.256;  733.291
472.148;   77.152;  -13.397;  675.737
472.738;   79.551;   -9.928;  765.466
473.327;   78.066;  -10.897;  637.529
473.916;   78.769;   -8.526;  737.446
474.505;   82.742;  -11.078;  751.703
475.094;   86.037;   -9.559;  806.570
475.683;   85.773;   -8.838;  797.699
476.272;   86.545;  -10.198;  730.632
476.861;   89.425;  -11.489;  706.754
477.449;   96.207;  -10.721;  728.487
478.038;   89.635;   -9.818;  692.513
478.627;   91.325;   -9.887;  714.852
479.216;   98.708;  -10.030;  769.441
479.805;  100.708;   -9.401;  783.375
480.393;  100.506;   -5.739; 1008.945
480.982;  100.252;   -7.838;  874.501
481.571;  106.750;   -9.111;  858.333
482.159;  107.002;  -10.601;  705.386
482.748;  106.807;   -8.500;  821.385
483.336;  112.026;   -9.241;  858.209
483.925;  112.769;  -10.440;  774.373
484.513;  119.837;  -11.063;  758.962
485.102;  115.375;   -9.540;  810.965
485.690;  125.286;   -6.742; 1011.050
486.278;  127.519;   -8.442;  979.329
486.867;  126.932;  -10.472;  809.662
487.455;  128.915;   -8.811;  898.229
488.043;  130.776;  -10.721;  748.361
488.631;  140.264;  -10.393; 1005.079
489.220;  144.595;  -10.843;  908.626
489.808;  143.950;  -10.572;  741.415
490.396;  153.285;  -10.482;  914.645
490.984;  161.173;  -11.542;  830.161
491.572;  172.415;   -8.463;  940.315
492.160;  178.846;   -8.491;  919.081
492.748;  193.418;   -9.681;  884.341
493.336;  216.737;  -10.493; 1019.693
493.924;  245.739;   -9.354;  958.077
494.512;  281.672;   -9.132; 1066.638
495.100;  329.570;   -9.001; 1103.280
495.687;  397.509;  -11.924; 1206.373
496.275;  487.407;  -11.193; 1150.796
496.863;  575.196;   -9.241; 1281.171
497.451;  684.411;  -11.341; 1386.805
498.038;  831.676;  -11.364; 1556.729
498.626;  962.536;   -8.104; 1741.407
499.214; 1153.163;   -8.842; 2016.609
499.801; 1442.770;  -10.112; 2220.633
500.389; 1697.039;  -11.953; 2312.494
500.976; 1938.905;  -10.023; 2744.849
501.564; 2263.715;   -8.662; 3148.565
502.151; 2617.702;  -10.531; 3515.999
502.738; 3027.481;  -13.853; 3971.274
503.326; 3607.975;  -10.794; 4403.796
503.913; 4087.637;   -8.663; 5161.749
504.500; 4837.320;  -10.172; 5986.420
505.088; 5879.771;  -13.472; 6381.201
505.675; 6471.186;  -10.924; 6925.547
506.262; 6467.470;   -8.551; 7619.060
506.849; 6906.128;  -10.523; 8733.969
507.436; 7840.932;  -10.834; 9790.121
508.023; 8251.490;   -9.093; 9985.472
508.610; 8488.683;  -10.073;10434.618
509.197; 9599.792;   -9.500;11198.435
509.784;11189.688;  -13.242;12391.194
510.371;12123.838;  -10.964;13603.713
510.958;12559.180;   -9.772;14426.586
511.545;12877.983;   -7.842;15243.775
512.132;12801.282;  -12.184;15945.876
512.719;13901.486;   -9.733;16340.369
513.305;16889.133;   -9.172;18011.766
513.892;18270.529;   -9.581;19754.971
514.479;19436.523;  -10.253;20967.805
515.066;20461.602;   -8.183;22299.793
515.652;21246.359;   -9.253;22908.660
516.239;22916.211;   -9.412;23798.875
516.825;24231.793;  -11.153;25567.275
517.412;24406.195;  -10.263;28154.959
517.998;24585.832;   -8.802;28344.111
518.585;25555.551;  -10.401;27134.219
519.171;25053.611;  -12.744;27268.576
519.758;25309.654;  -11.793;28964.129
520.344;27954.313;   -8.912;30664.494
520.930;31524.057;  -10.901;32550.605
521.516;31762.992;  -12.034;35422.895
522.103;32067.928;  -10.473;38280.004
522.689;33630.078;   -8.311;37835.117
523.275;35787.234;  -10.691;37288.613
523.861;37686.359;  -11.193;37281.395
524.447;35330.219;  -11.484;37846.949
525.033;35408.641;   -7.702;38321.949
525.619;35717.266;  -11.241;38579.285
526.205;35606.457;  -12.152;40622.875
526.791;36501.555;  -11.423;42258.836
527.377;36980.438;   -7.981;42966.902
527.963;37813.199;   -9.450;42018.949
528.549;37715.191;  -11.351;42476.828
529.135;37366.906;  -10.202;41854.852
529.721;39106.219;   -8.672;41237.711
530.306;39388.789;   -9.111;41259.445
530.892;40562.348;  -11.252;41506.047
531.478;43744.594;  -10.432;43559.613
532.063;45500.426;  -10.721;47695.563
532.649;45884.215;   -7.450;50808.324
533.235;47238.582;  -11.811;51787.500
533.820;46136.582;   -9.383;52145.035
534.406;43660.063;   -9.400;51133.488
534.991;42554.711;   -8.861;49996.805
535.576;43859.168;  -10.612;48882.852
536.162;42489.547;   -7.322;46942.285
536.747;41056.574;   -9.360;45711.746
537.333;41810.730;  -10.450;48510.180
537.918;44401.609;  -12.610;50439.891
538.503;44995.293;  -12.132;50863.711
539.088;42185.801;  -10.831;50906.922
539.673;40839.375;  -11.220;52621.965
540.259;45127.699;  -11.481;52368.094
540.844;45843.617;  -11.462;50879.109
541.429;46091.918;   -7.869;52077.777
542.014;44886.715;  -11.859;52716.695
542.599;43572.086;  -11.061;52363.281
543.184;44398.504;  -12.300;53187.137
543.769;45303.797;   -9.369;54697.605
544.354;46525.328;  -12.020;53913.914
544.938;42841.047;  -10.350;49680.164
545.523;39513.750;  -10.841;47386.277
546.108;41928.582;   -8.579;49151.949
546.693;44206.668;   -8.818;51384.637
547.278;45651.238;  -11.331;51853.254
547.862;44738.352;  -10.292;51173.750
548.447;42321.656;   -8.349;51691.395
549.031;41738.211;  -10.838;52456.703
549.616;43694.996;  -11.681;52714.516
550.201;46370.102;  -11.140;52414.598
550.785;45220.551;   -8.649;52355.059
551.370;44742.734;  -11.889;54589.453
551.954;45790.320;  -11.239;58267.348
552.538;46925.461;   -8.850;59062.176
553.123;49087.977;  -10.829;58115.285
553.707;50459.375;   -8.887;56556.285
554.291;47761.324;  -10.430;56201.668
554.876;45430.926;   -9.799;55335.762
555.460;42978.531;  -10.018;54155.703
556.044;41810.707;   -7.307;53721.484
556.628;45214.547;  -12.229;53731.016
557.212;46205.531;   -9.820;54312.531
557.796;43938.422;   -9.109;53797.773
558.380;40723.359;   -9.707;56145.984
558.964;41107.336;  -10.980;57277.930
559.548;44256.629;  -12.010;56459.641
560.132;44724.582;   -7.928;54434.543
560.716;45760.906;  -10.247;54800.617
561.300;45188.074;  -11.250;57606.945
561.884;42562.172;  -10.568;58972.445
562.467;42940.426;   -9.727;57327.570
563.051;42798.902;  -11.847;54962.434
563.635;43240.859;  -10.747;52594.473
564.219;42914.059;  -13.108;50610.410
564.802;40515.301;  -11.417;49551.180
565.386;38538.910;  -10.457;48370.953
565.969;40551.074;   -8.959;48178.871
566.553;40385.375;  -10.328;49957.305
567.136;40692.629;  -10.257;50369.594
567.720;41031.418;  -10.186;49492.004
568.303;40065.449;  -10.027;50616.352
568.887;40092.055;  -10.397;50727.148
569.470;41353.223;   -8.185;51698.379
570.053;40809.535;  -11.596;52122.078
570.637;39501.934;  -11.378;52536.438
571.220;39985.633;   -9.138;51186.098
571.803;39032.598;   -7.675;51032.762
572.386;36496.902;   -8.976;49609.887
572.969;37055.496;  -12.477;48285.926
573.552;37638.117;   -9.767;47624.285
574.135;36760.016;   -8.175;45498.641
574.718;32256.734;  -11.096;41970.434
575.301;31604.992;  -11.966;41447.137
575.884;30953.250;  -12.836;40923.836
576.467;36004.707;   -9.116;45267.723
577.050;38188.113;  -10.536;48175.543
577.633;38305.566;  -11.027;47729.328
578.216;36905.844;   -9.946;47579.793
578.799;35357.008;   -9.645;47820.996
579.381;35433.070;   -9.446;48115.551
579.964;36189.988;  -12.217;47333.766
580.547;36888.879;  -10.586;46668.969
581.129;36358.594;   -8.374;44466.141
581.712;34610.914;  -10.434;44164.922
582.294;33973.434;  -10.896;46477.855
582.877;35039.957;   -8.906;48244.254
583.459;36635.539;   -9.994;47437.895
584.042;36537.570;  -10.084;46943.219
584.624;35091.145;  -13.534;46792.227
585.206;32934.773;  -12.716;46557.250
585.789;33708.223;  -11.614;45793.773
586.371;35247.422;  -10.203;43836.391
586.953;33775.484;  -10.314;42972.492
587.536;31644.168;   -9.776;42487.211
588.118;32333.131;   -9.821;42086.414
588.700;33583.910;  -10.073;43389.930
589.282;34868.359;  -12.395;43646.039
589.864;33073.953;  -11.514;43438.109
590.446;33237.742;  -10.803;43151.926
591.028;34800.934;  -11.043;42781.867
591.610;35258.480;  -13.244;42839.098
592.192;31868.834;  -11.095;42820.402
592.774;29277.854;  -10.823;40724.277
593.356;28315.994;  -11.052;39874.789
593.937;30798.723;  -11.664;39980.648
594.519;33627.691;  -10.454;42069.633
595.101;34677.453;  -10.322;42976.031
595.683;33267.570;  -10.042;44084.441
596.264;31289.670;  -14.334;43478.797
596.846;31457.209;  -10.863;43803.672
597.427;32486.250;   -9.901;42986.934
598.009;33417.215;  -10.911;42832.219
598.591;34720.672;  -10.483;42580.086
599.172;33441.016;   -9.663;43061.805
599.753;30831.631;  -10.631;41691.469
600.335;29662.756;   -9.371;40692.520
600.916;30855.449;  -13.992;39982.422
601.498;32465.174;   -8.352;40318.617
602.079;30699.109;   -8.411;40670.609
602.660;31713.145;  -10.841;41450.898
603.241;33996.188;  -12.963;41137.738
603.823;33185.574;  -11.523;38868.797
604.404;30868.652;  -11.881;38182.785
604.985;29510.641;  -11.721;38078.047
605.566;29490.014;   -9.293;38056.633
606.147;28324.455;  -10.940;37020.418
606.728;27246.496;  -11.840;37883.359
607.309;27796.611;  -11.781;38748.273
607.890;29631.670;  -11.262;38850.230
608.471;30104.762;  -10.111;37457.918
609.051;30231.684;   -7.709;36066.457
609.632;31185.703;  -12.409;35991.074
610.213;30779.879;  -10.811;37402.641
610.794;29656.727;  -11.630;38383.363
611.374;30519.389;   -8.030;40562.387
611.955;31593.740;  -10.809;38533.727
612.536;33260.848;  -10.531;36951.789
613.116;34151.121;  -12.820;37197.891
613.697;32757.205;  -11.419;38411.125
614.277;31804.830;   -9.768;38673.938
614.858;32348.209;  -10.251;37075.863
615.438;29337.537;  -11.981;35092.906
616.019;26628.178;   -8.978;33666.301
616.599;29289.971;  -12.219;34189.023
617.179;32809.277;  -14.170;36952.047
617.760;33979.766;   -9.211;39582.574
618.340;34094.215;   -9.018;38943.977
618.920;32793.313;   -9.249;37594.156
619.500;31656.102;  -12.728;37866.938
620.080;33182.113;  -12.939;37869.043
620.660;32911.637;  -11.586;36868.617
621.241;31506.619;  -11.538;36352.309
621.821;32015.283;  -11.398;35459.520
622.401;32765.805;  -10.179;35207.414
622.980;33984.473;  -11.587;35980.422
623.560;33290.672;  -12.888;37351.328
624.140;30754.117;  -13.149;34388.582
624.720;26360.018;   -9.928;32368.764
625.300;25792.613;  -10.869;32638.629
625.880;30341.566;   -8.617;34599.035
626.459;35358.422;  -12.138;36831.738
627.039;37293.191;  -12.267;38299.098
627.619;36630.934;   -7.476;38289.574
628.198;37134.941;  -11.347;37220.695
628.778;36706.586;  -11.678;37632.563
629.357;34594.156;  -12.438;38003.012
629.937;32473.139;   -9.576;38402.039
630.516;31514.244;  -11.096;37868.801
631.096;30775.391;  -11.828;35760.410
631.675;30387.879;  -11.565;35225.219
632.254;29992.979;  -11.845;35130.289
632.834;30743.381;  -11.545;35794.570
633.413;31498.590;  -10.887;35788.922
633.992;33486.027;  -10.175;34532.863
634.571;32973.605;   -9.704;33590.113
635.151;30773.244;  -10.815;34943.863
635.730;30109.480;  -11.617;35352.523
636.309;28760.350;  -10.836;35366.605
636.888;29265.232;   -9.755;36165.637
637.467;30226.568;  -11.684;37515.902
638.046;31904.369;  -11.987;39288.695
638.625;33154.395;  -10.455;38279.699
639.204;33170.613;  -11.234;37741.598
639.782;30760.479;  -12.023;38364.551
640.361;28390.645;  -11.506;36740.621
640.940;28042.418;  -12.316;34950.082
641.519;29913.762;  -11.616;34137.398
642.097;33603.465;   -9.266;35654.258
642.676;34648.324;  -12.936;35637.957
643.255;33387.234;   -9.966;36567.074
643.833;32610.139;   -8.916;37809.434
644.412;33603.441;  -10.936;37337.293
644.990;36302.434;  -12.176;37018.531
645.569;37037.883;  -12.246;36518.469
646.147;36277.598;  -12.107;36186.430
646.726;35105.695;  -12.937;36267.688
647.304;36580.289;  -12.547;36647.625
647.882;37586.789;  -12.597;39286.742
648.461;36135.328;   -9.427;39157.703
649.039;33840.582;   -8.937;35412.883
649.617;31441.889;  -11.067;34744.918
650.195;32122.744;  -10.657;35403.098
650.773;32263.004;  -10.097;35053.797
651.352;29880.209;  -11.887;33756.816
651.930;25391.461;  -13.557;31868.773
652.508;22098.170;  -11.767;33121.551
653.086;23424.020;  -10.777;33564.793
653.663;27458.797;  -12.067;34054.668
654.241;30309.939;  -14.918;35693.309
654.819;31597.932;  -11.788;36422.906
655.397;30870.189;  -11.268;38213.484
655.975;32070.346;  -11.738;39507.625
656.553;31434.697;  -11.018;39498.223
657.130;30244.592;  -12.848;40395.480
657.708;29612.348;  -10.098;39242.020
658.286;29664.162;  -11.678;38920.020
658.863;32058.969;  -11.498;40202.898
659.441;35283.723;  -11.008;39677.938
660.018;36422.047;  -11.048;40413.355
660.596;36235.887;  -12.058;39931.414
661.173;35176.613;  -14.158;39604.531
661.750;34631.152;  -12.298;39700.070
662.328;33437.727;  -10.699;39292.809
662.905;31318.621;  -12.119;38235.648
663.482;26588.486;  -11.829;36212.305
664.060;25565.756;  -11.009;35944.945
664.637;28166.002;  -10.369;35170.785
665.214;28696.510;  -10.459;34197.523
665.791;27542.607;  -12.599;34549.520
666.368;27455.898;  -12.919;35118.578
666.945;29402.414;  -10.699;36019.418
667.522;30734.330;  -11.359;36048.438
668.099;31035.379;  -13.529;36243.914
668.676;31379.971;  -10.229;35958.875
669.253;31625.846;   -9.279;37384.730
669.830;30326.037;  -11.370;36779.629
670.407;29727.748;  -10.950;35231.289
670.984;30611.939;  -12.850;35544.270
671.560;30087.359;   -8.440;35466.867
672.137;28958.387;  -13.520;34280.863
672.714;28797.744;  -13.620;34632.863
673.290;30008.074;  -10.450;35135.422
673.867;29660.176;  -10.960;36114.480
674.443;28334.842;  -13.300;36152.859
675.020;28854.557;  -12.370;35327.238
675.596;29577.918;  -11.250;35795.176
676.173;30002.508;  -11.080;35430.355
676.749;30048.162;  -13.220;33549.516
677.326;32305.906;  -13.000;32210.012
677.902;34299.738;  -12.701;32068.871
678.478;34967.621;  -12.801;32583.891
679.054;34623.867;   -8.601;32088.928
679.631;34831.996;  -12.631;30978.848
680.207;33907.059;   -9.451;33160.887
680.783;32405.877;  -11.701;35570.363
681.359;31953.650;  -12.701;36125.184
681.935;31691.795;  -13.271;35240.922
682.511;30955.746;  -10.791;34429.961
683.087;31253.398;  -10.791;34463.680
683.663;31567.107;   -8.121;34648.898
684.239;33141.434;  -13.261;34546.457
684.815;32881.223;  -10.581;35586.375
685.390;29803.197;   -9.961;35821.895
685.966;28733.186;  -11.182;35085.871
686.542;28242.764;  -13.512;34198.230
687.118;28039.441;  -11.472;32847.707
687.693;27908.711;  -10.152;32794.027
688.269;28651.207;  -14.442;33072.367
688.844;30434.318;  -11.852;33141.664
689.420;29058.094;  -13.942;33965.742
689.995;27871.246;   -9.702;34655.523
690.571;27643.943;  -11.312;33576.742
691.146;26916.502;  -14.332;32657.219
691.722;27516.232;  -11.192;32526.979
692.297;30295.217;  -10.962;33014.617
692.872;30111.596;  -11.082;34012.254
693.448;28969.932;  -14.732;34237.434
694.023;28573.641;  -12.363;34142.672
694.598;28674.984;  -12.393;34132.031
695.173;27660.119;  -11.023;34205.250
695.748;26913.568;  -12.743;32882.488
696.323;28124.002;  -11.103;32864.906
696.898;28877.479;   -8.123;33170.004
697.473;28470.637;  -12.603;32432.984
698.048;28872.982;  -12.553;31649.303
698.623;30846.520;  -12.573;30778.141
699.198;34486.129;  -12.743;31140.119
699.773;32422.613;  -12.843;31764.299
700.348;30844.305;  -16.683;31780.816
700.922;31092.930;  -11.403;32046.375
701.497;31466.170;  -11.253;32603.574
702.072;31782.047;  -10.044;34799.871
702.646;31848.895;  -13.054;35793.172
703.221;30692.754;  -11.414;35201.590
703.795;30881.461;  -10.644;34764.527
704.370;32396.441;  -13.484;34307.367
704.944;32296.578;  -12.144;33509.887
705.519;31321.482;  -12.024;31388.584
706.093;30089.867;  -11.234;31340.104
706.668;28200.021;   -9.874;32630.281
707.242;27327.254;  -12.404;32728.779
707.816;27662.619;  -10.644;32947.238
708.390;27028.666;  -11.174;33277.855
708.965;26785.309;  -10.324;33834.336
709.539;26817.850;  -12.014;33709.273
710.113;27209.252;  -12.295;33044.313
710.687;28309.908;  -10.965;31953.992
711.261;29163.576;  -13.685;30505.949
711.835;28678.611;  -15.335;30262.369
712.409;28061.469;  -13.785;31254.447
712.983;28284.404;  -10.525;32754.986
713.557;29589.451;  -13.175;34018.824
714.131;30761.686;  -13.245;34579.625
714.704;32810.246;  -13.175;33890.262
715.278;35259.828;  -11.545;33531.102
715.852;34800.734;  -10.975;33601.660
716.425;32866.625;  -10.075;33515.117
716.999;31919.625;  -12.185;33185.555
717.573;32274.498;   -9.685;33905.996
718.146;34441.797;  -10.516;35199.293
718.720;31921.436;  -12.106;35060.551
719.293;30173.848;  -12.386;34973.230
719.867;33608.164;  -12.456;36394.449
720.440;34299.039;  -10.686;36663.008
721.013;34276.730;  -12.596;35102.426
721.587;33951.121;  -13.956;33985.266
722.160;33548.711;   -9.806;33524.965
722.733;33650.137;  -11.676;32987.043
723.306;32937.633;  -14.276;33066.301
723.880;32676.250;  -12.126;33399.500
724.453;34252.141;  -10.156;33468.297
725.026;32946.824;  -12.956;33816.637
725.599;30493.861;  -11.676;32797.996
726.172;28749.387;  -12.337;33187.434
726.745;29066.859;  -11.277;35136.613
727.318;29117.418;  -11.927;35751.730
727.891;28022.484;  -13.607;35890.430
728.463;27975.387;  -11.327;34822.090
729.036;26858.248;  -11.917;32895.086
729.609;26540.051;  -12.697;31823.225
730.182;27355.328;  -11.787;31445.283
730.754;28082.324;  -12.957;32373.223
731.327;29042.305;  -11.017;33676.820
731.900;28012.064;  -12.797;33417.000
732.472;26181.250;  -10.677;31978.498
733.045;25342.092;  -12.797;30368.777
733.617;26249.732;  -13.908;30574.215
734.190;26194.975;  -12.258;31280.975
734.762;26583.289;  -13.438;31674.412
735.334;27204.656;  -11.758;31247.291
735.907;27137.746;  -11.158;29876.211
736.479;28820.779;  -11.258;29808.488
737.051;31812.305;  -10.918;30233.547
737.623;33168.367;  -11.038;31469.086
738.195;33144.402;  -12.188;31784.225
738.768;29362.588;  -11.378;32120.523
739.340;27666.979;  -12.598;32094.342
739.912;29724.188;  -11.568;31312.680
740.484;31061.637;   -9.348;31946.238
741.056;30198.961;  -12.628;32984.059
741.628;29444.055;  -13.349;33897.715
742.199;29846.287;  -11.309;33213.016
742.771;28842.252;  -12.699;31369.113
743.343;29219.965;  -11.919;31865.473
743.915;29251.268;  -11.679;32388.631
744.487;28296.162;  -12.249;31079.568
745.058;26899.963;  -11.119;30570.107
745.630;25716.973;   -9.439;29970.127
746.201;26562.264;  -11.949;29186.766
746.773;27582.158;  -12.639;28805.723
747.344;27181.361;  -11.039;29591.223
747.916;26072.693;  -12.549;31412.201
748.487;24979.197;  -12.659;32194.898
749.059;23635.760;  -13.059;32533.719
749.630;25030.617;  -12.080;32158.518
750.201;25649.424;  -13.100;30855.395
750.773;24996.268;  -15.310;28622.555
751.344;23954.264;  -12.240;28405.732
751.915;22844.385;  -11.960;28461.551
752.486;21806.846;  -13.200;27842.850
753.057;21482.174;  -15.230;27845.008
753.628;22096.486;  -13.130;27728.107
754.199;22640.160;  -12.720;27381.086
754.770;22266.467;  -10.680;25882.203
755.341;22053.609;  -11.010;25886.184
755.912;21640.797;  -12.990;26050.861
756.483;20366.881;  -11.110;26798.779
757.054;19861.066;  -12.190;27048.238
757.625;20481.031;  -13.981;26294.838
758.195;20144.445;  -11.041;26142.076
758.766;20652.951;  -11.861;26392.234
759.337;21428.406;  -11.461;26334.594
759.907;22535.623;  -15.001;27579.652
760.478;22396.338;   -9.681;28352.770
761.048;21594.873;  -12.421;27325.088
761.619;21214.695;  -11.761;26460.428
762.189;19785.600;  -12.391;26029.826
762.760;18567.736;  -10.201;26430.145
763.330;18485.828;  -10.811;26670.902
763.900;20811.148;  -10.261;26603.021
764.471;22118.119;  -13.061;25542.740
765.041;20395.406;  -11.051;24358.459
765.611;19681.949;  -11.032;23991.297
766.181;19247.598;  -10.532;24470.236
766.751;19114.592;  -13.502;24845.975
767.321;19118.803;  -11.392;24533.633
767.891;19128.457;  -11.522;24916.492
768.461;19407.660;  -13.672;24776.771
769.031;19097.957;  -14.652;24757.988
769.601;18685.924;  -10.182;24181.088
770.171;17768.152;  -11.752;23670.387
770.741;15835.131;  -12.272;22960.045
771.311;14998.198;  -13.112;22917.523
771.880;15226.659;  -14.122;23562.941
772.450;16073.830;  -11.782;24216.500
773.020;18350.357;  -12.642;24140.398
773.589;18761.086;  -13.043;24414.857
774.159;16678.402;  -11.783;23858.717
774.729;15168.034;  -13.473;22942.135
775.298;15438.230;  -14.523;22324.033
775.867;16162.525;  -12.013;21140.313
776.437;15799.208;  -12.113;20838.092
777.006;14859.044;  -13.543;20599.510
777.576;13846.878;  -12.523;20508.809
778.145;13056.717;  -12.173;20732.947
778.714;13494.126;  -12.153;21062.465
779.283;13694.225;  -11.833;20949.664
779.853;14481.181;  -13.483;20508.623
780.422;15446.025;  -12.933;20649.082
780.991;15153.684;  -13.173;21527.520
781.560;13407.649;  -10.224;22632.658
782.129;12517.441;  -12.684;23048.277
782.698;13515.359;  -11.284;23438.555
783.267;14634.014;  -11.684;23267.734
783.836;14140.994;  -10.974;22415.133
784.404;12832.024;  -13.534;20443.152
784.973;12567.745;  -16.734;19699.150
785.542;12556.313;  -12.594;19763.828
786.111;12159.678;  -11.644;20341.408
786.679;12159.757;  -11.384;20207.967
787.248;12679.788;  -12.014;19516.465
787.817;11719.170;  -12.804;18900.363
788.385;10650.442;  -11.994;17879.121
788.954;10929.891;  -12.564;17658.301
789.522;12308.307;  -12.225;17788.879
790.090;12670.627;  -13.775;18118.277
790.659;11902.612;  -12.485;18338.736
791.227;11196.401;  -12.295;18508.615
791.795;11113.750;  -13.415;17898.254
792.364;10615.515;  -12.995;17295.133
792.932;10300.054;   -8.365;16822.051
793.500;10450.191;  -11.925;17040.148
794.068;10807.298;  -13.245;17179.787
794.636;11035.684;  -13.815;16664.246
795.204;10371.952;  -13.375;16524.545
795.772; 9994.853;  -12.125;17274.564
796.340;10199.848;  -13.855;17891.002
796.908;10559.039;  -13.456;17648.561
797.476;10198.099;  -13.116;17064.080
798.044; 9407.023;  -13.226;16672.777
798.612; 9677.941;  -11.236;17023.996
799.180;10727.153;  -10.476;16561.615
799.747;10891.513;  -11.746;15962.773
800.315; 9969.598;  -12.366;15296.992
800.883; 8988.344;  -14.616;14801.771
801.450; 8570.538;  -11.996;14534.430
802.018; 9249.542;  -11.206;14173.248
802.585; 9136.589;  -12.466;14029.547
803.153; 8447.781;  -12.846;13836.846
803.720; 8233.164;  -12.136;13567.324
804.287; 8010.641;  -10.966;13360.622
804.855; 7945.337;   -9.797;13681.981
805.422; 7851.441;  -13.037;13536.560
805.989; 7674.133;  -12.697;13355.958
806.556; 7773.775;  -11.737;13747.896
807.124; 8111.457;  -11.997;13987.376
807.691; 7764.791;  -13.997;14038.674
808.258; 7450.481;  -10.927;14120.152
808.825; 7816.548;  -13.727;13860.111
809.392; 8282.057;  -11.847;13268.790
809.959; 7893.024;  -14.217;12680.389
810.526; 7086.614;   -8.277;12427.308
811.093; 6699.752;   -9.647;12030.105
811.659; 6621.907;  -10.987;11653.664
812.226; 6411.133;  -13.447;11637.183
812.793; 6582.155;  -14.418;11611.521
813.360; 6991.861;  -13.908;11885.181
813.926; 7114.416;  -12.918;12770.539
814.493; 6909.214;  -14.888;12677.638
815.060; 6937.389;  -12.758;11974.336
815.626; 7272.156;  -13.478;11594.715
816.193; 7435.055;  -13.898;11579.474
816.759; 7278.638;  -13.588;11666.972
817.325; 7270.570;  -12.018;11325.530
817.892; 7041.926;  -14.068;11105.369
818.458; 6325.388;  -13.458;10843.928
819.024; 6010.422;  -11.968;10714.406
819.591; 5739.819;  -11.028;10469.165
820.157; 5479.965;  -12.088;10235.523
820.723; 5465.810;  -12.599;10847.563
821.289; 5641.940;  -10.419;11040.980
821.855; 6212.538;  -10.939;10357.100
822.421; 6839.857;  -12.539; 9978.918
822.987; 6882.747;  -13.259; 9754.177
823.553; 6346.349;  -15.369;10065.755
824.119; 6112.295;  -10.779;10036.294
824.685; 5807.125;   -9.999;10029.192
825.251; 5467.376;  -11.819;10199.230
825.816; 5218.066;  -13.369; 9820.189
826.382; 5262.979;  -12.679; 9297.248
826.948; 5586.740;  -11.199; 9381.347
827.513; 5639.414;  -11.179; 9450.726
828.079; 5548.431;  -13.489; 9472.444
828.645; 5731.288;  -12.500; 9292.643
829.210; 6080.117;  -15.120; 9065.341
829.776; 6112.104;  -12.590; 9132.620
830.341; 5979.460;  -11.540; 9092.878
830.906; 5883.027;  -12.400; 9078.557
831.472; 5759.304;  -12.720; 8534.535
832.037; 5406.200;  -11.490; 8677.874
832.602; 4961.125;  -14.380; 8628.692
833.167; 5045.642;  -12.780; 8879.031
833.733; 5256.142;  -11.100; 9189.790
834.298; 5474.971;  -12.080; 9052.608
834.863; 5637.567;  -13.910; 8895.087
835.428; 5491.855;  -13.470; 8824.266
835.993; 5704.909;  -11.760; 8845.385
836.558; 6064.158;  -12.731; 8888.563
837.123; 6248.233;  -12.431; 8966.582
837.688; 6057.396;  -11.241; 8617.860
838.253; 5733.106;  -13.681; 8590.699
838.817; 5327.354;  -12.531; 8443.797
839.382; 5255.907;  -12.671; 8799.356
839.947; 5267.233;  -11.541; 8810.595
840.511; 5074.908;  -12.021; 8796.394
841.076; 5036.635;  -13.071; 8347.231
841.641; 5066.244;  -11.411; 8224.330
842.205; 4833.585;  -13.671; 8223.349
842.770; 4638.247;  -11.291; 8622.107
843.334; 4719.332;  -12.951; 8410.386
843.898; 4822.138;  -11.221; 8337.465
844.463; 4807.506;  -11.322; 8506.283
845.027; 4681.309;  -11.412; 8280.962
845.591; 4426.638;  -11.512; 8231.141
846.156; 4555.269;  -14.042; 7969.179
846.720; 4850.547;  -12.152; 7768.278
847.284; 4820.287;  -10.922; 7630.957
847.848; 4485.696;  -10.962; 7472.395
848.412; 4049.627;  -14.612; 7437.394
848.976; 3915.327;  -11.492; 7674.592
849.540; 3928.734;   -9.172; 7836.011
850.104; 4125.076;  -11.232; 7913.669
850.668; 4583.866;  -15.182; 7694.508
851.232; 4443.829;  -15.332; 7756.887
851.796; 3987.630;  -13.703; 7926.545
852.359; 3956.008;  -11.113; 7827.844
852.923; 4071.728;  -11.843; 7641.163
853.487; 4047.522;  -11.173; 7342.501
854.050; 3901.770;  -13.443; 7042.820
854.614; 3644.061;  -13.823; 7151.338
855.177; 3469.304;  -16.393; 7105.077
855.741; 3566.923;  -11.693; 6989.675
856.304; 3695.245;  -10.843; 6596.634
856.868; 3679.626;  -13.783; 6356.272
857.431; 3493.822;  -11.953; 6468.571
857.995; 3327.458;  -13.683; 6373.210
858.558; 3329.440;  -11.433; 6324.448
859.121; 3317.949;  -12.493; 6408.327
859.684; 3233.455;  -12.384; 6347.886
860.247; 3134.342;  -14.774; 6321.264
860.810; 2998.233;  -13.154; 6301.903
861.374; 2896.955;  -11.264; 6607.881
861.937; 2859.364;  -15.424; 6408.200
862.500; 2843.694;  -12.854; 6572.639
863.062; 2838.801;  -12.344; 6387.297
863.625; 2834.527;  -13.314; 6190.836
864.188; 2701.351;  -14.724; 5807.254
864.751; 2582.987;  -13.464; 5682.413
865.314; 2538.489;  -11.684; 5547.492
865.876; 2586.153;  -11.104; 5500.150
866.439; 2746.859;  -12.344; 5415.909
867.002; 2777.751;  -13.494; 5501.567
867.564; 2791.596;  -10.935; 5413.946
868.127; 2688.862;  -12.665; 5160.325
868.689; 2504.149;  -14.515; 5133.183
869.252; 2488.688;  -13.425; 5252.382
869.814; 2483.968;  -11.595; 5297.141
870.377; 2460.100;  -12.175; 5390.919
870.939; 2324.784;  -10.265; 5599.898
871.501; 2224.200;  -12.375; 5248.336
872.063; 2217.874;  -14.355; 4854.235
872.626; 2286.568;  -14.435; 4817.074
873.188; 2219.948;  -12.415; 4987.732
873.750; 2165.768;  -14.555; 4868.651
874.312; 2165.356;  -11.185; 4779.330
874.874; 2114.409;  -12.715; 4866.348
875.436; 1995.781;  -13.196; 4718.887
875.998; 1929.643;  -11.426; 4660.005
876.560; 1869.343;   -9.786; 4462.964
877.122; 1866.643;  -12.796; 4145.042
877.683; 1828.928;  -13.226; 4056.481
878.245; 1750.201;  -12.036; 3950.740
878.807; 1660.319;  -11.536; 4058.958
879.369; 1594.057;  -10.806; 3954.677
879.930; 1647.855;  -13.946; 3941.495
880.492; 1793.412;  -11.876; 4067.014
881.053; 1787.640;  -13.216; 3859.633
881.615; 1690.700;  -12.226; 3776.071
882.176; 1649.349;  -12.946; 3734.750
882.738; 1639.972;  -10.736; 3678.489
883.299; 1563.078;  -12.057; 3405.407
883.860; 1431.895;  -12.677; 3351.106
884.422; 1338.621;  -14.097; 3394.044
884.983; 1269.008;  -13.667; 3166.443
885.544; 1206.057;  -10.717; 3189.802
886.105; 1160.027;  -14.357; 3160.360
886.666; 1124.566;  -14.287; 3093.059
887.227; 1090.345;  -14.297; 2941.957
887.788; 1063.182;  -13.137; 2974.836
888.349; 1002.107;  -14.637; 2721.214
888.910;  939.488;  -12.247; 2696.493
889.471;  938.907;  -10.577; 2560.172
890.032;  935.808;  -12.937; 2558.190
890.593;  911.858;  -12.487; 2567.669
891.153;  888.283;  -11.898; 2460.307
891.714;  845.271;  -14.278; 2372.046
892.275;  817.940;  -13.308; 2309.505
892.835;  780.214;  -12.058; 2382.543
893.396;  697.190;  -15.268; 2295.502
893.956;  636.565;  -13.278; 2162.420
894.517;  611.685;  -11.968; 2125.439
895.077;  616.161;  -12.798; 2086.978
895.638;  603.456;  -11.908; 2126.316
896.198;  590.204;  -13.288; 1838.275
896.758;  564.756;  -12.198; 1892.813
897.319;  534.412;  -13.048; 1792.232
897.879;  506.297;  -13.718; 1762.751
898.439;  469.091;  -14.138; 1661.149
898.999;  428.591;  -13.659; 1781.468
899.559;  402.590;  -14.699; 1703.347
900.119;  381.812;  -14.339; 1537.525
900.679;  353.490;  -11.789; 1638.384
901.239;  323.311;  -13.629; 1527.902
901.799;  303.488;  -13.679; 1456.441
902.359;  294.277;  -13.679; 1357.140
902.919;  286.188;  -14.159; 1331.118
903.479;  273.202;  -13.419; 1317.257
904.038;  255.452;  -14.899; 1262.595
904.598;  240.884;  -14.339; 1152.034
905.158;  231.487;  -13.959; 1240.893
905.717;  225.124;  -12.749; 1233.691
906.277;  222.279;  -11.889; 1217.330
906.836;  216.444;  -12.870; 1222.408
907.396;  209.558;  -11.790; 1193.047
907.955;  201.072;  -13.750; 1182.526
908.515;  191.117;  -14.760; 1099.364
909.074;  185.274;  -12.540; 1092.863
909.633;  180.035;  -12.120; 1069.121
910.192;  174.881;  -12.550; 1196.460
910.752;  169.087;  -12.760; 1029.960
911.311;  165.138;  -14.750; 1009.780
911.870;  162.575;  -13.860;  971.460
912.429;  162.751;  -13.480; 1094.080
912.988;  161.411;  -12.370; 1081.060
913.547;  158.127;  -14.670;  940.380
914.106;  156.396;  -12.800;  999.420
914.665;  155.879;  -11.370;  984.020
915.224;  154.457;  -11.430; 1035.760
915.782;  151.273;  -12.260;  922.560
916.341;  150.339;  -12.540; 1049.840
916.900;  145.772;  -12.540;  925.260
917.458;  143.009;  -13.480;  884.220
918.017;  143.650;  -12.470;  942.600
918.576;  143.231;  -13.450;  904.440
919.134;  141.421;  -12.890;  837.980
919.693;  141.360;  -15.480;  893.060
920.251;  140.228;  -14.420;  876.500
920.809;  139.525;  -12.170;  839.580
921.368;  138.738;  -13.650;  885.360
921.926;  138.997;  -12.750;  842.940
922.484;  138.650;  -14.150;  903.360
923.042;  138.680;  -15.100;  880.340
923.601;  138.248;  -10.990;  998.680
924.159;  137.566;  -12.470;  935.560
924.717;  137.408;  -15.640;  841.080
925.275;  139.393;  -12.380;  903.240
925.833;  138.150;  -12.710;  779.320
926.391;  140.491;  -11.200;  938.380
926.949;  140.474;  -16.000;  857.680
927.506;  141.672;  -12.260;  903.500
928.064;  142.449;  -11.300;  877.580
928.622;  142.972;  -13.750;  880.100
929.180;  142.655;  -15.290;  814.180
929.737;  144.604;  -14.500;  808.540
930.295;  147.537;  -10.630;  928.480
930.853;  149.157;  -14.590;  849.100
931.410;  149.530;  -14.450;  821.120
931.968;  152.048;  -14.390;  940.660
932.525;  154.319;  -13.050;  909.380
933.082;  156.670;  -15.620;  811.440
933.640;  165.006;  -15.650;  925.900
934.197;  170.013;  -13.610;  886.360
934.754;  174.991;  -13.320;  897.780
935.312;  173.930;  -13.370;  863.340
935.869;  176.047;  -12.780; 1012.980
936.426;  177.008;  -14.480;  872.800
936.983;  181.688;  -13.180;  889.020
937.540;  184.231;  -15.710;  838.280
938.097;  184.284;  -14.980;  940.120
938.654;  176.941;  -13.060;  898.860
939.211;  164.453;  -12.760;  952.480
939.768;  152.168;  -16.230;  915.420
940.324;  144.276;  -10.940;  904.200
940.881;  138.806;  -12.570;  878.500
941.438;  140.275;  -13.650; 1021.200
941.995;  146.645;  -13.300;  992.560
942.551;  155.259;  -15.800;  875.620
943.108;  162.056;  -14.180;  937.920
943.664;  159.932;  -13.890;  869.340
944.221;  161.137;  -12.640; 1088.140
944.777;  159.294;  -14.700;  869.680
945.334;  160.862;  -13.010;  884.840
945.890;  162.352;  -13.480;  946.480
946.446;  161.902;  -14.920;  947.020
947.003;  163.173;  -13.860;  964.940
947.559;  165.682;  -12.000; 1063.040
948.115;  166.474;  -10.510; 1026.540
948.671;  163.693;  -12.760;  967.300
949.227;  160.004;  -15.390;  859.560
949.783;  157.228;  -15.570;  858.900
950.339;  159.854;  -12.800;  991.000
950.895;  159.225;  -13.780; 1023.840
951.451;  156.090;  -13.810;  925.280
952.007;  156.920;  -12.390;  998.540
952.563;  154.979;  -11.980;  937.780
953.118;  151.243;  -14.070;  904.940
953.674;  148.935;  -14.140;  935.780
954.230;  148.879;  -12.680;  949.640
954.785;  149.167;  -12.770;  936.640
955.341;  150.145;  -11.450;  998.160
955.897;  146.567;  -15.350;  834.660
956.452;  146.100;  -14.200;  953.840
957.008;  144.212;  -10.820; 1083.640
957.563;  141.690;  -13.200; 1009.540
958.118;  135.951;  -14.460;  877.700
958.674;  134.774;  -13.840;  946.780
959.229;  134.175;  -10.670; 1013.980
959.784;  137.312;  -17.040;  832.400
960.339;  140.408;  -12.970; 1001.280
960.894;  138.934;  -12.700;  963.760
961.449;  136.462;  -13.790;  859.960
962.004;  143.322;  -11.760; 1212.840
962.559;  141.537;  -14.840;  860.140
963.114;  141.033;  -14.530;  742.480
963.669;  143.798;  -12.780;  915.500
964.224;  146.346;  -14.330;  874.340
964.779;  144.250;  -14.380;  828.420
965.334;  138.969;  -12.460; 1017.860
965.888;  132.793;  -13.490;  875.360
966.443;  131.350;  -14.140;  972.380
966.998;  128.108;  -16.240;  819.460
967.552;  125.660;  -12.730;  908.380
968.107;  122.616;  -14.510;  868.300
968.661;  122.999;  -11.850;  922.440
969.216;  121.619;  -14.370;  856.280
969.770;  121.247;  -13.010;  917.200
970.324;  121.259;  -12.460;  923.140
970.879;  121.264;  -11.580;  947.180
971.433;  121.453;  -13.130;  952.720
971.987;  118.821;  -12.360;  895.340
972.541;  118.414;  -14.330;  917.100
973.095;  117.517;  -13.310; 1009.460
973.649;  115.958;  -15.830;  809.480
974.203;  117.908;  -15.830;  829.040
974.757;  121.505;  -13.480;  855.220
975.311;  120.795;  -13.720;  872.600
975.865;  118.104;  -15.780;  881.820
976.419;  113.415;  -14.290;  857.400
976.973;  111.795;  -13.210;  849.620
977.526;  109.589;  -12.300;  949.920
978.080;  106.059;  -14.840;  796.780
978.634;  107.920;  -13.100;  921.320
979.187;  104.321;  -12.300;  905.400
979.741;  101.911;  -12.020; 1018.380
980.294;   96.288;  -14.590;  789.160
980.848;   92.517;  -14.390;  717.220
981.401;   91.825;  -14.280;  816.540
981.955;   92.331;  -11.920;  844.300
982.508;   90.560;  -15.790;  746.340
983.061;   91.441;  -12.070;  915.260
983.615;   88.150;  -13.260;  798.800
984.168;   85.574;  -15.540;  770.080
984.721;   85.394;  -13.230;  880.760
985.274;   84.246;  -11.820;  867.500
985.827;   80.819;  -13.510;  834.220
986.380;   78.464;  -14.840;  721.340
986.933;   79.228;  -13.970;  864.800
987.486;   78.515;  -12.450;  861.920
988.039;   75.878;  -11.170;  863.100
988.591;   74.216;  -13.070;  893.260
989.144;   71.326;  -15.530;  737.260
989.697;   69.631;  -14.300;  758.740
990.250;   69.602;  -13.310;  858.100
990.802;   67.285;  -14.490;  755.860
991.355;   69.598;  -12.980;  974.880
991.907;   67.362;  -13.715;  864.320
992.460;   65.126;  -14.450;  753.760
993.012;   65.204;  -12.590;  749.540
993.565;   64.250;  -15.180;  711.360
994.117;   64.659;  -11.630;  950.780
994.669;   60.243;  -13.760;  701.320
995.221;   60.418;  -12.710;  791.920
995.774;   60.099;  -14.620;  787.580
996.326;   58.304;  -13.150;  740.220
996.878;   58.445;  -12.880;  838.420
997.430;   56.418;  -14.580;  699.860
997.982;   56.775;  -14.030;  750.140
998.534;   55.408;  -12.190;  739.060
999.086;   54.064;  -12.990;  738.220
999.638;   53.304;  -13.180;  661.380
1000.190;   52.932;  -14.970;  699.320
1000.741;   52.840;  -12.200;  742.700
1001.293;   51.737;  -13.400;  686.020
1001.845;   51.803;  -14.490;  676.640
1002.396;   52.794;  -15.280;  743.400
1002.948;   52.781;  -12.380;  737.400
1003.500;   49.823;  -13.260;  723.780
1004.051;   51.456;  -13.730;  907.580
1004.603;   50.377;  -12.300;  791.820
1005.154;   46.124;  -15.330;  608.980
1005.705;   45.180;  -12.800;  723.960
1006.257;   44.811;  -13.900;  707.220
1006.808;   44.645;  -14.430;  685.460
1007.359;   43.714;  -12.010;  763.240
1007.910;   41.768;  -12.690;  646.640
1008.461;   42.003;  -13.610;  732.940
1009.013;   40.643;  -14.990;  588.340
1009.564;   41.679;  -11.860;  793.520
1010.115;   39.053;  -12.640;  597.040
1010.665;   39.129;  -14.570;  602.160
1011.216;   39.466;  -15.190;  667.920
1011.767;   39.287;  -13.470;  697.920
1012.318;   38.524;  -13.760;  736.980
1012.869;   38.352;  -15.950;  679.000
1013.419;   38.711;  -15.880;  603.120
1013.970;   38.483;  -14.540;  666.640
1014.521;   36.216;  -13.220;  620.620
1015.071;   36.862;  -15.020;  670.380
1015.622;   37.012;  -17.510;  635.460
1016.172;   36.344;  -14.130;  596.820
1016.723;   35.578;  -14.220;  614.380
1017.273;   35.495;  -15.370;  604.160
1017.823;   36.246;  -15.290;  650.340
1018.374;   35.408;  -13.420;  611.760
1018.924;   34.909;  -11.740;  716.880
1019.474;   35.922;  -12.250;  718.880
1020.024;   34.737;  -15.850;  657.580
1020.574;   35.108;  -13.280;  726.160
1021.124;   34.403;  -13.560;  673.580
1021.674;   33.079;  -13.790;  559.120
1022.224;   35.328;  -14.610;  708.940
1022.774;   33.678;  -13.100;  668.820
1023.324;   34.613;  -11.470;  753.520
1023.874;   35.660;  -11.990;  875.760
1024.423;   33.071;  -14.550;  613.700
1024.973;   32.622;  -14.440;  610.760
1025.523;   31.920;  -13.250;  620.960
1026.072;   31.219;  -15.200;  606.420
1026.622;   31.634;  -14.590;  675.740
1027.172;   32.993;  -11.080;  715.660
1027.721;   30.293;  -14.010;  601.220
1028.270;   31.760;  -13.690;  663.400
1028.820;   30.976;  -15.380;  638.080
1029.369;   30.877;  -14.980;  612.700
1029.918;   30.642;  -13.100;  649.840
1030.468;   30.026;  -13.680;  564.780
1031.017;   31.190;  -13.770;  634.800
1031.566;   29.300;  -14.100;  608.900
1032.115;   30.359;  -11.770;  694.500
1032.664;   29.081;  -14.940;  596.480
1033.213;   29.603;  -13.370;  735.420
1033.762;   29.392;  -13.660;  635.620
1034.311;   28.224;  -13.650;  677.220
1034.860;   28.971;  -13.820;  691.000
1035.408;   29.654;  -12.860;  722.720
1035.957;   29.472;  -13.060;  719.540
1036.506;   26.435;  -14.510;  530.800
1037.055;   30.295;  -13.470;  844.320
1037.603;   27.200;  -14.800;  664.000
1038.152;   26.620;  -14.190;  534.760
1038.700;   27.084;  -11.810;  585.740
1039.249;   27.371;  -12.850;  681.220
1039.797;   27.616;  -14.610;  633.360
1040.345;   26.978;  -15.220;  705.420
1040.894;   26.125;  -13.480;  625.300
1041.442;   25.700;  -13.310;  632.200
1041.990;   25.886;  -14.510;  559.160
1042.538;   25.092;  -15.700;  536.180
1043.087;   25.265;  -13.910;  570.860
1043.635;   25.936;  -13.620;  670.500
1044.183;   25.397;  -14.230;  586.400
1044.731;   25.153;  -13.730;  576.000
1045.279;   25.093;  -13.970;  674.920
1045.827;   27.643;  -10.750;  892.400
1046.374;   24.317;  -15.230;  515.420
1046.922;   23.956;  -15.390;  590.580
1047.470;   24.774;  -12.320;  691.300
1048.018;   24.736;  -13.230;  647.960
1048.565;   25.350;  -13.390;  708.600
1049.113;   23.219;  -15.030;  557.000
1049.660;   23.644;  -12.540;  629.660
1050.208;   24.491;  -15.040;  675.640
1050.755;   23.395;  -14.680;  606.580
1051.303;   24.025;  -13.610;  686.820
1051.850;   23.164;  -14.340;  635.120
1052.397;   20.918;  -16.330;  473.960
1052.945;   21.988;  -15.710;  617.760
1053.492;   23.936;  -12.320;  741.840
1054.039;   23.100;  -13.730;  720.180
1054.586;   21.305;  -16.140;  557.240
1055.133;   22.795;  -14.020;  693.140
1055.680;   23.172;  -13.430;  646.620
1056.227;   20.975;  -14.570;  542.780
1056.774;   23.410;  -14.400;  794.980
1057.321;   21.193;  -14.230;  523.260
1057.868;   21.820;  -14.220;  651.320
1058.415;   20.978;  -14.060;  651.980
1058.961;   20.695;  -14.640;  678.940
1059.508;   21.527;  -13.970;  643.820
1060.055;   20.603;  -15.100;  581.780
1060.601;   20.708;  -12.180;  624.300
1061.148;   20.649;  -15.010;  616.820
1061.694;   19.972;  -14.750;  592.580
1062.241;   20.399;  -14.130;  596.320
1062.787;   20.000;  -14.770;  663.140
1063.334;   22.407;  -13.130;  808.560
1063.880;   20.183;  -14.420;  668.360
1064.426;   20.841;  -13.130;  706.820
1064.972;   18.691;  -13.960;  601.340
1065.518;   17.866;  -13.680;  566.640
1066.065;   19.780;  -15.720;  624.460
1066.611;   18.685;  -13.970;  598.800
1067.157;   18.941;  -13.920;  641.860
1067.703;   19.388;  -14.760;  668.480
1068.249;   18.702;  -14.490;  605.220
1068.794;   18.787;  -14.740;  626.880
1069.340;   17.369;  -13.220;  578.960
1069.886;   18.243;  -14.930;  590.700
1070.432;   16.994;  -14.700;  541.720
1070.977;   17.128;  -14.470;  601.080
1071.523;   17.283;  -14.330;  573.060
1072.068;   17.475;  -14.960;  582.000
1072.614;   16.803;  -16.220;  527.760
1073.160;   18.398;  -11.280;  687.040
1073.705;   16.335;  -15.990;  572.520
1074.250;   15.903;  -16.550;  559.900
1074.796;   18.023;  -14.600;  655.160
1075.341;   17.659;  -13.440;  664.100
1075.886;   16.816;  -14.450;  594.240
1076.431;   16.913;  -13.160;  649.880
1076.976;   16.868;  -14.710;  639.220
1077.521;   16.035;  -14.000;  583.080
1078.067;   15.447;  -14.470;  579.400
1078.612;   16.024;  -14.530;  661.620
1079.156;   15.805;  -15.660;  601.540
1079.701;   16.616;  -16.120;  693.260
1080.246;   16.455;  -12.960;  696.300
1080.791;   16.190;  -13.700;  625.020
1081.336;   16.545;  -15.540;  659.320
1081.880;   15.859;  -14.640;  649.680
1082.425;   14.391;  -14.220;  573.480
1082.970;   16.979;  -11.890;  717.040
1083.514;   15.222;  -13.820;  597.000
1084.059;   14.877;  -14.280;  586.720
1084.603;   13.297;  -12.890;  565.840
1085.147;   14.869;  -13.590;  645.220
1085.692;   15.348;  -14.050;  716.800
1086.236;   13.360;  -14.990;  503.140
1086.780;   15.959;  -12.640;  751.440
1087.325;   14.758;  -15.550;  654.620
1087.869;   14.901;  -14.980;  610.700
1088.413;   14.818;  -13.440;  705.040
1088.957;   12.633;  -12.170;  543.400
1089.501;   14.825;  -12.730;  766.640
1090.045;   14.914;  -14.650;  726.480
1090.589;   11.912;  -14.500;  569.920
1091.133;   13.434;  -12.320;  673.340
1091.676;   13.049;  -16.130;  591.940
1092.220;   12.829;  -13.930;  600.920
1092.764;   14.575;  -12.820;  706.960
1093.307;   13.481;  -11.700;  673.780
1093.851;   11.758;  -15.600;  556.540
1094.395;   13.315;  -13.920;  683.140
1094.938;   12.822;  -16.090;  632.520
1095.482;   11.723;  -13.820;  559.800
1096.025;   12.486;  -12.720;  710.880
1096.568;   13.684;  -12.100;  779.280
1097.112;    9.843;  -15.450;  508.180
1097.655;   12.387;  -14.310;  603.000
1098.198;   10.625;  -14.740;  600.180
1098.741;   11.158;  -15.550;  612.860
1099.285;   11.776;  -12.600;  657.300
1099.828;    9.225;  -15.050;  439.400
1100.371;   12.071;  -14.800;  608.160
1100.914;   11.707;  -16.480;  682.660
1101.457;   11.796;  -12.990;  679.900
1101.999;   10.060;  -14.110;  584.680
1102.542;   11.295;  -11.450;  641.440
1103.085;   10.905;  -13.350;  658.500
1103.628;   11.479;  -13.200;  762.060
1104.170;    9.707;  -12.310;  588.280
1104.713;   10.781;  -14.320;  646.700
1105.256;   10.382;  -16.110;  557.440
1105.798;    8.995;  -15.910;  499.980
1106.341;   10.742;  -12.200;  728.900
1106.883;    9.653;  -14.910;  521.340
1107.425;   10.189;  -14.960;  668.180
1107.968;   10.383;  -13.440;  612.380
1108.510;   10.510;  -14.010;  684.960
1109.052;    8.836;  -15.430;  612.620
1109.594;   10.027;  -15.290;  554.440
1110.136;   10.381;  -13.360;  643.220
1110.679;    8.375;  -13.820;  633.080
1111.221;    9.343;  -13.690;  604.460
1111.763;    8.252;  -14.890;  559.220
1112.304;    8.321;  -14.550;  547.140
1112.846;    8.845;  -12.760;  666.240
1113.388;   12.713;  -10.780;  942.180
1113.930;    8.935;  -12.690;  694.200
1114.472;    8.098;  -15.730;  606.540
1115.013;    7.091;  -14.620;  551.280
1115.555;    7.231;  -14.950;  587.100
1116.097;    7.274;  -16.460;  579.480
1116.638;    8.228;  -13.730;  684.600
1117.180;    8.207;  -13.810;  667.740
1117.721;    7.768;  -13.280;  568.580
1118.262;    8.373;  -15.080;  677.960
1118.804;    8.173;  -14.040;  637.340
1119.345;    6.876;  -15.430;  578.400
1119.886;    8.335;  -15.240;  704.040
1120.427;    7.373;  -15.820;  589.020
1120.969;    7.051;  -14.550;  597.920
1121.510;    5.684;  -14.030;  563.060
1122.051;    7.895;  -11.990;  723.580
1122.592;    6.749;  -16.490;  655.420
1123.133;    6.004;  -15.580;  547.940
1123.673;    7.435;  -12.850;  706.480
1124.214;    6.422;  -13.630;  612.460
1124.755;    7.710;  -14.830;  639.460
1125.296;    6.715;  -13.110;  627.320
1125.836;    6.732;  -11.320;  691.500
1126.377;    5.747;  -14.330;  599.660
1126.918;    7.132;  -12.800;  614.980
1127.458;    5.824;  -13.580;  622.220
1127.999;    6.476;  -10.330;  656.980
1128.539;    6.949;  -13.390;  694.240
1129.079;    5.450;  -16.420;  632.720
1129.620;    5.150;  -15.700;  558.100
1130.160;    5.163;  -14.790;  539.480
1130.700;    5.688;  -12.910;  640.840
1131.240;    6.250;  -15.610;  643.700
1131.781;    5.418;  -12.920;  619.680
1132.321;    5.320;  -15.300;  599.120
1132.861;    4.089;  -14.760;  564.200
1133.401;    4.597;  -15.470;  593.940
1133.941;    6.110;  -13.710;  626.280
1134.481;    4.198;  -11.820;  597.580
1135.020;    4.364;  -14.810;  609.160
1135.560;    4.960;  -13.660;  674.940
1136.100;    3.901;  -13.940;  501.160
1136.640;    3.714;  -15.410;  510.480
1137.179;    3.414;  -16.920;  537.960
1137.719;    3.944;  -16.430;  605.400
1138.258;    4.547;  -16.300;  587.360
1138.798;    4.613;  -13.710;  663.780
1139.337;    3.264;  -13.840;  482.840
1139.877;    4.237;  -16.140;  642.360
1140.416;    6.717;  -11.410;  878.060
1140.955;    2.652;  -12.820;  535.380
1141.494;    3.976;  -12.310;  669.280
1142.034;    3.374;  -16.280;  583.520
1142.573;    5.242;  -13.090;  646.280
1143.112;    2.192;  -13.770;  553.480
1143.651;    2.969;  -15.830;  536.480
1144.190;    4.248;  -15.010;  691.640
1144.729;    3.887;  -13.650;  607.420
1145.267;    3.097;  -13.670;  584.900
1145.806;    3.852;  -13.630;  637.040
1146.345;    3.045;  -14.160;  635.020
1146.884;    2.813;  -11.180;  622.500
1147.422;    1.988;  -15.890;  533.060
1147.961;    4.499;  -12.760;  708.460
1148.500;    3.116;  -15.220;  669.720
1149.038;    3.768;  -13.720;  632.500
1149.577;    3.043;  -13.250;  698.640
1150.115;    0.701;  -16.790;  452.280
1150.653;    2.431;  -15.810;  607.340
1151.192;    3.072;  -14.730;  552.920
1151.730;    2.502;  -13.660;  652.560
1152.268;    1.834;  -15.120;  589.520
1152.806;    2.146;  -15.580;  571.180
1153.344;    0.889;  -16.210;  577.640
1153.882;    2.025;  -12.810;  600.060
1154.421;    0.296;  -14.150;  470.620
1154.958;    1.186;  -15.360;  595.240
1155.496;    3.069;  -14.710;  645.280
1156.034;    2.290;  -13.640;  721.880
1156.572;    2.429;  -13.740;  667.060
1157.110;    0.386;  -16.960;  473.940
1157.647;    2.418;  -11.940;  676.960
1158.185;    0.618;  -14.090;  564.320
1158.723;    0.484;  -13.610;  509.200
1159.260;    1.314;  -14.760;  701.700
1159.798;    2.038;  -13.700;  658.160
1160.335;    0.883;  -13.820;  631.820

