
Integration time [ms]:   3.276
Averaging Nr. [scans]: 1000
Smoothing Nr. [pixels]: 0
Data measured with spectrometer [name]: 7414430SP
Wave   ;Sample   ;Dark     ;Reference
[nm]   ;[counts] ;[counts] ;[counts] 

288.544;  149.576;    7.793;  793.890
289.143;  154.195;    7.462;  681.602
289.742;  154.108;    8.602;  828.814
290.341;  138.816;    1.321;  789.841
290.940;  128.611;   -0.709;  730.702
291.538;  129.960;    0.881;  881.108
292.137;  129.320;    0.122;  792.581
292.736;  133.959;   -1.929;  975.101
293.335;  130.342;   -8.229;  735.086
293.934;  131.127;   -5.279;  781.677
294.532;  129.187;   -1.369; 1031.958
295.131;  115.339;   -7.641;  834.394
295.730;  115.922;   -8.420;  809.588
296.328;  114.232;   -5.611;  783.442
296.927;  114.718;   -5.781;  779.652
297.525;  116.521;   -6.361;  781.236
298.124;  106.422;  -11.382;  654.009
298.722;  109.763;   -7.641;  761.933
299.321;  107.998;   -6.811;  708.597
299.919;  106.144;   -6.991;  751.918
300.518;  103.462;  -10.362;  689.338
301.116;  104.635;   -9.581;  691.381
301.715;  104.976;   -4.891;  730.222
302.313;  103.531;   -8.801;  704.943
302.911;   98.515;   -8.522;  733.830
303.509;  104.974;   -6.171;  925.627
304.108;  102.877;   -7.311;  760.383
304.706;  101.604;   -8.321;  801.664
305.304;   95.578;  -10.222;  796.707
305.902;  101.668;   -6.021;  784.484
306.500;   96.932;   -4.971;  728.200
307.098;   94.993;   -7.061;  746.560
307.696;   93.135;   -8.801;  780.432
308.294;   94.089;   -6.411;  731.359
308.892;   95.951;   -2.901;  759.769
309.490;   91.898;   -5.041;  712.161
310.088;   91.263;   -5.002;  788.444
310.686;   94.327;   -2.041;  821.749
311.284;   90.557;   -2.351;  766.040
311.882;   87.734;   -4.422;  731.225
312.480;   85.332;   -4.192;  697.167
313.078;   87.128;   -1.172;  808.331
313.675;   86.952;   -2.601;  691.600
314.273;   81.698;   -1.312;  797.837
314.871;   81.079;   -3.942;  589.829
315.468;   79.119;   -2.802;  652.090
316.066;   82.239;   -0.701;  694.427
316.664;   75.336;   -4.362;  656.351
317.261;   80.315;   -2.872;  910.128
317.859;   74.573;   -2.022;  768.735
318.456;   74.658;   -0.531;  830.096
319.054;   71.284;   -3.912;  787.828
319.651;   69.480;   -4.752;  759.928
320.249;   69.424;   -2.602;  810.188
320.846;   67.049;   -0.821;  714.286
321.443;   64.537;   -4.642;  832.135
322.041;   60.446;   -5.002;  812.315
322.638;   59.306;   -3.982;  701.456
323.235;   60.372;   -3.411;  665.683
323.833;   57.681;   -7.361;  740.354
324.430;   52.496;   -8.611;  615.900
325.027;   53.859;   -4.061;  876.855
325.624;   53.757;   -4.031;  644.532
326.221;   50.071;   -7.481;  689.717
326.818;   50.212;   -5.281;  818.332
327.415;   53.765;   -7.460;  748.828
328.012;   52.641;   -5.510;  690.585
328.609;   51.057;   -7.880;  731.389
329.206;   49.734;   -8.331;  778.621
329.803;   49.638;   -5.121;  737.841
330.400;   52.146;   -4.510;  704.260
330.997;   53.962;   -6.441;  817.147
331.594;   52.601;   -8.831;  788.185
332.191;   58.018;   -7.621;  728.722
332.787;   60.384;   -4.591;  844.463
333.384;   58.568;   -7.412;  763.093
333.981;   57.502;   -8.293;  815.687
334.578;   60.330;   -7.052;  708.378
335.174;   63.617;   -3.102;  731.469
335.771;   62.708;   -5.943;  836.456
336.367;   59.894;   -7.393;  710.631
336.964;   63.564;   -4.063;  793.266
337.561;   61.459;   -3.813;  731.112
338.157;   56.988;   -4.654;  911.916
338.754;   54.527;   -7.934;  796.589
339.350;   52.520;   -4.414;  722.493
339.946;   54.772;   -4.664;  773.135
340.543;   46.061;   -6.375;  846.136
341.139;   41.006;   -9.815;  720.836
341.735;   39.859;   -4.526;  772.593
342.332;   37.467;   -4.895;  691.472
342.928;   37.502;   -4.295;  795.394
343.524;   32.598;   -5.476;  761.684
344.120;   28.959;   -5.856;  738.562
344.716;   31.564;   -2.155;  723.717
345.313;   29.369;   -6.275;  795.342
345.909;   24.242;   -8.815;  627.336
346.505;   25.924;   -5.305;  740.247
347.101;   27.216;   -2.674;  827.864
347.697;   28.029;   -4.344;  785.398
348.293;   21.783;   -9.975;  627.244
348.889;   23.348;   -5.774;  745.914
349.485;   22.176;   -5.004;  688.205
350.081;   21.836;   -4.704;  772.592
350.676;   17.223;   -6.635;  691.606
351.272;   21.974;   -4.504;  809.530
351.868;   21.818;   -3.914;  780.497
352.464;   18.317;   -9.044;  723.932
353.059;   14.410;   -8.314;  646.017
353.655;   18.734;   -7.024;  777.063
354.251;   19.501;   -5.343;  759.845
354.846;   13.574;   -8.604;  740.646
355.442;   11.600;   -6.945;  753.071
356.038;   13.824;   -7.564;  751.708
356.633;   14.340;   -5.814;  728.594
357.229;   11.274;   -7.364;  724.757
357.824;    9.728;   -8.024;  703.600
358.420;    9.240;   -9.384;  679.726
359.015;    9.576;   -5.104;  695.357
359.610;   10.828;   -6.854;  763.920
360.206;    4.801;  -10.185;  603.240
360.801;    7.318;   -7.054;  646.503
361.396;    9.695;   -5.034;  725.975
361.992;    4.586;   -8.284;  668.220
362.587;    2.168;   -8.625;  670.160
363.182;    5.357;   -7.674;  689.631
363.777;    5.076;   -5.164;  738.242
364.372;    4.959;   -8.604;  737.314
364.967;    1.338;   -9.055;  680.744
365.563;    5.722;   -6.114;  815.567
366.158;    2.880;   -5.814;  685.161
366.753;    2.179;   -7.854;  649.263
367.348;    1.693;   -7.804;  746.056
367.942;    0.920;   -7.954;  697.298
368.537;    0.257;   -4.984;  754.245
369.132;    0.377;   -8.564;  703.428
369.727;   -3.381;   -8.855;  638.079
370.322;   -1.589;   -6.245;  580.186
370.917;   -2.625;   -6.425;  710.646
371.511;   -0.108;   -6.294;  861.834
372.106;   -3.296;   -7.685;  776.964
372.701;   -6.445;   -7.335;  585.988
373.296;   -0.639;   -4.564;  863.135
373.890;   -5.819;  -10.235;  647.840
374.485;   -8.532;   -7.885;  691.199
375.079;   -4.193;   -7.324;  738.685
375.674;   -1.845;   -3.494;  812.970
376.268;   -6.863;   -8.525;  691.759
376.863;  -12.968;  -10.086;  580.327
377.457;   -6.209;   -7.025;  662.490
378.052;   -8.448;   -3.585;  764.884
378.646;   -8.996;   -7.595;  741.167
379.240;   -9.148;   -8.335;  721.176
379.835;   -8.977;   -5.785;  636.978
380.429;  -10.079;   -4.335;  562.557
381.023;  -10.442;   -6.805;  779.205
381.617;  -12.653;   -9.195;  680.106
382.212;   -9.762;   -6.905;  685.303
382.806;   -8.930;   -3.745;  760.690
383.400;  -11.946;   -7.745;  672.281
383.994;  -13.709;   -9.765;  664.870
384.588;   -9.622;   -6.564;  697.701
385.182;   -8.806;   -5.344;  726.624
385.776;   -9.278;   -8.514;  706.875
386.370;  -13.313;   -9.555;  681.968
386.964;  -12.192;   -8.715;  684.155
387.558;  -10.850;   -6.174;  598.360
388.152;  -14.659;   -8.725;  681.959
388.745;  -12.941;   -7.965;  814.707
389.339;  -10.506;   -5.924;  747.642
389.933;   -9.068;   -5.524;  695.370
390.527;  -10.999;   -7.114;  859.029
391.120;  -17.437;  -10.725;  595.318
391.714;  -13.465;   -8.035;  711.633
392.308;  -10.696;   -3.574;  780.253
392.901;  -14.904;   -7.245;  642.460
393.495;  -16.490;   -9.285;  595.414
394.089;  -14.550;   -5.895;  760.452
394.682;  -14.331;   -4.295;  697.188
395.275;  -15.374;   -9.875;  719.927
395.869;  -17.073;   -8.485;  667.314
396.462;  -14.541;   -7.455;  616.609
397.056;  -11.098;   -5.424;  776.621
397.649;  -15.714;   -6.605;  731.575
398.242;  -13.544;   -8.224;  712.645
398.836;  -11.944;   -7.474;  766.408
399.429;  -13.020;   -7.094;  631.041
400.022;  -17.088;   -9.475;  665.902
400.615;  -14.377;   -7.145;  805.609
401.208;  -12.287;   -7.174;  691.451
401.802;  -15.388;   -5.515;  699.329
402.395;  -16.269;   -9.875;  683.502
402.988;  -17.485;   -8.845;  696.627
403.581;  -14.371;   -8.874;  646.878
404.174;  -11.077;   -5.324;  686.568
404.767;  -14.717;   -9.575;  638.583
405.360;  -16.831;  -10.965;  621.445
405.953;  -11.230;   -8.764;  759.034
406.545;  -11.158;   -7.514;  725.342
407.138;  -15.135;  -10.025;  618.350
407.731;  -14.377;  -10.034;  613.303
408.324;   -9.652;   -9.374;  660.554
408.917;  -11.183;   -6.534;  681.864
409.509;  -12.853;   -8.004;  740.396
410.102;  -14.868;   -9.875;  643.948
410.695;   -8.657;   -8.604;  665.758
411.287;   -9.849;   -6.794;  599.821
411.880;  -11.743;   -9.334;  585.421
412.472;  -13.770;  -10.254;  613.092
413.065;  -11.095;   -6.714;  629.408
413.657;   -8.680;   -7.234;  576.678
414.250;   -9.034;  -10.544;  646.681
414.842;  -11.086;   -9.744;  676.353
415.434;   -8.544;   -6.994;  570.463
416.027;   -4.812;   -5.893;  652.196
416.619;   -6.495;   -7.264;  713.400
417.211;   -7.528;  -10.374;  599.352
417.804;   -3.694;   -7.993;  628.499
418.396;   -7.710;   -7.234;  607.643
418.988;   -5.442;   -9.443;  659.238
419.580;   -8.426;  -10.724;  568.276
420.172;   -6.491;  -10.323;  536.196
420.764;   -1.919;   -8.793;  672.482
421.356;   -3.662;  -11.143;  636.898
421.948;   -4.633;   -8.293;  677.661
422.540;    0.884;   -7.893;  680.027
423.132;    0.289;   -7.082;  600.641
423.724;   -3.619;   -8.653;  561.267
424.316;   -1.906;  -10.213;  621.345
424.908;    2.849;   -9.762;  591.517
425.500;    3.108;   -5.572;  647.978
426.092;    3.093;   -8.422;  648.268
426.683;    1.931;   -9.283;  684.836
427.275;    6.194;   -7.852;  641.471
427.867;    6.496;   -5.272;  668.948
428.458;    7.231;   -7.682;  732.344
429.050;    4.885;  -10.612;  680.749
429.642;    7.584;   -9.882;  743.124
430.233;    8.055;   -6.962;  569.356
430.825;    9.528;   -6.842;  724.809
431.416;    6.897;   -9.672;  698.241
432.008;   10.404;   -6.552;  651.723
432.599;   11.659;   -6.891;  656.073
433.190;    7.682;  -10.912;  637.670
433.782;    7.595;  -11.172;  590.395
434.373;   14.890;   -6.061;  884.765
434.964;   13.407;   -8.251;  602.920
435.556;   10.761;   -9.722;  634.537
436.147;   13.838;   -9.082;  758.490
436.738;   14.177;   -8.041;  701.099
437.329;   19.123;   -7.341;  721.723
437.920;   11.773;   -8.162;  666.688
438.511;   11.796;  -11.802;  564.526
439.103;   18.767;  -10.191;  623.998
439.694;   20.086;   -7.601;  681.583
440.285;   20.869;   -8.541;  764.432
440.876;   19.895;   -9.751;  845.738
441.466;   18.776;   -9.401;  575.162
442.057;   23.937;   -7.760;  665.814
442.648;   22.783;   -9.971;  746.255
443.239;   20.814;  -11.001;  620.477
443.830;   26.826;   -7.990;  704.958
444.421;   27.821;   -7.910;  655.474
445.011;   24.084;   -8.131;  693.619
445.602;   23.841;   -7.111;  743.126
446.193;   25.587;  -10.920;  488.117
446.783;   30.334;   -6.500;  640.397
447.374;   25.364;   -8.671;  692.759
447.964;   26.286;  -10.781;  713.770
448.555;   35.245;   -9.650;  822.742
449.145;   31.470;   -8.660;  662.853
449.736;   32.155;   -8.990;  803.179
450.326;   31.974;   -9.500;  713.626
450.917;   36.310;   -8.680;  675.324
451.507;   36.150;   -7.520;  600.661
452.097;   36.501;   -8.590;  746.267
452.688;   37.493;  -11.340;  742.160
453.278;   37.353;  -10.100;  566.840
453.868;   41.199;   -6.019;  793.550
454.458;   39.755;   -9.440;  651.141
455.048;   39.294;  -10.560;  711.783
455.639;   41.604;  -11.799;  567.096
456.229;   45.196;   -6.899;  710.694
456.819;   46.825;   -7.389;  751.158
457.409;   46.860;  -11.119;  773.993
457.999;   50.378;   -9.289;  737.505
458.589;   49.807;   -6.139;  686.606
459.179;   49.687;   -8.729;  717.658
459.769;   47.695;   -9.789;  627.099
460.358;   53.115;  -10.259;  797.262
460.948;   52.891;   -7.299;  689.503
461.538;   54.765;  -10.289;  660.677
462.128;   51.801;  -11.269;  664.934
462.717;   58.545;   -9.368;  710.326
463.307;   61.383;   -7.908;  705.846
463.897;   56.922;   -9.599;  656.942
464.486;   56.794;   -9.769;  837.128
465.076;   61.628;   -8.048;  733.776
465.666;   65.120;   -9.358;  652.900
466.255;   62.683;   -7.919;  785.651
466.845;   61.071;  -11.689;  666.749
467.434;   64.935;   -7.818;  725.873
468.023;   65.791;   -7.678;  658.357
468.613;   63.361;  -10.939;  713.946
469.202;   66.929;  -10.118;  646.507
469.791;   71.450;   -9.108;  737.811
470.381;   73.269;   -6.058;  742.813
470.970;   73.033;  -10.428;  711.099
471.559;   72.065;  -10.268;  733.291
472.148;   76.387;   -8.448;  675.737
472.738;   78.430;   -6.917;  765.466
473.327;   77.965;  -11.978;  637.529
473.916;   77.366;  -11.888;  737.446
474.505;   82.070;   -9.437;  751.703
475.094;   85.190;   -6.747;  806.570
475.683;   84.222;   -9.367;  797.699
476.272;   85.247;  -12.637;  730.632
476.861;   88.554;  -10.027;  706.754
477.449;   94.549;   -8.716;  728.487
478.038;   88.801;   -9.577;  692.513
478.627;   89.625;   -9.718;  714.852
479.216;   96.301;   -8.947;  769.441
479.805;   99.433;   -6.256;  783.375
480.393;   99.165;   -7.937; 1008.945
480.982;   97.882;   -7.717;  874.501
481.571;  105.070;   -9.266;  858.333
482.159;  104.960;   -7.636;  705.386
482.748;  104.156;   -9.667;  821.385
483.336;  109.232;  -10.376;  858.209
483.925;  110.126;   -7.147;  774.373
484.513;  116.824;   -7.996;  758.962
485.102;  113.222;  -10.027;  810.965
485.690;  120.855;  -10.446; 1011.050
486.278;  124.134;   -8.446;  979.329
486.867;  124.433;   -6.356;  809.662
487.455;  126.268;   -9.136;  898.229
488.043;  127.333;  -10.646;  748.361
488.631;  135.916;   -7.456; 1005.079
489.220;  139.748;   -6.636;  908.626
489.808;  140.146;  -11.036;  741.415
490.396;  147.499;  -10.246;  914.645
490.984;  153.560;   -8.556;  830.161
491.572;  161.605;   -5.886;  940.315
492.160;  167.900;   -9.486;  919.081
492.748;  179.272;  -10.976;  884.341
493.336;  202.157;   -8.776; 1019.693
493.924;  227.175;   -5.465;  958.077
494.512;  253.084;   -9.986; 1066.638
495.100;  287.617;  -10.636; 1103.280
495.687;  341.380;  -10.885; 1206.373
496.275;  401.928;   -8.126; 1150.796
496.863;  468.681;  -10.586; 1281.171
497.451;  566.202;  -11.926; 1386.805
498.038;  693.580;  -10.885; 1556.729
498.626;  795.700;   -6.315; 1741.407
499.214;  944.635;   -7.326; 2016.609
499.801; 1135.954;  -11.906; 2220.633
500.389; 1371.988;  -10.466; 2312.494
500.976; 1656.069;   -5.236; 2744.849
501.564; 2079.382;   -8.936; 3148.565
502.151; 2433.098;  -13.176; 3515.999
502.738; 2843.078;  -10.646; 3971.274
503.326; 3219.773;   -9.525; 4403.796
503.913; 3595.070;  -10.856; 5161.749
504.500; 3967.001;  -11.586; 5986.420
505.088; 4370.006;  -10.336; 6381.201
505.675; 4895.265;   -6.355; 6925.547
506.262; 5548.828;   -9.046; 7619.060
506.849; 6222.065;  -10.416; 8733.969
507.436; 6722.063;  -10.305; 9790.121
508.023; 7290.187;   -5.496; 9985.472
508.610; 7566.853;   -7.856;10434.618
509.197; 8140.693;  -10.097;11198.435
509.784; 9408.419;  -10.886;12391.194
510.371;10493.850;   -9.315;13603.713
510.958;11215.757;   -9.936;14426.586
511.545;11958.912;   -9.326;15243.775
512.132;12755.583;  -10.075;15945.876
512.719;13249.344;   -7.796;16340.369
513.305;14298.907;  -10.606;18011.766
513.892;15018.174;  -11.486;19754.971
514.479;16257.086;   -9.126;20967.805
515.066;17785.727;   -6.026;22299.793
515.652;19226.443;   -8.466;22908.660
516.239;20385.887;  -10.886;23798.875
516.825;21163.027;  -11.496;25567.275
517.412;22304.281;   -5.796;28154.959
517.998;23133.662;  -10.506;28344.111
518.585;23177.146;  -10.076;27134.219
519.171;23621.406;   -8.315;27268.576
519.758;25314.492;   -8.596;28964.129
520.344;27262.152;   -8.466;30664.494
520.930;27123.570;  -11.006;32550.605
521.516;28260.320;  -10.495;35422.895
522.103;30223.619;   -5.526;38280.004
522.689;30680.063;   -8.746;37835.117
523.275;30208.201;  -11.376;37288.613
523.861;31778.451;  -11.156;37281.395
524.447;33568.941;   -8.135;37846.949
525.033;33417.539;   -7.896;38321.949
525.619;33483.730;  -12.476;38579.285
526.205;34804.738;   -9.516;40622.875
526.791;37411.281;   -6.926;42258.836
527.377;37533.977;   -8.346;42966.902
527.963;38926.098;   -8.717;42018.949
528.549;37940.668;  -11.016;42476.828
529.135;36689.949;   -8.536;41854.852
529.721;35758.598;   -9.666;41237.711
530.306;35066.641;  -10.066;41259.445
530.892;34634.074;  -11.356;41506.047
531.478;35936.957;   -6.596;43559.613
532.063;39017.086;   -8.836;47695.563
532.649;39966.934;  -10.047;50808.324
533.235;40793.949;   -9.746;51787.500
533.820;41200.914;   -6.566;52145.035
534.406;42499.480;  -10.817;51133.488
534.991;42299.688;   -9.416;49996.805
535.576;40668.371;   -9.036;48882.852
536.162;41469.727;   -6.156;46942.285
536.747;42708.359;  -11.607;45711.746
537.333;46053.883;  -11.787;48510.180
537.918;48831.262;  -12.437;50439.891
538.503;47722.641;   -7.196;50863.711
539.088;44350.168;  -10.556;50906.922
539.673;44196.297;   -8.767;52621.965
540.259;44301.813;  -10.026;52368.094
540.844;42052.047;   -7.416;50879.109
541.429;43847.539;   -9.467;52077.777
542.014;46321.488;   -9.527;52716.695
542.599;45346.563;   -9.946;52363.281
543.184;42645.469;   -7.927;53187.137
543.769;44054.172;   -9.297;54697.605
544.354;43849.871;  -10.127;53913.914
544.938;42342.699;   -9.267;49680.164
545.523;44149.043;   -6.506;47386.277
546.108;47304.844;   -9.787;49151.949
546.693;49252.980;  -11.587;51384.637
547.278;48937.938;  -10.986;51853.254
547.862;46241.668;   -8.206;51173.750
548.447;41970.973;  -10.067;51691.395
549.031;41157.117;   -9.637;52456.703
549.616;45930.410;   -9.926;52714.516
550.201;45677.867;   -6.347;52414.598
550.785;47013.141;   -7.917;52355.059
551.370;45925.180;  -10.867;54589.453
551.954;45272.039;   -9.047;58267.348
552.538;45835.520;   -7.827;59062.176
553.123;44153.980;  -10.287;58115.285
553.707;41869.984;  -12.178;56556.285
554.291;43464.598;   -8.717;56201.668
554.876;46312.016;   -7.457;55335.762
555.460;46500.273;  -10.387;54155.703
556.044;47283.398;   -9.618;53721.484
556.628;45712.102;  -11.567;53731.016
557.212;44438.750;   -8.097;54312.531
557.796;42810.969;  -11.077;53797.773
558.380;43090.109;  -11.108;56145.984
558.964;43558.340;   -9.057;57277.930
559.548;44556.688;   -6.977;56459.641
560.132;42751.469;  -11.457;54434.543
560.716;41206.621;  -11.378;54800.617
561.300;42107.211;   -9.577;57606.945
561.884;43097.043;   -7.127;58972.445
562.467;41401.539;   -7.118;57327.570
563.051;40812.895;  -13.358;54962.434
563.635;42009.621;  -10.178;52594.473
564.219;42466.094;   -7.837;50610.410
564.802;43337.383;  -11.398;49551.180
565.386;43097.145;  -12.788;48370.953
565.969;42388.969;   -9.077;48178.871
566.553;41188.258;   -6.207;49957.305
567.136;42101.313;   -8.568;50369.594
567.720;38904.152;  -11.868;49492.004
568.303;36783.707;   -8.268;50616.352
568.887;36564.863;   -8.698;50727.148
569.470;36976.781;   -6.808;51698.379
570.053;36163.340;  -13.188;52122.078
570.637;34100.867;  -12.037;52536.438
571.220;33734.820;   -8.577;51186.098
571.803;34479.598;   -8.498;51032.762
572.386;36770.293;  -10.498;49609.887
572.969;39225.883;   -9.388;48285.926
573.552;37647.418;   -8.338;47624.285
574.135;35972.020;   -8.518;45498.641
574.718;33610.934;  -13.628;41970.434
575.301;32979.789;  -10.893;41447.137
575.884;32348.648;   -8.158;40923.836
576.467;33265.977;  -10.328;45267.723
577.050;34635.434;  -13.058;48175.543
577.633;35764.859;   -9.458;47729.328
578.216;34977.625;   -8.928;47579.793
578.799;33748.613;   -9.358;47820.996
579.381;32423.973;  -11.388;48115.551
579.964;30523.316;  -11.718;47333.766
580.547;32357.100;   -8.588;46668.969
581.129;33920.617;   -8.859;44466.141
581.712;35190.184;  -10.729;44164.922
582.294;35752.637;  -11.118;46477.855
582.877;35573.316;   -5.218;48244.254
583.459;33769.738;   -8.679;47437.895
584.042;31648.803;  -10.709;46943.219
584.624;31407.922;  -11.669;46792.227
585.206;30872.855;   -8.218;46557.250
585.789;30707.148;  -10.569;45793.773
586.371;32658.152;  -11.859;43836.391
586.953;32444.475;  -10.719;42972.492
587.536;31839.602;   -7.198;42487.211
588.118;30158.217;   -8.720;42086.414
588.700;26384.668;  -10.439;43389.930
589.282;27582.537;   -9.198;43646.039
589.864;31264.104;   -9.199;43438.109
590.446;33855.395;  -11.319;43151.926
591.028;34290.586;  -11.159;42781.867
591.610;33269.379;  -11.779;42839.098
592.192;30603.684;   -7.668;42820.402
592.774;29141.801;  -11.949;40724.277
593.356;27949.098;  -12.129;39874.789
593.937;27074.982;  -10.669;39980.648
594.519;29185.088;   -6.509;42069.633
595.101;31213.281;  -10.849;42976.031
595.683;31443.984;  -11.679;44084.441
596.264;32449.695;   -9.049;43478.797
596.846;32084.678;   -8.849;43803.672
597.427;32039.184;   -9.570;42986.934
598.009;33439.059;  -12.620;42832.219
598.591;33818.039;  -10.039;42580.086
599.172;33339.723;  -10.369;43061.805
599.753;33246.273;   -9.140;41691.469
600.335;34551.324;  -11.430;40692.520
600.916;32697.840;   -9.939;39982.422
601.498;30491.480;   -8.479;40318.617
602.079;29135.584;  -10.920;40670.609
602.660;28901.414;  -11.480;41450.898
603.241;30551.789;  -11.699;41137.738
603.823;29365.762;   -9.579;38868.797
604.404;28519.580;  -10.620;38182.785
604.985;30187.344;  -10.450;38078.047
605.566;30237.293;   -9.129;38056.633
606.147;30293.717;   -7.510;37020.418
606.728;31734.773;  -10.660;37883.359
607.309;30458.402;  -11.740;38748.273
607.890;30135.594;   -9.759;38850.230
608.471;29600.117;   -8.250;37457.918
609.051;28822.184;   -9.240;36066.457
609.632;27722.922;  -12.120;35991.074
610.213;28191.881;   -9.110;37402.641
610.794;28984.057;   -8.030;38383.363
611.374;28829.402;   -8.110;40562.387
611.955;29672.684;  -13.560;38533.727
612.536;31002.012;  -11.400;36951.789
613.116;30576.713;   -8.070;37197.891
613.697;30774.035;  -10.830;38411.125
614.277;29185.703;  -11.641;38673.938
614.858;30137.611;  -13.310;37075.863
615.438;29414.615;   -7.460;35092.906
616.019;26906.967;   -7.601;33666.301
616.599;27280.357;  -12.020;34189.023
617.179;29031.697;  -11.780;36952.047
617.760;30122.867;   -8.570;39582.574
618.340;31082.305;  -11.471;38943.977
618.920;32232.521;  -11.170;37594.156
619.500;32365.406;  -11.071;37866.938
620.080;31503.111;   -7.750;37869.043
620.660;32466.043;  -12.711;36868.617
621.241;33799.164;  -10.211;36352.309
621.821;34202.863;  -10.961;35459.520
622.401;33065.488;   -7.720;35207.414
622.980;32096.020;   -8.981;35980.422
623.560;30741.350;   -9.331;37351.328
624.140;29488.701;   -9.850;34388.582
624.720;24670.514;   -7.451;32368.764
625.300;21294.523;   -9.070;32638.629
625.880;24539.281;  -12.601;34599.035
626.459;28395.662;  -11.751;36831.738
627.039;31330.727;   -9.281;38299.098
627.619;31323.645;   -8.801;38289.574
628.198;29727.330;  -12.071;37220.695
628.778;28852.098;   -9.461;37632.563
629.357;29594.881;   -8.491;38003.012
629.937;29551.738;   -9.721;38402.039
630.516;29121.482;   -9.951;37868.801
631.096;28962.783;  -11.731;35760.410
631.675;31315.328;   -8.572;35225.219
632.254;36424.020;  -11.282;35130.289
632.834;35860.102;  -13.322;35794.570
633.413;33916.672;  -10.301;35788.922
633.992;31456.834;   -8.582;34532.863
634.571;32163.287;   -8.352;33590.113
635.151;35074.465;  -11.912;34943.863
635.730;33559.055;  -10.511;35352.523
636.309;30181.951;   -7.731;35366.605
636.888;27612.350;   -9.952;36165.637
637.467;28048.047;  -11.672;37515.902
638.046;29575.314;   -8.901;39288.695
638.625;32447.670;   -7.912;38279.699
639.204;32349.152;  -10.022;37741.598
639.782;31409.451;  -12.252;38364.551
640.361;27869.404;  -10.041;36740.621
640.940;25274.186;  -11.161;34950.082
641.519;26036.654;   -9.701;34137.398
642.097;28609.287;  -11.271;35654.258
642.676;31367.596;   -8.651;35637.957
643.255;32307.898;   -8.711;36567.074
643.833;31651.172;   -9.581;37809.434
644.412;31662.256;  -13.711;37337.293
644.990;30489.598;  -11.811;37018.531
645.569;30079.484;   -9.411;36518.469
646.147;29518.336;  -10.291;36186.430
646.726;29716.146;  -12.401;36267.688
647.304;30883.881;  -10.411;36647.625
647.882;32460.646;   -9.651;39286.742
648.461;34046.383;   -9.631;39157.703
649.039;32275.113;  -11.881;35412.883
649.617;31361.039;   -9.661;34744.918
650.195;31000.789;   -9.301;35403.098
650.773;29746.836;  -10.511;35053.797
651.352;27302.984;  -11.521;33756.816
651.930;24887.293;  -12.211;31868.773
652.508;23198.805;   -9.171;33121.551
653.086;26969.168;   -9.371;33564.793
653.663;30007.719;  -13.161;34054.668
654.241;28851.139;  -13.031;35693.309
654.819;30476.174;   -9.371;36422.906
655.397;30588.111;  -10.511;38213.484
655.975;30049.605;  -10.371;39507.625
656.553;29865.469;  -10.051;39498.223
657.130;28435.072;  -10.061;40395.480
657.708;27616.570;   -9.561;39242.020
658.286;27761.572;  -11.511;38920.020
658.863;28965.887;  -10.261;40202.898
659.441;32125.580;   -7.531;39677.938
660.018;31996.840;   -9.501;40413.355
660.596;30583.205;  -13.301;39931.414
661.173;32275.412;  -11.211;39604.531
661.750;32617.094;   -9.951;39700.070
662.328;31512.721;   -9.390;39292.809
662.905;30726.027;  -11.330;38235.648
663.482;26520.451;   -9.050;36212.305
664.060;24522.936;   -8.240;35944.945
664.637;27240.957;  -10.050;35170.785
665.214;28810.967;  -11.760;34197.523
665.791;30381.238;  -10.530;34549.520
666.368;29428.688;   -9.690;35118.578
666.945;29973.754;   -9.320;36019.418
667.522;31511.941;  -11.860;36048.438
668.099;31234.580;  -10.770;36243.914
668.676;30043.762;   -6.260;35958.875
669.253;28811.000;   -7.000;37384.730
669.830;29334.891;  -10.190;36779.629
670.407;29161.998;   -9.550;35231.289
670.984;28994.725;   -9.260;35544.270
671.560;29735.713;   -9.280;35466.867
672.137;29006.002;  -11.810;34280.863
672.714;29792.180;  -11.490;34632.863
673.290;30717.133;   -7.740;35135.422
673.867;30948.533;  -10.660;36114.480
674.443;30866.432;  -12.230;36152.859
675.020;28852.785;  -10.450;35327.238
675.596;29844.391;   -9.260;35795.176
676.173;30421.791;  -10.780;35430.355
676.749;30184.877;  -13.690;33549.516
677.326;30094.559;  -11.980;32210.012
677.902;30106.738;   -8.630;32068.871
678.478;29386.264;  -10.730;32583.891
679.054;28433.857;  -10.520;32088.928
679.631;28759.408;  -11.920;30978.848
680.207;30320.912;   -7.490;33160.887
680.783;31924.439;   -9.860;35570.363
681.359;30980.195;  -13.380;36125.184
681.935;30440.365;  -12.480;35240.922
682.511;30199.256;   -7.900;34429.961
683.087;30602.975;   -7.710;34463.680
683.663;29980.098;  -11.480;34648.898
684.239;28483.744;  -14.090;34546.457
684.815;27766.678;   -7.560;35586.375
685.390;28170.178;   -9.910;35821.895
685.966;28825.635;  -11.159;35085.871
686.542;31260.459;  -11.169;34198.230
687.118;33479.074;   -5.959;32847.707
687.693;33754.473;  -10.329;32794.027
688.269;33340.262;  -12.059;33072.367
688.844;31576.572;  -10.909;33141.664
689.420;29628.408;   -8.019;33965.742
689.995;27590.078;   -8.399;34655.523
690.571;26221.820;  -10.949;33576.742
691.146;26463.988;   -9.619;32657.219
691.722;26205.963;   -8.999;32526.979
692.297;25820.412;  -11.589;33014.617
692.872;27397.736;  -11.739;34012.254
693.448;27145.600;  -11.059;34237.434
694.023;26203.969;  -10.139;34142.672
694.598;28281.350;   -9.029;34132.031
695.173;28864.037;  -13.319;34205.250
695.748;27815.564;  -10.169;32882.488
696.323;27763.146;   -8.339;32864.906
696.898;28167.736;   -8.169;33170.004
697.473;28298.852;  -12.309;32432.984
698.048;27550.217;  -10.989;31649.303
698.623;27210.707;   -9.329;30778.141
699.198;28818.584;   -9.849;31140.119
699.773;29992.100;  -12.329;31764.299
700.348;28629.645;  -10.389;31780.816
700.922;28710.736;   -9.269;32046.375
701.497;29621.266;   -9.329;32603.574
702.072;29853.463;  -10.789;34799.871
702.646;28560.609;  -10.839;35793.172
703.221;26411.914;   -9.099;35201.590
703.795;28364.213;  -10.939;34764.527
704.370;28763.188;  -12.859;34307.367
704.944;29013.127;  -11.559;33509.887
705.519;29695.361;   -7.939;31388.584
706.093;30945.813;  -10.499;31340.104
706.668;31522.260;  -11.289;32630.281
707.242;30320.314;  -11.509;32728.779
707.816;28853.170;   -9.639;32947.238
708.390;27476.150;  -11.429;33277.855
708.965;28032.688;  -11.869;33834.336
709.539;27961.719;  -11.689;33709.273
710.113;28105.842;  -10.478;33044.313
710.687;27664.859;  -10.228;31953.992
711.261;26275.451;  -13.698;30505.949
711.835;26110.871;  -13.378;30262.369
712.409;26594.998;   -9.698;31254.447
712.983;28545.793;  -11.898;32754.986
713.557;29718.549;  -15.138;34018.824
714.131;29395.834;  -14.098;34579.625
714.704;28360.047;   -9.958;33890.262
715.278;25897.424;  -10.028;33531.102
715.852;24739.510;  -11.148;33601.660
716.425;25661.658;   -9.068;33515.117
716.999;26826.873;  -10.038;33185.555
717.573;28029.492;   -9.798;33905.996
718.146;29136.271;  -12.378;35199.293
718.720;29271.977;  -11.918;35060.551
719.293;29066.344;   -8.088;34973.230
719.867;31932.268;  -10.888;36394.449
720.440;31525.135;  -11.938;36663.008
721.013;29593.186;  -12.818;35102.426
721.587;27963.359;  -10.298;33985.266
722.160;26740.883;  -10.048;33524.965
722.733;25815.348;  -12.108;32987.043
723.306;26274.059;  -10.818;33066.301
723.880;28459.813;   -8.908;33399.500
724.453;30593.322;   -9.878;33468.297
725.026;29792.770;  -11.188;33816.637
725.599;26967.994;  -11.678;32797.996
726.172;27088.422;   -9.618;33187.434
726.745;28180.277;   -8.258;35136.613
727.318;29394.639;  -12.978;35751.730
727.891;30045.334;  -12.148;35890.430
728.463;29688.980;   -8.968;34822.090
729.036;28556.516;  -10.188;32895.086
729.609;29126.203;  -11.788;31823.225
730.182;26282.053;  -11.788;31445.283
730.754;23704.678;  -10.268;32373.223
731.327;23852.338;   -9.998;33676.820
731.900;24194.955;  -12.228;33417.000
732.472;25258.438;  -13.848;31978.498
733.045;27062.705;   -8.698;30368.777
733.617;27054.758;  -10.607;30574.215
734.190;27044.725;  -11.507;31280.975
734.762;24450.945;  -13.647;31674.412
735.334;22495.486;   -9.767;31247.291
735.907;22922.154;   -9.897;29876.211
736.479;23241.510;  -11.637;29808.488
737.051;23083.682;   -9.567;30233.547
737.623;23846.641;   -8.187;31469.086
738.195;24290.475;  -11.187;31784.225
738.768;26125.041;  -12.337;32120.523
739.340;26753.326;  -12.227;32094.342
739.912;25956.148;  -11.057;31312.680
740.484;24549.566;  -10.207;31946.238
741.056;23034.459;  -10.047;32984.059
741.628;24474.953;  -13.627;33897.715
742.199;26714.529;   -7.177;33213.016
742.771;25242.057;  -10.797;31369.113
743.343;23073.482;  -11.997;31865.473
743.915;22028.582;  -12.867;32388.631
744.487;22013.805;   -7.617;31079.568
745.058;22132.088;   -9.557;30570.107
745.630;22693.260;   -9.877;29970.127
746.201;23820.742;  -14.177;29186.766
746.773;24545.705;   -9.237;28805.723
747.344;24437.619;   -9.847;29591.223
747.916;22698.990;  -11.657;31412.201
748.487;22599.945;  -10.587;32194.898
749.059;23762.453;   -8.707;32533.719
749.630;24575.959;  -10.537;32158.518
750.201;23553.809;  -11.687;30855.395
750.773;21772.594;  -11.647;28622.555
751.344;21563.275;   -7.147;28405.732
751.915;22567.326;   -9.757;28461.551
752.486;22607.711;  -12.427;27842.850
753.057;20640.828;  -12.227;27845.008
753.628;19535.430;  -10.417;27728.107
754.199;20538.244;  -11.767;27381.086
754.770;21541.803;  -11.187;25882.203
755.341;21661.180;  -10.507;25886.184
755.912;21759.203;   -9.387;26050.861
756.483;21328.215;  -10.647;26798.779
757.054;19507.447;  -11.837;27048.238
757.625;18159.953;  -12.716;26294.838
758.195;17916.715;   -9.666;26142.076
758.766;17622.045;   -8.656;26392.234
759.337;18327.625;  -12.856;26334.594
759.907;19872.752;  -13.366;27579.652
760.478;20753.967;   -8.576;28352.770
761.048;20189.543;  -10.526;27325.088
761.619;19221.713;  -11.116;26460.428
762.189;19267.744;  -12.136;26029.826
762.760;20218.119;   -9.456;26430.145
763.330;21395.932;   -7.136;26670.902
763.900;20979.359;  -11.786;26603.021
764.471;18495.146;  -11.546;25542.740
765.041;17140.654;   -8.096;24358.459
765.611;17045.266;   -8.876;23991.297
766.181;17417.318;  -12.196;24470.236
766.751;18404.236;  -11.636;24845.975
767.321;18193.189;  -10.156;24533.633
767.891;16349.064;  -11.766;24916.492
768.461;15870.764;  -14.936;24776.771
769.031;16421.920;  -12.356;24757.988
769.601;18083.182;   -7.526;24181.088
770.171;18068.936;  -10.766;23670.387
770.741;17170.314;  -13.176;22960.045
771.311;17216.695;  -10.616;22917.523
771.880;17686.025;   -9.576;23562.941
772.450;17467.510;  -10.336;24216.500
773.020;17338.859;  -13.516;24140.398
773.589;16619.703;  -13.466;24414.857
774.159;16020.225;   -8.686;23858.717
774.729;15746.791;   -9.476;22942.135
775.298;15391.001;  -13.666;22324.033
775.867;14898.836;  -11.716;21140.313
776.437;14976.782;   -9.906;20838.092
777.006;14846.851;  -12.166;20599.510
777.576;14633.425;  -12.356;20508.809
778.145;14596.591;  -11.646;20732.947
778.714;14473.566;   -8.226;21062.465
779.283;13786.745;   -9.556;20949.664
779.853;13239.072;  -14.116;20508.623
780.422;13649.538;  -11.506;20649.082
780.991;13284.379;   -9.556;21527.520
781.560;12115.847;   -9.095;22632.658
782.129;11992.394;  -12.135;23048.277
782.698;12093.243;  -10.865;23438.555
783.267;11687.878;   -9.335;23267.734
783.836;11567.705;  -11.045;22415.133
784.404;12558.439;  -13.865;20443.152
784.973;13160.577;  -13.095;19699.150
785.542;13153.969;  -11.575;19763.828
786.111;13035.231;   -9.705;20341.408
786.679;12546.882;  -12.105;20207.967
787.248;12234.179;  -12.455;19516.465
787.817;12035.714;  -11.535;18900.363
788.385;11653.037;   -9.765;17879.121
788.954;11148.376;  -14.005;17658.301
789.522;10629.136;  -11.955;17788.879
790.090;11159.789;  -10.135;18118.277
790.659;11676.691;  -10.975;18338.736
791.227;11128.979;  -13.375;18508.615
791.795;11451.427;  -12.375;17898.254
792.364;11818.545;  -10.725;17295.133
792.932;12219.499;   -9.715;16822.051
793.500;12464.108;  -12.675;17040.148
794.068;12706.921;  -13.495;17179.787
794.636;12852.535;  -10.885;16664.246
795.204;12234.102;  -11.045;16524.545
795.772;12298.742;  -13.175;17274.564
796.340;11771.411;  -12.445;17891.002
796.908;11528.164;   -9.735;17648.561
797.476;11468.654;   -9.815;17064.080
798.044;11099.797;  -13.985;16672.777
798.612;10304.584;  -13.115;17023.996
799.180; 9845.660;  -10.185;16561.615
799.747; 9689.906;   -9.055;15962.773
800.315; 9409.431;  -12.385;15296.992
800.883; 9137.959;  -15.035;14801.771
801.450; 9272.860;  -10.365;14534.430
802.018; 9387.467;   -9.855;14173.248
802.585; 9458.109;  -11.905;14029.547
803.153; 9495.241;  -11.585;13836.846
803.720; 9325.918;   -9.095;13567.324
804.287; 8839.589;   -9.135;13360.622
804.855; 8354.618;  -11.604;13681.981
805.422; 8206.871;  -11.794;13536.560
805.989; 8243.430;  -10.734;13355.958
806.556; 8417.884;  -10.444;13747.896
807.124; 8688.268;  -12.764;13987.376
807.691; 8660.528;  -12.964;14038.674
808.258; 8471.586;  -11.134;14120.152
808.825; 8134.446;   -9.854;13860.111
809.392; 8241.866;  -10.504;13268.790
809.959; 7759.143;  -13.054;12680.389
810.526; 7233.740;   -8.294;12427.308
811.093; 7240.170;   -8.394;12030.105
811.659; 7878.729;  -12.304;11653.664
812.226; 8442.856;  -13.944;11637.183
812.793; 8188.915;  -10.484;11611.521
813.360; 7559.907;  -10.144;11885.181
813.926; 7254.403;  -11.684;12770.539
814.493; 7033.487;  -13.644;12677.638
815.060; 6603.292;   -9.724;11974.336
815.626; 6565.858;   -9.854;11594.715
816.193; 6947.774;  -13.254;11579.474
816.759; 6967.686;  -13.204;11666.972
817.325; 7030.343;   -9.434;11325.530
817.892; 7437.804;  -10.134;11105.369
818.458; 7871.604;  -13.474;10843.928
819.024; 7456.748;  -11.854;10714.406
819.591; 7109.923;  -10.244;10469.165
820.157; 6862.104;  -10.704;10235.523
820.723; 6323.839;  -12.324;10847.563
821.289; 6052.668;   -9.444;11040.980
821.855; 6009.217;   -8.374;10357.100
822.421; 6013.498;  -10.234; 9978.918
822.987; 6028.550;  -13.294; 9754.177
823.553; 5689.466;  -10.884;10065.755
824.119; 5461.546;   -8.884;10036.294
824.685; 5563.255;   -6.784;10029.192
825.251; 5656.680;  -12.004;10199.230
825.816; 5600.876;  -11.474; 9820.189
826.382; 5337.428;   -9.174; 9297.248
826.948; 5514.565;   -9.214; 9381.347
827.513; 5934.449;  -10.774; 9450.726
828.079; 5790.680;  -11.924; 9472.444
828.645; 5179.832;  -10.543; 9292.643
829.210; 5005.846;  -10.533; 9065.341
829.776; 4967.839;  -10.753; 9132.620
830.341; 4849.544;  -10.173; 9092.878
830.906; 5028.337;  -10.743; 9078.557
831.472; 5406.125;  -11.113; 8534.535
832.037; 5212.001;  -10.603; 8677.874
832.602; 4667.140;  -13.323; 8628.692
833.167; 4368.379;  -10.823; 8879.031
833.733; 4285.789;  -10.113; 9189.790
834.298; 4430.816;  -13.583; 9052.608
834.863; 4568.480;  -12.703; 8895.087
835.428; 4590.487;  -10.523; 8824.266
835.993; 4445.423;   -6.963; 8845.385
836.558; 4254.991;  -10.763; 8888.563
837.123; 4319.468;   -9.903; 8966.582
837.688; 4529.650;   -9.913; 8617.860
838.253; 4752.507;  -10.283; 8590.699
838.817; 4910.306;  -12.963; 8443.797
839.382; 4819.955;  -14.243; 8799.356
839.947; 4548.279;  -10.733; 8810.595
840.511; 4281.747;   -9.383; 8796.394
841.076; 3928.650;  -12.563; 8347.231
841.641; 3985.980;  -12.953; 8224.330
842.205; 4070.621;   -7.043; 8223.349
842.770; 4111.979;   -8.163; 8622.107
843.334; 4243.914;  -12.503; 8410.386
843.898; 4181.349;  -11.693; 8337.465
844.463; 4186.624;  -10.203; 8506.283
845.027; 3997.148;   -9.533; 8280.962
845.591; 3833.755;  -13.443; 8231.141
846.156; 3838.374;  -13.143; 7969.179
846.720; 3732.183;   -9.433; 7768.278
847.284; 3628.295;  -11.033; 7630.957
847.848; 3507.270;  -10.403; 7472.395
848.412; 3424.056;  -11.553; 7437.394
848.976; 3467.240;   -8.393; 7674.592
849.540; 3383.731;   -8.713; 7836.011
850.104; 3462.573;  -12.463; 7913.669
850.668; 3829.063;  -12.973; 7694.508
851.232; 3970.907;  -10.793; 7756.887
851.796; 3828.640;  -10.662; 7926.545
852.359; 3528.912;  -13.082; 7827.844
852.923; 3344.389;  -12.192; 7641.163
853.487; 3167.482;  -11.912; 7342.501
854.050; 3141.817;  -10.892; 7042.820
854.614; 3295.806;  -13.992; 7151.338
855.177; 3415.230;  -11.732; 7105.077
855.741; 3452.152;   -8.962; 6989.675
856.304; 3336.834;   -9.442; 6596.634
856.868; 3297.595;  -14.192; 6356.272
857.431; 3395.661;  -12.702; 6468.571
857.995; 3511.810;   -9.942; 6373.210
858.558; 3543.388;   -9.112; 6324.448
859.121; 3285.898;  -12.932; 6408.327
859.684; 3134.988;  -13.442; 6347.886
860.247; 3241.760;  -10.632; 6321.264
860.810; 3265.566;  -11.272; 6301.903
861.374; 3018.226;   -9.832; 6607.881
861.937; 2755.648;  -11.762; 6408.200
862.500; 2753.289;   -9.722; 6572.639
863.062; 2920.763;  -10.512; 6387.297
863.625; 3082.941;  -11.232; 6190.836
864.188; 3249.755;  -14.112; 5807.254
864.751; 3308.499;  -11.302; 5682.413
865.314; 3198.323;  -10.112; 5547.492
865.876; 2973.648;  -12.182; 5500.150
866.439; 2945.387;  -10.722; 5415.909
867.002; 2903.773;   -9.252; 5501.567
867.564; 2707.927;   -9.572; 5413.946
868.127; 2493.802;  -13.142; 5160.325
868.689; 2385.828;  -12.902; 5133.183
869.252; 2283.432;   -9.732; 5252.382
869.814; 2182.502;   -9.432; 5297.141
870.377; 2189.368;  -11.552; 5390.919
870.939; 2252.418;   -9.052; 5599.898
871.501; 2309.954;  -10.982; 5248.336
872.063; 2307.288;  -12.292; 4854.235
872.626; 2251.860;  -14.912; 4817.074
873.188; 2265.499;  -13.112; 4987.732
873.750; 2240.649;  -13.442; 4868.651
874.312; 2148.974;   -9.402; 4779.330
874.874; 2057.673;  -11.062; 4866.348
875.436; 1975.214;  -13.931; 4718.887
875.998; 1967.283;   -9.561; 4660.005
876.560; 1993.448;  -11.321; 4462.964
877.122; 1931.449;  -12.221; 4145.042
877.683; 1822.685;  -12.191; 4056.481
878.245; 1749.908;  -12.101; 3950.740
878.807; 1799.284;   -8.971; 4058.958
879.369; 1827.231;  -12.071; 3954.677
879.930; 1728.006;  -14.621; 3941.495
880.492; 1658.165;  -10.311; 4067.014
881.053; 1620.388;  -10.901; 3859.633
881.615; 1512.734;  -14.411; 3776.071
882.176; 1412.312;  -13.761; 3734.750
882.738; 1365.496;   -9.181; 3678.489
883.299; 1340.292;  -11.791; 3405.407
883.860; 1338.205;  -13.121; 3351.106
884.422; 1332.569;  -11.211; 3394.044
884.983; 1285.012;  -10.091; 3166.443
885.544; 1204.803;   -8.461; 3189.802
886.105; 1125.136;  -12.361; 3160.360
886.666; 1056.320;  -14.141; 3093.059
887.227;  999.324;  -11.361; 2941.957
887.788;  937.240;  -11.401; 2974.836
888.349;  873.721;  -13.791; 2721.214
888.910;  867.333;  -13.191; 2696.493
889.471;  870.507;   -9.881; 2560.172
890.032;  848.935;   -9.881; 2558.190
890.593;  822.646;  -10.371; 2567.669
891.153;  797.247;  -13.301; 2460.307
891.714;  751.321;  -11.431; 2372.046
892.275;  714.950;  -11.291; 2309.505
892.835;  678.265;  -11.471; 2382.543
893.396;  625.506;  -11.541; 2295.502
893.956;  569.667;  -11.181; 2162.420
894.517;  530.468;  -11.741; 2125.439
895.077;  524.674;  -11.671; 2086.978
895.638;  525.697;  -11.311; 2126.316
896.198;  496.324;   -9.831; 1838.275
896.758;  453.661;   -8.421; 1892.813
897.319;  422.285;  -12.351; 1792.232
897.879;  406.029;  -13.511; 1762.751
898.439;  379.881;  -12.001; 1661.149
898.999;  355.144;  -10.180; 1781.468
899.559;  346.315;  -12.030; 1703.347
900.119;  341.997;  -15.710; 1537.525
900.679;  336.718;   -8.900; 1638.384
901.239;  322.111;   -8.340; 1527.902
901.799;  309.486;  -13.910; 1456.441
902.359;  303.629;  -13.460; 1357.140
902.919;  296.853;  -11.490; 1331.118
903.479;  283.503;  -12.110; 1317.257
904.038;  263.715;  -11.720; 1262.595
904.598;  247.810;  -13.610; 1152.034
905.158;  244.056;  -11.040; 1240.893
905.717;  238.235;  -10.900; 1233.691
906.277;  227.358;  -15.080; 1217.330
906.836;  217.207;  -13.380; 1222.408
907.396;  209.274;  -10.780; 1193.047
907.955;  200.075;   -8.500; 1182.526
908.515;  195.374;  -12.760; 1099.364
909.074;  189.091;  -11.900; 1092.863
909.633;  184.661;   -8.950; 1069.121
910.192;  179.914;   -8.770; 1196.460
910.752;  173.970;  -12.390; 1029.960
911.311;  169.058;  -13.680; 1009.780
911.870;  167.205;  -12.370;  971.460
912.429;  167.741;  -10.900; 1094.080
912.988;  166.701;  -11.690; 1081.060
913.547;  162.584;  -13.240;  940.380
914.106;  156.842;  -11.990;  999.420
914.665;  154.051;   -9.990;  984.020
915.224;  153.013;  -12.880; 1035.760
915.782;  153.297;  -12.350;  922.560
916.341;  152.991;   -9.110; 1049.840
916.900;  148.703;   -9.270;  925.260
917.458;  146.998;  -13.240;  884.220
918.017;  145.973;  -13.550;  942.600
918.576;  146.267;  -12.320;  904.440
919.134;  144.080;  -11.490;  837.980
919.693;  142.581;  -13.670;  893.060
920.251;  140.490;  -15.470;  876.500
920.809;  140.357;  -11.290;  839.580
921.368;  138.966;  -10.210;  885.360
921.926;  138.184;  -12.140;  842.940
922.484;  136.921;  -13.080;  903.360
923.042;  137.039;  -11.720;  880.340
923.601;  139.805;   -7.480;  998.680
924.159;  137.756;  -11.570;  935.560
924.717;  134.202;  -13.840;  841.080
925.275;  135.180;  -10.640;  903.240
925.833;  133.640;  -11.540;  779.320
926.391;  135.438;  -12.960;  938.380
926.949;  133.091;  -14.130;  857.680
927.506;  133.852;  -11.750;  903.500
928.064;  133.956;  -10.250;  877.580
928.622;  132.629;  -13.030;  880.100
929.180;  133.027;  -13.400;  814.180
929.737;  134.310;  -10.700;  808.540
930.295;  138.061;  -10.070;  928.480
930.853;  139.357;  -11.960;  849.100
931.410;  140.223;  -13.120;  821.120
931.968;  139.345;  -10.770;  940.660
932.525;  139.448;  -10.680;  909.380
933.082;  139.300;  -13.130;  811.440
933.640;  140.820;  -13.210;  925.900
934.197;  139.615;  -11.060;  886.360
934.754;  140.113;   -9.580;  897.780
935.312;  142.770;  -14.000;  863.340
935.869;  147.206;  -10.710; 1012.980
936.426;  147.934;   -9.860;  872.800
936.983;  148.976;   -9.710;  889.020
937.540;  148.040;  -13.990;  838.280
938.097;  147.935;  -14.040;  940.120
938.654;  147.665;  -10.310;  898.860
939.211;  149.718;  -10.560;  952.480
939.768;  153.847;  -13.900;  915.420
940.324;  157.203;  -14.760;  904.200
940.881;  159.221;  -10.370;  878.500
941.438;  159.546;   -8.260; 1021.200
941.995;  155.627;  -12.540;  992.560
942.551;  153.281;  -14.670;  875.620
943.108;  153.983;  -10.450;  937.920
943.664;  155.998;  -10.750;  869.340
944.221;  159.521;  -11.550; 1088.140
944.777;  156.832;  -14.770;  869.680
945.334;  158.092;  -12.820;  884.840
945.890;  159.262;  -10.130;  946.480
946.446;  159.350;  -13.470;  947.020
947.003;  161.182;  -12.120;  964.940
947.559;  163.817;   -9.980; 1063.040
948.115;  163.236;   -9.080; 1026.540
948.671;  160.968;  -10.830;  967.300
949.227;  158.445;  -12.440;  859.560
949.783;  156.531;  -12.910;  858.900
950.339;  157.944;  -10.270;  991.000
950.895;  157.804;  -13.630; 1023.840
951.451;  157.469;  -15.100;  925.280
952.007;  157.435;  -11.330;  998.540
952.563;  157.953;  -10.580;  937.780
953.118;  156.884;  -13.440;  904.940
953.674;  157.208;  -12.710;  935.780
954.230;  156.007;  -10.350;  949.640
954.785;  153.455;   -9.190;  936.640
955.341;  151.618;  -11.200;  998.160
955.897;  149.282;  -16.560;  834.660
956.452;  151.067;  -12.570;  953.840
957.008;  149.660;   -7.970; 1083.640
957.563;  147.465;  -11.940; 1009.540
958.118;  142.426;  -13.450;  877.700
958.674;  143.253;  -12.030;  946.780
959.229;  145.537;   -9.410; 1013.980
959.784;  143.280;  -12.000;  832.400
960.339;  142.899;  -14.780; 1001.280
960.894;  140.117;   -9.860;  963.760
961.449;  135.047;   -9.970;  859.960
962.004;  134.838;  -10.900; 1212.840
962.559;  129.119;  -13.150;  860.140
963.114;  126.988;  -13.740;  742.480
963.669;  126.599;   -9.820;  915.500
964.224;  124.646;  -13.890;  874.340
964.779;  124.554;  -12.600;  828.420
965.334;  126.178;  -10.950; 1017.860
965.888;  125.246;  -11.170;  875.360
966.443;  128.909;  -12.540;  972.380
966.998;  127.990;  -15.780;  819.460
967.552;  127.637;   -9.760;  908.380
968.107;  124.578;   -9.060;  868.300
968.661;  124.273;  -11.950;  922.440
969.216;  126.039;  -12.800;  856.280
969.770;  126.588;  -11.210;  917.200
970.324;  125.476;  -11.610;  923.140
970.879;  121.056;  -11.370;  947.180
971.433;  117.847;  -12.540;  952.720
971.987;  112.177;  -11.320;  895.340
972.541;  109.381;  -10.720;  917.100
973.095;  108.653;   -9.680; 1009.460
973.649;  108.764;  -11.440;  809.480
974.203;  107.936;  -11.210;  829.040
974.757;  106.023;  -10.240;  855.220
975.311;  101.200;  -13.720;  872.600
975.865;   93.356;  -13.770;  881.820
976.419;   84.504;  -11.690;  857.400
976.973;   80.589;   -9.510;  849.620
977.526;   79.094;  -12.620;  949.920
978.080;   78.771;  -12.010;  796.780
978.634;   83.340;  -10.170;  921.320
979.187;   84.245;   -9.020;  905.400
979.741;   83.976;   -9.820; 1018.380
980.294;   82.310;  -14.870;  789.160
980.848;   81.052;  -12.380;  717.220
981.401;   83.545;  -10.350;  816.540
981.955;   85.565;  -13.720;  844.300
982.508;   85.680;  -11.490;  746.340
983.061;   85.382;  -10.000;  915.260
983.615;   82.894;  -11.480;  798.800
984.168;   80.682;  -13.220;  770.080
984.721;   80.930;  -13.960;  880.760
985.274;   81.151;  -10.870;  867.500
985.827;   79.658;   -9.790;  834.220
986.380;   77.248;  -13.120;  721.340
986.933;   77.379;  -12.450;  864.800
987.486;   76.291;  -10.210;  861.920
988.039;   74.757;   -8.430;  863.100
988.591;   73.416;  -10.520;  893.260
989.144;   71.106;  -14.860;  737.260
989.697;   70.757;  -13.080;  758.740
990.250;   71.834;  -10.150;  858.100
990.802;   69.838;  -13.430;  755.860
991.355;   71.730;  -12.750;  974.880
991.907;   69.085;  -12.040;  864.320
992.460;   66.439;  -11.330;  753.760
993.012;   66.178;  -13.610;  749.540
993.565;   65.200;  -13.460;  711.360
994.117;   67.382;   -9.360;  950.780
994.669;   63.647;  -11.300;  701.320
995.221;   61.544;  -13.540;  791.920
995.774;   59.160;  -13.430;  787.580
996.326;   56.789;  -12.520;  740.220
996.878;   55.301;  -10.950;  838.420
997.430;   53.222;  -14.300;  699.860
997.982;   53.061;  -13.760;  750.140
998.534;   52.841;  -11.530;  739.060
999.086;   52.309;  -10.310;  738.220
999.638;   51.482;  -12.530;  661.380
1000.190;   51.226;  -11.840;  699.320
1000.741;   50.936;  -10.260;  742.700
1001.293;   49.754;   -8.860;  686.020
1001.845;   49.135;  -13.700;  676.640
1002.396;   49.349;  -12.100;  743.400
1002.948;   49.241;  -12.760;  737.400
1003.500;   47.060;  -10.380;  723.780
1004.051;   48.309;  -11.900;  907.580
1004.603;   46.556;  -12.250;  791.820
1005.154;   44.043;  -13.210;  608.980
1005.705;   42.173;  -10.950;  723.960
1006.257;   41.576;  -13.880;  707.220
1006.808;   40.726;  -12.840;  685.460
1007.359;   40.439;  -10.570;  763.240
1007.910;   38.963;   -9.620;  646.640
1008.461;   39.515;  -13.630;  732.940
1009.013;   38.678;  -17.200;  588.340
1009.564;   39.219;  -10.200;  793.520
1010.115;   36.903;  -12.570;  597.040
1010.665;   37.489;  -15.150;  602.160
1011.216;   37.052;  -14.480;  667.920
1011.767;   36.388;  -11.340;  697.920
1012.318;   36.668;   -9.780;  736.980
1012.869;   35.318;  -12.380;  679.000
1013.419;   35.209;  -15.560;  603.120
1013.970;   35.458;  -11.010;  666.640
1014.521;   34.536;  -11.610;  620.620
1015.071;   35.074;  -13.450;  670.380
1015.622;   34.278;  -13.870;  635.460
1016.172;   34.441;  -11.610;  596.820
1016.723;   33.844;  -12.120;  614.380
1017.273;   32.948;  -13.620;  604.160
1017.823;   33.193;  -14.140;  650.340
1018.374;   32.691;  -12.800;  611.760
1018.924;   32.706;  -12.340;  716.880
1019.474;   32.843;  -11.410;  718.880
1020.024;   31.530;  -14.770;  657.580
1020.574;   32.134;   -9.780;  726.160
1021.124;   31.886;   -8.560;  673.580
1021.674;   31.063;  -15.190;  559.120
1022.224;   32.583;  -13.530;  708.940
1022.774;   32.192;  -13.280;  668.820
1023.324;   31.788;  -10.690;  753.520
1023.874;   33.674;  -10.240;  875.760
1024.423;   30.412;  -12.540;  613.700
1024.973;   30.485;  -10.010;  610.760
1025.523;   29.892;  -10.550;  620.960
1026.072;   30.029;  -13.560;  606.420
1026.622;   29.857;  -15.120;  675.740
1027.172;   30.298;  -11.260;  715.660
1027.721;   29.031;  -11.410;  601.220
1028.270;   28.526;  -13.530;  663.400
1028.820;   29.919;  -13.680;  638.080
1029.369;   29.237;  -13.520;  612.700
1029.918;   29.199;  -10.980;  649.840
1030.468;   27.996;  -13.530;  564.780
1031.017;   29.033;  -13.170;  634.800
1031.566;   27.645;  -12.200;  608.900
1032.115;   27.950;   -9.960;  694.500
1032.664;   26.305;  -13.210;  596.480
1033.213;   27.980;  -12.500;  735.420
1033.762;   27.232;  -11.910;  635.620
1034.311;   27.006;   -9.640;  677.220
1034.860;   27.415;  -13.310;  691.000
1035.408;   27.430;  -11.830;  722.720
1035.957;   28.072;  -12.000;  719.540
1036.506;   25.613;  -11.690;  530.800
1037.055;   27.224;  -10.990;  844.320
1037.603;   26.735;  -15.120;  664.000
1038.152;   25.126;  -12.450;  534.760
1038.700;   24.865;  -10.560;  585.740
1039.249;   24.731;  -11.080;  681.220
1039.797;   25.247;  -12.540;  633.360
1040.345;   25.712;  -11.920;  705.420
1040.894;   24.690;  -11.410;  625.300
1041.442;   24.337;  -14.320;  632.200
1041.990;   23.696;  -16.240;  559.160
1042.538;   22.874;  -11.680;  536.180
1043.087;   24.205;  -10.760;  570.860
1043.635;   24.887;  -11.850;  670.500
1044.183;   23.325;  -15.480;  586.400
1044.731;   22.995;  -11.770;  576.000
1045.279;   23.726;  -13.090;  674.920
1045.827;   25.455;  -12.440;  892.400
1046.374;   21.814;  -13.840;  515.420
1046.922;   21.930;  -13.220;  590.580
1047.470;   23.609;  -10.230;  691.300
1048.018;   22.199;  -14.590;  647.960
1048.565;   24.129;  -12.050;  708.600
1049.113;   21.967;  -11.650;  557.000
1049.660;   21.922;  -10.510;  629.660
1050.208;   22.122;  -13.310;  675.640
1050.755;   21.642;  -15.900;  606.580
1051.303;   22.035;  -11.430;  686.820
1051.850;   20.764;   -8.480;  635.120
1052.397;   19.838;  -15.010;  473.960
1052.945;   20.756;  -13.960;  617.760
1053.492;   21.865;  -13.150;  741.840
1054.039;   21.597;   -9.630;  720.180
1054.586;   20.223;  -13.680;  557.240
1055.133;   21.035;  -14.570;  693.140
1055.680;   21.118;  -13.820;  646.620
1056.227;   19.140;  -11.730;  542.780
1056.774;   21.417;  -12.480;  794.980
1057.321;   19.542;  -13.930;  523.260
1057.868;   20.293;  -11.690;  651.320
1058.415;   20.116;   -9.520;  651.980
1058.961;   19.747;  -13.160;  678.940
1059.508;   19.501;  -12.920;  643.820
1060.055;   19.816;  -11.920;  581.780
1060.601;   19.916;  -11.500;  624.300
1061.148;   19.047;  -14.330;  616.820
1061.694;   18.400;  -16.870;  592.580
1062.241;   19.026;  -10.330;  596.320
1062.787;   18.494;  -10.620;  663.140
1063.334;   19.884;  -10.110;  808.560
1063.880;   18.775;  -13.400;  668.360
1064.426;   19.125;  -10.680;  706.820
1064.972;   17.026;   -9.920;  601.340
1065.518;   15.974;  -10.980;  566.640
1066.065;   17.488;  -14.890;  624.460
1066.611;   17.354;  -12.870;  598.800
1067.157;   18.281;  -12.950;  641.860
1067.703;   17.802;  -13.540;  668.480
1068.249;   18.110;  -13.540;  605.220
1068.794;   16.667;  -12.600;  626.880
1069.340;   16.229;  -10.620;  578.960
1069.886;   16.960;  -12.830;  590.700
1070.432;   15.818;  -14.870;  541.720
1070.977;   16.014;  -11.980;  601.080
1071.523;   16.023;   -8.200;  573.060
1072.068;   15.961;  -12.330;  582.000
1072.614;   16.652;  -16.370;  527.760
1073.160;   17.313;  -11.100;  687.040
1073.705;   15.343;  -10.480;  572.520
1074.250;   15.055;  -14.520;  559.900
1074.796;   16.248;  -11.460;  655.160
1075.341;   16.859;  -11.950;  664.100
1075.886;   15.666;  -11.460;  594.240
1076.431;   14.948;  -13.770;  649.880
1076.976;   14.737;  -12.680;  639.220
1077.521;   14.474;  -13.170;  583.080
1078.067;   14.536;  -10.860;  579.400
1078.612;   15.087;  -13.920;  661.620
1079.156;   14.192;  -13.880;  601.540
1079.701;   15.569;  -13.120;  693.260
1080.246;   15.479;   -9.940;  696.300
1080.791;   14.343;  -14.740;  625.020
1081.336;   14.490;  -13.750;  659.320
1081.880;   14.467;  -13.400;  649.680
1082.425;   13.624;  -12.220;  573.480
1082.970;   14.392;  -11.610;  717.040
1083.514;   13.310;  -13.580;  597.000
1084.059;   13.328;  -12.810;  586.720
1084.603;   12.291;  -12.320;  565.840
1085.147;   13.605;  -13.190;  645.220
1085.692;   14.121;  -12.480;  716.800
1086.236;   13.084;  -13.020;  503.140
1086.780;   14.666;   -9.190;  751.440
1087.325;   13.187;  -12.480;  654.620
1087.869;   13.320;  -12.450;  610.700
1088.413;   13.383;  -12.240;  705.040
1088.957;   11.231;   -9.020;  543.400
1089.501;   13.911;  -10.320;  766.640
1090.045;   12.889;  -12.720;  726.480
1090.589;   11.731;  -13.690;  569.920
1091.133;   12.227;  -10.020;  673.340
1091.676;   12.502;  -12.330;  591.940
1092.220;   11.577;  -14.970;  600.920
1092.764;   12.340;  -12.430;  706.960
1093.307;   11.606;   -9.800;  673.780
1093.851;   10.457;  -14.970;  556.540
1094.395;   11.626;  -15.310;  683.140
1094.938;   11.105;  -10.370;  632.520
1095.482;   11.336;  -11.050;  559.800
1096.025;   11.471;  -11.840;  710.880
1096.568;   12.302;  -12.840;  779.280
1097.112;    9.006;  -14.700;  508.180
1097.655;   11.646;   -8.720;  603.000
1098.198;    9.920;  -13.610;  600.180
1098.741;    9.754;  -13.350;  612.860
1099.285;   11.853;  -11.230;  657.300
1099.828;    8.563;  -11.840;  439.400
1100.371;   10.156;  -10.840;  608.160
1100.914;   10.197;  -14.190;  682.660
1101.457;   10.376;  -11.240;  679.900
1101.999;    9.173;  -11.270;  584.680
1102.542;    9.295;  -11.480;  641.440
1103.085;    9.227;  -11.750;  658.500
1103.628;   10.336;  -11.400;  762.060
1104.170;    9.237;  -10.490;  588.280
1104.713;    9.766;  -10.600;  646.700
1105.256;    8.333;  -14.360;  557.440
1105.798;    8.189;  -13.210;  499.980
1106.341;   10.369;  -10.270;  728.900
1106.883;    8.578;  -12.200;  521.340
1107.425;    8.644;  -13.110;  668.180
1107.968;    8.462;  -12.840;  612.380
1108.510;    8.698;   -6.480;  684.960
1109.052;    7.875;  -13.940;  612.620
1109.594;    8.366;  -13.690;  554.440
1110.136;    8.351;  -11.880;  643.220
1110.679;    7.987;   -9.500;  633.080
1111.221;    8.376;  -14.160;  604.460
1111.763;    7.832;  -13.980;  559.220
1112.304;    7.441;  -13.880;  547.140
1112.846;    7.541;  -12.210;  666.240
1113.388;   10.628;  -11.390;  942.180
1113.930;    7.812;  -14.540;  694.200
1114.472;    7.475;  -12.640;  606.540
1115.013;    6.480;  -11.620;  551.280
1115.555;    5.978;  -13.640;  587.100
1116.097;    6.051;  -15.380;  579.480
1116.638;    6.936;  -12.640;  684.600
1117.180;    7.066;   -9.850;  667.740
1117.721;    6.745;  -13.690;  568.580
1118.262;    7.494;  -12.680;  677.960
1118.804;    7.358;  -12.530;  637.340
1119.345;    6.196;  -11.690;  578.400
1119.886;    7.158;  -13.380;  704.040
1120.427;    5.519;  -14.070;  589.020
1120.969;    6.208;  -13.500;  597.920
1121.510;    5.501;  -11.480;  563.060
1122.051;    5.952;  -12.830;  723.580
1122.592;    5.395;  -14.290;  655.420
1123.133;    5.121;  -12.400;  547.940
1123.673;    6.850;  -10.130;  706.480
1124.214;    5.551;  -12.930;  612.460
1124.755;    6.048;  -14.380;  639.460
1125.296;    5.413;  -14.000;  627.320
1125.836;    6.352;  -10.070;  691.500
1126.377;    4.689;  -12.640;  599.660
1126.918;    5.953;  -12.960;  614.980
1127.458;    5.163;  -13.350;  622.220
1127.999;    5.683;  -10.750;  656.980
1128.539;    4.879;  -12.350;  694.240
1129.079;    4.159;  -14.860;  632.720
1129.620;    4.203;  -13.840;  558.100
1130.160;    3.667;  -12.330;  539.480
1130.700;    5.133;  -14.530;  640.840
1131.240;    4.224;  -12.530;  643.700
1131.781;    4.361;  -14.450;  619.680
1132.321;    3.914;   -9.790;  599.120
1132.861;    2.649;  -14.860;  564.200
1133.401;    3.376;  -14.290;  593.940
1133.941;    4.256;  -11.750;  626.280
1134.481;    3.728;   -9.920;  597.580
1135.020;    3.057;  -12.290;  609.160
1135.560;    4.093;  -11.650;  674.940
1136.100;    3.353;  -16.270;  501.160
1136.640;    3.584;  -10.890;  510.480
1137.179;    3.264;  -14.180;  537.960
1137.719;    2.796;  -16.250;  605.400
1138.258;    3.558;  -14.230;  587.360
1138.798;    3.699;   -9.090;  663.780
1139.337;    2.102;  -15.130;  482.840
1139.877;    2.903;  -13.680;  642.360
1140.416;    5.653;  -11.320;  878.060
1140.955;    2.977;  -10.860;  535.380
1141.494;    3.043;  -12.920;  669.280
1142.034;    2.549;  -13.930;  583.520
1142.573;    3.291;  -11.440;  646.280
1143.112;    2.480;  -12.000;  553.480
1143.651;    2.559;  -13.670;  536.480
1144.190;    2.818;  -12.730;  691.640
1144.729;    2.306;  -14.560;  607.420
1145.267;    1.886;  -11.830;  584.900
1145.806;    2.893;  -12.230;  637.040
1146.345;    1.530;  -14.130;  635.020
1146.884;    1.592;  -11.590;  622.500
1147.422;    1.232;  -12.550;  533.060
1147.961;    2.686;  -11.180;  708.460
1148.500;    2.488;  -11.510;  669.720
1149.038;    3.040;  -11.640;  632.500
1149.577;    2.164;  -10.130;  698.640
1150.115;    0.329;  -13.970;  452.280
1150.653;    1.360;  -14.520;  607.340
1151.192;    1.519;  -12.810;  552.920
1151.730;    1.974;   -9.100;  652.560
1152.268;    0.831;  -12.220;  589.520
1152.806;    1.064;  -14.140;  571.180
1153.344;   -0.291;  -12.350;  577.640
1153.882;    0.993;   -8.980;  600.060
1154.421;   -0.477;  -15.190;  470.620
1154.958;    0.422;  -15.210;  595.240
1155.496;    1.279;  -12.850;  645.280
1156.034;    1.396;   -9.940;  721.880
1156.572;    1.047;  -13.570;  667.060
1157.110;   -0.144;  -14.590;  473.940
1157.647;    0.952;  -13.030;  676.960
1158.185;    0.325;  -12.140;  564.320
1158.723;   -0.921;  -14.390;  509.200
1159.260;    0.318;  -14.090;  701.700
1159.798;    0.655;  -11.920;  658.160
1160.335;   -0.227;  -11.110;  631.820

