
Integration time [ms]:   3.276
Averaging Nr. [scans]: 1000
Smoothing Nr. [pixels]: 0
Data measured with spectrometer [name]: 7414430SP
Wave   ;Sample   ;Dark     ;Reference
[nm]   ;[counts] ;[counts] ;[counts] 

288.544;  148.760;    7.793;  793.890
289.143;  153.429;    7.462;  681.602
289.742;  154.305;    8.602;  828.814
290.341;  138.912;    1.321;  789.841
290.940;  128.852;   -0.709;  730.702
291.538;  130.232;    0.881;  881.108
292.137;  129.615;    0.122;  792.581
292.736;  134.219;   -1.929;  975.101
293.335;  130.924;   -8.229;  735.086
293.934;  130.804;   -5.279;  781.677
294.532;  129.487;   -1.369; 1031.958
295.131;  115.745;   -7.641;  834.394
295.730;  115.846;   -8.420;  809.588
296.328;  114.404;   -5.611;  783.442
296.927;  115.775;   -5.781;  779.652
297.525;  116.217;   -6.361;  781.236
298.124;  105.593;  -11.382;  654.009
298.722;  110.320;   -7.641;  761.933
299.321;  108.987;   -6.811;  708.597
299.919;  106.108;   -6.991;  751.918
300.518;  102.929;  -10.362;  689.338
301.116;  105.462;   -9.581;  691.381
301.715;  104.951;   -4.891;  730.222
302.313;  104.127;   -8.801;  704.943
302.911;   98.297;   -8.522;  733.830
303.509;  104.867;   -6.171;  925.627
304.108;  102.869;   -7.311;  760.383
304.706;  101.336;   -8.321;  801.664
305.304;   96.123;  -10.222;  796.707
305.902;  100.848;   -6.021;  784.484
306.500;   96.617;   -4.971;  728.200
307.098;   94.897;   -7.061;  746.560
307.696;   92.819;   -8.801;  780.432
308.294;   93.843;   -6.411;  731.359
308.892;   95.988;   -2.901;  759.769
309.490;   92.063;   -5.041;  712.161
310.088;   89.925;   -5.002;  788.444
310.686;   94.306;   -2.041;  821.749
311.284;   89.937;   -2.351;  766.040
311.882;   88.505;   -4.422;  731.225
312.480;   84.061;   -4.192;  697.167
313.078;   86.313;   -1.172;  808.331
313.675;   87.814;   -2.601;  691.600
314.273;   82.736;   -1.312;  797.837
314.871;   81.736;   -3.942;  589.829
315.468;   79.946;   -2.802;  652.090
316.066;   82.631;   -0.701;  694.427
316.664;   75.314;   -4.362;  656.351
317.261;   78.905;   -2.872;  910.128
317.859;   74.722;   -2.022;  768.735
318.456;   75.771;   -0.531;  830.096
319.054;   71.531;   -3.912;  787.828
319.651;   70.482;   -4.752;  759.928
320.249;   69.649;   -2.602;  810.188
320.846;   67.407;   -0.821;  714.286
321.443;   64.247;   -4.642;  832.135
322.041;   61.198;   -5.002;  812.315
322.638;   58.943;   -3.982;  701.456
323.235;   60.930;   -3.411;  665.683
323.833;   57.952;   -7.361;  740.354
324.430;   53.018;   -8.611;  615.900
325.027;   53.963;   -4.061;  876.855
325.624;   54.212;   -4.031;  644.532
326.221;   50.596;   -7.481;  689.717
326.818;   50.305;   -5.281;  818.332
327.415;   53.275;   -7.460;  748.828
328.012;   53.600;   -5.510;  690.585
328.609;   51.500;   -7.880;  731.389
329.206;   49.772;   -8.331;  778.621
329.803;   50.067;   -5.121;  737.841
330.400;   53.140;   -4.510;  704.260
330.997;   53.359;   -6.441;  817.147
331.594;   52.311;   -8.831;  788.185
332.191;   58.172;   -7.621;  728.722
332.787;   60.719;   -4.591;  844.463
333.384;   58.514;   -7.412;  763.093
333.981;   56.781;   -8.293;  815.687
334.578;   60.911;   -7.052;  708.378
335.174;   63.198;   -3.102;  731.469
335.771;   63.581;   -5.943;  836.456
336.367;   59.573;   -7.393;  710.631
336.964;   63.669;   -4.063;  793.266
337.561;   61.950;   -3.813;  731.112
338.157;   57.344;   -4.654;  911.916
338.754;   55.218;   -7.934;  796.589
339.350;   52.770;   -4.414;  722.493
339.946;   55.685;   -4.664;  773.135
340.543;   47.391;   -6.375;  846.136
341.139;   42.003;   -9.815;  720.836
341.735;   39.685;   -4.526;  772.593
342.332;   38.072;   -4.895;  691.472
342.928;   38.620;   -4.295;  795.394
343.524;   32.820;   -5.476;  761.684
344.120;   28.839;   -5.856;  738.562
344.716;   32.386;   -2.155;  723.717
345.313;   29.554;   -6.275;  795.342
345.909;   25.009;   -8.815;  627.336
346.505;   25.996;   -5.305;  740.247
347.101;   27.221;   -2.674;  827.864
347.697;   27.095;   -4.344;  785.398
348.293;   21.580;   -9.975;  627.244
348.889;   22.424;   -5.774;  745.914
349.485;   22.190;   -5.004;  688.205
350.081;   22.729;   -4.704;  772.592
350.676;   17.029;   -6.635;  691.606
351.272;   21.661;   -4.504;  809.530
351.868;   22.045;   -3.914;  780.497
352.464;   19.414;   -9.044;  723.932
353.059;   14.992;   -8.314;  646.017
353.655;   18.990;   -7.024;  777.063
354.251;   19.870;   -5.343;  759.845
354.846;   14.294;   -8.604;  740.646
355.442;   11.969;   -6.945;  753.071
356.038;   14.034;   -7.564;  751.708
356.633;   14.893;   -5.814;  728.594
357.229;   12.094;   -7.364;  724.757
357.824;    9.991;   -8.024;  703.600
358.420;    9.166;   -9.384;  679.726
359.015;   10.308;   -5.104;  695.357
359.610;   11.436;   -6.854;  763.920
360.206;    3.916;  -10.185;  603.240
360.801;    8.229;   -7.054;  646.503
361.396;   10.474;   -5.034;  725.975
361.992;    4.743;   -8.284;  668.220
362.587;    2.131;   -8.625;  670.160
363.182;    5.297;   -7.674;  689.631
363.777;    6.297;   -5.164;  738.242
364.372;    5.919;   -8.604;  737.314
364.967;    1.328;   -9.055;  680.744
365.563;    5.091;   -6.114;  815.567
366.158;    3.002;   -5.814;  685.161
366.753;    3.450;   -7.854;  649.263
367.348;    1.067;   -7.804;  746.056
367.942;    1.237;   -7.954;  697.298
368.537;    0.618;   -4.984;  754.245
369.132;    0.818;   -8.564;  703.428
369.727;   -3.650;   -8.855;  638.079
370.322;   -1.930;   -6.245;  580.186
370.917;   -1.751;   -6.425;  710.646
371.511;    0.164;   -6.294;  861.834
372.106;   -3.936;   -7.685;  776.964
372.701;   -5.400;   -7.335;  585.988
373.296;    0.123;   -4.564;  863.135
373.890;   -5.824;  -10.235;  647.840
374.485;   -7.973;   -7.885;  691.199
375.079;   -3.901;   -7.324;  738.685
375.674;   -1.834;   -3.494;  812.970
376.268;   -6.520;   -8.525;  691.759
376.863;  -12.451;  -10.086;  580.327
377.457;   -5.666;   -7.025;  662.490
378.052;   -7.423;   -3.585;  764.884
378.646;   -8.317;   -7.595;  741.167
379.240;   -9.788;   -8.335;  721.176
379.835;   -7.833;   -5.785;  636.978
380.429;  -10.049;   -4.335;  562.557
381.023;   -9.945;   -6.805;  779.205
381.617;  -12.672;   -9.195;  680.106
382.212;   -9.121;   -6.905;  685.303
382.806;   -8.106;   -3.745;  760.690
383.400;  -13.022;   -7.745;  672.281
383.994;  -13.791;   -9.765;  664.870
384.588;  -10.298;   -6.564;  697.701
385.182;   -7.751;   -5.344;  726.624
385.776;  -10.059;   -8.514;  706.875
386.370;  -13.350;   -9.555;  681.968
386.964;  -11.423;   -8.715;  684.155
387.558;  -10.117;   -6.174;  598.360
388.152;  -14.026;   -8.725;  681.959
388.745;  -12.696;   -7.965;  814.707
389.339;  -10.052;   -5.924;  747.642
389.933;   -9.569;   -5.524;  695.370
390.527;  -10.766;   -7.114;  859.029
391.120;  -16.769;  -10.725;  595.318
391.714;  -13.919;   -8.035;  711.633
392.308;  -10.032;   -3.574;  780.253
392.901;  -14.026;   -7.245;  642.460
393.495;  -16.311;   -9.285;  595.414
394.089;  -14.146;   -5.895;  760.452
394.682;  -14.090;   -4.295;  697.188
395.275;  -15.109;   -9.875;  719.927
395.869;  -17.017;   -8.485;  667.314
396.462;  -15.051;   -7.455;  616.609
397.056;  -10.550;   -5.424;  776.621
397.649;  -15.612;   -6.605;  731.575
398.242;  -13.494;   -8.224;  712.645
398.836;  -12.407;   -7.474;  766.408
399.429;  -13.170;   -7.094;  631.041
400.022;  -16.695;   -9.475;  665.902
400.615;  -14.389;   -7.145;  805.609
401.208;  -12.655;   -7.174;  691.451
401.802;  -14.428;   -5.515;  699.329
402.395;  -16.442;   -9.875;  683.502
402.988;  -17.350;   -8.845;  696.627
403.581;  -12.962;   -8.874;  646.878
404.174;  -11.241;   -5.324;  686.568
404.767;  -14.046;   -9.575;  638.583
405.360;  -17.047;  -10.965;  621.445
405.953;  -11.273;   -8.764;  759.034
406.545;  -10.966;   -7.514;  725.342
407.138;  -14.987;  -10.025;  618.350
407.731;  -14.516;  -10.034;  613.303
408.324;  -10.245;   -9.374;  660.554
408.917;   -9.860;   -6.534;  681.864
409.509;  -12.417;   -8.004;  740.396
410.102;  -15.097;   -9.875;  643.948
410.695;   -8.681;   -8.604;  665.758
411.287;   -9.626;   -6.794;  599.821
411.880;  -10.990;   -9.334;  585.421
412.472;  -13.683;  -10.254;  613.092
413.065;  -11.118;   -6.714;  629.408
413.657;   -8.857;   -7.234;  576.678
414.250;   -8.623;  -10.544;  646.681
414.842;  -10.882;   -9.744;  676.353
415.434;   -8.659;   -6.994;  570.463
416.027;   -4.384;   -5.893;  652.196
416.619;   -6.951;   -7.264;  713.400
417.211;   -7.556;  -10.374;  599.352
417.804;   -3.200;   -7.993;  628.499
418.396;   -6.614;   -7.234;  607.643
418.988;   -5.505;   -9.443;  659.238
419.580;   -8.617;  -10.724;  568.276
420.172;   -6.400;  -10.323;  536.196
420.764;   -1.835;   -8.793;  672.482
421.356;   -3.225;  -11.143;  636.898
421.948;   -4.419;   -8.293;  677.661
422.540;    0.961;   -7.893;  680.027
423.132;   -0.124;   -7.082;  600.641
423.724;   -2.871;   -8.653;  561.267
424.316;   -1.204;  -10.213;  621.345
424.908;    2.230;   -9.762;  591.517
425.500;    3.117;   -5.572;  647.978
426.092;    3.547;   -8.422;  648.268
426.683;    2.152;   -9.283;  684.836
427.275;    5.208;   -7.852;  641.471
427.867;    7.196;   -5.272;  668.948
428.458;    7.135;   -7.682;  732.344
429.050;    5.415;  -10.612;  680.749
429.642;    7.794;   -9.882;  743.124
430.233;    8.785;   -6.962;  569.356
430.825;    9.823;   -6.842;  724.809
431.416;    6.559;   -9.672;  698.241
432.008;   10.257;   -6.552;  651.723
432.599;   11.879;   -6.891;  656.073
433.190;    8.805;  -10.912;  637.670
433.782;    6.742;  -11.172;  590.395
434.373;   14.996;   -6.061;  884.765
434.964;   13.948;   -8.251;  602.920
435.556;   10.864;   -9.722;  634.537
436.147;   14.038;   -9.082;  758.490
436.738;   14.206;   -8.041;  701.099
437.329;   19.851;   -7.341;  721.723
437.920;   12.594;   -8.162;  666.688
438.511;   12.509;  -11.802;  564.526
439.103;   18.447;  -10.191;  623.998
439.694;   20.972;   -7.601;  681.583
440.285;   21.793;   -8.541;  764.432
440.876;   19.726;   -9.751;  845.738
441.466;   18.916;   -9.401;  575.162
442.057;   25.210;   -7.760;  665.814
442.648;   24.092;   -9.971;  746.255
443.239;   21.170;  -11.001;  620.477
443.830;   26.499;   -7.990;  704.958
444.421;   28.045;   -7.910;  655.474
445.011;   24.648;   -8.131;  693.619
445.602;   24.907;   -7.111;  743.126
446.193;   26.317;  -10.920;  488.117
446.783;   31.388;   -6.500;  640.397
447.374;   26.212;   -8.671;  692.759
447.964;   26.416;  -10.781;  713.770
448.555;   34.509;   -9.650;  822.742
449.145;   31.220;   -8.660;  662.853
449.736;   32.708;   -8.990;  803.179
450.326;   32.619;   -9.500;  713.626
450.917;   37.560;   -8.680;  675.324
451.507;   36.867;   -7.520;  600.661
452.097;   37.079;   -8.590;  746.267
452.688;   37.640;  -11.340;  742.160
453.278;   37.745;  -10.100;  566.840
453.868;   43.132;   -6.019;  793.550
454.458;   40.252;   -9.440;  651.141
455.048;   40.258;  -10.560;  711.783
455.639;   41.854;  -11.799;  567.096
456.229;   45.582;   -6.899;  710.694
456.819;   47.919;   -7.389;  751.158
457.409;   47.017;  -11.119;  773.993
457.999;   50.033;   -9.289;  737.505
458.589;   50.643;   -6.139;  686.606
459.179;   50.696;   -8.729;  717.658
459.769;   47.849;   -9.789;  627.099
460.358;   53.475;  -10.259;  797.262
460.948;   53.977;   -7.299;  689.503
461.538;   54.989;  -10.289;  660.677
462.128;   52.919;  -11.269;  664.934
462.717;   59.117;   -9.368;  710.326
463.307;   62.392;   -7.908;  705.846
463.897;   58.141;   -9.599;  656.942
464.486;   58.150;   -9.769;  837.128
465.076;   61.838;   -8.048;  733.776
465.666;   65.202;   -9.358;  652.900
466.255;   63.026;   -7.919;  785.651
466.845;   61.744;  -11.689;  666.749
467.434;   65.683;   -7.818;  725.873
468.023;   66.933;   -7.678;  658.357
468.613;   64.498;  -10.939;  713.946
469.202;   68.494;  -10.118;  646.507
469.791;   71.784;   -9.108;  737.811
470.381;   74.435;   -6.058;  742.813
470.970;   74.242;  -10.428;  711.099
471.559;   73.776;  -10.268;  733.291
472.148;   77.260;   -8.448;  675.737
472.738;   79.562;   -6.917;  765.466
473.327;   79.176;  -11.978;  637.529
473.916;   78.884;  -11.888;  737.446
474.505;   82.718;   -9.437;  751.703
475.094;   87.039;   -6.747;  806.570
475.683;   84.788;   -9.367;  797.699
476.272;   85.655;  -12.637;  730.632
476.861;   89.028;  -10.027;  706.754
477.449;   95.884;   -8.716;  728.487
478.038;   89.853;   -9.577;  692.513
478.627;   90.570;   -9.718;  714.852
479.216;   97.700;   -8.947;  769.441
479.805;  101.755;   -6.256;  783.375
480.393;  100.659;   -7.937; 1008.945
480.982;   98.636;   -7.717;  874.501
481.571;  105.926;   -9.266;  858.333
482.159;  106.533;   -7.636;  705.386
482.748;  106.282;   -9.667;  821.385
483.336;  109.652;  -10.376;  858.209
483.925;  110.915;   -7.147;  774.373
484.513;  118.013;   -7.996;  758.962
485.102;  114.284;  -10.027;  810.965
485.690;  123.369;  -10.446; 1011.050
486.278;  124.882;   -8.446;  979.329
486.867;  125.531;   -6.356;  809.662
487.455;  127.530;   -9.136;  898.229
488.043;  128.353;  -10.646;  748.361
488.631;  137.246;   -7.456; 1005.079
489.220;  142.614;   -6.636;  908.626
489.808;  142.256;  -11.036;  741.415
490.396;  149.180;  -10.246;  914.645
490.984;  155.170;   -8.556;  830.161
491.572;  164.423;   -5.886;  940.315
492.160;  171.360;   -9.486;  919.081
492.748;  182.641;  -10.976;  884.341
493.336;  205.515;   -8.776; 1019.693
493.924;  231.702;   -5.465;  958.077
494.512;  258.207;   -9.986; 1066.638
495.100;  294.847;  -10.636; 1103.280
495.687;  348.946;  -10.885; 1206.373
496.275;  411.923;   -8.126; 1150.796
496.863;  479.026;  -10.586; 1281.171
497.451;  581.392;  -11.926; 1386.805
498.038;  709.132;  -10.885; 1556.729
498.626;  814.049;   -6.315; 1741.407
499.214;  957.119;   -7.326; 2016.609
499.801; 1150.609;  -11.906; 2220.633
500.389; 1390.231;  -10.466; 2312.494
500.976; 1694.343;   -5.236; 2744.849
501.564; 2121.946;   -8.936; 3148.565
502.151; 2487.362;  -13.176; 3515.999
502.738; 2923.348;  -10.646; 3971.274
503.326; 3300.465;   -9.525; 4403.796
503.913; 3667.819;  -10.856; 5161.749
504.500; 4026.009;  -11.586; 5986.420
505.088; 4424.499;  -10.336; 6381.201
505.675; 4944.880;   -6.355; 6925.547
506.262; 5640.650;   -9.046; 7619.060
506.849; 6330.244;  -10.416; 8733.969
507.436; 6795.127;  -10.305; 9790.121
508.023; 7374.464;   -5.496; 9985.472
508.610; 7640.743;   -7.856;10434.618
509.197; 8252.950;  -10.097;11198.435
509.784; 9590.667;  -10.886;12391.194
510.371;10614.720;   -9.315;13603.713
510.958;11368.963;   -9.936;14426.586
511.545;12143.636;   -9.326;15243.775
512.132;13010.107;  -10.075;15945.876
512.719;13571.467;   -7.796;16340.369
513.305;14495.206;  -10.606;18011.766
513.892;15223.719;  -11.486;19754.971
514.479;16521.857;   -9.126;20967.805
515.066;18003.826;   -6.026;22299.793
515.652;19264.225;   -8.466;22908.660
516.239;20622.672;  -10.886;23798.875
516.825;21723.402;  -11.496;25567.275
517.412;22765.016;   -5.796;28154.959
517.998;23283.148;  -10.506;28344.111
518.585;23346.164;  -10.076;27134.219
519.171;23844.668;   -8.315;27268.576
519.758;25293.357;   -8.596;28964.129
520.344;27093.344;   -8.466;30664.494
520.930;27139.023;  -11.006;32550.605
521.516;28620.066;  -10.495;35422.895
522.103;30863.758;   -5.526;38280.004
522.689;31349.082;   -8.746;37835.117
523.275;30746.799;  -11.376;37288.613
523.861;31894.963;  -11.156;37281.395
524.447;33274.977;   -8.135;37846.949
525.033;33043.734;   -7.896;38321.949
525.619;33098.727;  -12.476;38579.285
526.205;34575.055;   -9.516;40622.875
526.791;36762.844;   -6.926;42258.836
527.377;36805.910;   -8.346;42966.902
527.963;37954.699;   -8.717;42018.949
528.549;36129.465;  -11.016;42476.828
529.135;34295.781;   -8.536;41854.852
529.721;32207.186;   -9.666;41237.711
530.306;29925.666;  -10.066;41259.445
530.892;30132.992;  -11.356;41506.047
531.478;33827.801;   -6.596;43559.613
532.063;38621.980;   -8.836;47695.563
532.649;39616.355;  -10.047;50808.324
533.235;40436.254;   -9.746;51787.500
533.820;40798.273;   -6.566;52145.035
534.406;41680.949;  -10.817;51133.488
534.991;40513.180;   -9.416;49996.805
535.576;37446.531;   -9.036;48882.852
536.162;35048.961;   -6.156;46942.285
536.747;33059.531;  -11.607;45711.746
537.333;36358.281;  -11.787;48510.180
537.918;42301.586;  -12.437;50439.891
538.503;45473.996;   -7.196;50863.711
539.088;45381.680;  -10.556;50906.922
539.673;46615.004;   -8.767;52621.965
540.259;46834.066;  -10.026;52368.094
540.844;44134.832;   -7.416;50879.109
541.429;45463.324;   -9.467;52077.777
542.014;48192.477;   -9.527;52716.695
542.599;47375.043;   -9.946;52363.281
543.184;45086.008;   -7.927;53187.137
543.769;46724.602;   -9.297;54697.605
544.354;46002.855;  -10.127;53913.914
544.938;44595.539;   -9.267;49680.164
545.523;46462.598;   -6.506;47386.277
546.108;49058.660;   -9.787;49151.949
546.693;51051.859;  -11.587;51384.637
547.278;50787.355;  -10.986;51853.254
547.862;47811.191;   -8.206;51173.750
548.447;43323.508;  -10.067;51691.395
549.031;42843.398;   -9.637;52456.703
549.616;47789.988;   -9.926;52714.516
550.201;46945.645;   -6.347;52414.598
550.785;48187.195;   -7.917;52355.059
551.370;47156.992;  -10.867;54589.453
551.954;46779.230;   -9.047;58267.348
552.538;47496.883;   -7.827;59062.176
553.123;45741.289;  -10.287;58115.285
553.707;43632.375;  -12.178;56556.285
554.291;44982.602;   -8.717;56201.668
554.876;47225.711;   -7.457;55335.762
555.460;47468.766;  -10.387;54155.703
556.044;48583.242;   -9.618;53721.484
556.628;47230.367;  -11.567;53731.016
557.212;45861.941;   -8.097;54312.531
557.796;44276.938;  -11.077;53797.773
558.380;44240.578;  -11.108;56145.984
558.964;44693.320;   -9.057;57277.930
559.548;45785.285;   -6.977;56459.641
560.132;44059.605;  -11.457;54434.543
560.716;42763.316;  -11.378;54800.617
561.300;43902.285;   -9.577;57606.945
561.884;44939.898;   -7.127;58972.445
562.467;43393.234;   -7.118;57327.570
563.051;42683.605;  -13.358;54962.434
563.635;43643.980;  -10.178;52594.473
564.219;43855.449;   -7.837;50610.410
564.802;44730.645;  -11.398;49551.180
565.386;44706.348;  -12.788;48370.953
565.969;44095.613;   -9.077;48178.871
566.553;43426.555;   -6.207;49957.305
567.136;43871.910;   -8.568;50369.594
567.720;40160.070;  -11.868;49492.004
568.303;38036.551;   -8.268;50616.352
568.887;38157.023;   -8.698;50727.148
569.470;38346.273;   -6.808;51698.379
570.053;36963.418;  -13.188;52122.078
570.637;35351.055;  -12.037;52536.438
571.220;35166.855;   -8.577;51186.098
571.803;35888.496;   -8.498;51032.762
572.386;38263.176;  -10.498;49609.887
572.969;40634.137;   -9.388;48285.926
573.552;38611.523;   -8.338;47624.285
574.135;37282.168;   -8.518;45498.641
574.718;34929.480;  -13.628;41970.434
575.301;33892.809;  -10.893;41447.137
575.884;32856.137;   -8.158;40923.836
576.467;34080.137;  -10.328;45267.723
577.050;36235.957;  -13.058;48175.543
577.633;37671.348;   -9.458;47729.328
578.216;36661.293;   -8.928;47579.793
578.799;35751.828;   -9.358;47820.996
579.381;34572.215;  -11.388;48115.551
579.964;32900.141;  -11.718;47333.766
580.547;34524.418;   -8.588;46668.969
581.129;35653.691;   -8.859;44466.141
581.712;36351.484;  -10.729;44164.922
582.294;36845.824;  -11.118;46477.855
582.877;36774.441;   -5.218;48244.254
583.459;34338.535;   -8.679;47437.895
584.042;32397.635;  -10.709;46943.219
584.624;33138.754;  -11.669;46792.227
585.206;32616.900;   -8.218;46557.250
585.789;32679.688;  -10.569;45793.773
586.371;35451.898;  -11.859;43836.391
586.953;35815.402;  -10.719;42972.492
587.536;37128.320;   -7.198;42487.211
588.118;37079.875;   -8.720;42086.414
588.700;33666.848;  -10.439;43389.930
589.282;32869.277;   -9.198;43646.039
589.864;33658.543;   -9.199;43438.109
590.446;34575.480;  -11.319;43151.926
591.028;34509.824;  -11.159;42781.867
591.610;33573.555;  -11.779;42839.098
592.192;31105.658;   -7.668;42820.402
592.774;29613.656;  -11.949;40724.277
593.356;28372.928;  -12.129;39874.789
593.937;27365.070;  -10.669;39980.648
594.519;29507.613;   -6.509;42069.633
595.101;31687.893;  -10.849;42976.031
595.683;31774.504;  -11.679;44084.441
596.264;32832.496;   -9.049;43478.797
596.846;32192.088;   -8.849;43803.672
597.427;32080.203;   -9.570;42986.934
598.009;33722.797;  -12.620;42832.219
598.591;34116.102;  -10.039;42580.086
599.172;33216.672;  -10.369;43061.805
599.753;33297.215;   -9.140;41691.469
600.335;34830.387;  -11.430;40692.520
600.916;33191.648;   -9.939;39982.422
601.498;30708.852;   -8.479;40318.617
602.079;29201.602;  -10.920;40670.609
602.660;29214.625;  -11.480;41450.898
603.241;30845.230;  -11.699;41137.738
603.823;29620.855;   -9.579;38868.797
604.404;29330.969;  -10.620;38182.785
604.985;30895.129;  -10.450;38078.047
605.566;30635.688;   -9.129;38056.633
606.147;30717.072;   -7.510;37020.418
606.728;32254.098;  -10.660;37883.359
607.309;30936.059;  -11.740;38748.273
607.890;30362.217;   -9.759;38850.230
608.471;29852.945;   -8.250;37457.918
609.051;28932.447;   -9.240;36066.457
609.632;27925.898;  -12.120;35991.074
610.213;28720.781;   -9.110;37402.641
610.794;29379.588;   -8.030;38383.363
611.374;28940.900;   -8.110;40562.387
611.955;29450.498;  -13.560;38533.727
612.536;30724.195;  -11.400;36951.789
613.116;30772.008;   -8.070;37197.891
613.697;31065.949;  -10.830;38411.125
614.277;29471.709;  -11.641;38673.938
614.858;30353.363;  -13.310;37075.863
615.438;29534.531;   -7.460;35092.906
616.019;26806.639;   -7.601;33666.301
616.599;27515.316;  -12.020;34189.023
617.179;29277.559;  -11.780;36952.047
617.760;30215.828;   -8.570;39582.574
618.340;31318.891;  -11.471;38943.977
618.920;32589.088;  -11.170;37594.156
619.500;32508.193;  -11.071;37866.938
620.080;31664.473;   -7.750;37869.043
620.660;32805.387;  -12.711;36868.617
621.241;34177.418;  -10.211;36352.309
621.821;34327.316;  -10.961;35459.520
622.401;33288.469;   -7.720;35207.414
622.980;32539.441;   -8.981;35980.422
623.560;31128.182;   -9.331;37351.328
624.140;29990.693;   -9.850;34388.582
624.720;24837.410;   -7.451;32368.764
625.300;21277.205;   -9.070;32638.629
625.880;24682.484;  -12.601;34599.035
626.459;28695.428;  -11.751;36831.738
627.039;31766.832;   -9.281;38299.098
627.619;31690.348;   -8.801;38289.574
628.198;30046.805;  -12.071;37220.695
628.778;29204.244;   -9.461;37632.563
629.357;29927.168;   -8.491;38003.012
629.937;29990.383;   -9.721;38402.039
630.516;29459.346;   -9.951;37868.801
631.096;29081.088;  -11.731;35760.410
631.675;31797.820;   -8.572;35225.219
632.254;36799.668;  -11.282;35130.289
632.834;36247.863;  -13.322;35794.570
633.413;34422.613;  -10.301;35788.922
633.992;31587.607;   -8.582;34532.863
634.571;32364.998;   -8.352;33590.113
635.151;35322.582;  -11.912;34943.863
635.730;33760.742;  -10.511;35352.523
636.309;30330.648;   -7.731;35366.605
636.888;27838.971;   -9.952;36165.637
637.467;28737.016;  -11.672;37515.902
638.046;30335.686;   -8.901;39288.695
638.625;33407.480;   -7.912;38279.699
639.204;33217.742;  -10.022;37741.598
639.782;31732.014;  -12.252;38364.551
640.361;27977.947;  -10.041;36740.621
640.940;25190.938;  -11.161;34950.082
641.519;25860.504;   -9.701;34137.398
642.097;28888.523;  -11.271;35654.258
642.676;31749.551;   -8.651;35637.957
643.255;32253.447;   -8.711;36567.074
643.833;31413.939;   -9.581;37809.434
644.412;31465.148;  -13.711;37337.293
644.990;30564.449;  -11.811;37018.531
645.569;30705.727;   -9.411;36518.469
646.147;29646.963;  -10.291;36186.430
646.726;29181.908;  -12.401;36267.688
647.304;30397.795;  -10.411;36647.625
647.882;32419.898;   -9.651;39286.742
648.461;34128.121;   -9.631;39157.703
649.039;32225.457;  -11.881;35412.883
649.617;31553.988;   -9.661;34744.918
650.195;31278.807;   -9.301;35403.098
650.773;29804.219;  -10.511;35053.797
651.352;27334.988;  -11.521;33756.816
651.930;24977.826;  -12.211;31868.773
652.508;23370.445;   -9.171;33121.551
653.086;27372.596;   -9.371;33564.793
653.663;30190.475;  -13.161;34054.668
654.241;29051.771;  -13.031;35693.309
654.819;30737.189;   -9.371;36422.906
655.397;30951.543;  -10.511;38213.484
655.975;30671.543;  -10.371;39507.625
656.553;30300.891;  -10.051;39498.223
657.130;28698.615;  -10.061;40395.480
657.708;28072.885;   -9.561;39242.020
658.286;28121.711;  -11.511;38920.020
658.863;29380.205;  -10.261;40202.898
659.441;32438.254;   -7.531;39677.938
660.018;31912.619;   -9.501;40413.355
660.596;30797.117;  -13.301;39931.414
661.173;32851.328;  -11.211;39604.531
661.750;33003.742;   -9.951;39700.070
662.328;31776.770;   -9.390;39292.809
662.905;30745.043;  -11.330;38235.648
663.482;26347.146;   -9.050;36212.305
664.060;24427.588;   -8.240;35944.945
664.637;27248.449;  -10.050;35170.785
665.214;29186.027;  -11.760;34197.523
665.791;30589.969;  -10.530;34549.520
666.368;29347.855;   -9.690;35118.578
666.945;30190.281;   -9.320;36019.418
667.522;31879.322;  -11.860;36048.438
668.099;31580.963;  -10.770;36243.914
668.676;30406.146;   -6.260;35958.875
669.253;29034.566;   -7.000;37384.730
669.830;29734.213;  -10.190;36779.629
670.407;29433.246;   -9.550;35231.289
670.984;29368.510;   -9.260;35544.270
671.560;29994.713;   -9.280;35466.867
672.137;29144.941;  -11.810;34280.863
672.714;29962.449;  -11.490;34632.863
673.290;30521.553;   -7.740;35135.422
673.867;30670.297;  -10.660;36114.480
674.443;30528.217;  -12.230;36152.859
675.020;28841.209;  -10.450;35327.238
675.596;30030.219;   -9.260;35795.176
676.173;30548.572;  -10.780;35430.355
676.749;30299.141;  -13.690;33549.516
677.326;30258.174;  -11.980;32210.012
677.902;30187.633;   -8.630;32068.871
678.478;29453.158;  -10.730;32583.891
679.054;28846.098;  -10.520;32088.928
679.631;29204.684;  -11.920;30978.848
680.207;30874.852;   -7.490;33160.887
680.783;32529.348;   -9.860;35570.363
681.359;31539.486;  -13.380;36125.184
681.935;30855.182;  -12.480;35240.922
682.511;30016.135;   -7.900;34429.961
683.087;30091.021;   -7.710;34463.680
683.663;29651.201;  -11.480;34648.898
684.239;28421.600;  -14.090;34546.457
684.815;28096.824;   -7.560;35586.375
685.390;28556.375;   -9.910;35821.895
685.966;29158.543;  -11.159;35085.871
686.542;31709.475;  -11.169;34198.230
687.118;33721.668;   -5.959;32847.707
687.693;33759.359;  -10.329;32794.027
688.269;33470.285;  -12.059;33072.367
688.844;31699.172;  -10.909;33141.664
689.420;29495.844;   -8.019;33965.742
689.995;27116.928;   -8.399;34655.523
690.571;25794.676;  -10.949;33576.742
691.146;26308.061;   -9.619;32657.219
691.722;25776.762;   -8.999;32526.979
692.297;25725.256;  -11.589;33014.617
692.872;27607.318;  -11.739;34012.254
693.448;27131.441;  -11.059;34237.434
694.023;26311.041;  -10.139;34142.672
694.598;28350.652;   -9.029;34132.031
695.173;28652.279;  -13.319;34205.250
695.748;27995.723;  -10.169;32882.488
696.323;28126.539;   -8.339;32864.906
696.898;28452.926;   -8.169;33170.004
697.473;28234.225;  -12.309;32432.984
698.048;27557.705;  -10.989;31649.303
698.623;27503.500;   -9.329;30778.141
699.198;29506.602;   -9.849;31140.119
699.773;30314.859;  -12.329;31764.299
700.348;28604.740;  -10.389;31780.816
700.922;28563.570;   -9.269;32046.375
701.497;29330.305;   -9.329;32603.574
702.072;29478.301;  -10.789;34799.871
702.646;28208.020;  -10.839;35793.172
703.221;26238.504;   -9.099;35201.590
703.795;28379.313;  -10.939;34764.527
704.370;28720.748;  -12.859;34307.367
704.944;29133.648;  -11.559;33509.887
705.519;30060.660;   -7.939;31388.584
706.093;31552.094;  -10.499;31340.104
706.668;31829.422;  -11.289;32630.281
707.242;30787.527;  -11.509;32728.779
707.816;29186.021;   -9.639;32947.238
708.390;27614.439;  -11.429;33277.855
708.965;28145.877;  -11.869;33834.336
709.539;28226.510;  -11.689;33709.273
710.113;28778.748;  -10.478;33044.313
710.687;28200.625;  -10.228;31953.992
711.261;26513.479;  -13.698;30505.949
711.835;26392.510;  -13.378;30262.369
712.409;27187.916;   -9.698;31254.447
712.983;29061.049;  -11.898;32754.986
713.557;29974.088;  -15.138;34018.824
714.131;29474.930;  -14.098;34579.625
714.704;28461.424;   -9.958;33890.262
715.278;26231.389;  -10.028;33531.102
715.852;25321.889;  -11.148;33601.660
716.425;26198.396;   -9.068;33515.117
716.999;26938.635;  -10.038;33185.555
717.573;27983.275;   -9.798;33905.996
718.146;29179.061;  -12.378;35199.293
718.720;29064.822;  -11.918;35060.551
719.293;28490.650;   -8.088;34973.230
719.867;31378.320;  -10.888;36394.449
720.440;30989.449;  -11.938;36663.008
721.013;29240.799;  -12.818;35102.426
721.587;27936.906;  -10.298;33985.266
722.160;27044.236;  -10.048;33524.965
722.733;25978.572;  -12.108;32987.043
723.306;26284.715;  -10.818;33066.301
723.880;28653.010;   -8.908;33399.500
724.453;30448.854;   -9.878;33468.297
725.026;29423.436;  -11.188;33816.637
725.599;26847.430;  -11.678;32797.996
726.172;27348.656;   -9.618;33187.434
726.745;28462.074;   -8.258;35136.613
727.318;29802.154;  -12.978;35751.730
727.891;30180.717;  -12.148;35890.430
728.463;29885.764;   -8.968;34822.090
729.036;28912.252;  -10.188;32895.086
729.609;29104.363;  -11.788;31823.225
730.182;25930.426;  -11.788;31445.283
730.754;23407.818;  -10.268;32373.223
731.327;23492.152;   -9.998;33676.820
731.900;24019.020;  -12.228;33417.000
732.472;25501.033;  -13.848;31978.498
733.045;27365.422;   -8.698;30368.777
733.617;27404.652;  -10.607;30574.215
734.190;26955.859;  -11.507;31280.975
734.762;24077.398;  -13.647;31674.412
735.334;22422.521;   -9.767;31247.291
735.907;23107.957;   -9.897;29876.211
736.479;23216.516;  -11.637;29808.488
737.051;22878.418;   -9.567;30233.547
737.623;23792.209;   -8.187;31469.086
738.195;24646.740;  -11.187;31784.225
738.768;26647.621;  -12.337;32120.523
739.340;26728.729;  -12.227;32094.342
739.912;25451.105;  -11.057;31312.680
740.484;23982.561;  -10.207;31946.238
741.056;22934.766;  -10.047;32984.059
741.628;24821.947;  -13.627;33897.715
742.199;27056.049;   -7.177;33213.016
742.771;25357.168;  -10.797;31369.113
743.343;23058.756;  -11.997;31865.473
743.915;22044.973;  -12.867;32388.631
744.487;22072.750;   -7.617;31079.568
745.058;22117.563;   -9.557;30570.107
745.630;22530.264;   -9.877;29970.127
746.201;23383.711;  -14.177;29186.766
746.773;23868.533;   -9.237;28805.723
747.344;23776.848;   -9.847;29591.223
747.916;22490.611;  -11.657;31412.201
748.487;22704.852;  -10.587;32194.898
749.059;23824.529;   -8.707;32533.719
749.630;24500.584;  -10.537;32158.518
750.201;23601.465;  -11.687;30855.395
750.773;21854.400;  -11.647;28622.555
751.344;21852.303;   -7.147;28405.732
751.915;23098.816;   -9.757;28461.551
752.486;22904.336;  -12.427;27842.850
753.057;20667.514;  -12.227;27845.008
753.628;19525.346;  -10.417;27728.107
754.199;20709.846;  -11.767;27381.086
754.770;21664.387;  -11.187;25882.203
755.341;21612.908;  -10.507;25886.184
755.912;21618.574;   -9.387;26050.861
756.483;21067.121;  -10.647;26798.779
757.054;19224.230;  -11.837;27048.238
757.625;17929.785;  -12.716;26294.838
758.195;17735.484;   -9.666;26142.076
758.766;17501.928;   -8.656;26392.234
759.337;18261.590;  -12.856;26334.594
759.907;19959.457;  -13.366;27579.652
760.478;20825.729;   -8.576;28352.770
761.048;20168.178;  -10.526;27325.088
761.619;19338.578;  -11.116;26460.428
762.189;19422.076;  -12.136;26029.826
762.760;20609.029;   -9.456;26430.145
763.330;21727.719;   -7.136;26670.902
763.900;21102.289;  -11.786;26603.021
764.471;18474.643;  -11.546;25542.740
765.041;17245.010;   -8.096;24358.459
765.611;17324.252;   -8.876;23991.297
766.181;17728.721;  -12.196;24470.236
766.751;18663.451;  -11.636;24845.975
767.321;18392.871;  -10.156;24533.633
767.891;16430.988;  -11.766;24916.492
768.461;15939.590;  -14.936;24776.771
769.031;16511.832;  -12.356;24757.988
769.601;18053.469;   -7.526;24181.088
770.171;17822.424;  -10.766;23670.387
770.741;17045.102;  -13.176;22960.045
771.311;17306.430;  -10.616;22917.523
771.880;17671.924;   -9.576;23562.941
772.450;17353.457;  -10.336;24216.500
773.020;17413.238;  -13.516;24140.398
773.589;16801.289;  -13.466;24414.857
774.159;16160.348;   -8.686;23858.717
774.729;15752.797;   -9.476;22942.135
775.298;15245.307;  -13.666;22324.033
775.867;14844.676;  -11.716;21140.313
776.437;14912.764;   -9.906;20838.092
777.006;14708.897;  -12.166;20599.510
777.576;14603.820;  -12.356;20508.809
778.145;14725.526;  -11.646;20732.947
778.714;14576.213;   -8.226;21062.465
779.283;13802.483;   -9.556;20949.664
779.853;13308.518;  -14.116;20508.623
780.422;13783.108;  -11.506;20649.082
780.991;13355.542;   -9.556;21527.520
781.560;12203.735;   -9.095;22632.658
782.129;12081.398;  -12.135;23048.277
782.698;12122.073;  -10.865;23438.555
783.267;11683.853;   -9.335;23267.734
783.836;11648.623;  -11.045;22415.133
784.404;12762.980;  -13.865;20443.152
784.973;13329.573;  -13.095;19699.150
785.542;13228.990;  -11.575;19763.828
786.111;13033.641;   -9.705;20341.408
786.679;12473.126;  -12.105;20207.967
787.248;12207.060;  -12.455;19516.465
787.817;12053.517;  -11.535;18900.363
788.385;11674.696;   -9.765;17879.121
788.954;11116.150;  -14.005;17658.301
789.522;10609.564;  -11.955;17788.879
790.090;11177.248;  -10.135;18118.277
790.659;11563.655;  -10.975;18338.736
791.227;11051.230;  -13.375;18508.615
791.795;11501.842;  -12.375;17898.254
792.364;11874.688;  -10.725;17295.133
792.932;12208.175;   -9.715;16822.051
793.500;12374.949;  -12.675;17040.148
794.068;12618.042;  -13.495;17179.787
794.636;12755.897;  -10.885;16664.246
795.204;12197.186;  -11.045;16524.545
795.772;12291.187;  -13.175;17274.564
796.340;11791.915;  -12.445;17891.002
796.908;11596.054;   -9.735;17648.561
797.476;11469.916;   -9.815;17064.080
798.044;11010.474;  -13.985;16672.777
798.612;10209.484;  -13.115;17023.996
799.180; 9818.045;  -10.185;16561.615
799.747; 9722.363;   -9.055;15962.773
800.315; 9477.408;  -12.385;15296.992
800.883; 9143.453;  -15.035;14801.771
801.450; 9163.413;  -10.365;14534.430
802.018; 9245.416;   -9.855;14173.248
802.585; 9394.775;  -11.905;14029.547
803.153; 9447.707;  -11.585;13836.846
803.720; 9258.246;   -9.095;13567.324
804.287; 8776.994;   -9.135;13360.622
804.855; 8334.473;  -11.604;13681.981
805.422; 8210.548;  -11.794;13536.560
805.989; 8228.856;  -10.734;13355.958
806.556; 8420.240;  -10.444;13747.896
807.124; 8674.383;  -12.764;13987.376
807.691; 8650.804;  -12.964;14038.674
808.258; 8445.985;  -11.134;14120.152
808.825; 8091.126;   -9.854;13860.111
809.392; 8152.156;  -10.504;13268.790
809.959; 7663.911;  -13.054;12680.389
810.526; 7222.746;   -8.294;12427.308
811.093; 7282.115;   -8.394;12030.105
811.659; 7890.779;  -12.304;11653.664
812.226; 8390.350;  -13.944;11637.183
812.793; 8076.139;  -10.484;11611.521
813.360; 7446.709;  -10.144;11885.181
813.926; 7152.448;  -11.684;12770.539
814.493; 6929.136;  -13.644;12677.638
815.060; 6528.029;   -9.724;11974.336
815.626; 6524.068;   -9.854;11594.715
816.193; 6921.379;  -13.254;11579.474
816.759; 6941.747;  -13.204;11666.972
817.325; 7013.295;   -9.434;11325.530
817.892; 7381.069;  -10.134;11105.369
818.458; 7819.894;  -13.474;10843.928
819.024; 7421.624;  -11.854;10714.406
819.591; 7068.258;  -10.244;10469.165
820.157; 6837.555;  -10.704;10235.523
820.723; 6342.225;  -12.324;10847.563
821.289; 6025.200;   -9.444;11040.980
821.855; 5916.258;   -8.374;10357.100
822.421; 5859.043;  -10.234; 9978.918
822.987; 5834.535;  -13.294; 9754.177
823.553; 5531.730;  -10.884;10065.755
824.119; 5372.904;   -8.884;10036.294
824.685; 5462.397;   -6.784;10029.192
825.251; 5539.073;  -12.004;10199.230
825.816; 5499.501;  -11.474; 9820.189
826.382; 5275.351;   -9.174; 9297.248
826.948; 5490.322;   -9.214; 9381.347
827.513; 5884.549;  -10.774; 9450.726
828.079; 5691.974;  -11.924; 9472.444
828.645; 5115.498;  -10.543; 9292.643
829.210; 5024.897;  -10.533; 9065.341
829.776; 4995.804;  -10.753; 9132.620
830.341; 4870.391;  -10.173; 9092.878
830.906; 5060.543;  -10.743; 9078.557
831.472; 5389.645;  -11.113; 8534.535
832.037; 5110.817;  -10.603; 8677.874
832.602; 4569.189;  -13.323; 8628.692
833.167; 4334.217;  -10.823; 8879.031
833.733; 4290.024;  -10.113; 9189.790
834.298; 4422.878;  -13.583; 9052.608
834.863; 4485.192;  -12.703; 8895.087
835.428; 4467.167;  -10.523; 8824.266
835.993; 4337.141;   -6.963; 8845.385
836.558; 4187.925;  -10.763; 8888.563
837.123; 4315.704;   -9.903; 8966.582
837.688; 4547.274;   -9.913; 8617.860
838.253; 4780.364;  -10.283; 8590.699
838.817; 4981.430;  -12.963; 8443.797
839.382; 4889.688;  -14.243; 8799.356
839.947; 4569.097;  -10.733; 8810.595
840.511; 4267.186;   -9.383; 8796.394
841.076; 3885.686;  -12.563; 8347.231
841.641; 3951.781;  -12.953; 8224.330
842.205; 4053.882;   -7.043; 8223.349
842.770; 4162.184;   -8.163; 8622.107
843.334; 4331.966;  -12.503; 8410.386
843.898; 4280.407;  -11.693; 8337.465
844.463; 4304.104;  -10.203; 8506.283
845.027; 4089.427;   -9.533; 8280.962
845.591; 3908.491;  -13.443; 8231.141
846.156; 3875.287;  -13.143; 7969.179
846.720; 3750.639;   -9.433; 7768.278
847.284; 3623.188;  -11.033; 7630.957
847.848; 3500.883;  -10.403; 7472.395
848.412; 3414.247;  -11.553; 7437.394
848.976; 3463.929;   -8.393; 7674.592
849.540; 3407.150;   -8.713; 7836.011
850.104; 3531.094;  -12.463; 7913.669
850.668; 3893.428;  -12.973; 7694.508
851.232; 3985.698;  -10.793; 7756.887
851.796; 3815.911;  -10.662; 7926.545
852.359; 3515.284;  -13.082; 7827.844
852.923; 3356.460;  -12.192; 7641.163
853.487; 3179.059;  -11.912; 7342.501
854.050; 3137.628;  -10.892; 7042.820
854.614; 3281.442;  -13.992; 7151.338
855.177; 3409.289;  -11.732; 7105.077
855.741; 3445.158;   -8.962; 6989.675
856.304; 3338.929;   -9.442; 6596.634
856.868; 3295.438;  -14.192; 6356.272
857.431; 3398.368;  -12.702; 6468.571
857.995; 3523.929;   -9.942; 6373.210
858.558; 3539.341;   -9.112; 6324.448
859.121; 3265.156;  -12.932; 6408.327
859.684; 3140.208;  -13.442; 6347.886
860.247; 3245.843;  -10.632; 6321.264
860.810; 3239.700;  -11.272; 6301.903
861.374; 2984.527;   -9.832; 6607.881
861.937; 2730.599;  -11.762; 6408.200
862.500; 2735.976;   -9.722; 6572.639
863.062; 2928.402;  -10.512; 6387.297
863.625; 3108.614;  -11.232; 6190.836
864.188; 3272.125;  -14.112; 5807.254
864.751; 3326.939;  -11.302; 5682.413
865.314; 3202.129;  -10.112; 5547.492
865.876; 2990.350;  -12.182; 5500.150
866.439; 2978.954;  -10.722; 5415.909
867.002; 2927.337;   -9.252; 5501.567
867.564; 2712.697;   -9.572; 5413.946
868.127; 2480.417;  -13.142; 5160.325
868.689; 2370.997;  -12.902; 5133.183
869.252; 2270.763;   -9.732; 5252.382
869.814; 2176.277;   -9.432; 5297.141
870.377; 2197.463;  -11.552; 5390.919
870.939; 2275.985;   -9.052; 5599.898
871.501; 2342.417;  -10.982; 5248.336
872.063; 2340.982;  -12.292; 4854.235
872.626; 2299.539;  -14.912; 4817.074
873.188; 2331.536;  -13.112; 4987.732
873.750; 2302.375;  -13.442; 4868.651
874.312; 2202.544;   -9.402; 4779.330
874.874; 2107.179;  -11.062; 4866.348
875.436; 2017.342;  -13.931; 4718.887
875.998; 2008.237;   -9.561; 4660.005
876.560; 2031.941;  -11.321; 4462.964
877.122; 1971.700;  -12.221; 4145.042
877.683; 1877.592;  -12.191; 4056.481
878.245; 1806.911;  -12.101; 3950.740
878.807; 1854.581;   -8.971; 4058.958
879.369; 1882.287;  -12.071; 3954.677
879.930; 1787.352;  -14.621; 3941.495
880.492; 1731.354;  -10.311; 4067.014
881.053; 1696.558;  -10.901; 3859.633
881.615; 1572.494;  -14.411; 3776.071
882.176; 1465.467;  -13.761; 3734.750
882.738; 1417.875;   -9.181; 3678.489
883.299; 1413.120;  -11.791; 3405.407
883.860; 1477.505;  -13.121; 3351.106
884.422; 1556.786;  -11.211; 3394.044
884.983; 1527.369;  -10.091; 3166.443
885.544; 1326.458;   -8.461; 3189.802
886.105; 1023.419;  -12.361; 3160.360
886.666;  761.343;  -14.141; 3093.059
887.227;  620.428;  -11.361; 2941.957
887.788;  573.934;  -11.401; 2974.836
888.349;  572.957;  -13.791; 2721.214
888.910;  609.192;  -13.191; 2696.493
889.471;  650.977;   -9.881; 2560.172
890.032;  665.816;   -9.881; 2558.190
890.593;  670.562;  -10.371; 2567.669
891.153;  669.151;  -13.301; 2460.307
891.714;  646.692;  -11.431; 2372.046
892.275;  626.184;  -11.291; 2309.505
892.835;  600.062;  -11.471; 2382.543
893.396;  559.515;  -11.541; 2295.502
893.956;  513.466;  -11.181; 2162.420
894.517;  484.374;  -11.741; 2125.439
895.077;  483.416;  -11.671; 2086.978
895.638;  485.574;  -11.311; 2126.316
896.198;  461.368;   -9.831; 1838.275
896.758;  423.596;   -8.421; 1892.813
897.319;  396.835;  -12.351; 1792.232
897.879;  383.009;  -13.511; 1762.751
898.439;  359.303;  -12.001; 1661.149
898.999;  337.634;  -10.180; 1781.468
899.559;  329.599;  -12.030; 1703.347
900.119;  326.624;  -15.710; 1537.525
900.679;  323.788;   -8.900; 1638.384
901.239;  310.200;   -8.340; 1527.902
901.799;  300.014;  -13.910; 1456.441
902.359;  294.620;  -13.460; 1357.140
902.919;  288.470;  -11.490; 1331.118
903.479;  277.145;  -12.110; 1317.257
904.038;  257.131;  -11.720; 1262.595
904.598;  241.975;  -13.610; 1152.034
905.158;  239.616;  -11.040; 1240.893
905.717;  233.115;  -10.900; 1233.691
906.277;  222.602;  -15.080; 1217.330
906.836;  212.351;  -13.380; 1222.408
907.396;  202.636;  -10.780; 1193.047
907.955;  193.516;   -8.500; 1182.526
908.515;  186.274;  -12.760; 1099.364
909.074;  180.247;  -11.900; 1092.863
909.633;  176.712;   -8.950; 1069.121
910.192;  173.775;   -8.770; 1196.460
910.752;  167.825;  -12.390; 1029.960
911.311;  164.791;  -13.680; 1009.780
911.870;  163.454;  -12.370;  971.460
912.429;  165.964;  -10.900; 1094.080
912.988;  164.924;  -11.690; 1081.060
913.547;  159.648;  -13.240;  940.380
914.106;  155.106;  -11.990;  999.420
914.665;  151.611;   -9.990;  984.020
915.224;  151.492;  -12.880; 1035.760
915.782;  150.654;  -12.350;  922.560
916.341;  151.249;   -9.110; 1049.840
916.900;  147.423;   -9.270;  925.260
917.458;  144.339;  -13.240;  884.220
918.017;  144.818;  -13.550;  942.600
918.576;  144.532;  -12.320;  904.440
919.134;  142.947;  -11.490;  837.980
919.693;  140.558;  -13.670;  893.060
920.251;  138.280;  -15.470;  876.500
920.809;  137.616;  -11.290;  839.580
921.368;  137.951;  -10.210;  885.360
921.926;  136.197;  -12.140;  842.940
922.484;  135.511;  -13.080;  903.360
923.042;  135.218;  -11.720;  880.340
923.601;  137.578;   -7.480;  998.680
924.159;  135.332;  -11.570;  935.560
924.717;  132.528;  -13.840;  841.080
925.275;  133.340;  -10.640;  903.240
925.833;  133.027;  -11.540;  779.320
926.391;  133.821;  -12.960;  938.380
926.949;  131.714;  -14.130;  857.680
927.506;  132.181;  -11.750;  903.500
928.064;  133.357;  -10.250;  877.580
928.622;  131.255;  -13.030;  880.100
929.180;  130.996;  -13.400;  814.180
929.737;  132.600;  -10.700;  808.540
930.295;  136.660;  -10.070;  928.480
930.853;  137.318;  -11.960;  849.100
931.410;  137.955;  -13.120;  821.120
931.968;  138.087;  -10.770;  940.660
932.525;  136.981;  -10.680;  909.380
933.082;  137.542;  -13.130;  811.440
933.640;  139.006;  -13.210;  925.900
934.197;  136.806;  -11.060;  886.360
934.754;  137.788;   -9.580;  897.780
935.312;  140.882;  -14.000;  863.340
935.869;  144.792;  -10.710; 1012.980
936.426;  145.412;   -9.860;  872.800
936.983;  146.811;   -9.710;  889.020
937.540;  145.857;  -13.990;  838.280
938.097;  143.838;  -14.040;  940.120
938.654;  144.794;  -10.310;  898.860
939.211;  147.633;  -10.560;  952.480
939.768;  150.345;  -13.900;  915.420
940.324;  153.845;  -14.760;  904.200
940.881;  153.806;  -10.370;  878.500
941.438;  155.734;   -8.260; 1021.200
941.995;  150.848;  -12.540;  992.560
942.551;  149.556;  -14.670;  875.620
943.108;  149.393;  -10.450;  937.920
943.664;  152.528;  -10.750;  869.340
944.221;  154.864;  -11.550; 1088.140
944.777;  151.850;  -14.770;  869.680
945.334;  152.952;  -12.820;  884.840
945.890;  155.824;  -10.130;  946.480
946.446;  154.860;  -13.470;  947.020
947.003;  156.563;  -12.120;  964.940
947.559;  159.905;   -9.980; 1063.040
948.115;  158.657;   -9.080; 1026.540
948.671;  157.297;  -10.830;  967.300
949.227;  154.518;  -12.440;  859.560
949.783;  151.932;  -12.910;  858.900
950.339;  153.703;  -10.270;  991.000
950.895;  153.422;  -13.630; 1023.840
951.451;  153.047;  -15.100;  925.280
952.007;  152.640;  -11.330;  998.540
952.563;  153.938;  -10.580;  937.780
953.118;  152.758;  -13.440;  904.940
953.674;  152.236;  -12.710;  935.780
954.230;  151.716;  -10.350;  949.640
954.785;  149.077;   -9.190;  936.640
955.341;  146.280;  -11.200;  998.160
955.897;  143.505;  -16.560;  834.660
956.452;  146.377;  -12.570;  953.840
957.008;  146.232;   -7.970; 1083.640
957.563;  143.191;  -11.940; 1009.540
958.118;  138.169;  -13.450;  877.700
958.674;  139.201;  -12.030;  946.780
959.229;  140.832;   -9.410; 1013.980
959.784;  138.156;  -12.000;  832.400
960.339;  137.084;  -14.780; 1001.280
960.894;  133.923;   -9.860;  963.760
961.449;  130.386;   -9.970;  859.960
962.004;  129.612;  -10.900; 1212.840
962.559;  124.767;  -13.150;  860.140
963.114;  122.359;  -13.740;  742.480
963.669;  122.334;   -9.820;  915.500
964.224;  120.786;  -13.890;  874.340
964.779;  119.479;  -12.600;  828.420
965.334;  120.178;  -10.950; 1017.860
965.888;  120.365;  -11.170;  875.360
966.443;  122.357;  -12.540;  972.380
966.998;  121.402;  -15.780;  819.460
967.552;  121.509;   -9.760;  908.380
968.107;  116.896;   -9.060;  868.300
968.661;  117.545;  -11.950;  922.440
969.216;  119.069;  -12.800;  856.280
969.770;  118.857;  -11.210;  917.200
970.324;  117.467;  -11.610;  923.140
970.879;  114.718;  -11.370;  947.180
971.433;  111.358;  -12.540;  952.720
971.987;  106.392;  -11.320;  895.340
972.541;  104.018;  -10.720;  917.100
973.095;  103.650;   -9.680; 1009.460
973.649;  101.633;  -11.440;  809.480
974.203;  100.601;  -11.210;  829.040
974.757;  100.941;  -10.240;  855.220
975.311;  100.764;  -13.720;  872.600
975.865;   99.727;  -13.770;  881.820
976.419;   98.596;  -11.690;  857.400
976.973;   98.357;   -9.510;  849.620
977.526;   99.761;  -12.620;  949.920
978.080;   98.970;  -12.010;  796.780
978.634;  101.217;  -10.170;  921.320
979.187;   98.445;   -9.020;  905.400
979.741;   94.967;   -9.820; 1018.380
980.294;   90.406;  -14.870;  789.160
980.848;   88.894;  -12.380;  717.220
981.401;   91.311;  -10.350;  816.540
981.955;   93.064;  -13.720;  844.300
982.508;   91.875;  -11.490;  746.340
983.061;   92.092;  -10.000;  915.260
983.615;   88.666;  -11.480;  798.800
984.168;   84.620;  -13.220;  770.080
984.721;   84.309;  -13.960;  880.760
985.274;   83.937;  -10.870;  867.500
985.827;   83.038;   -9.790;  834.220
986.380;   79.620;  -13.120;  721.340
986.933;   79.282;  -12.450;  864.800
987.486;   77.870;  -10.210;  861.920
988.039;   76.995;   -8.430;  863.100
988.591;   74.824;  -10.520;  893.260
989.144;   71.388;  -14.860;  737.260
989.697;   72.033;  -13.080;  758.740
990.250;   72.809;  -10.150;  858.100
990.802;   70.885;  -13.430;  755.860
991.355;   71.735;  -12.750;  974.880
991.907;   69.849;  -12.040;  864.320
992.460;   67.962;  -11.330;  753.760
993.012;   67.316;  -13.610;  749.540
993.565;   64.571;  -13.460;  711.360
994.117;   67.351;   -9.360;  950.780
994.669;   63.958;  -11.300;  701.320
995.221;   61.134;  -13.540;  791.920
995.774;   59.737;  -13.430;  787.580
996.326;   58.750;  -12.520;  740.220
996.878;   58.206;  -10.950;  838.420
997.430;   55.824;  -14.300;  699.860
997.982;   55.327;  -13.760;  750.140
998.534;   55.176;  -11.530;  739.060
999.086;   54.014;  -10.310;  738.220
999.638;   51.877;  -12.530;  661.380
1000.190;   51.840;  -11.840;  699.320
1000.741;   51.379;  -10.260;  742.700
1001.293;   50.765;   -8.860;  686.020
1001.845;   49.381;  -13.700;  676.640
1002.396;   49.494;  -12.100;  743.400
1002.948;   48.406;  -12.760;  737.400
1003.500;   47.749;  -10.380;  723.780
1004.051;   48.214;  -11.900;  907.580
1004.603;   45.624;  -12.250;  791.820
1005.154;   42.284;  -13.210;  608.980
1005.705;   42.116;  -10.950;  723.960
1006.257;   41.648;  -13.880;  707.220
1006.808;   40.385;  -12.840;  685.460
1007.359;   39.682;  -10.570;  763.240
1007.910;   39.885;   -9.620;  646.640
1008.461;   39.211;  -13.630;  732.940
1009.013;   37.171;  -17.200;  588.340
1009.564;   39.124;  -10.200;  793.520
1010.115;   37.508;  -12.570;  597.040
1010.665;   36.523;  -15.150;  602.160
1011.216;   36.925;  -14.480;  667.920
1011.767;   36.695;  -11.340;  697.920
1012.318;   36.649;   -9.780;  736.980
1012.869;   34.776;  -12.380;  679.000
1013.419;   35.037;  -15.560;  603.120
1013.970;   35.180;  -11.010;  666.640
1014.521;   34.236;  -11.610;  620.620
1015.071;   34.816;  -13.450;  670.380
1015.622;   34.229;  -13.870;  635.460
1016.172;   33.191;  -11.610;  596.820
1016.723;   33.681;  -12.120;  614.380
1017.273;   32.772;  -13.620;  604.160
1017.823;   33.173;  -14.140;  650.340
1018.374;   32.815;  -12.800;  611.760
1018.924;   33.068;  -12.340;  716.880
1019.474;   33.459;  -11.410;  718.880
1020.024;   31.382;  -14.770;  657.580
1020.574;   31.787;   -9.780;  726.160
1021.124;   32.578;   -8.560;  673.580
1021.674;   31.152;  -15.190;  559.120
1022.224;   32.010;  -13.530;  708.940
1022.774;   32.189;  -13.280;  668.820
1023.324;   32.176;  -10.690;  753.520
1023.874;   33.250;  -10.240;  875.760
1024.423;   29.957;  -12.540;  613.700
1024.973;   30.192;  -10.010;  610.760
1025.523;   29.709;  -10.550;  620.960
1026.072;   28.596;  -13.560;  606.420
1026.622;   29.079;  -15.120;  675.740
1027.172;   30.128;  -11.260;  715.660
1027.721;   28.760;  -11.410;  601.220
1028.270;   28.118;  -13.530;  663.400
1028.820;   29.190;  -13.680;  638.080
1029.369;   28.722;  -13.520;  612.700
1029.918;   28.155;  -10.980;  649.840
1030.468;   28.117;  -13.530;  564.780
1031.017;   28.241;  -13.170;  634.800
1031.566;   27.151;  -12.200;  608.900
1032.115;   28.102;   -9.960;  694.500
1032.664;   26.814;  -13.210;  596.480
1033.213;   27.372;  -12.500;  735.420
1033.762;   27.249;  -11.910;  635.620
1034.311;   27.290;   -9.640;  677.220
1034.860;   26.988;  -13.310;  691.000
1035.408;   26.487;  -11.830;  722.720
1035.957;   27.111;  -12.000;  719.540
1036.506;   24.749;  -11.690;  530.800
1037.055;   27.629;  -10.990;  844.320
1037.603;   24.750;  -15.120;  664.000
1038.152;   24.026;  -12.450;  534.760
1038.700;   25.818;  -10.560;  585.740
1039.249;   24.802;  -11.080;  681.220
1039.797;   25.059;  -12.540;  633.360
1040.345;   24.810;  -11.920;  705.420
1040.894;   25.019;  -11.410;  625.300
1041.442;   24.589;  -14.320;  632.200
1041.990;   23.122;  -16.240;  559.160
1042.538;   22.668;  -11.680;  536.180
1043.087;   23.498;  -10.760;  570.860
1043.635;   24.739;  -11.850;  670.500
1044.183;   23.294;  -15.480;  586.400
1044.731;   22.870;  -11.770;  576.000
1045.279;   22.702;  -13.090;  674.920
1045.827;   25.398;  -12.440;  892.400
1046.374;   21.597;  -13.840;  515.420
1046.922;   21.329;  -13.220;  590.580
1047.470;   23.783;  -10.230;  691.300
1048.018;   22.782;  -14.590;  647.960
1048.565;   23.332;  -12.050;  708.600
1049.113;   21.635;  -11.650;  557.000
1049.660;   21.882;  -10.510;  629.660
1050.208;   22.266;  -13.310;  675.640
1050.755;   19.866;  -15.900;  606.580
1051.303;   22.253;  -11.430;  686.820
1051.850;   21.324;   -8.480;  635.120
1052.397;   18.987;  -15.010;  473.960
1052.945;   20.244;  -13.960;  617.760
1053.492;   22.297;  -13.150;  741.840
1054.039;   21.749;   -9.630;  720.180
1054.586;   20.538;  -13.680;  557.240
1055.133;   20.838;  -14.570;  693.140
1055.680;   20.910;  -13.820;  646.620
1056.227;   20.121;  -11.730;  542.780
1056.774;   21.857;  -12.480;  794.980
1057.321;   18.844;  -13.930;  523.260
1057.868;   19.193;  -11.690;  651.320
1058.415;   20.110;   -9.520;  651.980
1058.961;   18.962;  -13.160;  678.940
1059.508;   19.360;  -12.920;  643.820
1060.055;   19.122;  -11.920;  581.780
1060.601;   19.858;  -11.500;  624.300
1061.148;   19.175;  -14.330;  616.820
1061.694;   17.747;  -16.870;  592.580
1062.241;   19.097;  -10.330;  596.320
1062.787;   19.078;  -10.620;  663.140
1063.334;   20.182;  -10.110;  808.560
1063.880;   18.227;  -13.400;  668.360
1064.426;   18.066;  -10.680;  706.820
1064.972;   18.132;   -9.920;  601.340
1065.518;   16.666;  -10.980;  566.640
1066.065;   17.867;  -14.890;  624.460
1066.611;   16.787;  -12.870;  598.800
1067.157;   18.282;  -12.950;  641.860
1067.703;   16.886;  -13.540;  668.480
1068.249;   17.088;  -13.540;  605.220
1068.794;   17.222;  -12.600;  626.880
1069.340;   15.767;  -10.620;  578.960
1069.886;   16.303;  -12.830;  590.700
1070.432;   15.334;  -14.870;  541.720
1070.977;   16.053;  -11.980;  601.080
1071.523;   16.108;   -8.200;  573.060
1072.068;   15.987;  -12.330;  582.000
1072.614;   15.603;  -16.370;  527.760
1073.160;   16.668;  -11.100;  687.040
1073.705;   15.068;  -10.480;  572.520
1074.250;   15.030;  -14.520;  559.900
1074.796;   16.170;  -11.460;  655.160
1075.341;   15.984;  -11.950;  664.100
1075.886;   15.469;  -11.460;  594.240
1076.431;   15.151;  -13.770;  649.880
1076.976;   14.485;  -12.680;  639.220
1077.521;   14.474;  -13.170;  583.080
1078.067;   13.562;  -10.860;  579.400
1078.612;   14.406;  -13.920;  661.620
1079.156;   14.035;  -13.880;  601.540
1079.701;   15.180;  -13.120;  693.260
1080.246;   15.190;   -9.940;  696.300
1080.791;   14.705;  -14.740;  625.020
1081.336;   13.812;  -13.750;  659.320
1081.880;   14.380;  -13.400;  649.680
1082.425;   13.405;  -12.220;  573.480
1082.970;   15.081;  -11.610;  717.040
1083.514;   13.222;  -13.580;  597.000
1084.059;   13.000;  -12.810;  586.720
1084.603;   13.243;  -12.320;  565.840
1085.147;   12.995;  -13.190;  645.220
1085.692;   14.022;  -12.480;  716.800
1086.236;   12.678;  -13.020;  503.140
1086.780;   14.195;   -9.190;  751.440
1087.325;   12.725;  -12.480;  654.620
1087.869;   12.636;  -12.450;  610.700
1088.413;   12.992;  -12.240;  705.040
1088.957;   11.858;   -9.020;  543.400
1089.501;   13.360;  -10.320;  766.640
1090.045;   12.664;  -12.720;  726.480
1090.589;   10.784;  -13.690;  569.920
1091.133;   11.800;  -10.020;  673.340
1091.676;   12.045;  -12.330;  591.940
1092.220;   11.183;  -14.970;  600.920
1092.764;   11.891;  -12.430;  706.960
1093.307;   12.161;   -9.800;  673.780
1093.851;   10.361;  -14.970;  556.540
1094.395;   11.287;  -15.310;  683.140
1094.938;   10.514;  -10.370;  632.520
1095.482;   11.341;  -11.050;  559.800
1096.025;   11.658;  -11.840;  710.880
1096.568;   11.589;  -12.840;  779.280
1097.112;    9.360;  -14.700;  508.180
1097.655;   11.473;   -8.720;  603.000
1098.198;    9.758;  -13.610;  600.180
1098.741;    9.745;  -13.350;  612.860
1099.285;   10.382;  -11.230;  657.300
1099.828;    8.849;  -11.840;  439.400
1100.371;   10.314;  -10.840;  608.160
1100.914;    9.810;  -14.190;  682.660
1101.457;   10.357;  -11.240;  679.900
1101.999;    8.699;  -11.270;  584.680
1102.542;   10.031;  -11.480;  641.440
1103.085;    9.145;  -11.750;  658.500
1103.628;   10.334;  -11.400;  762.060
1104.170;    9.164;  -10.490;  588.280
1104.713;    9.806;  -10.600;  646.700
1105.256;    8.587;  -14.360;  557.440
1105.798;    7.547;  -13.210;  499.980
1106.341;    9.811;  -10.270;  728.900
1106.883;    8.792;  -12.200;  521.340
1107.425;    9.089;  -13.110;  668.180
1107.968;    8.734;  -12.840;  612.380
1108.510;    9.074;   -6.480;  684.960
1109.052;    7.136;  -13.940;  612.620
1109.594;    7.874;  -13.690;  554.440
1110.136;    7.928;  -11.880;  643.220
1110.679;    8.096;   -9.500;  633.080
1111.221;    8.518;  -14.160;  604.460
1111.763;    6.972;  -13.980;  559.220
1112.304;    7.032;  -13.880;  547.140
1112.846;    8.265;  -12.210;  666.240
1113.388;    9.961;  -11.390;  942.180
1113.930;    7.302;  -14.540;  694.200
1114.472;    6.860;  -12.640;  606.540
1115.013;    5.625;  -11.620;  551.280
1115.555;    6.112;  -13.640;  587.100
1116.097;    5.830;  -15.380;  579.480
1116.638;    6.524;  -12.640;  684.600
1117.180;    7.172;   -9.850;  667.740
1117.721;    6.792;  -13.690;  568.580
1118.262;    6.836;  -12.680;  677.960
1118.804;    7.096;  -12.530;  637.340
1119.345;    5.367;  -11.690;  578.400
1119.886;    6.944;  -13.380;  704.040
1120.427;    5.491;  -14.070;  589.020
1120.969;    5.510;  -13.500;  597.920
1121.510;    5.305;  -11.480;  563.060
1122.051;    6.043;  -12.830;  723.580
1122.592;    4.509;  -14.290;  655.420
1123.133;    4.333;  -12.400;  547.940
1123.673;    6.669;  -10.130;  706.480
1124.214;    5.353;  -12.930;  612.460
1124.755;    5.890;  -14.380;  639.460
1125.296;    5.372;  -14.000;  627.320
1125.836;    5.935;  -10.070;  691.500
1126.377;    4.586;  -12.640;  599.660
1126.918;    5.259;  -12.960;  614.980
1127.458;    5.139;  -13.350;  622.220
1127.999;    5.437;  -10.750;  656.980
1128.539;    4.992;  -12.350;  694.240
1129.079;    4.361;  -14.860;  632.720
1129.620;    3.541;  -13.840;  558.100
1130.160;    3.683;  -12.330;  539.480
1130.700;    4.709;  -14.530;  640.840
1131.240;    4.900;  -12.530;  643.700
1131.781;    3.677;  -14.450;  619.680
1132.321;    4.720;   -9.790;  599.120
1132.861;    3.056;  -14.860;  564.200
1133.401;    2.842;  -14.290;  593.940
1133.941;    3.113;  -11.750;  626.280
1134.481;    3.530;   -9.920;  597.580
1135.020;    3.205;  -12.290;  609.160
1135.560;    3.683;  -11.650;  674.940
1136.100;    3.567;  -16.270;  501.160
1136.640;    2.290;  -10.890;  510.480
1137.179;    2.334;  -14.180;  537.960
1137.719;    3.137;  -16.250;  605.400
1138.258;    3.295;  -14.230;  587.360
1138.798;    3.930;   -9.090;  663.780
1139.337;    1.675;  -15.130;  482.840
1139.877;    2.812;  -13.680;  642.360
1140.416;    5.040;  -11.320;  878.060
1140.955;    1.661;  -10.860;  535.380
1141.494;    3.105;  -12.920;  669.280
1142.034;    2.444;  -13.930;  583.520
1142.573;    2.817;  -11.440;  646.280
1143.112;    1.802;  -12.000;  553.480
1143.651;    1.431;  -13.670;  536.480
1144.190;    2.706;  -12.730;  691.640
1144.729;    1.637;  -14.560;  607.420
1145.267;    2.128;  -11.830;  584.900
1145.806;    3.120;  -12.230;  637.040
1146.345;    1.131;  -14.130;  635.020
1146.884;    1.650;  -11.590;  622.500
1147.422;    1.103;  -12.550;  533.060
1147.961;    2.908;  -11.180;  708.460
1148.500;    2.672;  -11.510;  669.720
1149.038;    2.410;  -11.640;  632.500
1149.577;    1.187;  -10.130;  698.640
1150.115;   -0.114;  -13.970;  452.280
1150.653;    1.803;  -14.520;  607.340
1151.192;    1.373;  -12.810;  552.920
1151.730;    1.366;   -9.100;  652.560
1152.268;    0.629;  -12.220;  589.520
1152.806;    0.373;  -14.140;  571.180
1153.344;   -0.332;  -12.350;  577.640
1153.882;    0.821;   -8.980;  600.060
1154.421;   -0.687;  -15.190;  470.620
1154.958;    0.468;  -15.210;  595.240
1155.496;    1.558;  -12.850;  645.280
1156.034;    0.934;   -9.940;  721.880
1156.572;    1.532;  -13.570;  667.060
1157.110;    0.020;  -14.590;  473.940
1157.647;    0.421;  -13.030;  676.960
1158.185;   -0.255;  -12.140;  564.320
1158.723;   -1.395;  -14.390;  509.200
1159.260;   -0.116;  -14.090;  701.700
1159.798;    1.040;  -11.920;  658.160
1160.335;    0.179;  -11.110;  631.820

