
Integration time [ms]:   3.882
Averaging Nr. [scans]: 1000
Smoothing Nr. [pixels]: 0
Data measured with spectrometer [name]: 7414430SP
Wave   ;Sample   ;Dark     ;Reference
[nm]   ;[counts] ;[counts] ;[counts] 

288.544;  122.222;   10.292;  793.890
289.143;  125.161;    4.564;  681.602
289.742;  126.438;    6.144;  828.814
290.341;  113.237;    4.396;  789.841
290.940;  105.515;    0.938;  730.702
291.538;  106.158;   -0.684;  881.108
292.137;  104.864;   -2.845;  792.581
292.736;  108.531;   -0.144;  975.101
293.335;  104.032;   -6.352;  735.086
293.934;  104.609;   -7.642;  781.677
294.532;  105.505;   -4.992; 1031.958
295.131;   92.328;   -5.478;  834.394
295.730;   92.089;   -6.549;  809.588
296.328;   90.243;   -9.558;  783.442
296.927;   90.421;   -8.118;  779.652
297.525;   90.636;   -6.908;  781.236
298.124;   82.627;   -9.195;  654.009
298.722;   87.915;   -8.198;  761.933
299.321;   86.092;   -8.817;  708.597
299.919;   82.997;   -7.716;  751.918
300.518;   78.794;  -10.745;  689.338
301.116;   81.158;   -9.647;  691.381
301.715;   81.450;  -10.828;  730.222
302.313;   80.288;   -6.087;  704.943
302.911;   75.668;   -6.824;  733.830
303.509;   81.600;   -8.807;  925.627
304.108;   78.638;   -8.198;  760.383
304.706;   78.591;   -6.218;  801.664
305.304;   73.456;   -7.185;  796.707
305.902;   79.474;   -8.568;  784.484
306.500;   74.162;   -7.737;  728.200
307.098;   73.519;   -6.026;  746.560
307.696;   71.032;   -7.176;  780.432
308.294;   72.391;   -8.656;  731.359
308.892;   74.791;   -6.838;  759.769
309.490;   69.876;   -2.596;  712.161
310.088;   68.450;   -4.485;  788.444
310.686;   73.908;   -3.907;  821.749
311.284;   69.581;   -2.806;  766.040
311.882;   67.793;   -2.845;  731.225
312.480;   64.702;   -3.274;  697.167
313.078;   66.499;   -3.645;  808.331
313.675;   67.799;   -4.997;  691.600
314.273;   63.149;   -0.894;  797.837
314.871;   61.559;   -2.854;  589.829
315.468;   60.654;   -3.644;  652.090
316.066;   63.821;   -3.947;  694.427
316.664;   56.429;   -1.824;  656.351
317.261;   61.907;    1.565;  910.128
317.859;   57.566;   -3.955;  768.735
318.456;   58.614;   -2.886;  830.096
319.054;   54.439;   -0.995;  787.828
319.651;   53.749;   -1.765;  759.928
320.249;   52.697;   -3.685;  810.188
320.846;   51.248;   -3.736;  714.286
321.443;   49.746;   -2.065;  832.135
322.041;   46.950;   -5.635;  812.315
322.638;   45.610;   -5.985;  701.456
323.235;   46.746;   -6.677;  665.683
323.833;   44.773;   -3.497;  740.354
324.430;   41.166;   -6.756;  615.900
325.027;   43.382;   -7.647;  876.855
325.624;   44.268;   -7.598;  644.532
326.221;   40.298;   -5.848;  689.717
326.818;   40.682;   -5.777;  818.332
327.415;   43.244;   -8.769;  748.828
328.012;   42.081;   -6.299;  690.585
328.609;   40.932;   -6.639;  731.389
329.206;   38.390;   -6.358;  778.621
329.803;   38.366;   -8.698;  737.841
330.400;   39.960;   -8.379;  704.260
330.997;   40.423;   -6.178;  817.147
331.594;   37.504;   -5.646;  788.185
332.191;   41.993;   -6.928;  728.722
332.787;   43.401;   -6.057;  844.463
333.384;   40.834;   -6.445;  763.093
333.981;   39.065;   -8.002;  815.687
334.578;   40.734;   -8.443;  708.378
335.174;   43.456;   -6.053;  731.469
335.771;   43.223;   -5.791;  836.456
336.367;   40.198;   -6.570;  710.631
336.964;   42.500;   -6.741;  793.266
337.561;   41.067;   -5.710;  731.112
338.157;   38.116;   -3.928;  911.916
338.754;   35.455;   -5.577;  796.589
339.350;   33.951;   -9.667;  722.493
339.946;   38.144;   -5.269;  773.135
340.543;   30.521;   -4.485;  846.136
341.139;   25.008;   -7.584;  720.836
341.735;   24.204;   -8.553;  772.593
342.332;   23.218;   -4.984;  691.472
342.928;   23.932;   -3.475;  795.394
343.524;   18.900;   -6.653;  761.684
344.120;   16.807;   -7.173;  738.562
344.716;   19.553;   -4.385;  723.717
345.313;   17.488;   -3.565;  795.342
345.909;   12.498;   -7.495;  627.336
346.505;   15.468;   -8.276;  740.247
347.101;   16.738;   -5.697;  827.864
347.697;   16.698;   -4.767;  785.398
348.293;   11.064;   -7.226;  627.244
348.889;   11.557;   -7.547;  745.914
349.485;   11.809;   -9.147;  688.205
350.081;   12.419;   -6.568;  772.592
350.676;    7.582;   -6.516;  691.606
351.272;   11.940;   -7.378;  809.530
351.868;   12.100;   -6.759;  780.497
352.464;    9.482;   -4.798;  723.932
353.059;    5.820;   -7.977;  646.017
353.655;   10.024;   -8.769;  777.063
354.251;   10.456;   -5.920;  759.845
354.846;    5.394;   -7.647;  740.646
355.442;    3.618;   -6.956;  753.071
356.038;    5.010;   -9.928;  751.708
356.633;    5.790;   -7.698;  728.594
357.229;    3.861;   -6.307;  724.757
357.824;    2.099;   -7.647;  703.600
358.420;    1.356;  -10.047;  679.726
359.015;    2.747;   -7.458;  695.357
359.610;    2.620;   -5.748;  763.920
360.206;   -2.709;   -9.346;  603.240
360.801;    0.441;  -11.268;  646.503
361.396;    3.280;   -8.789;  725.975
361.992;   -1.801;   -6.347;  668.220
362.587;   -4.451;   -6.476;  670.160
363.182;   -2.193;   -9.457;  689.631
363.777;   -0.657;   -7.147;  738.242
364.372;   -1.258;   -5.507;  737.314
364.967;   -4.940;   -6.386;  680.744
365.563;    0.036;   -7.858;  815.567
366.158;   -3.238;   -8.517;  685.161
366.753;   -3.833;   -8.728;  649.263
367.348;   -4.418;   -7.677;  746.056
367.942;   -3.658;  -10.387;  697.298
368.537;   -4.946;   -7.187;  754.245
369.132;   -4.552;   -8.587;  703.428
369.727;   -8.888;   -8.606;  638.079
370.322;   -7.110;  -10.426;  580.186
370.917;   -7.406;   -5.776;  710.646
371.511;   -4.303;   -6.007;  861.834
372.106;   -7.517;   -6.686;  776.964
372.701;  -10.832;   -9.335;  585.988
373.296;   -4.250;   -6.777;  863.135
373.890;   -9.537;   -7.546;  647.840
374.485;  -12.240;   -8.755;  691.199
375.079;   -8.298;   -9.797;  738.685
375.674;   -5.679;   -6.327;  812.970
376.268;  -10.505;   -9.046;  691.759
376.863;  -16.054;   -7.993;  580.327
377.457;   -9.600;   -9.206;  662.490
378.052;  -10.833;   -5.345;  764.884
378.646;  -12.288;   -5.605;  741.167
379.240;  -12.942;   -6.825;  721.176
379.835;  -11.620;  -10.476;  636.978
380.429;  -13.343;   -8.676;  562.557
381.023;  -12.903;   -4.945;  779.205
381.617;  -15.972;   -8.094;  680.106
382.212;  -12.112;  -10.646;  685.303
382.806;  -11.471;   -8.136;  760.690
383.400;  -15.084;   -7.855;  672.281
383.994;  -16.365;   -8.125;  664.870
384.588;  -11.835;   -7.637;  697.701
385.182;  -10.548;   -7.458;  726.624
385.776;  -12.204;   -6.277;  706.875
386.370;  -15.590;   -7.485;  681.968
386.964;  -13.242;   -9.416;  684.155
387.558;  -12.120;   -8.518;  598.360
388.152;  -16.096;   -7.096;  681.959
388.745;  -13.654;   -7.656;  814.707
389.339;  -11.876;   -8.927;  747.642
389.933;  -11.134;   -9.538;  695.370
390.527;  -11.266;   -5.857;  859.029
391.120;  -18.371;   -9.455;  595.318
391.714;  -15.120;   -9.746;  711.633
392.308;  -11.522;   -7.857;  780.253
392.901;  -15.355;   -9.106;  642.460
393.495;  -16.804;  -10.365;  595.414
394.089;  -14.279;   -9.696;  760.452
394.682;  -15.686;   -7.016;  697.188
395.275;  -16.271;   -8.466;  719.927
395.869;  -17.449;   -8.985;  667.314
396.462;  -15.085;  -11.496;  616.609
397.056;  -11.282;   -7.838;  776.621
397.649;  -16.611;   -6.895;  731.575
398.242;  -13.430;   -5.017;  712.645
398.836;  -12.080;   -8.787;  766.408
399.429;  -13.196;   -8.967;  631.041
400.022;  -17.256;   -8.815;  665.902
400.615;  -14.229;   -6.276;  805.609
401.208;  -12.238;   -8.407;  691.451
401.802;  -14.277;   -7.296;  699.329
402.395;  -16.176;   -7.585;  683.502
402.988;  -17.012;   -8.015;  696.627
403.581;  -13.122;   -9.577;  646.878
404.174;  -10.814;   -7.588;  686.568
404.767;  -13.899;   -7.906;  638.583
405.360;  -16.511;   -7.875;  621.445
405.953;  -10.558;   -8.127;  759.034
406.545;   -9.592;   -7.198;  725.342
407.138;  -14.365;   -8.916;  618.350
407.731;  -13.820;   -9.767;  613.303
408.324;   -9.346;  -10.659;  660.554
408.917;  -10.144;   -8.068;  681.864
409.509;  -12.138;   -9.837;  740.396
410.102;  -13.850;   -8.146;  643.948
410.695;   -7.108;   -7.969;  665.758
411.287;   -8.586;   -8.579;  599.821
411.880;  -10.174;   -6.968;  585.421
412.472;  -11.969;   -9.487;  613.092
413.065;   -8.781;  -10.338;  629.408
413.657;   -7.416;   -9.169;  576.678
414.250;   -7.738;  -10.119;  646.681
414.842;   -9.549;   -9.938;  676.353
415.434;   -6.871;  -10.409;  570.463
416.027;   -3.019;   -9.591;  652.196
416.619;   -5.182;   -7.379;  713.400
417.211;   -5.532;   -9.159;  599.352
417.804;   -1.389;   -9.191;  628.499
418.396;   -5.591;   -8.159;  607.643
418.988;   -3.691;   -6.960;  659.238
419.580;   -6.849;  -11.389;  568.276
420.172;   -3.452;  -13.460;  536.196
420.764;   -0.061;  -10.701;  672.482
421.356;   -1.558;   -8.961;  636.898
421.948;   -2.192;   -9.770;  677.661
422.540;    3.337;   -8.832;  680.027
423.132;    2.708;   -8.153;  600.641
423.724;   -0.830;   -8.481;  561.267
424.316;    0.395;   -9.261;  621.345
424.908;    4.730;   -9.643;  591.517
425.500;    5.666;   -8.663;  647.978
426.092;    6.546;   -8.503;  648.268
426.683;    4.642;  -10.522;  684.836
427.275;    8.532;  -11.734;  641.471
427.867;    9.402;  -10.264;  668.948
428.458;    9.671;   -7.644;  732.344
429.050;    8.143;   -7.853;  680.749
429.642;   10.392;   -8.904;  743.124
430.233;   10.268;  -10.795;  569.356
430.825;   12.636;   -7.665;  724.809
431.416;   10.223;   -8.843;  698.241
432.008;   14.100;   -9.885;  651.723
432.599;   14.238;   -9.966;  656.073
433.190;   10.974;   -9.164;  637.670
433.782;   11.083;   -8.584;  590.395
434.373;   18.231;   -8.296;  884.765
434.964;   16.622;   -9.896;  602.920
435.556;   14.522;   -8.255;  634.537
436.147;   17.232;   -8.075;  758.490
436.738;   16.977;   -9.716;  701.099
437.329;   23.012;   -7.318;  721.723
437.920;   15.473;   -6.694;  666.688
438.511;   15.005;   -9.644;  564.526
439.103;   22.364;   -9.427;  623.998
439.694;   24.617;  -10.748;  681.583
440.285;   25.373;   -7.997;  764.432
440.876;   23.341;  -10.046;  845.738
441.466;   22.131;  -13.467;  575.162
442.057;   28.103;   -9.329;  665.814
442.648;   26.452;   -7.707;  746.255
443.239;   24.822;   -9.017;  620.477
443.830;   29.970;  -10.279;  704.958
444.421;   32.372;  -12.630;  655.474
445.011;   27.894;   -8.697;  693.619
445.602;   29.059;   -7.787;  743.126
446.193;   30.520;  -13.329;  488.117
446.783;   34.286;   -9.171;  640.397
447.374;   29.911;   -7.457;  692.759
447.964;   30.047;   -9.277;  713.770
448.555;   38.801;   -9.041;  822.742
449.145;   34.798;   -8.969;  662.853
449.736;   36.032;   -6.809;  803.179
450.326;   36.274;   -7.229;  713.626
450.917;   41.674;  -11.391;  675.324
451.507;   41.369;   -9.501;  600.661
452.097;   41.297;   -8.460;  746.267
452.688;   42.790;  -10.080;  742.160
453.278;   41.869;  -12.861;  566.840
453.868;   46.811;   -8.372;  793.550
454.458;   44.704;   -8.131;  651.141
455.048;   44.906;   -8.520;  711.783
455.639;   45.758;  -13.632;  567.096
456.229;   49.536;  -10.143;  710.694
456.819;   51.825;   -9.163;  751.158
457.409;   52.052;   -8.652;  773.993
457.999;   55.288;   -9.933;  737.505
458.589;   55.256;  -10.363;  686.606
459.179;   54.607;  -10.633;  717.658
459.769;   52.310;  -12.442;  627.099
460.358;   58.318;   -9.844;  797.262
460.948;   58.167;   -9.924;  689.503
461.538;   59.224;  -10.484;  660.677
462.128;   57.803;  -10.703;  664.934
462.717;   63.326;  -11.486;  710.326
463.307;   66.949;  -10.767;  705.846
463.897;   62.743;   -8.814;  656.942
464.486;   62.906;   -8.182;  837.128
465.076;   67.230;   -9.985;  733.776
465.666;   70.673;  -10.447;  652.900
466.255;   68.119;   -7.754;  785.651
466.845;   66.510;  -10.884;  666.749
467.434;   70.528;  -12.525;  725.873
468.023;   72.226;  -11.456;  658.357
468.613;   68.739;   -9.173;  713.946
469.202;   72.150;   -9.306;  646.507
469.791;   77.516;   -8.917;  737.811
470.381;   79.103;   -9.657;  742.813
470.970;   78.701;   -9.947;  711.099
471.559;   78.240;   -9.256;  733.291
472.148;   81.694;  -13.397;  675.737
472.738;   85.222;   -9.928;  765.466
473.327;   84.785;  -10.897;  637.529
473.916;   83.565;   -8.526;  737.446
474.505;   88.847;  -11.078;  751.703
475.094;   91.863;   -9.559;  806.570
475.683;   90.388;   -8.838;  797.699
476.272;   92.376;  -10.198;  730.632
476.861;   95.426;  -11.489;  706.754
477.449;  101.812;  -10.721;  728.487
478.038;   95.965;   -9.818;  692.513
478.627;   96.469;   -9.887;  714.852
479.216;  103.797;  -10.030;  769.441
479.805;  106.843;   -9.401;  783.375
480.393;  106.243;   -5.739; 1008.945
480.982;  105.117;   -7.838;  874.501
481.571;  111.567;   -9.111;  858.333
482.159;  113.229;  -10.601;  705.386
482.748;  112.667;   -8.500;  821.385
483.336;  116.817;   -9.241;  858.209
483.925;  118.168;  -10.440;  774.373
484.513;  125.466;  -11.063;  758.962
485.102;  121.499;   -9.540;  810.965
485.690;  130.400;   -6.742; 1011.050
486.278;  133.102;   -8.442;  979.329
486.867;  132.994;  -10.472;  809.662
487.455;  134.757;   -8.811;  898.229
488.043;  136.813;  -10.721;  748.361
488.631;  146.704;  -10.393; 1005.079
489.220;  150.166;  -10.843;  908.626
489.808;  151.072;  -10.572;  741.415
490.396;  160.030;  -10.482;  914.645
490.984;  166.774;  -11.542;  830.161
491.572;  177.795;   -8.463;  940.315
492.160;  185.937;   -8.491;  919.081
492.748;  199.339;   -9.681;  884.341
493.336;  224.863;  -10.493; 1019.693
493.924;  257.444;   -9.354;  958.077
494.512;  295.947;   -9.132; 1066.638
495.100;  335.973;   -9.001; 1103.280
495.687;  393.802;  -11.924; 1206.373
496.275;  477.588;  -11.193; 1150.796
496.863;  567.670;   -9.241; 1281.171
497.451;  679.194;  -11.341; 1386.805
498.038;  800.269;  -11.364; 1556.729
498.626;  921.164;   -8.104; 1741.407
499.214; 1143.674;   -8.842; 2016.609
499.801; 1439.987;  -10.112; 2220.633
500.389; 1680.104;  -11.953; 2312.494
500.976; 1888.674;  -10.023; 2744.849
501.564; 2182.203;   -8.662; 3148.565
502.151; 2633.146;  -10.531; 3515.999
502.738; 3149.221;  -13.853; 3971.274
503.326; 3690.954;  -10.794; 4403.796
503.913; 4342.729;   -8.663; 5161.749
504.500; 4900.731;  -10.172; 5986.420
505.088; 5848.168;  -13.472; 6381.201
505.675; 6587.661;  -10.924; 6925.547
506.262; 6904.588;   -8.551; 7619.060
506.849; 7724.395;  -10.523; 8733.969
507.436; 8736.596;  -10.834; 9790.121
508.023; 8909.370;   -9.093; 9985.472
508.610; 9247.202;  -10.073;10434.618
509.197;10505.690;   -9.500;11198.435
509.784;12477.286;  -13.242;12391.194
510.371;13305.959;  -10.964;13603.713
510.958;14251.548;   -9.772;14426.586
511.545;14987.592;   -7.842;15243.775
512.132;15177.471;  -12.184;15945.876
512.719;16810.939;   -9.733;16340.369
513.305;19313.760;   -9.172;18011.766
513.892;20482.871;   -9.581;19754.971
514.479;21493.973;  -10.253;20967.805
515.066;21887.979;   -8.183;22299.793
515.652;22764.369;   -9.253;22908.660
516.239;24311.691;   -9.412;23798.875
516.825;25588.078;  -11.153;25567.275
517.412;24685.404;  -10.263;28154.959
517.998;24070.213;   -8.802;28344.111
518.585;24372.398;  -10.401;27134.219
519.171;25028.617;  -12.744;27268.576
519.758;26775.471;  -11.793;28964.129
520.344;29969.023;   -8.912;30664.494
520.930;32353.658;  -10.901;32550.605
521.516;31709.486;  -12.034;35422.895
522.103;32921.727;  -10.473;38280.004
522.689;34548.691;   -8.311;37835.117
523.275;35792.297;  -10.691;37288.613
523.861;36396.707;  -11.193;37281.395
524.447;34533.129;  -11.484;37846.949
525.033;34872.398;   -7.702;38321.949
525.619;35800.414;  -11.241;38579.285
526.205;36349.359;  -12.152;40622.875
526.791;37437.047;  -11.423;42258.836
527.377;38136.023;   -7.981;42966.902
527.963;37725.781;   -9.450;42018.949
528.549;38309.883;  -11.351;42476.828
529.135;39485.422;  -10.202;41854.852
529.721;38586.867;   -8.672;41237.711
530.306;36360.262;   -9.111;41259.445
530.892;38736.398;  -11.252;41506.047
531.478;41646.973;  -10.432;43559.613
532.063;43666.898;  -10.721;47695.563
532.649;45315.719;   -7.450;50808.324
533.235;46196.980;  -11.811;51787.500
533.820;45769.738;   -9.383;52145.035
534.406;43147.867;   -9.400;51133.488
534.991;43848.141;   -8.861;49996.805
535.576;45185.668;  -10.612;48882.852
536.162;42371.539;   -7.322;46942.285
536.747;42362.063;   -9.360;45711.746
537.333;45164.621;  -10.450;48510.180
537.918;48313.840;  -12.610;50439.891
538.503;48591.438;  -12.132;50863.711
539.088;45656.652;  -10.831;50906.922
539.673;45900.012;  -11.220;52621.965
540.259;47956.941;  -11.481;52368.094
540.844;47623.055;  -11.462;50879.109
541.429;48871.285;   -7.869;52077.777
542.014;47185.844;  -11.859;52716.695
542.599;44566.852;  -11.061;52363.281
543.184;44634.199;  -12.300;53187.137
543.769;46342.367;   -9.369;54697.605
544.354;47012.234;  -12.020;53913.914
544.938;43466.035;  -10.350;49680.164
545.523;40451.801;  -10.841;47386.277
546.108;43576.676;   -8.579;49151.949
546.693;46738.566;   -8.818;51384.637
547.278;47063.008;  -11.331;51853.254
547.862;45571.836;  -10.292;51173.750
548.447;45305.820;   -8.349;51691.395
549.031;45320.684;  -10.838;52456.703
549.616;47068.914;  -11.681;52714.516
550.201;48094.840;  -11.140;52414.598
550.785;46117.750;   -8.649;52355.059
551.370;47970.645;  -11.889;54589.453
551.954;47970.547;  -11.239;58267.348
552.538;49082.629;   -8.850;59062.176
553.123;50578.500;  -10.829;58115.285
553.707;50867.500;   -8.887;56556.285
554.291;48487.660;  -10.430;56201.668
554.876;48679.477;   -9.799;55335.762
555.460;45772.023;  -10.018;54155.703
556.044;45940.383;   -7.307;53721.484
556.628;48168.785;  -12.229;53731.016
557.212;48590.074;   -9.820;54312.531
557.796;46926.410;   -9.109;53797.773
558.380;45655.887;   -9.707;56145.984
558.964;48270.168;  -10.980;57277.930
559.548;50275.141;  -12.010;56459.641
560.132;50862.301;   -7.928;54434.543
560.716;54050.984;  -10.247;54800.617
561.300;53756.723;  -11.250;57606.945
561.884;51441.672;  -10.568;58972.445
562.467;48421.441;   -9.727;57327.570
563.051;44919.027;  -11.847;54962.434
563.635;45009.258;  -10.747;52594.473
564.219;43842.906;  -13.108;50610.410
564.802;42598.074;  -11.417;49551.180
565.386;41214.945;  -10.457;48370.953
565.969;44622.996;   -8.959;48178.871
566.553;45654.520;  -10.328;49957.305
567.136;45052.781;  -10.257;50369.594
567.720;43329.465;  -10.186;49492.004
568.303;42645.309;  -10.027;50616.352
568.887;43455.656;  -10.397;50727.148
569.470;44411.910;   -8.185;51698.379
570.053;41916.875;  -11.596;52122.078
570.637;39125.688;  -11.378;52536.438
571.220;38311.742;   -9.138;51186.098
571.803;37937.758;   -7.675;51032.762
572.386;38799.152;   -8.976;49609.887
572.969;41116.742;  -12.477;48285.926
573.552;41089.422;   -9.767;47624.285
574.135;38755.598;   -8.175;45498.641
574.718;34905.129;  -11.096;41970.434
575.301;34672.105;  -11.966;41447.137
575.884;34439.082;  -12.836;40923.836
576.467;39768.801;   -9.116;45267.723
577.050;41672.418;  -10.536;48175.543
577.633;40089.410;  -11.027;47729.328
578.216;39343.313;   -9.946;47579.793
578.799;40234.809;   -9.645;47820.996
579.381;39289.227;   -9.446;48115.551
579.964;38794.926;  -12.217;47333.766
580.547;39042.453;  -10.586;46668.969
581.129;39084.762;   -8.374;44466.141
581.712;38702.133;  -10.434;44164.922
582.294;38079.230;  -10.896;46477.855
582.877;38929.641;   -8.906;48244.254
583.459;38929.848;   -9.994;47437.895
584.042;37776.340;  -10.084;46943.219
584.624;36113.625;  -13.534;46792.227
585.206;36738.602;  -12.716;46557.250
585.789;36921.773;  -11.614;45793.773
586.371;36262.051;  -10.203;43836.391
586.953;35113.285;  -10.314;42972.492
587.536;34043.445;   -9.776;42487.211
588.118;34045.477;   -9.821;42086.414
588.700;34777.480;  -10.073;43389.930
589.282;36466.695;  -12.395;43646.039
589.864;37462.531;  -11.514;43438.109
590.446;38052.512;  -10.803;43151.926
591.028;39002.742;  -11.043;42781.867
591.610;37740.605;  -13.244;42839.098
592.192;35354.762;  -11.095;42820.402
592.774;33201.184;  -10.823;40724.277
593.356;32888.668;  -11.052;39874.789
593.937;33626.074;  -11.664;39980.648
594.519;34229.168;  -10.454;42069.633
595.101;33415.969;  -10.322;42976.031
595.683;31407.820;  -10.042;44084.441
596.264;29706.625;  -14.334;43478.797
596.846;30540.861;  -10.863;43803.672
597.427;32603.744;   -9.901;42986.934
598.009;33605.055;  -10.911;42832.219
598.591;33199.441;  -10.483;42580.086
599.172;32805.820;   -9.663;43061.805
599.753;33512.426;  -10.631;41691.469
600.335;34198.012;   -9.371;40692.520
600.916;36502.199;  -13.992;39982.422
601.498;37540.984;   -8.352;40318.617
602.079;36210.465;   -8.411;40670.609
602.660;38914.324;  -10.841;41450.898
603.241;37953.813;  -12.963;41137.738
603.823;34130.875;  -11.523;38868.797
604.404;32058.207;  -11.881;38182.785
604.985;33702.457;  -11.721;38078.047
605.566;34152.789;   -9.293;38056.633
606.147;32957.891;  -10.940;37020.418
606.728;32345.561;  -11.840;37883.359
607.309;31389.074;  -11.781;38748.273
607.890;30839.965;  -11.262;38850.230
608.471;29733.023;  -10.111;37457.918
609.051;30116.266;   -7.709;36066.457
609.632;30427.980;  -12.409;35991.074
610.213;28722.480;  -10.811;37402.641
610.794;28818.506;  -11.630;38383.363
611.374;30010.477;   -8.030;40562.387
611.955;31435.273;  -10.809;38533.727
612.536;33198.117;  -10.531;36951.789
613.116;33619.504;  -12.820;37197.891
613.697;33273.453;  -11.419;38411.125
614.277;31902.211;   -9.768;38673.938
614.858;29840.363;  -10.251;37075.863
615.438;26662.082;  -11.981;35092.906
616.019;26627.715;   -8.978;33666.301
616.599;29138.508;  -12.219;34189.023
617.179;31507.334;  -14.170;36952.047
617.760;33430.820;   -9.211;39582.574
618.340;33458.484;   -9.018;38943.977
618.920;31920.973;   -9.249;37594.156
619.500;32924.582;  -12.728;37866.938
620.080;34487.250;  -12.939;37869.043
620.660;32875.492;  -11.586;36868.617
621.241;32274.896;  -11.538;36352.309
621.821;32506.389;  -11.398;35459.520
622.401;33534.160;  -10.179;35207.414
622.980;32385.225;  -11.587;35980.422
623.560;31416.855;  -12.888;37351.328
624.140;29610.316;  -13.149;34388.582
624.720;25349.762;   -9.928;32368.764
625.300;25323.713;  -10.869;32638.629
625.880;29120.246;   -8.617;34599.035
626.459;32849.176;  -12.138;36831.738
627.039;33513.324;  -12.267;38299.098
627.619;33553.941;   -7.476;38289.574
628.198;34422.465;  -11.347;37220.695
628.778;33131.367;  -11.678;37632.563
629.357;30559.410;  -12.438;38003.012
629.937;29130.896;   -9.576;38402.039
630.516;28140.361;  -11.096;37868.801
631.096;28377.318;  -11.828;35760.410
631.675;29337.334;  -11.565;35225.219
632.254;29984.406;  -11.845;35130.289
632.834;30746.719;  -11.545;35794.570
633.413;32020.947;  -10.887;35788.922
633.992;33182.246;  -10.175;34532.863
634.571;32212.205;   -9.704;33590.113
635.151;30260.393;  -10.815;34943.863
635.730;30542.457;  -11.617;35352.523
636.309;31021.807;  -10.836;35366.605
636.888;32067.779;   -9.755;36165.637
637.467;32887.754;  -11.684;37515.902
638.046;35150.031;  -11.987;39288.695
638.625;35230.691;  -10.455;38279.699
639.204;33364.836;  -11.234;37741.598
639.782;30278.143;  -12.023;38364.551
640.361;29927.742;  -11.506;36740.621
640.940;29653.672;  -12.316;34950.082
641.519;30191.545;  -11.616;34137.398
642.097;32879.914;   -9.266;35654.258
642.676;33488.695;  -12.936;35637.957
643.255;33425.699;   -9.966;36567.074
643.833;33756.102;   -8.916;37809.434
644.412;35332.504;  -10.936;37337.293
644.990;36621.445;  -12.176;37018.531
645.569;35821.613;  -12.246;36518.469
646.147;35014.586;  -12.107;36186.430
646.726;35057.344;  -12.937;36267.688
647.304;38147.457;  -12.547;36647.625
647.882;38009.746;  -12.597;39286.742
648.461;35463.715;   -9.427;39157.703
649.039;33080.559;   -8.937;35412.883
649.617;32408.318;  -11.067;34744.918
650.195;32346.215;  -10.657;35403.098
650.773;31232.705;  -10.097;35053.797
651.352;28969.438;  -11.887;33756.816
651.930;25370.605;  -13.557;31868.773
652.508;23201.566;  -11.767;33121.551
653.086;23794.863;  -10.777;33564.793
653.663;28134.586;  -12.067;34054.668
654.241;31151.613;  -14.918;35693.309
654.819;31173.754;  -11.788;36422.906
655.397;30515.287;  -11.268;38213.484
655.975;31624.471;  -11.738;39507.625
656.553;31349.586;  -11.018;39498.223
657.130;30017.287;  -12.848;40395.480
657.708;29290.807;  -10.098;39242.020
658.286;29579.617;  -11.678;38920.020
658.863;30582.793;  -11.498;40202.898
659.441;31476.547;  -11.008;39677.938
660.018;32245.064;  -11.048;40413.355
660.596;31728.189;  -12.058;39931.414
661.173;31773.389;  -14.158;39604.531
661.750;31679.813;  -12.298;39700.070
662.328;31363.533;  -10.699;39292.809
662.905;29990.410;  -12.119;38235.648
663.482;26371.775;  -11.829;36212.305
664.060;25112.469;  -11.009;35944.945
664.637;27759.848;  -10.369;35170.785
665.214;28708.896;  -10.459;34197.523
665.791;27339.072;  -12.599;34549.520
666.368;26921.023;  -12.919;35118.578
666.945;28364.436;  -10.699;36019.418
667.522;28836.465;  -11.359;36048.438
668.099;29356.951;  -13.529;36243.914
668.676;30439.248;  -10.229;35958.875
669.253;30237.957;   -9.279;37384.730
669.830;30418.771;  -11.370;36779.629
670.407;31972.883;  -10.950;35231.289
670.984;32641.992;  -12.850;35544.270
671.560;32501.678;   -8.440;35466.867
672.137;30824.242;  -13.520;34280.863
672.714;29301.852;  -13.620;34632.863
673.290;28784.574;  -10.450;35135.422
673.867;27607.361;  -10.960;36114.480
674.443;26718.881;  -13.300;36152.859
675.020;27249.750;  -12.370;35327.238
675.596;27016.945;  -11.250;35795.176
676.173;27394.867;  -11.080;35430.355
676.749;28070.467;  -13.220;33549.516
677.326;31159.512;  -13.000;32210.012
677.902;31830.377;  -12.701;32068.871
678.478;30840.746;  -12.801;32583.891
679.054;29983.746;   -8.601;32088.928
679.631;31515.301;  -12.631;30978.848
680.207;31682.795;   -9.451;33160.887
680.783;30282.967;  -11.701;35570.363
681.359;30222.777;  -12.701;36125.184
681.935;28546.621;  -13.271;35240.922
682.511;27480.580;  -10.791;34429.961
683.087;28765.738;  -10.791;34463.680
683.663;29596.508;   -8.121;34648.898
684.239;31072.244;  -13.261;34546.457
684.815;29177.723;  -10.581;35586.375
685.390;26609.236;   -9.961;35821.895
685.966;25654.867;  -11.182;35085.871
686.542;25608.207;  -13.512;34198.230
687.118;26586.049;  -11.472;32847.707
687.693;26671.717;  -10.152;32794.027
688.269;28497.238;  -14.442;33072.367
688.844;29704.885;  -11.852;33141.664
689.420;27814.311;  -13.942;33965.742
689.995;26443.348;   -9.702;34655.523
690.571;26405.342;  -11.312;33576.742
691.146;26231.568;  -14.332;32657.219
691.722;28295.850;  -11.192;32526.979
692.297;29375.295;  -10.962;33014.617
692.872;27900.461;  -11.082;34012.254
693.448;27391.502;  -14.732;34237.434
694.023;27548.057;  -12.363;34142.672
694.598;27869.922;  -12.393;34132.031
695.173;27379.104;  -11.023;34205.250
695.748;27550.666;  -12.743;32882.488
696.323;29268.115;  -11.103;32864.906
696.898;30429.289;   -8.123;33170.004
697.473;30104.846;  -12.603;32432.984
698.048;28716.980;  -12.553;31649.303
698.623;29559.053;  -12.573;30778.141
699.198;31112.533;  -12.743;31140.119
699.773;28869.609;  -12.843;31764.299
700.348;28244.844;  -16.683;31780.816
700.922;29061.455;  -11.403;32046.375
701.497;29734.822;  -11.253;32603.574
702.072;29272.375;  -10.044;34799.871
702.646;27464.930;  -13.054;35793.172
703.221;26350.650;  -11.414;35201.590
703.795;27266.676;  -10.644;34764.527
704.370;28266.631;  -13.484;34307.367
704.944;27946.592;  -12.144;33509.887
705.519;27379.949;  -12.024;31388.584
706.093;26667.826;  -11.234;31340.104
706.668;25423.908;   -9.874;32630.281
707.242;25280.973;  -12.404;32728.779
707.816;24829.742;  -10.644;32947.238
708.390;25221.904;  -11.174;33277.855
708.965;26535.975;  -10.324;33834.336
709.539;26173.730;  -12.014;33709.273
710.113;26150.883;  -12.295;33044.313
710.687;26767.787;  -10.965;31953.992
711.261;27292.826;  -13.685;30505.949
711.835;26494.641;  -15.335;30262.369
712.409;26275.373;  -13.785;31254.447
712.983;27759.410;  -10.525;32754.986
713.557;28890.990;  -13.175;34018.824
714.131;29507.656;  -13.245;34579.625
714.704;30306.156;  -13.175;33890.262
715.278;30689.742;  -11.545;33531.102
715.852;29028.924;  -10.975;33601.660
716.425;28492.533;  -10.075;33515.117
716.999;28254.588;  -12.185;33185.555
717.573;29034.535;   -9.685;33905.996
718.146;29957.760;  -10.516;35199.293
718.720;26491.994;  -12.106;35060.551
719.293;26536.277;  -12.386;34973.230
719.867;28214.092;  -12.456;36394.449
720.440;27261.010;  -10.686;36663.008
721.013;27270.123;  -12.596;35102.426
721.587;27706.686;  -13.956;33985.266
722.160;27385.322;   -9.806;33524.965
722.733;28321.756;  -11.676;32987.043
723.306;28515.238;  -14.276;33066.301
723.880;28219.357;  -12.126;33399.500
724.453;28448.059;  -10.156;33468.297
725.026;27441.514;  -12.956;33816.637
725.599;26089.469;  -11.676;32797.996
726.172;25879.832;  -12.337;33187.434
726.745;27256.365;  -11.277;35136.613
727.318;26148.877;  -11.927;35751.730
727.891;25183.232;  -13.607;35890.430
728.463;25463.189;  -11.327;34822.090
729.036;25774.111;  -11.917;32895.086
729.609;26927.020;  -12.697;31823.225
730.182;27948.754;  -11.787;31445.283
730.754;28621.807;  -12.957;32373.223
731.327;28949.783;  -11.017;33676.820
731.900;27398.365;  -12.797;33417.000
732.472;25513.414;  -10.677;31978.498
733.045;25055.346;  -12.797;30368.777
733.617;25073.436;  -13.908;30574.215
734.190;24826.432;  -12.258;31280.975
734.762;25791.582;  -13.438;31674.412
735.334;25758.545;  -11.758;31247.291
735.907;25882.164;  -11.158;29876.211
736.479;26672.576;  -11.258;29808.488
737.051;28247.811;  -10.918;30233.547
737.623;29427.896;  -11.038;31469.086
738.195;28516.252;  -12.188;31784.225
738.768;25925.225;  -11.378;32120.523
739.340;25737.400;  -12.598;32094.342
739.912;26437.322;  -11.568;31312.680
740.484;25999.662;   -9.348;31946.238
741.056;25310.207;  -12.628;32984.059
741.628;25733.807;  -13.349;33897.715
742.199;26199.943;  -11.309;33213.016
742.771;27126.859;  -12.699;31369.113
743.343;28609.527;  -11.919;31865.473
743.915;28468.361;  -11.679;32388.631
744.487;27111.887;  -12.249;31079.568
745.058;25790.066;  -11.119;30570.107
745.630;24548.074;   -9.439;29970.127
746.201;24019.725;  -11.949;29186.766
746.773;23458.164;  -12.639;28805.723
747.344;22930.896;  -11.039;29591.223
747.916;22189.215;  -12.549;31412.201
748.487;21650.551;  -12.659;32194.898
749.059;21908.922;  -13.059;32533.719
749.630;22166.527;  -12.080;32158.518
750.201;21053.219;  -13.100;30855.395
750.773;20007.510;  -15.310;28622.555
751.344;20356.217;  -12.240;28405.732
751.915;20848.760;  -11.960;28461.551
752.486;20977.504;  -13.200;27842.850
753.057;20257.938;  -15.230;27845.008
753.628;19485.436;  -13.130;27728.107
754.199;19626.309;  -12.720;27381.086
754.770;19695.879;  -10.680;25882.203
755.341;19880.486;  -11.010;25886.184
755.912;19127.662;  -12.990;26050.861
756.483;18098.600;  -11.110;26798.779
757.054;17646.756;  -12.190;27048.238
757.625;17747.234;  -13.981;26294.838
758.195;18415.344;  -11.041;26142.076
758.766;19934.137;  -11.861;26392.234
759.337;20426.375;  -11.461;26334.594
759.907;20215.781;  -15.001;27579.652
760.478;19915.809;   -9.681;28352.770
761.048;19356.541;  -12.421;27325.088
761.619;18553.156;  -11.761;26460.428
762.189;17444.135;  -12.391;26029.826
762.760;17511.045;  -10.201;26430.145
763.330;18704.586;  -10.811;26670.902
763.900;20532.949;  -10.261;26603.021
764.471;19532.979;  -13.061;25542.740
765.041;18766.400;  -11.051;24358.459
765.611;18895.961;  -11.032;23991.297
766.181;18646.221;  -10.532;24470.236
766.751;18155.676;  -13.502;24845.975
767.321;17838.576;  -11.392;24533.633
767.891;18007.533;  -11.522;24916.492
768.461;18759.676;  -13.672;24776.771
769.031;18446.078;  -14.652;24757.988
769.601;17333.803;  -10.182;24181.088
770.171;15525.678;  -11.752;23670.387
770.741;14898.844;  -12.272;22960.045
771.311;15075.422;  -13.112;22917.523
771.880;15163.725;  -14.122;23562.941
772.450;16472.797;  -11.782;24216.500
773.020;17408.244;  -12.642;24140.398
773.589;16122.569;  -13.043;24414.857
774.159;14318.381;  -11.783;23858.717
774.729;14074.467;  -13.473;22942.135
775.298;15594.792;  -14.523;22324.033
775.867;16473.842;  -12.013;21140.313
776.437;15487.697;  -12.113;20838.092
777.006;13961.714;  -13.543;20599.510
777.576;12467.660;  -12.523;20508.809
778.145;12771.047;  -12.173;20732.947
778.714;13977.121;  -12.153;21062.465
779.283;14412.063;  -11.833;20949.664
779.853;14726.247;  -13.483;20508.623
780.422;15031.091;  -12.933;20649.082
780.991;14199.346;  -13.173;21527.520
781.560;12879.348;  -10.224;22632.658
782.129;12849.536;  -12.684;23048.277
782.698;14131.229;  -11.284;23438.555
783.267;14848.495;  -11.684;23267.734
783.836;13872.954;  -10.974;22415.133
784.404;12938.399;  -13.534;20443.152
784.973;13041.505;  -16.734;19699.150
785.542;12960.623;  -12.594;19763.828
786.111;12569.964;  -11.644;20341.408
786.679;13084.361;  -11.384;20207.967
787.248;13620.710;  -12.014;19516.465
787.817;12553.898;  -12.804;18900.363
788.385;11354.751;  -11.994;17879.121
788.954;11325.634;  -12.564;17658.301
789.522;12288.038;  -12.225;17788.879
790.090;12278.644;  -13.775;18118.277
790.659;11555.251;  -12.485;18338.736
791.227;11486.237;  -12.295;18508.615
791.795;11682.639;  -13.415;17898.254
792.364;11300.605;  -12.995;17295.133
792.932;10981.960;   -8.365;16822.051
793.500;11061.031;  -11.925;17040.148
794.068;11083.451;  -13.245;17179.787
794.636;10897.823;  -13.815;16664.246
795.204;10374.038;  -13.375;16524.545
795.772;10449.253;  -12.125;17274.564
796.340;10857.358;  -13.855;17891.002
796.908;10923.533;  -13.456;17648.561
797.476;10361.062;  -13.116;17064.080
798.044;10095.631;  -13.226;16672.777
798.612;10773.877;  -11.236;17023.996
799.180;11429.684;  -10.476;16561.615
799.747;11335.747;  -11.746;15962.773
800.315;10496.651;  -12.366;15296.992
800.883; 9784.911;  -14.616;14801.771
801.450; 9787.591;  -11.996;14534.430
802.018;10298.003;  -11.206;14173.248
802.585; 9490.022;  -12.466;14029.547
803.153; 8443.104;  -12.846;13836.846
803.720; 8229.343;  -12.136;13567.324
804.287; 8541.703;  -10.966;13360.622
804.855; 9066.518;   -9.797;13681.981
805.422; 8909.334;  -13.037;13536.560
805.989; 8604.233;  -12.697;13355.958
806.556; 8819.925;  -11.737;13747.896
807.124; 9154.413;  -11.997;13987.376
807.691; 8738.261;  -13.997;14038.674
808.258; 8669.231;  -10.927;14120.152
808.825; 9213.335;  -13.727;13860.111
809.392; 9501.519;  -11.847;13268.790
809.959; 8703.691;  -14.217;12680.389
810.526; 7977.357;   -8.277;12427.308
811.093; 7960.755;   -9.647;12030.105
811.659; 7757.407;  -10.987;11653.664
812.226; 7252.336;  -13.447;11637.183
812.793; 7425.245;  -14.418;11611.521
813.360; 7866.917;  -13.908;11885.181
813.926; 7919.230;  -12.918;12770.539
814.493; 7918.566;  -14.888;12677.638
815.060; 7991.968;  -12.758;11974.336
815.626; 8242.970;  -13.478;11594.715
816.193; 8164.839;  -13.898;11579.474
816.759; 7805.386;  -13.588;11666.972
817.325; 7671.251;  -12.018;11325.530
817.892; 7135.094;  -14.068;11105.369
818.458; 6576.334;  -13.458;10843.928
819.024; 6408.980;  -11.968;10714.406
819.591; 6150.332;  -11.028;10469.165
820.157; 5930.479;  -12.088;10235.523
820.723; 5798.872;  -12.599;10847.563
821.289; 6103.085;  -10.419;11040.980
821.855; 6817.951;  -10.939;10357.100
822.421; 7277.979;  -12.539; 9978.918
822.987; 7050.886;  -13.259; 9754.177
823.553; 6465.960;  -15.369;10065.755
824.119; 6209.320;  -10.779;10036.294
824.685; 5787.877;   -9.999;10029.192
825.251; 5449.006;  -11.819;10199.230
825.816; 5246.244;  -13.369; 9820.189
826.382; 5406.314;  -12.679; 9297.248
826.948; 5523.547;  -11.199; 9381.347
827.513; 5364.068;  -11.179; 9450.726
828.079; 5380.323;  -13.489; 9472.444
828.645; 5666.827;  -12.500; 9292.643
829.210; 5845.834;  -15.120; 9065.341
829.776; 5681.124;  -12.590; 9132.620
830.341; 5534.126;  -11.540; 9092.878
830.906; 5619.951;  -12.400; 9078.557
831.472; 5504.760;  -12.720; 8534.535
832.037; 4991.271;  -11.490; 8677.874
832.602; 4551.122;  -14.380; 8628.692
833.167; 4762.317;  -12.780; 8879.031
833.733; 5069.278;  -11.100; 9189.790
834.298; 5326.708;  -12.080; 9052.608
834.863; 5150.782;  -13.910; 8895.087
835.428; 4862.312;  -13.470; 8824.266
835.993; 5194.606;  -11.760; 8845.385
836.558; 5634.220;  -12.731; 8888.563
837.123; 5629.546;  -12.431; 8966.582
837.688; 5297.495;  -11.241; 8617.860
838.253; 4966.379;  -13.681; 8590.699
838.817; 4833.146;  -12.531; 8443.797
839.382; 5100.595;  -12.671; 8799.356
839.947; 5028.707;  -11.541; 8810.595
840.511; 4829.523;  -12.021; 8796.394
841.076; 4743.271;  -13.071; 8347.231
841.641; 4567.070;  -11.411; 8224.330
842.205; 4457.062;  -13.671; 8223.349
842.770; 4520.203;  -11.291; 8622.107
843.334; 4618.183;  -12.951; 8410.386
843.898; 4608.355;  -11.221; 8337.465
844.463; 4499.743;  -11.322; 8506.283
845.027; 4199.225;  -11.412; 8280.962
845.591; 3980.494;  -11.512; 8231.141
846.156; 4186.602;  -14.042; 7969.179
846.720; 4430.958;  -12.152; 7768.278
847.284; 4438.682;  -10.922; 7630.957
847.848; 4174.643;  -10.962; 7472.395
848.412; 3869.796;  -14.612; 7437.394
848.976; 3899.605;  -11.492; 7674.592
849.540; 3947.166;   -9.172; 7836.011
850.104; 4304.661;  -11.232; 7913.669
850.668; 4553.794;  -15.182; 7694.508
851.232; 4200.072;  -15.332; 7756.887
851.796; 4028.544;  -13.703; 7926.545
852.359; 4101.710;  -11.113; 7827.844
852.923; 3925.173;  -11.843; 7641.163
853.487; 3710.927;  -11.173; 7342.501
854.050; 3531.019;  -13.443; 7042.820
854.614; 3469.755;  -13.823; 7151.338
855.177; 3610.039;  -16.393; 7105.077
855.741; 3706.947;  -11.693; 6989.675
856.304; 3668.008;  -10.843; 6596.634
856.868; 3566.167;  -13.783; 6356.272
857.431; 3373.283;  -11.953; 6468.571
857.995; 3261.192;  -13.683; 6373.210
858.558; 3207.127;  -11.433; 6324.448
859.121; 3160.807;  -12.493; 6408.327
859.684; 3211.570;  -12.384; 6347.886
860.247; 3225.101;  -14.774; 6321.264
860.810; 3056.754;  -13.154; 6301.903
861.374; 2912.502;  -11.264; 6607.881
861.937; 2861.259;  -15.424; 6408.200
862.500; 2899.219;  -12.854; 6572.639
863.062; 2943.796;  -12.344; 6387.297
863.625; 2955.136;  -13.314; 6190.836
864.188; 2821.059;  -14.724; 5807.254
864.751; 2757.854;  -13.464; 5682.413
865.314; 2731.623;  -11.684; 5547.492
865.876; 2757.403;  -11.104; 5500.150
866.439; 2834.791;  -12.344; 5415.909
867.002; 2825.008;  -13.494; 5501.567
867.564; 2810.561;  -10.935; 5413.946
868.127; 2740.895;  -12.665; 5160.325
868.689; 2669.445;  -14.515; 5133.183
869.252; 2683.399;  -13.425; 5252.382
869.814; 2721.309;  -11.595; 5297.141
870.377; 2717.326;  -12.175; 5390.919
870.939; 2586.443;  -10.265; 5599.898
871.501; 2483.669;  -12.375; 5248.336
872.063; 2440.720;  -14.355; 4854.235
872.626; 2432.227;  -14.435; 4817.074
873.188; 2341.336;  -12.415; 4987.732
873.750; 2285.508;  -14.555; 4868.651
874.312; 2314.836;  -11.185; 4779.330
874.874; 2294.233;  -12.715; 4866.348
875.436; 2194.322;  -13.196; 4718.887
875.998; 2076.187;  -11.426; 4660.005
876.560; 2000.974;   -9.786; 4462.964
877.122; 1972.445;  -12.796; 4145.042
877.683; 1877.777;  -13.226; 4056.481
878.245; 1733.797;  -12.036; 3950.740
878.807; 1629.282;  -11.536; 4058.958
879.369; 1675.967;  -10.806; 3954.677
879.930; 1835.177;  -13.946; 3941.495
880.492; 1887.663;  -11.876; 4067.014
881.053; 1716.201;  -13.216; 3859.633
881.615; 1602.341;  -12.226; 3776.071
882.176; 1545.523;  -12.946; 3734.750
882.738; 1528.499;  -10.736; 3678.489
883.299; 1488.715;  -12.057; 3405.407
883.860; 1410.401;  -12.677; 3351.106
884.422; 1361.244;  -14.097; 3394.044
884.983; 1305.617;  -13.667; 3166.443
885.544; 1251.316;  -10.717; 3189.802
886.105; 1185.218;  -14.357; 3160.360
886.666; 1115.338;  -14.287; 3093.059
887.227; 1045.930;  -14.297; 2941.957
887.788;  993.236;  -13.137; 2974.836
888.349;  929.558;  -14.637; 2721.214
888.910;  881.672;  -12.247; 2696.493
889.471;  884.611;  -10.577; 2560.172
890.032;  892.388;  -12.937; 2558.190
890.593;  899.156;  -12.487; 2567.669
891.153;  876.135;  -11.898; 2460.307
891.714;  842.214;  -14.278; 2372.046
892.275;  815.575;  -13.308; 2309.505
892.835;  746.156;  -12.058; 2382.543
893.396;  660.824;  -15.268; 2295.502
893.956;  618.773;  -13.278; 2162.420
894.517;  598.333;  -11.968; 2125.439
895.077;  596.722;  -12.798; 2086.978
895.638;  571.833;  -11.908; 2126.316
896.198;  545.104;  -13.288; 1838.275
896.758;  520.671;  -12.198; 1892.813
897.319;  496.509;  -13.048; 1792.232
897.879;  462.362;  -13.718; 1762.751
898.439;  420.194;  -14.138; 1661.149
898.999;  396.278;  -13.659; 1781.468
899.559;  386.513;  -14.699; 1703.347
900.119;  368.646;  -14.339; 1537.525
900.679;  344.821;  -11.789; 1638.384
901.239;  316.044;  -13.629; 1527.902
901.799;  294.261;  -13.679; 1456.441
902.359;  284.597;  -13.679; 1357.140
902.919;  276.065;  -14.159; 1331.118
903.479;  262.690;  -13.419; 1317.257
904.038;  246.187;  -14.899; 1262.595
904.598;  231.364;  -14.339; 1152.034
905.158;  223.487;  -13.959; 1240.893
905.717;  217.078;  -12.749; 1233.691
906.277;  212.893;  -11.889; 1217.330
906.836;  207.137;  -12.870; 1222.408
907.396;  200.714;  -11.790; 1193.047
907.955;  192.531;  -13.750; 1182.526
908.515;  183.493;  -14.760; 1099.364
909.074;  179.912;  -12.540; 1092.863
909.633;  174.765;  -12.120; 1069.121
910.192;  170.290;  -12.550; 1196.460
910.752;  163.879;  -12.760; 1029.960
911.311;  161.040;  -14.750; 1009.780
911.870;  158.686;  -13.860;  971.460
912.429;  159.583;  -13.480; 1094.080
912.988;  158.775;  -12.370; 1081.060
913.547;  155.372;  -14.670;  940.380
914.106;  154.238;  -12.800;  999.420
914.665;  152.053;  -11.370;  984.020
915.224;  148.869;  -11.430; 1035.760
915.782;  146.081;  -12.260;  922.560
916.341;  145.491;  -12.540; 1049.840
916.900;  142.480;  -12.540;  925.260
917.458;  141.138;  -13.480;  884.220
918.017;  140.819;  -12.470;  942.600
918.576;  139.249;  -13.450;  904.440
919.134;  138.747;  -12.890;  837.980
919.693;  138.325;  -15.480;  893.060
920.251;  137.301;  -14.420;  876.500
920.809;  136.896;  -12.170;  839.580
921.368;  135.073;  -13.650;  885.360
921.926;  133.455;  -12.750;  842.940
922.484;  132.620;  -14.150;  903.360
923.042;  133.107;  -15.100;  880.340
923.601;  134.595;  -10.990;  998.680
924.159;  135.056;  -12.470;  935.560
924.717;  134.594;  -15.640;  841.080
925.275;  136.837;  -12.380;  903.240
925.833;  136.660;  -12.710;  779.320
926.391;  139.313;  -11.200;  938.380
926.949;  140.016;  -16.000;  857.680
927.506;  141.141;  -12.260;  903.500
928.064;  143.623;  -11.300;  877.580
928.622;  143.128;  -13.750;  880.100
929.180;  142.061;  -15.290;  814.180
929.737;  143.611;  -14.500;  808.540
930.295;  145.574;  -10.630;  928.480
930.853;  146.779;  -14.590;  849.100
931.410;  147.651;  -14.450;  821.120
931.968;  150.806;  -14.390;  940.660
932.525;  153.102;  -13.050;  909.380
933.082;  157.471;  -15.620;  811.440
933.640;  166.190;  -15.650;  925.900
934.197;  171.504;  -13.610;  886.360
934.754;  172.090;  -13.320;  897.780
935.312;  171.500;  -13.370;  863.340
935.869;  175.852;  -12.780; 1012.980
936.426;  177.232;  -14.480;  872.800
936.983;  179.737;  -13.180;  889.020
937.540;  180.016;  -15.710;  838.280
938.097;  179.108;  -14.980;  940.120
938.654;  177.549;  -13.060;  898.860
939.211;  176.899;  -12.760;  952.480
939.768;  179.007;  -16.230;  915.420
940.324;  184.520;  -10.940;  904.200
940.881;  187.556;  -12.570;  878.500
941.438;  190.812;  -13.650; 1021.200
941.995;  186.522;  -13.300;  992.560
942.551;  184.640;  -15.800;  875.620
943.108;  184.148;  -14.180;  937.920
943.664;  178.656;  -13.890;  869.340
944.221;  177.736;  -12.640; 1088.140
944.777;  179.263;  -14.700;  869.680
945.334;  182.830;  -13.010;  884.840
945.890;  183.408;  -13.480;  946.480
946.446;  181.084;  -14.920;  947.020
947.003;  182.299;  -13.860;  964.940
947.559;  183.404;  -12.000; 1063.040
948.115;  178.940;  -10.510; 1026.540
948.671;  176.294;  -12.760;  967.300
949.227;  175.509;  -15.390;  859.560
949.783;  171.204;  -15.570;  858.900
950.339;  169.572;  -12.800;  991.000
950.895;  167.216;  -13.780; 1023.840
951.451;  162.673;  -13.810;  925.280
952.007;  162.359;  -12.390;  998.540
952.563;  159.481;  -11.980;  937.780
953.118;  157.367;  -14.070;  904.940
953.674;  156.781;  -14.140;  935.780
954.230;  157.270;  -12.680;  949.640
954.785;  158.426;  -12.770;  936.640
955.341;  159.098;  -11.450;  998.160
955.897;  153.600;  -15.350;  834.660
956.452;  150.120;  -14.200;  953.840
957.008;  147.119;  -10.820; 1083.640
957.563;  139.816;  -13.200; 1009.540
958.118;  130.388;  -14.460;  877.700
958.674;  127.235;  -13.840;  946.780
959.229;  122.905;  -10.670; 1013.980
959.784;  117.614;  -17.040;  832.400
960.339;  114.450;  -12.970; 1001.280
960.894;  110.985;  -12.700;  963.760
961.449;  108.639;  -13.790;  859.960
962.004;  114.158;  -11.760; 1212.840
962.559;  116.330;  -14.840;  860.140
963.114;  121.111;  -14.530;  742.480
963.669;  127.529;  -12.780;  915.500
964.224;  130.453;  -14.330;  874.340
964.779;  128.709;  -14.380;  828.420
965.334;  128.730;  -12.460; 1017.860
965.888;  125.952;  -13.490;  875.360
966.443;  125.677;  -14.140;  972.380
966.998;  121.927;  -16.240;  819.460
967.552;  121.351;  -12.730;  908.380
968.107;  119.236;  -14.510;  868.300
968.661;  120.730;  -11.850;  922.440
969.216;  119.821;  -14.370;  856.280
969.770;  118.932;  -13.010;  917.200
970.324;  117.102;  -12.460;  923.140
970.879;  116.672;  -11.580;  947.180
971.433;  117.321;  -13.130;  952.720
971.987;  115.224;  -12.360;  895.340
972.541;  115.859;  -14.330;  917.100
973.095;  115.116;  -13.310; 1009.460
973.649;  114.609;  -15.830;  809.480
974.203;  117.110;  -15.830;  829.040
974.757;  118.391;  -13.480;  855.220
975.311;  117.068;  -13.720;  872.600
975.865;  115.195;  -15.780;  881.820
976.419;  113.093;  -14.290;  857.400
976.973;  111.064;  -13.210;  849.620
977.526;  110.299;  -12.300;  949.920
978.080;  107.231;  -14.840;  796.780
978.634;  106.694;  -13.100;  921.320
979.187;  103.307;  -12.300;  905.400
979.741;  101.243;  -12.020; 1018.380
980.294;   95.493;  -14.590;  789.160
980.848;   91.655;  -14.390;  717.220
981.401;   92.130;  -14.280;  816.540
981.955;   93.030;  -11.920;  844.300
982.508;   89.338;  -15.790;  746.340
983.061;   90.083;  -12.070;  915.260
983.615;   87.005;  -13.260;  798.800
984.168;   84.948;  -15.540;  770.080
984.721;   85.591;  -13.230;  880.760
985.274;   83.027;  -11.820;  867.500
985.827;   80.939;  -13.510;  834.220
986.380;   77.579;  -14.840;  721.340
986.933;   78.389;  -13.970;  864.800
987.486;   77.037;  -12.450;  861.920
988.039;   75.569;  -11.170;  863.100
988.591;   74.122;  -13.070;  893.260
989.144;   69.102;  -15.530;  737.260
989.697;   68.234;  -14.300;  758.740
990.250;   68.468;  -13.310;  858.100
990.802;   65.274;  -14.490;  755.860
991.355;   67.378;  -12.980;  974.880
991.907;   66.165;  -13.715;  864.320
992.460;   64.953;  -14.450;  753.760
993.012;   63.802;  -12.590;  749.540
993.565;   61.329;  -15.180;  711.360
994.117;   63.289;  -11.630;  950.780
994.669;   59.767;  -13.760;  701.320
995.221;   58.151;  -12.710;  791.920
995.774;   57.965;  -14.620;  787.580
996.326;   57.066;  -13.150;  740.220
996.878;   57.748;  -12.880;  838.420
997.430;   56.440;  -14.580;  699.860
997.982;   54.739;  -14.030;  750.140
998.534;   54.566;  -12.190;  739.060
999.086;   52.840;  -12.990;  738.220
999.638;   51.868;  -13.180;  661.380
1000.190;   51.116;  -14.970;  699.320
1000.741;   51.915;  -12.200;  742.700
1001.293;   51.063;  -13.400;  686.020
1001.845;   50.731;  -14.490;  676.640
1002.396;   51.114;  -15.280;  743.400
1002.948;   50.994;  -12.380;  737.400
1003.500;   48.490;  -13.260;  723.780
1004.051;   49.672;  -13.730;  907.580
1004.603;   49.409;  -12.300;  791.820
1005.154;   45.996;  -15.330;  608.980
1005.705;   44.959;  -12.800;  723.960
1006.257;   44.402;  -13.900;  707.220
1006.808;   42.567;  -14.430;  685.460
1007.359;   42.830;  -12.010;  763.240
1007.910;   40.880;  -12.690;  646.640
1008.461;   41.409;  -13.610;  732.940
1009.013;   38.867;  -14.990;  588.340
1009.564;   40.761;  -11.860;  793.520
1010.115;   37.637;  -12.640;  597.040
1010.665;   38.382;  -14.570;  602.160
1011.216;   38.124;  -15.190;  667.920
1011.767;   37.781;  -13.470;  697.920
1012.318;   37.670;  -13.760;  736.980
1012.869;   36.663;  -15.950;  679.000
1013.419;   36.351;  -15.880;  603.120
1013.970;   35.749;  -14.540;  666.640
1014.521;   36.057;  -13.220;  620.620
1015.071;   35.719;  -15.020;  670.380
1015.622;   35.161;  -17.510;  635.460
1016.172;   34.864;  -14.130;  596.820
1016.723;   34.467;  -14.220;  614.380
1017.273;   34.434;  -15.370;  604.160
1017.823;   34.383;  -15.290;  650.340
1018.374;   33.913;  -13.420;  611.760
1018.924;   34.583;  -11.740;  716.880
1019.474;   34.231;  -12.250;  718.880
1020.024;   32.854;  -15.850;  657.580
1020.574;   33.714;  -13.280;  726.160
1021.124;   33.751;  -13.560;  673.580
1021.674;   31.793;  -13.790;  559.120
1022.224;   33.764;  -14.610;  708.940
1022.774;   33.383;  -13.100;  668.820
1023.324;   32.793;  -11.470;  753.520
1023.874;   34.314;  -11.990;  875.760
1024.423;   31.390;  -14.550;  613.700
1024.973;   31.477;  -14.440;  610.760
1025.523;   30.408;  -13.250;  620.960
1026.072;   30.539;  -15.200;  606.420
1026.622;   30.540;  -14.590;  675.740
1027.172;   31.562;  -11.080;  715.660
1027.721;   29.424;  -14.010;  601.220
1028.270;   30.185;  -13.690;  663.400
1028.820;   29.454;  -15.380;  638.080
1029.369;   29.737;  -14.980;  612.700
1029.918;   29.441;  -13.100;  649.840
1030.468;   28.558;  -13.680;  564.780
1031.017;   29.733;  -13.770;  634.800
1031.566;   28.396;  -14.100;  608.900
1032.115;   28.837;  -11.770;  694.500
1032.664;   27.707;  -14.940;  596.480
1033.213;   29.264;  -13.370;  735.420
1033.762;   28.417;  -13.660;  635.620
1034.311;   26.890;  -13.650;  677.220
1034.860;   27.878;  -13.820;  691.000
1035.408;   28.084;  -12.860;  722.720
1035.957;   28.452;  -13.060;  719.540
1036.506;   25.603;  -14.510;  530.800
1037.055;   29.028;  -13.470;  844.320
1037.603;   26.600;  -14.800;  664.000
1038.152;   25.217;  -14.190;  534.760
1038.700;   25.825;  -11.810;  585.740
1039.249;   26.240;  -12.850;  681.220
1039.797;   26.153;  -14.610;  633.360
1040.345;   26.165;  -15.220;  705.420
1040.894;   25.382;  -13.480;  625.300
1041.442;   25.283;  -13.310;  632.200
1041.990;   24.326;  -14.510;  559.160
1042.538;   23.718;  -15.700;  536.180
1043.087;   24.218;  -13.910;  570.860
1043.635;   25.191;  -13.620;  670.500
1044.183;   24.199;  -14.230;  586.400
1044.731;   24.674;  -13.730;  576.000
1045.279;   24.318;  -13.970;  674.920
1045.827;   26.434;  -10.750;  892.400
1046.374;   22.447;  -15.230;  515.420
1046.922;   22.648;  -15.390;  590.580
1047.470;   24.463;  -12.320;  691.300
1048.018;   24.012;  -13.230;  647.960
1048.565;   24.315;  -13.390;  708.600
1049.113;   22.786;  -15.030;  557.000
1049.660;   23.066;  -12.540;  629.660
1050.208;   22.846;  -15.040;  675.640
1050.755;   22.203;  -14.680;  606.580
1051.303;   23.900;  -13.610;  686.820
1051.850;   22.234;  -14.340;  635.120
1052.397;   20.302;  -16.330;  473.960
1052.945;   21.332;  -15.710;  617.760
1053.492;   22.504;  -12.320;  741.840
1054.039;   22.545;  -13.730;  720.180
1054.586;   20.048;  -16.140;  557.240
1055.133;   21.345;  -14.020;  693.140
1055.680;   22.509;  -13.430;  646.620
1056.227;   20.293;  -14.570;  542.780
1056.774;   22.112;  -14.400;  794.980
1057.321;   20.153;  -14.230;  523.260
1057.868;   20.761;  -14.220;  651.320
1058.415;   20.959;  -14.060;  651.980
1058.961;   20.258;  -14.640;  678.940
1059.508;   20.309;  -13.970;  643.820
1060.055;   20.089;  -15.100;  581.780
1060.601;   19.999;  -12.180;  624.300
1061.148;   19.771;  -15.010;  616.820
1061.694;   19.066;  -14.750;  592.580
1062.241;   19.271;  -14.130;  596.320
1062.787;   19.859;  -14.770;  663.140
1063.334;   21.028;  -13.130;  808.560
1063.880;   19.710;  -14.420;  668.360
1064.426;   20.089;  -13.130;  706.820
1064.972;   18.416;  -13.960;  601.340
1065.518;   17.492;  -13.680;  566.640
1066.065;   17.797;  -15.720;  624.460
1066.611;   18.114;  -13.970;  598.800
1067.157;   18.263;  -13.920;  641.860
1067.703;   18.536;  -14.760;  668.480
1068.249;   17.745;  -14.490;  605.220
1068.794;   17.351;  -14.740;  626.880
1069.340;   16.892;  -13.220;  578.960
1069.886;   17.350;  -14.930;  590.700
1070.432;   16.083;  -14.700;  541.720
1070.977;   16.677;  -14.470;  601.080
1071.523;   16.770;  -14.330;  573.060
1072.068;   17.132;  -14.960;  582.000
1072.614;   15.821;  -16.220;  527.760
1073.160;   17.390;  -11.280;  687.040
1073.705;   16.139;  -15.990;  572.520
1074.250;   15.378;  -16.550;  559.900
1074.796;   17.274;  -14.600;  655.160
1075.341;   17.178;  -13.440;  664.100
1075.886;   15.573;  -14.450;  594.240
1076.431;   15.794;  -13.160;  649.880
1076.976;   15.246;  -14.710;  639.220
1077.521;   15.350;  -14.000;  583.080
1078.067;   15.190;  -14.470;  579.400
1078.612;   15.850;  -14.530;  661.620
1079.156;   15.549;  -15.660;  601.540
1079.701;   15.883;  -16.120;  693.260
1080.246;   15.999;  -12.960;  696.300
1080.791;   15.146;  -13.700;  625.020
1081.336;   15.316;  -15.540;  659.320
1081.880;   14.973;  -14.640;  649.680
1082.425;   14.280;  -14.220;  573.480
1082.970;   15.375;  -11.890;  717.040
1083.514;   14.020;  -13.820;  597.000
1084.059;   13.469;  -14.280;  586.720
1084.603;   13.636;  -12.890;  565.840
1085.147;   14.160;  -13.590;  645.220
1085.692;   15.005;  -14.050;  716.800
1086.236;   12.341;  -14.990;  503.140
1086.780;   14.370;  -12.640;  751.440
1087.325;   14.475;  -15.550;  654.620
1087.869;   14.039;  -14.980;  610.700
1088.413;   14.146;  -13.440;  705.040
1088.957;   12.040;  -12.170;  543.400
1089.501;   14.281;  -12.730;  766.640
1090.045;   13.812;  -14.650;  726.480
1090.589;   11.464;  -14.500;  569.920
1091.133;   12.295;  -12.320;  673.340
1091.676;   12.621;  -16.130;  591.940
1092.220;   12.353;  -13.930;  600.920
1092.764;   13.557;  -12.820;  706.960
1093.307;   13.427;  -11.700;  673.780
1093.851;   11.012;  -15.600;  556.540
1094.395;   12.598;  -13.920;  683.140
1094.938;   11.689;  -16.090;  632.520
1095.482;   11.611;  -13.820;  559.800
1096.025;   12.269;  -12.720;  710.880
1096.568;   12.759;  -12.100;  779.280
1097.112;    9.118;  -15.450;  508.180
1097.655;   11.856;  -14.310;  603.000
1098.198;    9.981;  -14.740;  600.180
1098.741;   10.382;  -15.550;  612.860
1099.285;   11.446;  -12.600;  657.300
1099.828;    9.284;  -15.050;  439.400
1100.371;   10.220;  -14.800;  608.160
1100.914;   10.717;  -16.480;  682.660
1101.457;   11.022;  -12.990;  679.900
1101.999;    9.998;  -14.110;  584.680
1102.542;   10.870;  -11.450;  641.440
1103.085;   10.190;  -13.350;  658.500
1103.628;   10.873;  -13.200;  762.060
1104.170;    9.673;  -12.310;  588.280
1104.713;   10.326;  -14.320;  646.700
1105.256;    8.676;  -16.110;  557.440
1105.798;    9.021;  -15.910;  499.980
1106.341;   10.965;  -12.200;  728.900
1106.883;    8.864;  -14.910;  521.340
1107.425;    9.301;  -14.960;  668.180
1107.968;    9.167;  -13.440;  612.380
1108.510;    9.904;  -14.010;  684.960
1109.052;    7.777;  -15.430;  612.620
1109.594;    8.631;  -15.290;  554.440
1110.136;    9.660;  -13.360;  643.220
1110.679;    7.596;  -13.820;  633.080
1111.221;    8.176;  -13.690;  604.460
1111.763;    8.557;  -14.890;  559.220
1112.304;    8.008;  -14.550;  547.140
1112.846;    8.713;  -12.760;  666.240
1113.388;   11.348;  -10.780;  942.180
1113.930;    8.684;  -12.690;  694.200
1114.472;    8.263;  -15.730;  606.540
1115.013;    6.192;  -14.620;  551.280
1115.555;    7.045;  -14.950;  587.100
1116.097;    6.301;  -16.460;  579.480
1116.638;    7.752;  -13.730;  684.600
1117.180;    7.709;  -13.810;  667.740
1117.721;    6.968;  -13.280;  568.580
1118.262;    8.021;  -15.080;  677.960
1118.804;    8.040;  -14.040;  637.340
1119.345;    6.284;  -15.430;  578.400
1119.886;    8.240;  -15.240;  704.040
1120.427;    7.056;  -15.820;  589.020
1120.969;    6.766;  -14.550;  597.920
1121.510;    6.042;  -14.030;  563.060
1122.051;    7.174;  -11.990;  723.580
1122.592;    6.157;  -16.490;  655.420
1123.133;    4.973;  -15.580;  547.940
1123.673;    6.815;  -12.850;  706.480
1124.214;    5.458;  -13.630;  612.460
1124.755;    7.149;  -14.830;  639.460
1125.296;    6.233;  -13.110;  627.320
1125.836;    7.338;  -11.320;  691.500
1126.377;    5.940;  -14.330;  599.660
1126.918;    5.900;  -12.800;  614.980
1127.458;    5.245;  -13.580;  622.220
1127.999;    5.968;  -10.330;  656.980
1128.539;    6.486;  -13.390;  694.240
1129.079;    5.760;  -16.420;  632.720
1129.620;    5.261;  -15.700;  558.100
1130.160;    4.359;  -14.790;  539.480
1130.700;    5.583;  -12.910;  640.840
1131.240;    5.562;  -15.610;  643.700
1131.781;    4.531;  -12.920;  619.680
1132.321;    4.504;  -15.300;  599.120
1132.861;    4.566;  -14.760;  564.200
1133.401;    3.686;  -15.470;  593.940
1133.941;    5.174;  -13.710;  626.280
1134.481;    4.335;  -11.820;  597.580
1135.020;    3.929;  -14.810;  609.160
1135.560;    4.789;  -13.660;  674.940
1136.100;    3.107;  -13.940;  501.160
1136.640;    3.192;  -15.410;  510.480
1137.179;    2.962;  -16.920;  537.960
1137.719;    3.574;  -16.430;  605.400
1138.258;    4.379;  -16.300;  587.360
1138.798;    4.157;  -13.710;  663.780
1139.337;    2.455;  -13.840;  482.840
1139.877;    4.128;  -16.140;  642.360
1140.416;    6.720;  -11.410;  878.060
1140.955;    2.607;  -12.820;  535.380
1141.494;    3.449;  -12.310;  669.280
1142.034;    2.625;  -16.280;  583.520
1142.573;    3.923;  -13.090;  646.280
1143.112;    1.979;  -13.770;  553.480
1143.651;    2.718;  -15.830;  536.480
1144.190;    4.045;  -15.010;  691.640
1144.729;    3.606;  -13.650;  607.420
1145.267;    3.089;  -13.670;  584.900
1145.806;    4.202;  -13.630;  637.040
1146.345;    3.301;  -14.160;  635.020
1146.884;    2.443;  -11.180;  622.500
1147.422;    1.645;  -15.890;  533.060
1147.961;    3.686;  -12.760;  708.460
1148.500;    2.891;  -15.220;  669.720
1149.038;    3.641;  -13.720;  632.500
1149.577;    2.805;  -13.250;  698.640
1150.115;    0.409;  -16.790;  452.280
1150.653;    2.265;  -15.810;  607.340
1151.192;    2.721;  -14.730;  552.920
1151.730;    2.161;  -13.660;  652.560
1152.268;    1.691;  -15.120;  589.520
1152.806;    1.006;  -15.580;  571.180
1153.344;    0.523;  -16.210;  577.640
1153.882;    2.079;  -12.810;  600.060
1154.421;    0.178;  -14.150;  470.620
1154.958;    0.262;  -15.360;  595.240
1155.496;    2.323;  -14.710;  645.280
1156.034;    1.624;  -13.640;  721.880
1156.572;    2.079;  -13.740;  667.060
1157.110;    0.217;  -16.960;  473.940
1157.647;    2.087;  -11.940;  676.960
1158.185;    0.657;  -14.090;  564.320
1158.723;   -0.058;  -13.610;  509.200
1159.260;    0.779;  -14.760;  701.700
1159.798;    1.989;  -13.700;  658.160
1160.335;    0.396;  -13.820;  631.820

