
Integration time [ms]:   3.882
Averaging Nr. [scans]: 1000
Smoothing Nr. [pixels]: 0
Data measured with spectrometer [name]: 7414430SP
Wave   ;Sample   ;Dark     ;Reference
[nm]   ;[counts] ;[counts] ;[counts] 

288.544;  123.094;   10.292;  793.890
289.143;  126.633;    4.564;  681.602
289.742;  128.213;    6.144;  828.814
290.341;  115.675;    4.396;  789.841
290.940;  106.073;    0.938;  730.702
291.538;  107.485;   -0.684;  881.108
292.137;  106.560;   -2.845;  792.581
292.736;  109.551;   -0.144;  975.101
293.335;  104.852;   -6.352;  735.086
293.934;  106.554;   -7.642;  781.677
294.532;  106.972;   -4.992; 1031.958
295.131;   93.385;   -5.478;  834.394
295.730;   93.727;   -6.549;  809.588
296.328;   91.715;   -9.558;  783.442
296.927;   91.432;   -8.118;  779.652
297.525;   92.663;   -6.908;  781.236
298.124;   84.161;   -9.195;  654.009
298.722;   88.205;   -8.198;  761.933
299.321;   86.316;   -8.817;  708.597
299.919;   84.633;   -7.716;  751.918
300.518;   80.705;  -10.745;  689.338
301.116;   82.402;   -9.647;  691.381
301.715;   83.242;  -10.828;  730.222
302.313;   82.141;   -6.087;  704.943
302.911;   77.311;   -6.824;  733.830
303.509;   82.813;   -8.807;  925.627
304.108;   80.079;   -8.198;  760.383
304.706;   80.820;   -6.218;  801.664
305.304;   75.133;   -7.185;  796.707
305.902;   80.451;   -8.568;  784.484
306.500;   76.191;   -7.737;  728.200
307.098;   75.142;   -6.026;  746.560
307.696;   73.628;   -7.176;  780.432
308.294;   73.647;   -8.656;  731.359
308.892;   75.684;   -6.838;  759.769
309.490;   72.214;   -2.596;  712.161
310.088;   70.457;   -4.485;  788.444
310.686;   75.885;   -3.907;  821.749
311.284;   71.141;   -2.806;  766.040
311.882;   68.808;   -2.845;  731.225
312.480;   66.272;   -3.274;  697.167
313.078;   68.298;   -3.645;  808.331
313.675;   69.150;   -4.997;  691.600
314.273;   64.502;   -0.894;  797.837
314.871;   63.192;   -2.854;  589.829
315.468;   61.248;   -3.644;  652.090
316.066;   64.742;   -3.947;  694.427
316.664;   58.362;   -1.824;  656.351
317.261;   62.343;    1.565;  910.128
317.859;   58.554;   -3.955;  768.735
318.456;   59.160;   -2.886;  830.096
319.054;   56.011;   -0.995;  787.828
319.651;   54.546;   -1.765;  759.928
320.249;   54.425;   -3.685;  810.188
320.846;   52.672;   -3.736;  714.286
321.443;   50.950;   -2.065;  832.135
322.041;   48.614;   -5.635;  812.315
322.638;   45.506;   -5.985;  701.456
323.235;   48.408;   -6.677;  665.683
323.833;   46.150;   -3.497;  740.354
324.430;   41.636;   -6.756;  615.900
325.027;   44.546;   -7.647;  876.855
325.624;   44.630;   -7.598;  644.532
326.221;   41.760;   -5.848;  689.717
326.818;   41.734;   -5.777;  818.332
327.415;   44.518;   -8.769;  748.828
328.012;   42.875;   -6.299;  690.585
328.609;   42.005;   -6.639;  731.389
329.206;   39.174;   -6.358;  778.621
329.803;   39.648;   -8.698;  737.841
330.400;   41.035;   -8.379;  704.260
330.997;   41.634;   -6.178;  817.147
331.594;   39.121;   -5.646;  788.185
332.191;   43.004;   -6.928;  728.722
332.787;   44.840;   -6.057;  844.463
333.384;   42.492;   -6.445;  763.093
333.981;   40.373;   -8.002;  815.687
334.578;   42.413;   -8.443;  708.378
335.174;   44.338;   -6.053;  731.469
335.771;   44.039;   -5.791;  836.456
336.367;   41.144;   -6.570;  710.631
336.964;   43.514;   -6.741;  793.266
337.561;   43.360;   -5.710;  731.112
338.157;   40.554;   -3.928;  911.916
338.754;   35.745;   -5.577;  796.589
339.350;   35.099;   -9.667;  722.493
339.946;   39.143;   -5.269;  773.135
340.543;   31.453;   -4.485;  846.136
341.139;   26.389;   -7.584;  720.836
341.735;   25.816;   -8.553;  772.593
342.332;   25.484;   -4.984;  691.472
342.928;   25.309;   -3.475;  795.394
343.524;   20.050;   -6.653;  761.684
344.120;   17.277;   -7.173;  738.562
344.716;   20.563;   -4.385;  723.717
345.313;   18.760;   -3.565;  795.342
345.909;   13.863;   -7.495;  627.336
346.505;   16.149;   -8.276;  740.247
347.101;   16.976;   -5.697;  827.864
347.697;   17.547;   -4.767;  785.398
348.293;   11.895;   -7.226;  627.244
348.889;   13.780;   -7.547;  745.914
349.485;   12.973;   -9.147;  688.205
350.081;   14.001;   -6.568;  772.592
350.676;    8.837;   -6.516;  691.606
351.272;   13.839;   -7.378;  809.530
351.868;   13.248;   -6.759;  780.497
352.464;   11.948;   -4.798;  723.932
353.059;    7.356;   -7.977;  646.017
353.655;   11.350;   -8.769;  777.063
354.251;   11.256;   -5.920;  759.845
354.846;    7.004;   -7.647;  740.646
355.442;    4.625;   -6.956;  753.071
356.038;    6.563;   -9.928;  751.708
356.633;    7.608;   -7.698;  728.594
357.229;    5.320;   -6.307;  724.757
357.824;    3.468;   -7.647;  703.600
358.420;    3.453;  -10.047;  679.726
359.015;    4.167;   -7.458;  695.357
359.610;    4.594;   -5.748;  763.920
360.206;   -1.724;   -9.346;  603.240
360.801;    2.076;  -11.268;  646.503
361.396;    4.300;   -8.789;  725.975
361.992;   -0.165;   -6.347;  668.220
362.587;   -2.797;   -6.476;  670.160
363.182;   -0.805;   -9.457;  689.631
363.777;    0.721;   -7.147;  738.242
364.372;    0.603;   -5.507;  737.314
364.967;   -3.770;   -6.386;  680.744
365.563;    1.517;   -7.858;  815.567
366.158;   -1.599;   -8.517;  685.161
366.753;   -1.226;   -8.728;  649.263
367.348;   -2.478;   -7.677;  746.056
367.942;   -2.373;  -10.387;  697.298
368.537;   -3.610;   -7.187;  754.245
369.132;   -2.790;   -8.587;  703.428
369.727;   -7.239;   -8.606;  638.079
370.322;   -6.478;  -10.426;  580.186
370.917;   -5.449;   -5.776;  710.646
371.511;   -2.938;   -6.007;  861.834
372.106;   -6.319;   -6.686;  776.964
372.701;   -9.794;   -9.335;  585.988
373.296;   -2.990;   -6.777;  863.135
373.890;   -7.646;   -7.546;  647.840
374.485;  -10.104;   -8.755;  691.199
375.079;   -6.324;   -9.797;  738.685
375.674;   -4.677;   -6.327;  812.970
376.268;   -8.734;   -9.046;  691.759
376.863;  -14.173;   -7.993;  580.327
377.457;   -7.917;   -9.206;  662.490
378.052;   -9.344;   -5.345;  764.884
378.646;  -10.343;   -5.605;  741.167
379.240;  -11.532;   -6.825;  721.176
379.835;   -9.980;  -10.476;  636.978
380.429;  -11.837;   -8.676;  562.557
381.023;  -11.517;   -4.945;  779.205
381.617;  -14.938;   -8.094;  680.106
382.212;  -10.230;  -10.646;  685.303
382.806;   -9.776;   -8.136;  760.690
383.400;  -13.574;   -7.855;  672.281
383.994;  -15.581;   -8.125;  664.870
384.588;  -10.693;   -7.637;  697.701
385.182;   -8.570;   -7.458;  726.624
385.776;  -10.008;   -6.277;  706.875
386.370;  -13.283;   -7.485;  681.968
386.964;  -11.486;   -9.416;  684.155
387.558;  -10.466;   -8.518;  598.360
388.152;  -13.668;   -7.096;  681.959
388.745;  -12.674;   -7.656;  814.707
389.339;  -10.498;   -8.927;  747.642
389.933;   -9.246;   -9.538;  695.370
390.527;   -9.556;   -5.857;  859.029
391.120;  -16.631;   -9.455;  595.318
391.714;  -13.658;   -9.746;  711.633
392.308;   -9.680;   -7.857;  780.253
392.901;  -12.738;   -9.106;  642.460
393.495;  -16.100;  -10.365;  595.414
394.089;  -13.284;   -9.696;  760.452
394.682;  -13.597;   -7.016;  697.188
395.275;  -13.743;   -8.466;  719.927
395.869;  -16.003;   -8.985;  667.314
396.462;  -13.964;  -11.496;  616.609
397.056;   -8.911;   -7.838;  776.621
397.649;  -13.871;   -6.895;  731.575
398.242;  -12.307;   -5.017;  712.645
398.836;  -10.494;   -8.787;  766.408
399.429;  -11.223;   -8.967;  631.041
400.022;  -14.828;   -8.815;  665.902
400.615;  -12.496;   -6.276;  805.609
401.208;  -10.528;   -8.407;  691.451
401.802;  -13.221;   -7.296;  699.329
402.395;  -14.063;   -7.585;  683.502
402.988;  -15.072;   -8.015;  696.627
403.581;  -11.593;   -9.577;  646.878
404.174;   -9.011;   -7.588;  686.568
404.767;  -12.612;   -7.906;  638.583
405.360;  -15.025;   -7.875;  621.445
405.953;   -9.033;   -8.127;  759.034
406.545;   -7.706;   -7.198;  725.342
407.138;  -13.083;   -8.916;  618.350
407.731;  -11.612;   -9.767;  613.303
408.324;   -7.412;  -10.659;  660.554
408.917;   -8.638;   -8.068;  681.864
409.509;   -9.642;   -9.837;  740.396
410.102;  -11.138;   -8.146;  643.948
410.695;   -5.433;   -7.969;  665.758
411.287;   -6.973;   -8.579;  599.821
411.880;   -7.146;   -6.968;  585.421
412.472;  -10.913;   -9.487;  613.092
413.065;   -7.816;  -10.338;  629.408
413.657;   -6.236;   -9.169;  576.678
414.250;   -5.398;  -10.119;  646.681
414.842;   -7.320;   -9.938;  676.353
415.434;   -5.148;  -10.409;  570.463
416.027;   -0.383;   -9.591;  652.196
416.619;   -2.740;   -7.379;  713.400
417.211;   -3.594;   -9.159;  599.352
417.804;    0.408;   -9.191;  628.499
418.396;   -3.284;   -8.159;  607.643
418.988;   -1.164;   -6.960;  659.238
419.580;   -4.951;  -11.389;  568.276
420.172;   -2.502;  -13.460;  536.196
420.764;    2.468;  -10.701;  672.482
421.356;    0.589;   -8.961;  636.898
421.948;   -0.591;   -9.770;  677.661
422.540;    4.726;   -8.832;  680.027
423.132;    4.726;   -8.153;  600.641
423.724;    1.341;   -8.481;  561.267
424.316;    2.664;   -9.261;  621.345
424.908;    6.482;   -9.643;  591.517
425.500;    7.531;   -8.663;  647.978
426.092;    8.540;   -8.503;  648.268
426.683;    7.108;  -10.522;  684.836
427.275;    9.623;  -11.734;  641.471
427.867;   11.663;  -10.264;  668.948
428.458;   11.547;   -7.644;  732.344
429.050;   10.378;   -7.853;  680.749
429.642;   12.828;   -8.904;  743.124
430.233;   12.196;  -10.795;  569.356
430.825;   14.234;   -7.665;  724.809
431.416;   11.670;   -8.843;  698.241
432.008;   16.536;   -9.885;  651.723
432.599;   16.737;   -9.966;  656.073
433.190;   13.719;   -9.164;  637.670
433.782;   13.353;   -8.584;  590.395
434.373;   20.572;   -8.296;  884.765
434.964;   19.153;   -9.896;  602.920
435.556;   16.026;   -8.255;  634.537
436.147;   19.369;   -8.075;  758.490
436.738;   19.198;   -9.716;  701.099
437.329;   25.480;   -7.318;  721.723
437.920;   18.180;   -6.694;  666.688
438.511;   17.787;   -9.644;  564.526
439.103;   24.766;   -9.427;  623.998
439.694;   26.762;  -10.748;  681.583
440.285;   27.749;   -7.997;  764.432
440.876;   26.100;  -10.046;  845.738
441.466;   24.083;  -13.467;  575.162
442.057;   29.866;   -9.329;  665.814
442.648;   29.693;   -7.707;  746.255
443.239;   27.103;   -9.017;  620.477
443.830;   32.614;  -10.279;  704.958
444.421;   34.165;  -12.630;  655.474
445.011;   31.177;   -8.697;  693.619
445.602;   30.044;   -7.787;  743.126
446.193;   32.712;  -13.329;  488.117
446.783;   37.383;   -9.171;  640.397
447.374;   32.765;   -7.457;  692.759
447.964;   33.119;   -9.277;  713.770
448.555;   41.934;   -9.041;  822.742
449.145;   38.426;   -8.969;  662.853
449.736;   38.834;   -6.809;  803.179
450.326;   38.513;   -7.229;  713.626
450.917;   43.389;  -11.391;  675.324
451.507;   42.584;   -9.501;  600.661
452.097;   43.746;   -8.460;  746.267
452.688;   45.405;  -10.080;  742.160
453.278;   44.892;  -12.861;  566.840
453.868;   49.959;   -8.372;  793.550
454.458;   47.626;   -8.131;  651.141
455.048;   47.998;   -8.520;  711.783
455.639;   49.057;  -13.632;  567.096
456.229;   52.927;  -10.143;  710.694
456.819;   54.704;   -9.163;  751.158
457.409;   55.362;   -8.652;  773.993
457.999;   58.029;   -9.933;  737.505
458.589;   58.603;  -10.363;  686.606
459.179;   58.166;  -10.633;  717.658
459.769;   55.987;  -12.442;  627.099
460.358;   61.906;   -9.844;  797.262
460.948;   61.427;   -9.924;  689.503
461.538;   62.517;  -10.484;  660.677
462.128;   59.977;  -10.703;  664.934
462.717;   67.054;  -11.486;  710.326
463.307;   70.835;  -10.767;  705.846
463.897;   66.285;   -8.814;  656.942
464.486;   65.854;   -8.182;  837.128
465.076;   70.391;   -9.985;  733.776
465.666;   73.806;  -10.447;  652.900
466.255;   71.617;   -7.754;  785.651
466.845;   70.833;  -10.884;  666.749
467.434;   73.060;  -12.525;  725.873
468.023;   75.104;  -11.456;  658.357
468.613;   72.583;   -9.173;  713.946
469.202;   76.630;   -9.306;  646.507
469.791;   81.142;   -8.917;  737.811
470.381;   83.239;   -9.657;  742.813
470.970;   82.210;   -9.947;  711.099
471.559;   82.478;   -9.256;  733.291
472.148;   86.284;  -13.397;  675.737
472.738;   88.595;   -9.928;  765.466
473.327;   88.336;  -10.897;  637.529
473.916;   88.323;   -8.526;  737.446
474.505;   92.562;  -11.078;  751.703
475.094;   95.293;   -9.559;  806.570
475.683;   94.901;   -8.838;  797.699
476.272;   95.675;  -10.198;  730.632
476.861;   98.451;  -11.489;  706.754
477.449;  105.703;  -10.721;  728.487
478.038;   98.776;   -9.818;  692.513
478.627;  101.793;   -9.887;  714.852
479.216;  107.573;  -10.030;  769.441
479.805;  110.985;   -9.401;  783.375
480.393;  111.283;   -5.739; 1008.945
480.982;  110.186;   -7.838;  874.501
481.571;  116.295;   -9.111;  858.333
482.159;  117.343;  -10.601;  705.386
482.748;  117.398;   -8.500;  821.385
483.336;  121.655;   -9.241;  858.209
483.925;  123.458;  -10.440;  774.373
484.513;  129.966;  -11.063;  758.962
485.102;  126.731;   -9.540;  810.965
485.690;  135.382;   -6.742; 1011.050
486.278;  138.109;   -8.442;  979.329
486.867;  137.682;  -10.472;  809.662
487.455;  140.739;   -8.811;  898.229
488.043;  142.868;  -10.721;  748.361
488.631;  152.073;  -10.393; 1005.079
489.220;  156.599;  -10.843;  908.626
489.808;  156.450;  -10.572;  741.415
490.396;  166.092;  -10.482;  914.645
490.984;  173.068;  -11.542;  830.161
491.572;  184.912;   -8.463;  940.315
492.160;  193.150;   -8.491;  919.081
492.748;  205.252;   -9.681;  884.341
493.336;  231.416;  -10.493; 1019.693
493.924;  263.772;   -9.354;  958.077
494.512;  303.978;   -9.132; 1066.638
495.100;  347.365;   -9.001; 1103.280
495.687;  407.427;  -11.924; 1206.373
496.275;  493.944;  -11.193; 1150.796
496.863;  587.620;   -9.241; 1281.171
497.451;  707.018;  -11.341; 1386.805
498.038;  835.743;  -11.364; 1556.729
498.626;  958.701;   -8.104; 1741.407
499.214; 1179.759;   -8.842; 2016.609
499.801; 1478.437;  -10.112; 2220.633
500.389; 1721.855;  -11.953; 2312.494
500.976; 1924.126;  -10.023; 2744.849
501.564; 2205.778;   -8.662; 3148.565
502.151; 2641.996;  -10.531; 3515.999
502.738; 3157.754;  -13.853; 3971.274
503.326; 3732.013;  -10.794; 4403.796
503.913; 4317.538;   -8.663; 5161.749
504.500; 4876.458;  -10.172; 5986.420
505.088; 5853.429;  -13.472; 6381.201
505.675; 6586.593;  -10.924; 6925.547
506.262; 6867.825;   -8.551; 7619.060
506.849; 7709.876;  -10.523; 8733.969
507.436; 8814.804;  -10.834; 9790.121
508.023; 9131.392;   -9.093; 9985.472
508.610; 9515.684;  -10.073;10434.618
509.197;10809.938;   -9.500;11198.435
509.784;12834.051;  -13.242;12391.194
510.371;13761.166;  -10.964;13603.713
510.958;14556.605;   -9.772;14426.586
511.545;15267.494;   -7.842;15243.775
512.132;15365.615;  -12.184;15945.876
512.719;16969.705;   -9.733;16340.369
513.305;19811.172;   -9.172;18011.766
513.892;21062.326;   -9.581;19754.971
514.479;21944.273;  -10.253;20967.805
515.066;22322.213;   -8.183;22299.793
515.652;23358.498;   -9.253;22908.660
516.239;25040.834;   -9.412;23798.875
516.825;26497.238;  -11.153;25567.275
517.412;25801.637;  -10.263;28154.959
517.998;25168.299;   -8.802;28344.111
518.585;25402.070;  -10.401;27134.219
519.171;25952.641;  -12.744;27268.576
519.758;27879.354;  -11.793;28964.129
520.344;31135.752;   -8.912;30664.494
520.930;33784.477;  -10.901;32550.605
521.516;33121.613;  -12.034;35422.895
522.103;34184.523;  -10.473;38280.004
522.689;36199.223;   -8.311;37835.117
523.275;37779.234;  -10.691;37288.613
523.861;38522.930;  -11.193;37281.395
524.447;36089.129;  -11.484;37846.949
525.033;36251.434;   -7.702;38321.949
525.619;36723.395;  -11.241;38579.285
526.205;37005.336;  -12.152;40622.875
526.791;37979.102;  -11.423;42258.836
527.377;38660.203;   -7.981;42966.902
527.963;38511.910;   -9.450;42018.949
528.549;38975.199;  -11.351;42476.828
529.135;40089.824;  -10.202;41854.852
529.721;40141.066;   -8.672;41237.711
530.306;38764.219;   -9.111;41259.445
530.892;40854.309;  -11.252;41506.047
531.478;43520.992;  -10.432;43559.613
532.063;45375.727;  -10.721;47695.563
532.649;46883.363;   -7.450;50808.324
533.235;48037.016;  -11.811;51787.500
533.820;47605.973;   -9.383;52145.035
534.406;44862.992;   -9.400;51133.488
534.991;44570.270;   -8.861;49996.805
535.576;45891.359;  -10.612;48882.852
536.162;43173.938;   -7.322;46942.285
536.747;43045.852;   -9.360;45711.746
537.333;45522.012;  -10.450;48510.180
537.918;48803.723;  -12.610;50439.891
538.503;49123.328;  -12.132;50863.711
539.088;46167.633;  -10.831;50906.922
539.673;46174.941;  -11.220;52621.965
540.259;48916.824;  -11.481;52368.094
540.844;48556.000;  -11.462;50879.109
541.429;49877.180;   -7.869;52077.777
542.014;48128.918;  -11.859;52716.695
542.599;45681.918;  -11.061;52363.281
543.184;46044.199;  -12.300;53187.137
543.769;47652.766;   -9.369;54697.605
544.354;48262.563;  -12.020;53913.914
544.938;44355.902;  -10.350;49680.164
545.523;41284.133;  -10.841;47386.277
546.108;44553.535;   -8.579;49151.949
546.693;47727.875;   -8.818;51384.637
547.278;48509.293;  -11.331;51853.254
547.862;47506.188;  -10.292;51173.750
548.447;47059.406;   -8.349;51691.395
549.031;46956.934;  -10.838;52456.703
549.616;48340.512;  -11.681;52714.516
550.201;50018.703;  -11.140;52414.598
550.785;47763.418;   -8.649;52355.059
551.370;49042.691;  -11.889;54589.453
551.954;49482.551;  -11.239;58267.348
552.538;51021.695;   -8.850;59062.176
553.123;53140.164;  -10.829;58115.285
553.707;53706.102;   -8.887;56556.285
554.291;50911.324;  -10.430;56201.668
554.876;50607.125;   -9.799;55335.762
555.460;47734.305;  -10.018;54155.703
556.044;47572.117;   -7.307;53721.484
556.628;50425.359;  -12.229;53731.016
557.212;51060.824;   -9.820;54312.531
557.796;49364.348;   -9.109;53797.773
558.380;47221.711;   -9.707;56145.984
558.964;49773.422;  -10.980;57277.930
559.548;52532.344;  -12.010;56459.641
560.132;53144.340;   -7.928;54434.543
560.716;56498.809;  -10.247;54800.617
561.300;56929.043;  -11.250;57606.945
561.884;54813.125;  -10.568;58972.445
562.467;52294.129;   -9.727;57327.570
563.051;48405.051;  -11.847;54962.434
563.635;47830.367;  -10.747;52594.473
564.219;46526.555;  -13.108;50610.410
564.802;45037.637;  -11.417;49551.180
565.386;43316.926;  -10.457;48370.953
565.969;46647.770;   -8.959;48178.871
566.553;47820.301;  -10.328;49957.305
567.136;47396.238;  -10.257;50369.594
567.720;46166.117;  -10.186;49492.004
568.303;45550.672;  -10.027;50616.352
568.887;46540.121;  -10.397;50727.148
569.470;47980.637;   -8.185;51698.379
570.053;45961.711;  -11.596;52122.078
570.637;43829.906;  -11.378;52536.438
571.220;43621.359;   -9.138;51186.098
571.803;43029.547;   -7.675;51032.762
572.386;42299.098;   -8.976;49609.887
572.969;43272.910;  -12.477;48285.926
573.552;42898.719;   -9.767;47624.285
574.135;40662.219;   -8.175;45498.641
574.718;36346.258;  -11.096;41970.434
575.301;35595.527;  -11.966;41447.137
575.884;34844.797;  -12.836;40923.836
576.467;40464.871;   -9.116;45267.723
577.050;42853.723;  -10.536;48175.543
577.633;41876.492;  -11.027;47729.328
578.216;40517.574;   -9.946;47579.793
578.799;40924.457;   -9.645;47820.996
579.381;40273.281;   -9.446;48115.551
579.964;40009.285;  -12.217;47333.766
580.547;40557.719;  -10.586;46668.969
581.129;40408.863;   -8.374;44466.141
581.712;39915.160;  -10.434;44164.922
582.294;39350.727;  -10.896;46477.855
582.877;40105.449;   -8.906;48244.254
583.459;40167.750;   -9.994;47437.895
584.042;39045.254;  -10.084;46943.219
584.624;37621.840;  -13.534;46792.227
585.206;37921.027;  -12.716;46557.250
585.789;38165.094;  -11.614;45793.773
586.371;37550.238;  -10.203;43836.391
586.953;35921.543;  -10.314;42972.492
587.536;34352.629;   -9.776;42487.211
588.118;34696.012;   -9.821;42086.414
588.700;35754.598;  -10.073;43389.930
589.282;37506.031;  -12.395;43646.039
589.864;37928.043;  -11.514;43438.109
590.446;38407.828;  -10.803;43151.926
591.028;39712.891;  -11.043;42781.867
591.610;38921.938;  -13.244;42839.098
592.192;36014.590;  -11.095;42820.402
592.774;33496.359;  -10.823;40724.277
593.356;33117.488;  -11.052;39874.789
593.937;34593.516;  -11.664;39980.648
594.519;36314.117;  -10.454;42069.633
595.101;36454.688;  -10.322;42976.031
595.683;35421.906;  -10.042;44084.441
596.264;34546.598;  -14.334;43478.797
596.846;35107.789;  -10.863;43803.672
597.427;35792.094;   -9.901;42986.934
598.009;35362.953;  -10.911;42832.219
598.591;34376.684;  -10.483;42580.086
599.172;33357.566;   -9.663;43061.805
599.753;33277.820;  -10.631;41691.469
600.335;33597.031;   -9.371;40692.520
600.916;35687.496;  -13.992;39982.422
601.498;36965.098;   -8.352;40318.617
602.079;35290.867;   -8.411;40670.609
602.660;37961.430;  -10.841;41450.898
603.241;37753.020;  -12.963;41137.738
603.823;34408.309;  -11.523;38868.797
604.404;32204.992;  -11.881;38182.785
604.985;33663.992;  -11.721;38078.047
605.566;34587.094;   -9.293;38056.633
606.147;33456.297;  -10.940;37020.418
606.728;32698.129;  -11.840;37883.359
607.309;31849.551;  -11.781;38748.273
607.890;31472.945;  -11.262;38850.230
608.471;30220.508;  -10.111;37457.918
609.051;30474.553;   -7.709;36066.457
609.632;30905.596;  -12.409;35991.074
610.213;29358.627;  -10.811;37402.641
610.794;29534.848;  -11.630;38383.363
611.374;30868.098;   -8.030;40562.387
611.955;32175.760;  -10.809;38533.727
612.536;33779.043;  -10.531;36951.789
613.116;34153.520;  -12.820;37197.891
613.697;33697.875;  -11.419;38411.125
614.277;32610.465;   -9.768;38673.938
614.858;31037.293;  -10.251;37075.863
615.438;27422.291;  -11.981;35092.906
616.019;27047.449;   -8.978;33666.301
616.599;30031.730;  -12.219;34189.023
617.179;32630.201;  -14.170;36952.047
617.760;34617.719;   -9.211;39582.574
618.340;34814.031;   -9.018;38943.977
618.920;33065.844;   -9.249;37594.156
619.500;33589.102;  -12.728;37866.938
620.080;35501.727;  -12.939;37869.043
620.660;33863.223;  -11.586;36868.617
621.241;32923.613;  -11.538;36352.309
621.821;33047.691;  -11.398;35459.520
622.401;33970.707;  -10.179;35207.414
622.980;33272.098;  -11.587;35980.422
623.560;32145.133;  -12.888;37351.328
624.140;30089.186;  -13.149;34388.582
624.720;25566.969;   -9.928;32368.764
625.300;25573.613;  -10.869;32638.629
625.880;29761.092;   -8.617;34599.035
626.459;33798.539;  -12.138;36831.738
627.039;34729.180;  -12.267;38299.098
627.619;34691.754;   -7.476;38289.574
628.198;35411.328;  -11.347;37220.695
628.778;34303.031;  -11.678;37632.563
629.357;31807.158;  -12.438;38003.012
629.937;30080.875;   -9.576;38402.039
630.516;29092.037;  -11.096;37868.801
631.096;29181.844;  -11.828;35760.410
631.675;30214.924;  -11.565;35225.219
632.254;30976.232;  -11.845;35130.289
632.834;31809.209;  -11.545;35794.570
633.413;32811.496;  -10.887;35788.922
633.992;34202.547;  -10.175;34532.863
634.571;33165.922;   -9.704;33590.113
635.151;30876.438;  -10.815;34943.863
635.730;30937.873;  -11.617;35352.523
636.309;31077.379;  -10.836;35366.605
636.888;32036.295;   -9.755;36165.637
637.467;32770.492;  -11.684;37515.902
638.046;34822.488;  -11.987;39288.695
638.625;35140.594;  -10.455;38279.699
639.204;33509.516;  -11.234;37741.598
639.782;30288.230;  -12.023;38364.551
640.361;29284.363;  -11.506;36740.621
640.940;29155.602;  -12.316;34950.082
641.519;30184.906;  -11.616;34137.398
642.097;33230.582;   -9.266;35654.258
642.676;33675.398;  -12.936;35637.957
643.255;33287.855;   -9.966;36567.074
643.833;33527.238;   -8.916;37809.434
644.412;34936.773;  -10.936;37337.293
644.990;36439.840;  -12.176;37018.531
645.569;35971.477;  -12.246;36518.469
646.147;35177.406;  -12.107;36186.430
646.726;35047.031;  -12.937;36267.688
647.304;38232.234;  -12.547;36647.625
647.882;38619.016;  -12.597;39286.742
648.461;36253.566;   -9.427;39157.703
649.039;33685.988;   -8.937;35412.883
649.617;32485.205;  -11.067;34744.918
650.195;32409.533;  -10.657;35403.098
650.773;31506.619;  -10.097;35053.797
651.352;29259.375;  -11.887;33756.816
651.930;25234.852;  -13.557;31868.773
652.508;22776.691;  -11.767;33121.551
653.086;23619.818;  -10.777;33564.793
653.663;27652.320;  -12.067;34054.668
654.241;30734.748;  -14.918;35693.309
654.819;31251.432;  -11.788;36422.906
655.397;30636.195;  -11.268;38213.484
655.975;31667.420;  -11.738;39507.625
656.553;31400.432;  -11.018;39498.223
657.130;30130.920;  -12.848;40395.480
657.708;29488.664;  -10.098;39242.020
658.286;29952.590;  -11.678;38920.020
658.863;30897.576;  -11.498;40202.898
659.441;31849.561;  -11.008;39677.938
660.018;32689.695;  -11.048;40413.355
660.596;32375.186;  -12.058;39931.414
661.173;32341.090;  -14.158;39604.531
661.750;32047.271;  -12.298;39700.070
662.328;31619.570;  -10.699;39292.809
662.905;30213.594;  -12.119;38235.648
663.482;26486.836;  -11.829;36212.305
664.060;25430.760;  -11.009;35944.945
664.637;28046.473;  -10.369;35170.785
665.214;28738.449;  -10.459;34197.523
665.791;27345.975;  -12.599;34549.520
666.368;26892.684;  -12.919;35118.578
666.945;28640.297;  -10.699;36019.418
667.522;29328.910;  -11.359;36048.438
668.099;29742.277;  -13.529;36243.914
668.676;30464.016;  -10.229;35958.875
669.253;30307.070;   -9.279;37384.730
669.830;30051.678;  -11.370;36779.629
670.407;31453.631;  -10.950;35231.289
670.984;32394.730;  -12.850;35544.270
671.560;32248.008;   -8.440;35466.867
672.137;30451.527;  -13.520;34280.863
672.714;28828.779;  -13.620;34632.863
673.290;28552.186;  -10.450;35135.422
673.867;27479.055;  -10.960;36114.480
674.443;26260.967;  -13.300;36152.859
675.020;26812.406;  -12.370;35327.238
675.596;26833.861;  -11.250;35795.176
676.173;27337.141;  -11.080;35430.355
676.749;27830.795;  -13.220;33549.516
677.326;30912.346;  -13.000;32210.012
677.902;31933.668;  -12.701;32068.871
678.478;31293.545;  -12.801;32583.891
679.054;30555.428;   -8.601;32088.928
679.631;32105.047;  -12.631;30978.848
680.207;32173.016;   -9.451;33160.887
680.783;30497.359;  -11.701;35570.363
681.359;30333.131;  -12.701;36125.184
681.935;29234.107;  -13.271;35240.922
682.511;27964.447;  -10.791;34429.961
683.087;28917.088;  -10.791;34463.680
683.663;29542.258;   -8.121;34648.898
684.239;31104.248;  -13.261;34546.457
684.815;29550.973;  -10.581;35586.375
685.390;26913.691;   -9.961;35821.895
685.966;25917.691;  -11.182;35085.871
686.542;25620.594;  -13.512;34198.230
687.118;26392.203;  -11.472;32847.707
687.693;26597.369;  -10.152;32794.027
688.269;28257.775;  -14.442;33072.367
688.844;29625.180;  -11.852;33141.664
689.420;27713.990;  -13.942;33965.742
689.995;26242.566;   -9.702;34655.523
690.571;26253.549;  -11.312;33576.742
691.146;25929.742;  -14.332;32657.219
691.722;27716.949;  -11.192;32526.979
692.297;29164.633;  -10.962;33014.617
692.872;27870.238;  -11.082;34012.254
693.448;27378.662;  -14.732;34237.434
694.023;27262.934;  -12.363;34142.672
694.598;27603.574;  -12.393;34132.031
695.173;26994.684;  -11.023;34205.250
695.748;27007.699;  -12.743;32882.488
696.323;28612.229;  -11.103;32864.906
696.898;29821.391;   -8.123;33170.004
697.473;29479.082;  -12.603;32432.984
698.048;28297.799;  -12.553;31649.303
698.623;29279.566;  -12.573;30778.141
699.198;31393.484;  -12.743;31140.119
699.773;29120.797;  -12.843;31764.299
700.348;28319.770;  -16.683;31780.816
700.922;28915.000;  -11.403;32046.375
701.497;29569.604;  -11.253;32603.574
702.072;29523.338;  -10.044;34799.871
702.646;28171.090;  -13.054;35793.172
703.221;26915.102;  -11.414;35201.590
703.795;27610.475;  -10.644;34764.527
704.370;28857.266;  -13.484;34307.367
704.944;28529.551;  -12.144;33509.887
705.519;27753.854;  -12.024;31388.584
706.093;26749.102;  -11.234;31340.104
706.668;25381.760;   -9.874;32630.281
707.242;24972.180;  -12.404;32728.779
707.816;24556.553;  -10.644;32947.238
708.390;24630.736;  -11.174;33277.855
708.965;25705.061;  -10.324;33834.336
709.539;25254.383;  -12.014;33709.273
710.113;25177.869;  -12.295;33044.313
710.687;25822.648;  -10.965;31953.992
711.261;26280.811;  -13.685;30505.949
711.835;25484.559;  -15.335;30262.369
712.409;24953.822;  -13.785;31254.447
712.983;26310.457;  -10.525;32754.986
713.557;27745.701;  -13.175;34018.824
714.131;28481.139;  -13.245;34579.625
714.704;29541.416;  -13.175;33890.262
715.278;30576.178;  -11.545;33531.102
715.852;29321.787;  -10.975;33601.660
716.425;28697.506;  -10.075;33515.117
716.999;28485.826;  -12.185;33185.555
717.573;29172.824;   -9.685;33905.996
718.146;30514.516;  -10.516;35199.293
718.720;27191.266;  -12.106;35060.551
719.293;26896.121;  -12.386;34973.230
719.867;29077.695;  -12.456;36394.449
720.440;28456.795;  -10.686;36663.008
721.013;28414.057;  -12.596;35102.426
721.587;28788.086;  -13.956;33985.266
722.160;28344.014;   -9.806;33524.965
722.733;28840.885;  -11.676;32987.043
723.306;28813.186;  -14.276;33066.301
723.880;28682.457;  -12.126;33399.500
724.453;29227.336;  -10.156;33468.297
725.026;28150.240;  -12.956;33816.637
725.599;26616.412;  -11.676;32797.996
726.172;26094.498;  -12.337;33187.434
726.745;27323.791;  -11.277;35136.613
727.318;26431.818;  -11.927;35751.730
727.891;25288.133;  -13.607;35890.430
728.463;25406.070;  -11.327;34822.090
729.036;25296.047;  -11.917;32895.086
729.609;26245.268;  -12.697;31823.225
730.182;27319.096;  -11.787;31445.283
730.754;28099.908;  -12.957;32373.223
731.327;28488.445;  -11.017;33676.820
731.900;27016.609;  -12.797;33417.000
732.472;25075.258;  -10.677;31978.498
733.045;24520.477;  -12.797;30368.777
733.617;24847.451;  -13.908;30574.215
734.190;24731.293;  -12.258;31280.975
734.762;25774.678;  -13.438;31674.412
735.334;26004.354;  -11.758;31247.291
735.907;26065.006;  -11.158;29876.211
736.479;26816.471;  -11.258;29808.488
737.051;28305.773;  -10.918;30233.547
737.623;29346.314;  -11.038;31469.086
738.195;28707.299;  -12.188;31784.225
738.768;26009.162;  -11.378;32120.523
739.340;25469.666;  -12.598;32094.342
739.912;26362.959;  -11.568;31312.680
740.484;26119.449;   -9.348;31946.238
741.056;25402.926;  -12.628;32984.059
741.628;25790.898;  -13.349;33897.715
742.199;26250.977;  -11.309;33213.016
742.771;26747.199;  -12.699;31369.113
743.343;28344.900;  -11.919;31865.473
743.915;28395.713;  -11.679;32388.631
744.487;26945.387;  -12.249;31079.568
745.058;25421.471;  -11.119;30570.107
745.630;24174.486;   -9.439;29970.127
746.201;23819.764;  -11.949;29186.766
746.773;23382.914;  -12.639;28805.723
747.344;22771.838;  -11.039;29591.223
747.916;21910.244;  -12.549;31412.201
748.487;21209.723;  -12.659;32194.898
749.059;21309.111;  -13.059;32533.719
749.630;22029.500;  -12.080;32158.518
750.201;21176.066;  -13.100;30855.395
750.773;19956.521;  -15.310;28622.555
751.344;19995.898;  -12.240;28405.732
751.915;20272.480;  -11.960;28461.551
752.486;20371.154;  -13.200;27842.850
753.057;20060.619;  -15.230;27845.008
753.628;19660.674;  -13.130;27728.107
754.199;19701.057;  -12.720;27381.086
754.770;19571.439;  -10.680;25882.203
755.341;19666.441;  -11.010;25886.184
755.912;19025.971;  -12.990;26050.861
756.483;17970.592;  -11.110;26798.779
757.054;17433.385;  -12.190;27048.238
757.625;17480.061;  -13.981;26294.838
758.195;17847.918;  -11.041;26142.076
758.766;19191.807;  -11.861;26392.234
759.337;19897.195;  -11.461;26334.594
759.907;19968.678;  -15.001;27579.652
760.478;19681.389;   -9.681;28352.770
761.048;19173.342;  -12.421;27325.088
761.619;18487.758;  -11.761;26460.428
762.189;17347.051;  -12.391;26029.826
762.760;17253.359;  -10.201;26430.145
763.330;18331.469;  -10.811;26670.902
763.900;20403.170;  -10.261;26603.021
764.471;19682.172;  -13.061;25542.740
765.041;18501.404;  -11.051;24358.459
765.611;18623.145;  -11.032;23991.297
766.181;18566.080;  -10.532;24470.236
766.751;18292.127;  -13.502;24845.975
767.321;18207.016;  -11.392;24533.633
767.891;18367.010;  -11.522;24916.492
768.461;18982.350;  -13.672;24776.771
769.031;18617.762;  -14.652;24757.988
769.601;17612.574;  -10.182;24181.088
770.171;15856.819;  -11.752;23670.387
770.741;14859.199;  -12.272;22960.045
771.311;14969.101;  -13.112;22917.523
771.880;15013.647;  -14.122;23562.941
772.450;16131.620;  -11.782;24216.500
773.020;17368.086;  -12.642;24140.398
773.589;16376.484;  -13.043;24414.857
774.159;14543.789;  -11.783;23858.717
774.729;13974.313;  -13.473;22942.135
775.298;15227.960;  -14.523;22324.033
775.867;16098.732;  -12.013;21140.313
776.437;15181.388;  -12.113;20838.092
777.006;13709.276;  -13.543;20599.510
777.576;12261.321;  -12.523;20508.809
778.145;12314.818;  -12.173;20732.947
778.714;13562.126;  -12.153;21062.465
779.283;14045.818;  -11.833;20949.664
779.853;14461.358;  -13.483;20508.623
780.422;14941.279;  -12.933;20649.082
780.991;14236.313;  -13.173;21527.520
781.560;12759.362;  -10.224;22632.658
782.129;12514.973;  -12.684;23048.277
782.698;13745.742;  -11.284;23438.555
783.267;14613.165;  -11.684;23267.734
783.836;13645.977;  -10.974;22415.133
784.404;12556.337;  -13.534;20443.152
784.973;12619.609;  -16.734;19699.150
785.542;12611.310;  -12.594;19763.828
786.111;12262.296;  -11.644;20341.408
786.679;12771.455;  -11.384;20207.967
787.248;13457.029;  -12.014;19516.465
787.817;12502.267;  -12.804;18900.363
788.385;11363.863;  -11.994;17879.121
788.954;11336.535;  -12.564;17658.301
789.522;12387.782;  -12.225;17788.879
790.090;12485.030;  -13.775;18118.277
790.659;11680.693;  -12.485;18338.736
791.227;11438.700;  -12.295;18508.615
791.795;11588.721;  -13.415;17898.254
792.364;11128.146;  -12.995;17295.133
792.932;10754.804;   -8.365;16822.051
793.500;10845.614;  -11.925;17040.148
794.068;10908.057;  -13.245;17179.787
794.636;10819.017;  -13.815;16664.246
795.204;10298.762;  -13.375;16524.545
795.772;10326.461;  -12.125;17274.564
796.340;10743.020;  -13.855;17891.002
796.908;10945.987;  -13.456;17648.561
797.476;10425.624;  -13.116;17064.080
798.044;10114.803;  -13.226;16672.777
798.612;10836.554;  -11.236;17023.996
799.180;11672.076;  -10.476;16561.615
799.747;11715.602;  -11.746;15962.773
800.315;10828.209;  -12.366;15296.992
800.883; 9995.077;  -14.616;14801.771
801.450; 9794.063;  -11.996;14534.430
802.018;10308.393;  -11.206;14173.248
802.585; 9632.244;  -12.466;14029.547
803.153; 8576.130;  -12.846;13836.846
803.720; 8303.937;  -12.136;13567.324
804.287; 8460.688;  -10.966;13360.622
804.855; 8900.954;   -9.797;13681.981
805.422; 8777.918;  -13.037;13536.560
805.989; 8466.157;  -12.697;13355.958
806.556; 8671.956;  -11.737;13747.896
807.124; 9010.933;  -11.997;13987.376
807.691; 8586.783;  -13.997;14038.674
808.258; 8468.997;  -10.927;14120.152
808.825; 9012.612;  -13.727;13860.111
809.392; 9381.461;  -11.847;13268.790
809.959; 8660.451;  -14.217;12680.389
810.526; 7865.057;   -8.277;12427.308
811.093; 7805.755;   -9.647;12030.105
811.659; 7668.246;  -10.987;11653.664
812.226; 7150.506;  -13.447;11637.183
812.793; 7231.957;  -14.418;11611.521
813.360; 7664.937;  -13.908;11885.181
813.926; 7732.725;  -12.918;12770.539
814.493; 7686.288;  -14.888;12677.638
815.060; 7762.382;  -12.758;11974.336
815.626; 8007.470;  -13.478;11594.715
816.193; 7982.934;  -13.898;11579.474
816.759; 7701.354;  -13.588;11666.972
817.325; 7630.069;  -12.018;11325.530
817.892; 7169.390;  -14.068;11105.369
818.458; 6526.620;  -13.458;10843.928
819.024; 6280.592;  -11.968;10714.406
819.591; 5982.453;  -11.028;10469.165
820.157; 5749.033;  -12.088;10235.523
820.723; 5628.195;  -12.599;10847.563
821.289; 5889.340;  -10.419;11040.980
821.855; 6598.201;  -10.939;10357.100
822.421; 7129.831;  -12.539; 9978.918
822.987; 6974.512;  -13.259; 9754.177
823.553; 6351.833;  -15.369;10065.755
824.119; 6083.479;  -10.779;10036.294
824.685; 5645.921;   -9.999;10029.192
825.251; 5277.985;  -11.819;10199.230
825.816; 5059.065;  -13.369; 9820.189
826.382; 5204.808;  -12.679; 9297.248
826.948; 5378.646;  -11.199; 9381.347
827.513; 5221.463;  -11.179; 9450.726
828.079; 5188.204;  -13.489; 9472.444
828.645; 5463.704;  -12.500; 9292.643
829.210; 5696.157;  -15.120; 9065.341
829.776; 5578.622;  -12.590; 9132.620
830.341; 5434.078;  -11.540; 9092.878
830.906; 5482.937;  -12.400; 9078.557
831.472; 5363.596;  -12.720; 8534.535
832.037; 4896.423;  -11.490; 8677.874
832.602; 4448.071;  -14.380; 8628.692
833.167; 4626.843;  -12.780; 8879.031
833.733; 4894.197;  -11.100; 9189.790
834.298; 5124.267;  -12.080; 9052.608
834.863; 5025.574;  -13.910; 8895.087
835.428; 4743.626;  -13.470; 8824.266
835.993; 5033.701;  -11.760; 8845.385
836.558; 5475.221;  -12.731; 8888.563
837.123; 5538.939;  -12.431; 8966.582
837.688; 5258.917;  -11.241; 8617.860
838.253; 4928.508;  -13.681; 8590.699
838.817; 4725.119;  -12.531; 8443.797
839.382; 4929.362;  -12.671; 8799.356
839.947; 4870.268;  -11.541; 8810.595
840.511; 4656.943;  -12.021; 8796.394
841.076; 4591.779;  -13.071; 8347.231
841.641; 4447.154;  -11.411; 8224.330
842.205; 4321.277;  -13.671; 8223.349
842.770; 4361.137;  -11.291; 8622.107
843.334; 4466.396;  -12.951; 8410.386
843.898; 4503.853;  -11.221; 8337.465
844.463; 4431.967;  -11.322; 8506.283
845.027; 4166.805;  -11.412; 8280.962
845.591; 3919.144;  -11.512; 8231.141
846.156; 4057.008;  -14.042; 7969.179
846.720; 4283.759;  -12.152; 7768.278
847.284; 4295.169;  -10.922; 7630.957
847.848; 4026.161;  -10.962; 7472.395
848.412; 3713.005;  -14.612; 7437.394
848.976; 3731.002;  -11.492; 7674.592
849.540; 3782.340;   -9.172; 7836.011
850.104; 4124.457;  -11.232; 7913.669
850.668; 4431.127;  -15.182; 7694.508
851.232; 4127.559;  -15.332; 7756.887
851.796; 3935.496;  -13.703; 7926.545
852.359; 4003.900;  -11.113; 7827.844
852.923; 3874.427;  -11.843; 7641.163
853.487; 3688.434;  -11.173; 7342.501
854.050; 3488.562;  -13.443; 7042.820
854.614; 3380.143;  -13.823; 7151.338
855.177; 3475.813;  -16.393; 7105.077
855.741; 3574.718;  -11.693; 6989.675
856.304; 3552.055;  -10.843; 6596.634
856.868; 3456.561;  -13.783; 6356.272
857.431; 3255.809;  -11.953; 6468.571
857.995; 3130.950;  -13.683; 6373.210
858.558; 3092.647;  -11.433; 6324.448
859.121; 3058.655;  -12.493; 6408.327
859.684; 3113.535;  -12.384; 6347.886
860.247; 3136.641;  -14.774; 6321.264
860.810; 2981.542;  -13.154; 6301.903
861.374; 2841.170;  -11.264; 6607.881
861.937; 2781.843;  -15.424; 6408.200
862.500; 2797.729;  -12.854; 6572.639
863.062; 2836.761;  -12.344; 6387.297
863.625; 2838.257;  -13.314; 6190.836
864.188; 2702.090;  -14.724; 5807.254
864.751; 2649.533;  -13.464; 5682.413
865.314; 2641.240;  -11.684; 5547.492
865.876; 2695.295;  -11.104; 5500.150
866.439; 2806.120;  -12.344; 5415.909
867.002; 2805.346;  -13.494; 5501.567
867.564; 2799.509;  -10.935; 5413.946
868.127; 2716.128;  -12.665; 5160.325
868.689; 2603.355;  -14.515; 5133.183
869.252; 2621.902;  -13.425; 5252.382
869.814; 2665.505;  -11.595; 5297.141
870.377; 2669.504;  -12.175; 5390.919
870.939; 2544.711;  -10.265; 5599.898
871.501; 2448.964;  -12.375; 5248.336
872.063; 2414.414;  -14.355; 4854.235
872.626; 2440.036;  -14.435; 4817.074
873.188; 2358.596;  -12.415; 4987.732
873.750; 2298.600;  -14.555; 4868.651
874.312; 2321.948;  -11.185; 4779.330
874.874; 2300.939;  -12.715; 4866.348
875.436; 2183.795;  -13.196; 4718.887
875.998; 2068.256;  -11.426; 4660.005
876.560; 1989.460;   -9.786; 4462.964
877.122; 1957.443;  -12.796; 4145.042
877.683; 1880.231;  -13.226; 4056.481
878.245; 1742.644;  -12.036; 3950.740
878.807; 1629.337;  -11.536; 4058.958
879.369; 1648.311;  -10.806; 3954.677
879.930; 1788.715;  -13.946; 3941.495
880.492; 1862.852;  -11.876; 4067.014
881.053; 1726.034;  -13.216; 3859.633
881.615; 1606.436;  -12.226; 3776.071
882.176; 1544.171;  -12.946; 3734.750
882.738; 1535.218;  -10.736; 3678.489
883.299; 1497.577;  -12.057; 3405.407
883.860; 1405.659;  -12.677; 3351.106
884.422; 1349.877;  -14.097; 3394.044
884.983; 1292.627;  -13.667; 3166.443
885.544; 1229.265;  -10.717; 3189.802
886.105; 1165.787;  -14.357; 3160.360
886.666; 1100.350;  -14.287; 3093.059
887.227; 1031.427;  -14.297; 2941.957
887.788;  979.172;  -13.137; 2974.836
888.349;  917.832;  -14.637; 2721.214
888.910;  867.130;  -12.247; 2696.493
889.471;  869.917;  -10.577; 2560.172
890.032;  879.411;  -12.937; 2558.190
890.593;  881.805;  -12.487; 2567.669
891.153;  860.209;  -11.898; 2460.307
891.714;  829.586;  -14.278; 2372.046
892.275;  805.900;  -13.308; 2309.505
892.835;  741.523;  -12.058; 2382.543
893.396;  657.040;  -15.268; 2295.502
893.956;  610.192;  -13.278; 2162.420
894.517;  589.405;  -11.968; 2125.439
895.077;  591.749;  -12.798; 2086.978
895.638;  570.556;  -11.908; 2126.316
896.198;  542.442;  -13.288; 1838.275
896.758;  519.700;  -12.198; 1892.813
897.319;  493.370;  -13.048; 1792.232
897.879;  458.800;  -13.718; 1762.751
898.439;  419.411;  -14.138; 1661.149
898.999;  391.703;  -13.659; 1781.468
899.559;  380.148;  -14.699; 1703.347
900.119;  361.670;  -14.339; 1537.525
900.679;  338.984;  -11.789; 1638.384
901.239;  312.560;  -13.629; 1527.902
901.799;  291.168;  -13.679; 1456.441
902.359;  280.133;  -13.679; 1357.140
902.919;  272.016;  -14.159; 1331.118
903.479;  258.782;  -13.419; 1317.257
904.038;  242.511;  -14.899; 1262.595
904.598;  229.594;  -14.339; 1152.034
905.158;  219.946;  -13.959; 1240.893
905.717;  214.648;  -12.749; 1233.691
906.277;  211.175;  -11.889; 1217.330
906.836;  204.908;  -12.870; 1222.408
907.396;  198.942;  -11.790; 1193.047
907.955;  190.361;  -13.750; 1182.526
908.515;  181.257;  -14.760; 1099.364
909.074;  177.266;  -12.540; 1092.863
909.633;  173.457;  -12.120; 1069.121
910.192;  168.298;  -12.550; 1196.460
910.752;  162.125;  -12.760; 1029.960
911.311;  159.244;  -14.750; 1009.780
911.870;  157.748;  -13.860;  971.460
912.429;  158.155;  -13.480; 1094.080
912.988;  157.193;  -12.370; 1081.060
913.547;  152.946;  -14.670;  940.380
914.106;  152.192;  -12.800;  999.420
914.665;  150.947;  -11.370;  984.020
915.224;  147.987;  -11.430; 1035.760
915.782;  145.320;  -12.260;  922.560
916.341;  144.588;  -12.540; 1049.840
916.900;  141.684;  -12.540;  925.260
917.458;  139.319;  -13.480;  884.220
918.017;  139.709;  -12.470;  942.600
918.576;  139.461;  -13.450;  904.440
919.134;  138.002;  -12.890;  837.980
919.693;  136.404;  -15.480;  893.060
920.251;  135.936;  -14.420;  876.500
920.809;  134.397;  -12.170;  839.580
921.368;  133.729;  -13.650;  885.360
921.926;  131.612;  -12.750;  842.940
922.484;  130.845;  -14.150;  903.360
923.042;  131.350;  -15.100;  880.340
923.601;  132.680;  -10.990;  998.680
924.159;  133.160;  -12.470;  935.560
924.717;  133.888;  -15.640;  841.080
925.275;  135.263;  -12.380;  903.240
925.833;  134.978;  -12.710;  779.320
926.391;  137.173;  -11.200;  938.380
926.949;  137.280;  -16.000;  857.680
927.506;  138.281;  -12.260;  903.500
928.064;  140.180;  -11.300;  877.580
928.622;  139.435;  -13.750;  880.100
929.180;  139.843;  -15.290;  814.180
929.737;  140.325;  -14.500;  808.540
930.295;  142.389;  -10.630;  928.480
930.853;  143.595;  -14.590;  849.100
931.410;  144.703;  -14.450;  821.120
931.968;  147.005;  -14.390;  940.660
932.525;  148.219;  -13.050;  909.380
933.082;  152.257;  -15.620;  811.440
933.640;  160.861;  -15.650;  925.900
934.197;  164.912;  -13.610;  886.360
934.754;  166.720;  -13.320;  897.780
935.312;  166.709;  -13.370;  863.340
935.869;  169.490;  -12.780; 1012.980
936.426;  171.013;  -14.480;  872.800
936.983;  173.240;  -13.180;  889.020
937.540;  173.693;  -15.710;  838.280
938.097;  172.764;  -14.980;  940.120
938.654;  170.845;  -13.060;  898.860
939.211;  169.669;  -12.760;  952.480
939.768;  170.317;  -16.230;  915.420
940.324;  175.069;  -10.940;  904.200
940.881;  179.819;  -12.570;  878.500
941.438;  183.226;  -13.650; 1021.200
941.995;  179.059;  -13.300;  992.560
942.551;  178.058;  -15.800;  875.620
943.108;  176.318;  -14.180;  937.920
943.664;  170.646;  -13.890;  869.340
944.221;  169.438;  -12.640; 1088.140
944.777;  169.734;  -14.700;  869.680
945.334;  173.044;  -13.010;  884.840
945.890;  174.388;  -13.480;  946.480
946.446;  171.843;  -14.920;  947.020
947.003;  171.755;  -13.860;  964.940
947.559;  174.046;  -12.000; 1063.040
948.115;  170.468;  -10.510; 1026.540
948.671;  167.679;  -12.760;  967.300
949.227;  165.123;  -15.390;  859.560
949.783;  162.605;  -15.570;  858.900
950.339;  161.229;  -12.800;  991.000
950.895;  159.973;  -13.780; 1023.840
951.451;  155.526;  -13.810;  925.280
952.007;  155.005;  -12.390;  998.540
952.563;  152.384;  -11.980;  937.780
953.118;  149.700;  -14.070;  904.940
953.674;  148.513;  -14.140;  935.780
954.230;  150.064;  -12.680;  949.640
954.785;  150.331;  -12.770;  936.640
955.341;  150.410;  -11.450;  998.160
955.897;  145.535;  -15.350;  834.660
956.452;  144.768;  -14.200;  953.840
957.008;  144.656;  -10.820; 1083.640
957.563;  140.210;  -13.200; 1009.540
958.118;  135.656;  -14.460;  877.700
958.674;  137.633;  -13.840;  946.780
959.229;  139.369;  -10.670; 1013.980
959.784;  139.998;  -17.040;  832.400
960.339;  141.987;  -12.970; 1001.280
960.894;  142.578;  -12.700;  963.760
961.449;  141.421;  -13.790;  859.960
962.004;  145.717;  -11.760; 1212.840
962.559;  144.376;  -14.840;  860.140
963.114;  143.966;  -14.530;  742.480
963.669;  145.717;  -12.780;  915.500
964.224;  142.414;  -14.330;  874.340
964.779;  137.797;  -14.380;  828.420
965.334;  135.216;  -12.460; 1017.860
965.888;  131.514;  -13.490;  875.360
966.443;  130.926;  -14.140;  972.380
966.998;  127.233;  -16.240;  819.460
967.552;  125.495;  -12.730;  908.380
968.107;  122.337;  -14.510;  868.300
968.661;  123.359;  -11.850;  922.440
969.216;  121.456;  -14.370;  856.280
969.770;  120.353;  -13.010;  917.200
970.324;  119.104;  -12.460;  923.140
970.879;  117.939;  -11.580;  947.180
971.433;  116.777;  -13.130;  952.720
971.987;  115.716;  -12.360;  895.340
972.541;  115.542;  -14.330;  917.100
973.095;  115.825;  -13.310; 1009.460
973.649;  113.811;  -15.830;  809.480
974.203;  116.380;  -15.830;  829.040
974.757;  118.990;  -13.480;  855.220
975.311;  117.149;  -13.720;  872.600
975.865;  114.232;  -15.780;  881.820
976.419;  111.450;  -14.290;  857.400
976.973;  109.509;  -13.210;  849.620
977.526;  108.745;  -12.300;  949.920
978.080;  104.840;  -14.840;  796.780
978.634;  104.845;  -13.100;  921.320
979.187;  101.207;  -12.300;  905.400
979.741;   99.461;  -12.020; 1018.380
980.294;   92.955;  -14.590;  789.160
980.848;   89.310;  -14.390;  717.220
981.401;   90.939;  -14.280;  816.540
981.955;   90.404;  -11.920;  844.300
982.508;   87.499;  -15.790;  746.340
983.061;   87.499;  -12.070;  915.260
983.615;   85.640;  -13.260;  798.800
984.168;   83.132;  -15.540;  770.080
984.721;   83.457;  -13.230;  880.760
985.274;   81.736;  -11.820;  867.500
985.827;   80.063;  -13.510;  834.220
986.380;   76.554;  -14.840;  721.340
986.933;   76.145;  -13.970;  864.800
987.486;   75.888;  -12.450;  861.920
988.039;   74.558;  -11.170;  863.100
988.591;   70.588;  -13.070;  893.260
989.144;   67.434;  -15.530;  737.260
989.697;   66.123;  -14.300;  758.740
990.250;   66.968;  -13.310;  858.100
990.802;   64.952;  -14.490;  755.860
991.355;   65.856;  -12.980;  974.880
991.907;   64.608;  -13.715;  864.320
992.460;   63.360;  -14.450;  753.760
993.012;   61.449;  -12.590;  749.540
993.565;   60.276;  -15.180;  711.360
994.117;   62.203;  -11.630;  950.780
994.669;   58.043;  -13.760;  701.320
995.221;   57.668;  -12.710;  791.920
995.774;   56.660;  -14.620;  787.580
996.326;   55.667;  -13.150;  740.220
996.878;   56.588;  -12.880;  838.420
997.430;   54.254;  -14.580;  699.860
997.982;   53.555;  -14.030;  750.140
998.534;   54.011;  -12.190;  739.060
999.086;   51.933;  -12.990;  738.220
999.638;   50.215;  -13.180;  661.380
1000.190;   50.102;  -14.970;  699.320
1000.741;   50.115;  -12.200;  742.700
1001.293;   50.340;  -13.400;  686.020
1001.845;   49.069;  -14.490;  676.640
1002.396;   49.186;  -15.280;  743.400
1002.948;   49.456;  -12.380;  737.400
1003.500;   48.585;  -13.260;  723.780
1004.051;   48.711;  -13.730;  907.580
1004.603;   47.652;  -12.300;  791.820
1005.154;   43.483;  -15.330;  608.980
1005.705;   43.927;  -12.800;  723.960
1006.257;   43.011;  -13.900;  707.220
1006.808;   41.754;  -14.430;  685.460
1007.359;   41.592;  -12.010;  763.240
1007.910;   40.455;  -12.690;  646.640
1008.461;   39.908;  -13.610;  732.940
1009.013;   38.940;  -14.990;  588.340
1009.564;   40.372;  -11.860;  793.520
1010.115;   37.604;  -12.640;  597.040
1010.665;   37.335;  -14.570;  602.160
1011.216;   37.375;  -15.190;  667.920
1011.767;   37.274;  -13.470;  697.920
1012.318;   37.351;  -13.760;  736.980
1012.869;   36.072;  -15.950;  679.000
1013.419;   36.395;  -15.880;  603.120
1013.970;   36.015;  -14.540;  666.640
1014.521;   35.681;  -13.220;  620.620
1015.071;   35.552;  -15.020;  670.380
1015.622;   34.876;  -17.510;  635.460
1016.172;   34.649;  -14.130;  596.820
1016.723;   34.374;  -14.220;  614.380
1017.273;   33.708;  -15.370;  604.160
1017.823;   34.156;  -15.290;  650.340
1018.374;   33.515;  -13.420;  611.760
1018.924;   33.615;  -11.740;  716.880
1019.474;   34.245;  -12.250;  718.880
1020.024;   32.570;  -15.850;  657.580
1020.574;   33.024;  -13.280;  726.160
1021.124;   33.742;  -13.560;  673.580
1021.674;   31.565;  -13.790;  559.120
1022.224;   33.248;  -14.610;  708.940
1022.774;   31.631;  -13.100;  668.820
1023.324;   32.929;  -11.470;  753.520
1023.874;   34.140;  -11.990;  875.760
1024.423;   30.516;  -14.550;  613.700
1024.973;   31.099;  -14.440;  610.760
1025.523;   31.035;  -13.250;  620.960
1026.072;   30.434;  -15.200;  606.420
1026.622;   29.707;  -14.590;  675.740
1027.172;   30.881;  -11.080;  715.660
1027.721;   29.033;  -14.010;  601.220
1028.270;   30.146;  -13.690;  663.400
1028.820;   29.146;  -15.380;  638.080
1029.369;   29.350;  -14.980;  612.700
1029.918;   30.171;  -13.100;  649.840
1030.468;   28.973;  -13.680;  564.780
1031.017;   28.889;  -13.770;  634.800
1031.566;   27.665;  -14.100;  608.900
1032.115;   28.891;  -11.770;  694.500
1032.664;   27.205;  -14.940;  596.480
1033.213;   28.203;  -13.370;  735.420
1033.762;   27.799;  -13.660;  635.620
1034.311;   27.590;  -13.650;  677.220
1034.860;   28.147;  -13.820;  691.000
1035.408;   27.282;  -12.860;  722.720
1035.957;   27.786;  -13.060;  719.540
1036.506;   25.469;  -14.510;  530.800
1037.055;   28.704;  -13.470;  844.320
1037.603;   26.115;  -14.800;  664.000
1038.152;   25.030;  -14.190;  534.760
1038.700;   25.528;  -11.810;  585.740
1039.249;   25.272;  -12.850;  681.220
1039.797;   25.499;  -14.610;  633.360
1040.345;   25.693;  -15.220;  705.420
1040.894;   25.257;  -13.480;  625.300
1041.442;   24.905;  -13.310;  632.200
1041.990;   23.327;  -14.510;  559.160
1042.538;   23.677;  -15.700;  536.180
1043.087;   23.805;  -13.910;  570.860
1043.635;   25.602;  -13.620;  670.500
1044.183;   23.702;  -14.230;  586.400
1044.731;   23.706;  -13.730;  576.000
1045.279;   23.690;  -13.970;  674.920
1045.827;   25.754;  -10.750;  892.400
1046.374;   22.173;  -15.230;  515.420
1046.922;   22.354;  -15.390;  590.580
1047.470;   23.767;  -12.320;  691.300
1048.018;   23.434;  -13.230;  647.960
1048.565;   24.280;  -13.390;  708.600
1049.113;   21.984;  -15.030;  557.000
1049.660;   22.955;  -12.540;  629.660
1050.208;   22.817;  -15.040;  675.640
1050.755;   21.258;  -14.680;  606.580
1051.303;   22.717;  -13.610;  686.820
1051.850;   21.925;  -14.340;  635.120
1052.397;   19.493;  -16.330;  473.960
1052.945;   20.127;  -15.710;  617.760
1053.492;   22.066;  -12.320;  741.840
1054.039;   22.230;  -13.730;  720.180
1054.586;   20.126;  -16.140;  557.240
1055.133;   21.190;  -14.020;  693.140
1055.680;   21.197;  -13.430;  646.620
1056.227;   20.211;  -14.570;  542.780
1056.774;   21.849;  -14.400;  794.980
1057.321;   20.224;  -14.230;  523.260
1057.868;   20.722;  -14.220;  651.320
1058.415;   19.551;  -14.060;  651.980
1058.961;   20.606;  -14.640;  678.940
1059.508;   19.903;  -13.970;  643.820
1060.055;   19.667;  -15.100;  581.780
1060.601;   19.810;  -12.180;  624.300
1061.148;   19.575;  -15.010;  616.820
1061.694;   19.033;  -14.750;  592.580
1062.241;   19.029;  -14.130;  596.320
1062.787;   19.588;  -14.770;  663.140
1063.334;   21.270;  -13.130;  808.560
1063.880;   19.090;  -14.420;  668.360
1064.426;   19.299;  -13.130;  706.820
1064.972;   17.778;  -13.960;  601.340
1065.518;   17.057;  -13.680;  566.640
1066.065;   17.743;  -15.720;  624.460
1066.611;   17.255;  -13.970;  598.800
1067.157;   17.934;  -13.920;  641.860
1067.703;   18.259;  -14.760;  668.480
1068.249;   17.389;  -14.490;  605.220
1068.794;   17.703;  -14.740;  626.880
1069.340;   16.817;  -13.220;  578.960
1069.886;   17.239;  -14.930;  590.700
1070.432;   16.362;  -14.700;  541.720
1070.977;   16.176;  -14.470;  601.080
1071.523;   17.043;  -14.330;  573.060
1072.068;   16.370;  -14.960;  582.000
1072.614;   16.076;  -16.220;  527.760
1073.160;   17.216;  -11.280;  687.040
1073.705;   15.540;  -15.990;  572.520
1074.250;   15.985;  -16.550;  559.900
1074.796;   16.763;  -14.600;  655.160
1075.341;   16.835;  -13.440;  664.100
1075.886;   16.027;  -14.450;  594.240
1076.431;   15.291;  -13.160;  649.880
1076.976;   15.504;  -14.710;  639.220
1077.521;   15.197;  -14.000;  583.080
1078.067;   14.510;  -14.470;  579.400
1078.612;   15.017;  -14.530;  661.620
1079.156;   14.605;  -15.660;  601.540
1079.701;   15.368;  -16.120;  693.260
1080.246;   15.960;  -12.960;  696.300
1080.791;   15.905;  -13.700;  625.020
1081.336;   14.562;  -15.540;  659.320
1081.880;   14.354;  -14.640;  649.680
1082.425;   14.023;  -14.220;  573.480
1082.970;   15.611;  -11.890;  717.040
1083.514;   13.886;  -13.820;  597.000
1084.059;   13.336;  -14.280;  586.720
1084.603;   12.392;  -12.890;  565.840
1085.147;   14.033;  -13.590;  645.220
1085.692;   13.812;  -14.050;  716.800
1086.236;   12.113;  -14.990;  503.140
1086.780;   14.299;  -12.640;  751.440
1087.325;   13.917;  -15.550;  654.620
1087.869;   13.226;  -14.980;  610.700
1088.413;   13.496;  -13.440;  705.040
1088.957;   11.963;  -12.170;  543.400
1089.501;   14.178;  -12.730;  766.640
1090.045;   13.715;  -14.650;  726.480
1090.589;   11.211;  -14.500;  569.920
1091.133;   13.060;  -12.320;  673.340
1091.676;   12.012;  -16.130;  591.940
1092.220;   11.947;  -13.930;  600.920
1092.764;   13.698;  -12.820;  706.960
1093.307;   12.688;  -11.700;  673.780
1093.851;   11.022;  -15.600;  556.540
1094.395;   12.442;  -13.920;  683.140
1094.938;   11.801;  -16.090;  632.520
1095.482;   11.670;  -13.820;  559.800
1096.025;   12.289;  -12.720;  710.880
1096.568;   12.565;  -12.100;  779.280
1097.112;    9.207;  -15.450;  508.180
1097.655;   12.086;  -14.310;  603.000
1098.198;    9.805;  -14.740;  600.180
1098.741;   10.328;  -15.550;  612.860
1099.285;   11.215;  -12.600;  657.300
1099.828;    8.675;  -15.050;  439.400
1100.371;   10.329;  -14.800;  608.160
1100.914;   10.722;  -16.480;  682.660
1101.457;   10.678;  -12.990;  679.900
1101.999;    9.409;  -14.110;  584.680
1102.542;   10.884;  -11.450;  641.440
1103.085;    9.470;  -13.350;  658.500
1103.628;   10.883;  -13.200;  762.060
1104.170;   10.148;  -12.310;  588.280
1104.713;    9.448;  -14.320;  646.700
1105.256;    9.370;  -16.110;  557.440
1105.798;    8.215;  -15.910;  499.980
1106.341;   10.650;  -12.200;  728.900
1106.883;    8.861;  -14.910;  521.340
1107.425;    9.852;  -14.960;  668.180
1107.968;    8.703;  -13.440;  612.380
1108.510;    9.896;  -14.010;  684.960
1109.052;    8.143;  -15.430;  612.620
1109.594;    7.865;  -15.290;  554.440
1110.136;    8.994;  -13.360;  643.220
1110.679;    8.551;  -13.820;  633.080
1111.221;    8.881;  -13.690;  604.460
1111.763;    6.850;  -14.890;  559.220
1112.304;    8.149;  -14.550;  547.140
1112.846;    8.429;  -12.760;  666.240
1113.388;   11.933;  -10.780;  942.180
1113.930;    8.374;  -12.690;  694.200
1114.472;    7.282;  -15.730;  606.540
1115.013;    6.768;  -14.620;  551.280
1115.555;    7.166;  -14.950;  587.100
1116.097;    7.100;  -16.460;  579.480
1116.638;    7.738;  -13.730;  684.600
1117.180;    7.929;  -13.810;  667.740
1117.721;    6.739;  -13.280;  568.580
1118.262;    7.594;  -15.080;  677.960
1118.804;    7.369;  -14.040;  637.340
1119.345;    6.717;  -15.430;  578.400
1119.886;    7.193;  -15.240;  704.040
1120.427;    6.071;  -15.820;  589.020
1120.969;    5.733;  -14.550;  597.920
1121.510;    5.784;  -14.030;  563.060
1122.051;    6.884;  -11.990;  723.580
1122.592;    5.908;  -16.490;  655.420
1123.133;    4.520;  -15.580;  547.940
1123.673;    6.592;  -12.850;  706.480
1124.214;    6.046;  -13.630;  612.460
1124.755;    6.752;  -14.830;  639.460
1125.296;    5.829;  -13.110;  627.320
1125.836;    7.167;  -11.320;  691.500
1126.377;    5.443;  -14.330;  599.660
1126.918;    5.929;  -12.800;  614.980
1127.458;    5.044;  -13.580;  622.220
1127.999;    6.128;  -10.330;  656.980
1128.539;    6.216;  -13.390;  694.240
1129.079;    4.691;  -16.420;  632.720
1129.620;    4.331;  -15.700;  558.100
1130.160;    4.262;  -14.790;  539.480
1130.700;    5.130;  -12.910;  640.840
1131.240;    5.840;  -15.610;  643.700
1131.781;    4.507;  -12.920;  619.680
1132.321;    4.810;  -15.300;  599.120
1132.861;    3.772;  -14.760;  564.200
1133.401;    3.609;  -15.470;  593.940
1133.941;    4.679;  -13.710;  626.280
1134.481;    3.589;  -11.820;  597.580
1135.020;    3.802;  -14.810;  609.160
1135.560;    4.388;  -13.660;  674.940
1136.100;    2.906;  -13.940;  501.160
1136.640;    2.878;  -15.410;  510.480
1137.179;    3.175;  -16.920;  537.960
1137.719;    4.109;  -16.430;  605.400
1138.258;    3.947;  -16.300;  587.360
1138.798;    4.620;  -13.710;  663.780
1139.337;    2.407;  -13.840;  482.840
1139.877;    4.361;  -16.140;  642.360
1140.416;    6.375;  -11.410;  878.060
1140.955;    2.597;  -12.820;  535.380
1141.494;    3.431;  -12.310;  669.280
1142.034;    2.830;  -16.280;  583.520
1142.573;    3.623;  -13.090;  646.280
1143.112;    2.975;  -13.770;  553.480
1143.651;    2.443;  -15.830;  536.480
1144.190;    3.790;  -15.010;  691.640
1144.729;    2.718;  -13.650;  607.420
1145.267;    3.172;  -13.670;  584.900
1145.806;    4.087;  -13.630;  637.040
1146.345;    1.973;  -14.160;  635.020
1146.884;    2.355;  -11.180;  622.500
1147.422;    1.931;  -15.890;  533.060
1147.961;    3.731;  -12.760;  708.460
1148.500;    2.898;  -15.220;  669.720
1149.038;    2.753;  -13.720;  632.500
1149.577;    2.667;  -13.250;  698.640
1150.115;    0.741;  -16.790;  452.280
1150.653;    1.983;  -15.810;  607.340
1151.192;    1.802;  -14.730;  552.920
1151.730;    2.160;  -13.660;  652.560
1152.268;    0.941;  -15.120;  589.520
1152.806;    1.074;  -15.580;  571.180
1153.344;    0.328;  -16.210;  577.640
1153.882;    2.287;  -12.810;  600.060
1154.421;    0.134;  -14.150;  470.620
1154.958;    0.666;  -15.360;  595.240
1155.496;    2.751;  -14.710;  645.280
1156.034;    2.139;  -13.640;  721.880
1156.572;    2.313;  -13.740;  667.060
1157.110;   -0.439;  -16.960;  473.940
1157.647;    1.363;  -11.940;  676.960
1158.185;    0.573;  -14.090;  564.320
1158.723;   -0.691;  -13.610;  509.200
1159.260;    1.198;  -14.760;  701.700
1159.798;    1.634;  -13.700;  658.160
1160.335;    0.287;  -13.820;  631.820

