
Integration time [ms]:   3.882
Averaging Nr. [scans]: 1000
Smoothing Nr. [pixels]: 0
Data measured with spectrometer [name]: 7414430SP
Wave   ;Sample   ;Dark     ;Reference
[nm]   ;[counts] ;[counts] ;[counts] 

288.544;  137.617;    7.153;  793.890
289.143;  142.049;    8.402;  681.602
289.742;  144.066;    7.062;  828.814
290.341;  131.421;    0.191;  789.841
290.940;  121.461;    0.321;  730.702
291.538;  122.119;    3.811;  881.108
292.137;  120.330;   -3.438;  792.581
292.736;  124.662;   -2.809;  975.101
293.335;  120.332;   -5.239;  735.086
293.934;  122.231;   -4.939;  781.677
294.532;  123.432;   -2.199; 1031.958
295.131;  109.316;   -6.831;  834.394
295.730;  108.197;   -6.620;  809.588
296.328;  105.843;   -6.471;  783.442
296.927;  104.885;   -6.571;  779.652
297.525;  106.852;   -7.391;  781.236
298.124;   98.379;   -9.402;  654.009
298.722;  102.932;   -5.781;  761.933
299.321;  100.544;   -6.351;  708.597
299.919;   97.924;   -8.661;  751.918
300.518;   94.371;  -11.922;  689.338
301.116;   95.534;   -6.941;  691.381
301.715;   96.084;   -5.471;  730.222
302.313;   95.704;   -8.361;  704.943
302.911;   90.389;   -9.082;  733.830
303.509;   96.104;   -4.571;  925.627
304.108;   93.023;   -7.111;  760.383
304.706;   94.092;   -7.681;  801.664
305.304;   88.282;   -9.162;  796.707
305.902;   92.924;   -6.761;  784.484
306.500;   88.233;   -6.921;  728.200
307.098;   87.776;   -6.491;  746.560
307.696;   86.167;   -6.941;  780.432
308.294;   85.531;   -6.301;  731.359
308.892;   87.641;   -4.771;  759.769
309.490;   84.630;   -5.141;  712.161
310.088;   83.059;   -2.912;  788.444
310.686;   86.771;   -0.421;  821.749
311.284;   82.621;   -3.461;  766.040
311.882;   81.014;   -6.282;  731.225
312.480;   77.653;   -3.632;  697.167
313.078;   79.926;   -2.112;  808.331
313.675;   80.358;   -1.931;  691.600
314.273;   75.308;   -1.442;  797.837
314.871;   74.449;   -3.002;  589.829
315.468;   72.108;   -2.252;  652.090
316.066;   75.756;   -1.091;  694.427
316.664;   69.404;   -4.512;  656.351
317.261;   73.093;   -0.062;  910.128
317.859;   67.965;   -0.952;  768.735
318.456;   69.251;    0.719;  830.096
319.054;   65.157;   -4.002;  787.828
319.651;   64.333;   -4.972;  759.928
320.249;   63.468;   -1.162;  810.188
320.846;   60.827;   -2.651;  714.286
321.443;   59.197;   -3.832;  832.135
322.041;   56.273;   -4.312;  812.315
322.638;   53.519;   -3.872;  701.456
323.235;   55.959;   -4.361;  665.683
323.833;   54.116;   -4.821;  740.354
324.430;   48.915;   -6.971;  615.900
325.027;   50.559;   -4.361;  876.855
325.624;   49.856;   -5.581;  644.532
326.221;   47.252;   -6.601;  689.717
326.818;   46.990;   -7.301;  818.332
327.415;   49.372;   -6.180;  748.828
328.012;   47.910;   -5.920;  690.585
328.609;   46.486;   -8.390;  731.389
329.206;   44.681;   -6.121;  778.621
329.803;   44.798;   -5.241;  737.841
330.400;   46.768;   -7.420;  704.260
330.997;   47.451;   -5.931;  817.147
331.594;   44.501;   -5.641;  788.185
332.191;   50.468;   -6.451;  728.722
332.787;   53.969;   -4.651;  844.463
333.384;   51.795;   -5.472;  763.093
333.981;   48.982;   -6.303;  815.687
334.578;   51.694;   -5.892;  708.378
335.174;   54.098;   -4.102;  731.469
335.771;   54.411;   -8.053;  836.456
336.367;   50.721;   -7.363;  710.631
336.964;   54.465;   -6.243;  793.266
337.561;   54.313;   -5.653;  731.112
338.157;   49.527;   -7.074;  911.916
338.754;   47.480;   -5.474;  796.589
339.350;   46.355;   -5.624;  722.493
339.946;   47.890;   -5.054;  773.135
340.543;   40.954;   -6.695;  846.136
341.139;   34.280;   -6.215;  720.836
341.735;   34.208;   -5.746;  772.593
342.332;   32.327;   -7.335;  691.472
342.928;   32.949;   -4.835;  795.394
343.524;   26.911;   -4.586;  761.684
344.120;   23.905;   -3.946;  738.562
344.716;   26.548;   -4.835;  723.717
345.313;   24.659;   -5.325;  795.342
345.909;   20.389;   -6.535;  627.336
346.505;   21.865;   -4.725;  740.247
347.101;   22.311;   -4.164;  827.864
347.697;   22.419;   -5.274;  785.398
348.293;   16.843;   -7.145;  627.244
348.889;   17.931;   -4.364;  745.914
349.485;   17.347;   -6.404;  688.205
350.081;   18.832;   -7.534;  772.592
350.676;   13.593;   -6.995;  691.606
351.272;   18.344;   -3.544;  809.530
351.868;   18.185;   -5.324;  780.497
352.464;   14.639;   -7.204;  723.932
353.059;   10.962;   -6.894;  646.017
353.655;   14.292;   -3.754;  777.063
354.251;   15.473;   -6.143;  759.845
354.846;    9.879;   -9.464;  740.646
355.442;    8.477;   -7.555;  753.071
356.038;   10.153;   -5.474;  751.708
356.633;   10.050;   -5.914;  728.594
357.229;    8.065;   -8.944;  724.757
357.824;    6.678;   -6.794;  703.600
358.420;    5.016;   -5.754;  679.726
359.015;    5.677;   -5.664;  695.357
359.610;    6.962;   -8.004;  763.920
360.206;    1.048;   -8.815;  603.240
360.801;    4.064;   -8.834;  646.503
361.396;    6.219;   -6.274;  725.975
361.992;    2.016;   -8.574;  668.220
362.587;   -0.679;   -9.265;  670.160
363.182;    0.873;   -5.484;  689.631
363.777;    2.466;   -5.164;  738.242
364.372;    2.016;   -6.954;  737.314
364.967;   -1.451;   -7.065;  680.744
365.563;    2.264;   -5.684;  815.567
366.158;   -0.110;   -6.484;  685.161
366.753;    0.203;   -8.004;  649.263
367.348;   -1.609;  -10.114;  746.056
367.942;   -1.672;   -7.764;  697.298
368.537;   -2.722;   -4.554;  754.245
369.132;   -2.700;   -7.664;  703.428
369.727;   -5.959;   -8.905;  638.079
370.322;   -5.418;   -4.945;  580.186
370.917;   -5.010;   -7.095;  710.646
371.511;   -1.732;   -6.574;  861.834
372.106;   -5.614;   -6.515;  776.964
372.701;   -9.752;   -8.225;  585.988
373.296;   -3.284;   -4.494;  863.135
373.890;   -7.947;   -7.965;  647.840
374.485;   -9.608;   -9.745;  691.199
375.079;   -6.668;   -5.554;  738.685
375.674;   -5.015;   -4.724;  812.970
376.268;   -8.942;   -8.365;  691.759
376.863;  -14.833;   -8.126;  580.327
377.457;   -9.169;   -6.045;  662.490
378.052;   -9.650;   -6.835;  764.884
378.646;  -10.793;   -9.375;  741.167
379.240;  -11.727;   -6.185;  721.176
379.835;  -10.901;   -6.135;  636.978
380.429;  -12.378;   -8.365;  562.557
381.023;  -12.463;   -7.935;  779.205
381.617;  -15.367;   -8.325;  680.106
382.212;  -11.424;   -7.405;  685.303
382.806;  -10.716;   -4.155;  760.690
383.400;  -14.385;   -8.945;  672.281
383.994;  -16.196;   -8.365;  664.870
384.588;  -12.262;   -7.824;  697.701
385.182;  -10.408;   -7.984;  726.624
385.776;  -11.642;  -10.404;  706.875
386.370;  -15.460;   -7.335;  681.968
386.964;  -14.226;   -7.485;  684.155
387.558;  -12.035;   -8.174;  598.360
388.152;  -15.737;  -10.415;  681.959
388.745;  -13.666;   -9.595;  814.707
389.339;  -12.231;   -6.454;  747.642
389.933;  -11.526;   -5.804;  695.370
390.527;  -12.333;   -6.854;  859.029
391.120;  -18.559;   -7.665;  595.318
391.714;  -15.356;   -7.245;  711.633
392.308;  -12.017;   -4.514;  780.253
392.901;  -16.777;   -7.935;  642.460
393.495;  -17.931;   -8.585;  595.414
394.089;  -16.024;   -5.245;  760.452
394.682;  -16.860;   -6.305;  697.188
395.275;  -16.351;   -9.335;  719.927
395.869;  -18.301;   -7.375;  667.314
396.462;  -16.274;   -7.055;  616.609
397.056;  -12.312;   -5.434;  776.621
397.649;  -16.938;   -9.525;  731.575
398.242;  -14.368;   -7.574;  712.645
398.836;  -14.071;   -5.134;  766.408
399.429;  -14.796;   -6.544;  631.041
400.022;  -18.346;   -9.215;  665.902
400.615;  -14.793;   -8.105;  805.609
401.208;  -14.046;   -7.614;  691.451
401.802;  -15.344;   -8.085;  699.329
402.395;  -17.202;   -9.575;  683.502
402.988;  -18.388;   -9.285;  696.627
403.581;  -15.041;   -7.514;  646.878
404.174;  -13.021;   -6.404;  686.568
404.767;  -15.573;   -8.775;  638.583
405.360;  -18.686;   -7.415;  621.445
405.953;  -12.967;   -5.624;  759.034
406.545;  -12.119;   -6.474;  725.342
407.138;  -15.997;   -8.445;  618.350
407.731;  -15.525;  -10.044;  613.303
408.324;  -10.931;   -8.484;  660.554
408.917;  -12.411;   -7.624;  681.864
409.509;  -13.778;   -8.304;  740.396
410.102;  -15.671;   -8.495;  643.948
410.695;   -9.664;   -7.824;  665.758
411.287;  -11.036;   -7.754;  599.821
411.880;  -11.625;   -9.294;  585.421
412.472;  -14.806;   -8.814;  613.092
413.065;  -12.438;   -6.674;  629.408
413.657;  -10.505;   -9.664;  576.678
414.250;   -9.750;  -10.264;  646.681
414.842;  -11.867;   -8.664;  676.353
415.434;  -10.143;   -8.584;  570.463
416.027;   -5.954;   -9.423;  652.196
416.619;   -7.582;  -10.764;  713.400
417.211;   -7.982;   -7.404;  599.352
417.804;   -4.799;   -7.383;  628.499
418.396;   -8.363;   -8.334;  607.643
418.988;   -5.988;   -9.633;  659.238
419.580;   -9.406;  -10.554;  568.276
420.172;   -8.059;   -8.683;  536.196
420.764;   -3.038;   -9.713;  672.482
421.356;   -4.400;  -11.303;  636.898
421.948;   -5.031;   -8.453;  677.661
422.540;   -0.426;   -5.793;  680.027
423.132;   -1.970;   -7.162;  600.641
423.724;   -4.575;   -7.933;  561.267
424.316;   -2.863;   -9.083;  621.345
424.908;    1.132;   -8.392;  591.517
425.500;    2.291;   -8.062;  647.978
426.092;    2.557;   -9.692;  648.268
426.683;    1.456;   -8.223;  684.836
427.275;    4.074;   -8.602;  641.471
427.867;    5.478;   -8.382;  668.948
428.458;    6.352;  -10.472;  732.344
429.050;    4.855;   -9.112;  680.749
429.642;    6.740;   -7.752;  743.124
430.233;    7.297;   -8.832;  569.356
430.825;    8.552;   -8.292;  724.809
431.416;    6.237;   -7.522;  698.241
432.008;    9.649;   -9.262;  651.723
432.599;   10.024;   -6.441;  656.073
433.190;    7.215;   -9.222;  637.670
433.782;    5.840;  -11.832;  590.395
434.373;   14.382;   -7.121;  884.765
434.964;   11.367;   -9.141;  602.920
435.556;    9.877;   -9.332;  634.537
436.147;   13.148;   -8.892;  758.490
436.738;   13.481;   -8.151;  701.099
437.329;   17.934;   -8.281;  721.723
437.920;   11.164;   -9.062;  666.688
438.511;   11.549;  -11.182;  564.526
439.103;   17.701;   -7.461;  623.998
439.694;   19.299;   -8.541;  681.583
440.285;   20.632;   -7.351;  764.432
440.876;   18.998;   -8.201;  845.738
441.466;   17.392;  -10.381;  575.162
442.057;   23.055;   -7.620;  665.814
442.648;   22.146;   -8.461;  746.255
443.239;   19.888;   -8.991;  620.477
443.830;   25.501;   -7.910;  704.958
444.421;   26.950;   -7.340;  655.474
445.011;   23.167;   -8.981;  693.619
445.602;   23.078;   -9.341;  743.126
446.193;   24.021;  -11.390;  488.117
446.783;   29.199;  -11.240;  640.397
447.374;   25.122;   -8.471;  692.759
447.964;   25.022;   -8.471;  713.770
448.555;   34.049;   -6.590;  822.742
449.145;   29.817;   -8.200;  662.853
449.736;   31.704;  -11.040;  803.179
450.326;   30.436;   -9.640;  713.626
450.917;   35.416;   -9.480;  675.324
451.507;   34.619;   -8.020;  600.661
452.097;   35.800;  -10.210;  746.267
452.688;   36.842;   -7.810;  742.160
453.278;   36.534;   -9.360;  566.840
453.868;   40.959;   -8.669;  793.550
454.458;   39.039;  -10.950;  651.141
455.048;   39.716;  -10.200;  711.783
455.639;   39.943;   -9.369;  567.096
456.229;   43.894;   -7.739;  710.694
456.819;   46.297;   -8.939;  751.158
457.409;   46.391;   -7.169;  773.993
457.999;   48.993;   -7.779;  737.505
458.589;   48.544;   -7.039;  686.606
459.179;   48.997;   -9.019;  717.658
459.769;   46.291;   -8.909;  627.099
460.358;   50.762;   -8.659;  797.262
460.948;   50.446;   -8.209;  689.503
461.538;   53.337;   -9.879;  660.677
462.128;   50.235;   -9.379;  664.934
462.717;   57.758;   -9.158;  710.326
463.307;   60.813;   -8.638;  705.846
463.897;   56.380;   -8.869;  656.942
464.486;   56.390;   -7.409;  837.128
465.076;   59.350;   -9.618;  733.776
465.666;   63.197;   -7.578;  652.900
466.255;   61.225;   -9.369;  785.651
466.845;   60.760;  -10.049;  666.749
467.434;   63.623;   -8.168;  725.873
468.023;   64.202;   -9.188;  658.357
468.613;   61.670;   -9.849;  713.946
469.202;   66.445;  -12.958;  646.507
469.791;   70.301;   -9.488;  737.811
470.381;   73.209;   -6.468;  742.813
470.970;   72.482;  -10.248;  711.099
471.559;   71.853;  -11.428;  733.291
472.148;   74.291;   -9.738;  675.737
472.738;   77.032;   -7.877;  765.466
473.327;   76.794;  -11.868;  637.529
473.916;   76.337;   -8.578;  737.446
474.505;   80.787;  -11.137;  751.703
475.094;   83.406;   -9.407;  806.570
475.683;   82.930;   -9.977;  797.699
476.272;   83.466;  -10.807;  730.632
476.861;   86.375;  -11.017;  706.754
477.449;   92.441;  -10.316;  728.487
478.038;   87.858;  -10.187;  692.513
478.627;   87.713;  -12.458;  714.852
479.216;   95.172;  -10.127;  769.441
479.805;   98.872;   -6.256;  783.375
480.393;   98.095;   -8.737; 1008.945
480.982;   96.876;   -9.087;  874.501
481.571;  102.320;   -7.806;  858.333
482.159;  103.306;  -10.596;  705.386
482.748;  102.719;  -11.507;  821.385
483.336;  107.860;   -8.366;  858.209
483.925;  107.636;   -7.497;  774.373
484.513;  113.670;   -8.326;  758.962
485.102;  110.944;  -10.277;  810.965
485.690;  119.789;   -8.256; 1011.050
486.278;  120.978;   -7.146;  979.329
486.867;  121.323;   -7.986;  809.662
487.455;  123.893;   -9.926;  898.229
488.043;  124.748;  -10.026;  748.361
488.631;  133.941;   -7.226; 1005.079
489.220;  137.238;   -8.696;  908.626
489.808;  137.019;  -12.276;  741.415
490.396;  144.860;   -9.386;  914.645
490.984;  150.134;   -8.506;  830.161
491.572;  159.052;   -8.226;  940.315
492.160;  165.735;   -9.836;  919.081
492.748;  175.523;  -10.316;  884.341
493.336;  194.493;   -7.146; 1019.693
493.924;  217.646;   -7.965;  958.077
494.512;  245.630;  -10.316; 1066.638
495.100;  278.660;  -10.186; 1103.280
495.687;  334.282;   -7.805; 1206.373
496.275;  394.625;   -9.686; 1150.796
496.863;  476.718;  -11.566; 1281.171
497.451;  560.033;  -11.406; 1386.805
498.038;  660.037;   -8.235; 1556.729
498.626;  781.357;   -7.485; 1741.407
499.214;  942.975;   -8.646; 2016.609
499.801; 1190.036;   -9.936; 2220.633
500.389; 1401.596;   -8.056; 2312.494
500.976; 1553.002;   -6.166; 2744.849
501.564; 1740.128;   -9.126; 3148.565
502.151; 2025.167;  -12.456; 3515.999
502.738; 2410.169;  -10.056; 3971.274
503.326; 2827.692;  -10.605; 4403.796
503.913; 3215.175;  -10.576; 5161.749
504.500; 3684.525;   -9.056; 5986.420
505.088; 4200.986;  -10.136; 6381.201
505.675; 4879.755;   -9.075; 6925.547
506.262; 5326.996;  -11.346; 7619.060
506.849; 6156.951;   -9.376; 8733.969
507.436; 6950.151;   -7.365; 9790.121
508.023; 6930.726;   -8.686; 9985.472
508.610; 7093.415;   -8.846;10434.618
509.197; 7850.891;   -9.077;11198.435
509.784; 9295.411;  -10.246;12391.194
510.371;10515.422;   -9.825;13603.713
510.958;11514.908;  -10.896;14426.586
511.545;12198.841;   -9.006;15243.775
512.132;12035.876;   -8.765;15945.876
512.719;12586.645;   -8.286;16340.369
513.305;14618.207;   -9.256;18011.766
513.892;16716.275;  -11.106;19754.971
514.479;19653.938;   -8.576;20967.805
515.066;22520.127;   -9.046;22299.793
515.652;23281.320;  -10.676;22908.660
516.239;23824.926;  -10.166;23798.875
516.825;23285.236;  -11.266;25567.275
517.412;22595.584;   -7.446;28154.959
517.998;22235.289;  -10.916;28344.111
518.585;21776.654;   -9.166;27134.219
519.171;21058.676;  -10.135;27268.576
519.758;21997.230;   -8.806;28964.129
520.344;24791.090;   -6.716;30664.494
520.930;27434.166;  -10.166;32550.605
521.516;27648.166;   -9.615;35422.895
522.103;29967.201;   -8.656;38280.004
522.689;30878.980;   -9.646;37835.117
523.275;30059.770;  -10.786;37288.613
523.861;32289.783;   -9.266;37281.395
524.447;33121.809;   -8.285;37846.949
525.033;32533.051;   -9.426;38321.949
525.619;32618.107;   -9.836;38579.285
526.205;34602.668;   -8.136;40622.875
526.791;34894.809;   -9.986;42258.836
527.377;34132.730;   -8.236;42966.902
527.963;32316.576;  -12.117;42018.949
528.549;29306.020;   -8.376;42476.828
529.135;29691.836;   -8.696;41854.852
529.721;34071.813;   -9.686;41237.711
530.306;38881.098;   -8.616;41259.445
530.892;42689.738;   -9.396;41506.047
531.478;43869.422;   -9.926;43559.613
532.063;43993.484;  -10.236;47695.563
532.649;44894.676;   -8.257;50808.324
533.235;45862.332;  -11.476;51787.500
533.820;45556.543;   -8.156;52145.035
534.406;46411.797;  -12.257;51133.488
534.991;43236.988;   -8.686;49996.805
535.576;40225.332;   -9.426;48882.852
536.162;39532.012;   -8.436;46942.285
536.747;39039.852;  -10.957;45711.746
537.333;36832.582;  -13.147;48510.180
537.918;36144.691;   -9.027;50439.891
538.503;36716.297;   -8.256;50863.711
539.088;38648.309;  -10.576;50906.922
539.673;42196.820;  -10.907;52621.965
540.259;46638.316;   -9.126;52368.094
540.844;48422.188;   -9.026;50879.109
541.429;49991.348;   -9.597;52077.777
542.014;53207.492;  -11.447;52716.695
542.599;54575.883;   -9.236;52363.281
543.184;53714.535;  -12.267;53187.137
543.769;54254.387;  -10.367;54697.605
544.354;54196.242;  -10.887;53913.914
544.938;47902.711;  -11.687;49680.164
545.523;43176.523;   -8.286;47386.277
546.108;43858.270;   -9.317;49151.949
546.693;44860.176;  -10.187;51384.637
547.278;42872.629;   -9.926;51853.254
547.862;42002.801;   -9.196;51173.750
548.447;41535.707;   -9.657;51691.395
549.031;43323.809;   -9.127;52456.703
549.616;45840.781;  -10.836;52714.516
550.201;46844.418;   -8.507;52414.598
550.785;47822.742;  -10.537;52355.059
551.370;51182.785;  -11.727;54589.453
551.954;50516.355;   -9.457;58267.348
552.538;48618.617;   -8.147;59062.176
553.123;48085.859;   -9.397;58115.285
553.707;49438.809;   -9.558;56556.285
554.291;48902.227;   -9.417;56201.668
554.876;50724.715;   -7.627;55335.762
555.460;49000.824;  -10.457;54155.703
556.044;44498.090;  -10.078;53721.484
556.628;43780.809;   -9.407;53731.016
557.212;42669.484;   -7.957;54312.531
557.796;41912.246;  -11.327;53797.773
558.380;45901.672;  -10.868;56145.984
558.964;46131.281;   -9.637;57277.930
559.548;44532.520;   -8.807;56459.641
560.132;46741.074;  -10.187;54434.543
560.716;47322.293;   -9.868;54800.617
561.300;48670.125;  -10.217;57606.945
561.884;48862.992;   -4.947;58972.445
562.467;46439.203;   -9.588;57327.570
563.051;42249.879;  -11.138;54962.434
563.635;42363.004;   -9.358;52594.473
564.219;42931.066;   -9.797;50610.410
564.802;41841.949;   -9.918;49551.180
565.386;40764.168;  -10.838;48370.953
565.969;40080.629;   -8.037;48178.871
566.553;38934.574;   -5.667;49957.305
567.136;38995.012;   -8.258;50369.594
567.720;39386.352;  -11.278;49492.004
568.303;37415.652;   -9.028;50616.352
568.887;36255.680;   -7.508;50727.148
569.470;35253.000;  -11.068;51698.379
570.053;37189.949;  -10.028;52122.078
570.637;37501.223;  -11.077;52536.438
571.220;39034.578;   -8.747;51186.098
571.803;41281.746;   -8.868;51032.762
572.386;42479.930;  -10.608;49609.887
572.969;41794.539;  -10.548;48285.926
573.552;39233.105;   -7.898;47624.285
574.135;38724.594;   -9.918;45498.641
574.718;34441.836;  -10.328;41970.434
575.301;31684.461;   -9.548;41447.137
575.884;28927.086;   -8.768;40923.836
576.467;34197.301;   -9.858;45267.723
577.050;35030.832;  -11.018;48175.543
577.633;36518.992;  -10.048;47729.328
578.216;35627.191;  -10.268;47579.793
578.799;33574.391;  -11.808;47820.996
579.381;32608.041;   -7.338;48115.551
579.964;34394.371;   -9.728;47333.766
580.547;34984.035;   -8.928;46668.969
581.129;34861.426;   -9.149;44466.141
581.712;36294.809;  -11.359;44164.922
582.294;36248.059;  -10.738;46477.855
582.877;34398.602;   -8.788;48244.254
583.459;33347.145;   -9.859;47437.895
584.042;34446.305;   -9.649;46943.219
584.624;34813.809;  -10.529;46792.227
585.206;33296.211;  -10.298;46557.250
585.789;31558.813;  -11.029;45793.773
586.371;31725.600;   -9.359;43836.391
586.953;32411.621;   -8.799;42972.492
587.536;32318.635;   -8.928;42487.211
588.118;31772.801;   -9.180;42086.414
588.700;30348.105;  -10.519;43389.930
589.282;29373.260;   -8.098;43646.039
589.864;29447.924;   -8.139;43438.109
590.446;30997.477;  -10.509;43151.926
591.028;33756.750;  -11.119;42781.867
591.610;34598.070;  -10.019;42839.098
592.192;33024.227;   -8.838;42820.402
592.774;30815.838;  -11.549;40724.277
593.356;28469.346;  -11.609;39874.789
593.937;28944.338;  -10.019;39980.648
594.519;31497.693;   -7.839;42069.633
595.101;32749.854;  -10.779;42976.031
595.683;33915.152;  -10.049;44084.441
596.264;34106.105;   -9.969;43478.797
596.846;32694.738;   -9.699;43803.672
597.427;31853.059;  -10.970;42986.934
598.009;32833.992;  -13.090;42832.219
598.591;32965.734;   -9.509;42580.086
599.172;31300.162;   -9.019;43061.805
599.753;28955.551;  -13.310;41691.469
600.335;29279.922;  -11.010;40692.520
600.916;30084.486;  -10.309;39982.422
601.498;30302.385;   -8.209;40318.617
602.079;30375.094;  -11.440;40670.609
602.660;31740.639;   -8.690;41450.898
603.241;33109.016;  -12.759;41137.738
603.823;31272.348;  -10.409;38868.797
604.404;31178.334;  -11.790;38182.785
604.985;29854.705;  -10.280;38078.047
605.566;30536.260;   -8.059;38056.633
606.147;30950.076;   -8.960;37020.418
606.728;30706.736;  -10.710;37883.359
607.309;29938.766;  -12.760;38748.273
607.890;27851.252;   -9.959;38850.230
608.471;26333.854;   -9.780;37457.918
609.051;27982.574;   -8.940;36066.457
609.632;30782.799;  -12.070;35991.074
610.213;32750.740;   -9.610;37402.641
610.794;32919.586;   -8.750;38383.363
611.374;32009.182;  -11.100;40562.387
611.955;32423.873;  -12.200;38533.727
612.536;32108.707;  -10.410;36951.789
613.116;32062.396;  -10.010;37197.891
613.697;31168.789;  -10.480;38411.125
614.277;29743.439;  -12.751;38673.938
614.858;29680.012;  -11.600;37075.863
615.438;29149.119;   -8.190;35092.906
616.019;27787.596;   -8.941;33666.301
616.599;28810.537;  -13.540;34189.023
617.179;29356.109;  -10.890;36952.047
617.760;30122.189;   -7.610;39582.574
618.340;29596.957;  -14.441;38943.977
618.920;28956.408;   -9.180;37594.156
619.500;29053.076;  -11.881;37866.938
620.080;31016.305;   -9.870;37869.043
620.660;30948.480;  -13.211;36868.617
621.241;29855.174;  -11.921;36352.309
621.821;28728.145;  -10.271;35459.520
622.401;28481.715;   -8.200;35207.414
622.980;29484.162;  -11.141;35980.422
623.560;30930.332;  -14.321;37351.328
624.140;30561.168;   -9.360;34388.582
624.720;27056.287;   -7.481;32368.764
625.300;23991.012;  -12.730;32638.629
625.880;28927.201;  -11.441;34599.035
626.459;32441.596;  -10.971;36831.738
627.039;34013.426;   -9.011;38299.098
627.619;33813.672;   -8.521;38289.574
628.198;34642.684;   -9.861;37220.695
628.778;34463.004;   -8.841;37632.563
629.357;33303.762;   -9.891;38003.012
629.937;31037.688;  -11.871;38402.039
630.516;29946.426;  -10.641;37868.801
631.096;32257.805;  -11.391;35760.410
631.675;33820.938;   -6.622;35225.219
632.254;31704.129;  -13.002;35130.289
632.834;30049.262;  -11.622;35794.570
633.413;31726.465;   -8.321;35788.922
633.992;29919.334;   -7.732;34532.863
634.571;29440.316;  -10.992;33590.113
635.151;30846.066;  -10.422;34943.863
635.730;31261.678;  -11.511;35352.523
636.309;30387.900;   -7.901;35366.605
636.888;29533.830;  -11.452;36165.637
637.467;29340.449;  -10.672;37515.902
638.046;29404.809;   -9.301;39288.695
638.625;30382.531;  -11.452;38279.699
639.204;31810.594;  -12.262;37741.598
639.782;31295.941;  -11.892;38364.551
640.361;30015.031;  -11.411;36740.621
640.940;26862.416;  -11.501;34950.082
641.519;27189.527;  -10.921;34137.398
642.097;30429.793;  -10.101;35654.258
642.676;30895.963;  -10.821;35637.957
643.255;33299.898;   -8.631;36567.074
643.833;35476.609;  -11.411;37809.434
644.412;36673.504;  -12.021;37337.293
644.990;36370.789;  -12.271;37018.531
645.569;35300.520;   -9.741;36518.469
646.147;33993.094;   -9.051;36186.430
646.726;32312.697;  -13.861;36267.688
647.304;32370.848;   -9.461;36647.625
647.882;31348.924;  -13.171;39286.742
648.461;31312.723;  -11.911;39157.703
649.039;31727.270;   -9.541;35412.883
649.617;33484.668;   -8.901;34744.918
650.195;31605.131;   -8.591;35403.098
650.773;30113.840;  -13.031;35053.797
651.352;28639.193;  -12.211;33756.816
651.930;25741.158;  -11.361;31868.773
652.508;23160.426;   -8.601;33121.551
653.086;26771.713;   -9.991;33564.793
653.663;31169.195;  -11.931;34054.668
654.241;33057.383;  -10.821;35693.309
654.819;33588.578;   -9.341;36422.906
655.397;31318.525;  -10.851;38213.484
655.975;29551.584;  -11.461;39507.625
656.553;30316.854;   -8.841;39498.223
657.130;29836.979;  -10.371;40395.480
657.708;28635.461;  -11.071;39242.020
658.286;28496.768;  -11.141;38920.020
658.863;30875.578;  -10.861;40202.898
659.441;36492.313;  -11.181;39677.938
660.018;37866.359;  -10.851;40413.355
660.596;36850.746;  -12.571;39931.414
661.173;37593.910;  -12.141;39604.531
661.750;34414.727;  -11.571;39700.070
662.328;31138.088;  -10.780;39292.809
662.905;29834.377;  -10.750;38235.648
663.482;26920.789;  -11.320;36212.305
664.060;25932.891;  -10.160;35944.945
664.637;31609.932;  -13.120;35170.785
665.214;34194.453;  -11.500;34197.523
665.791;31994.891;  -12.430;34549.520
666.368;29482.939;   -9.840;35118.578
666.945;28312.844;  -11.290;36019.418
667.522;28608.998;  -13.540;36048.438
668.099;29503.959;  -10.250;36243.914
668.676;28700.100;  -11.270;35958.875
669.253;28067.254;   -8.210;37384.730
669.830;26731.764;   -9.710;36779.629
670.407;26296.078;   -9.700;35231.289
670.984;26216.994;   -9.190;35544.270
671.560;25085.670;   -9.560;35466.867
672.137;24773.896;  -11.820;34280.863
672.714;27586.645;  -12.460;34632.863
673.290;31848.816;  -10.940;35135.422
673.867;33146.145;  -10.510;36114.480
674.443;31293.916;  -12.110;36152.859
675.020;31371.535;  -11.760;35327.238
675.596;32157.119;   -9.380;35795.176
676.173;31357.742;  -11.120;35430.355
676.749;30250.943;  -13.390;33549.516
677.326;29036.607;  -12.600;32210.012
677.902;28079.479;  -10.830;32068.871
678.478;27486.031;  -12.400;32583.891
679.054;28864.350;   -8.610;32088.928
679.631;30136.234;  -11.640;30978.848
680.207;30808.031;   -8.140;33160.887
680.783;30664.076;  -12.300;35570.363
681.359;29452.135;  -10.910;36125.184
681.935;28684.768;  -11.040;35240.922
682.511;29050.107;  -11.130;34429.961
683.087;29224.260;  -11.080;34463.680
683.663;31048.941;  -10.530;34648.898
684.239;31450.240;  -12.120;34546.457
684.815;30127.199;   -8.870;35586.375
685.390;28581.273;   -8.940;35821.895
685.966;27555.664;  -12.109;35085.871
686.542;26353.523;  -13.539;34198.230
687.118;25743.891;  -10.379;32847.707
687.693;26664.182;  -10.189;32794.027
688.269;25999.893;  -12.939;33072.367
688.844;24757.891;   -8.679;33141.664
689.420;25661.502;  -10.919;33965.742
689.995;26236.291;   -7.489;34655.523
690.571;25562.189;  -12.199;33576.742
691.146;25757.797;   -8.979;32657.219
691.722;27420.518;   -9.119;32526.979
692.297;27556.217;  -10.519;33014.617
692.872;27538.428;  -10.629;34012.254
693.448;27750.857;  -12.119;34237.434
694.023;27047.080;   -8.219;34142.672
694.598;25253.961;  -13.209;34132.031
695.173;24030.084;  -11.879;34205.250
695.748;24673.217;  -12.039;32882.488
696.323;25656.693;  -11.779;32864.906
696.898;25949.352;  -10.219;33170.004
697.473;27373.561;  -13.639;32432.984
698.048;28269.701;  -11.239;31649.303
698.623;30436.859;  -10.859;30778.141
699.198;32440.381;  -13.379;31140.119
699.773;32757.342;  -13.409;31764.299
700.348;31668.398;  -12.329;31780.816
700.922;31559.768;   -8.749;32046.375
701.497;31601.318;  -12.449;32603.574
702.072;30028.273;   -8.879;34799.871
702.646;28131.150;  -10.719;35793.172
703.221;27491.932;   -8.469;35201.590
703.795;28113.797;  -11.389;34764.527
704.370;27020.783;  -12.499;34307.367
704.944;25736.080;  -11.449;33509.887
705.519;25698.777;  -10.659;31388.584
706.093;25031.395;  -12.909;31340.104
706.668;25358.000;  -13.509;32630.281
707.242;26329.076;  -10.049;32728.779
707.816;26237.922;  -10.629;32947.238
708.390;25394.002;  -11.829;33277.855
708.965;24198.477;  -11.159;33834.336
709.539;24584.264;  -11.069;33709.273
710.113;24193.873;  -10.908;33044.313
710.687;22370.277;   -9.488;31953.992
711.261;22761.338;  -13.068;30505.949
711.835;25379.146;  -12.748;30262.369
712.409;27565.721;  -10.678;31254.447
712.983;26974.393;  -11.658;32754.986
713.557;26369.064;  -13.718;34018.824
714.131;27034.828;  -13.388;34579.625
714.704;29557.666;   -9.818;33890.262
715.278;31512.977;  -11.818;33531.102
715.852;31686.707;  -11.328;33601.660
716.425;32047.391;   -9.118;33515.117
716.999;32085.822;  -10.188;33185.555
717.573;31273.021;   -9.808;33905.996
718.146;30448.336;  -11.478;35199.293
718.720;29219.869;  -10.998;35060.551
719.293;28375.205;   -9.508;34973.230
719.867;29406.482;  -12.138;36394.449
720.440;29047.941;  -11.288;36663.008
721.013;31216.717;  -11.428;35102.426
721.587;32575.879;  -11.698;33985.266
722.160;33741.094;  -11.608;33524.965
722.733;33931.035;  -11.428;32987.043
723.306;30933.059;  -12.518;33066.301
723.880;29566.324;   -7.408;33399.500
724.453;29307.574;  -11.048;33468.297
725.026;27922.736;  -11.678;33816.637
725.599;26314.791;  -10.978;32797.996
726.172;24557.852;   -8.838;33187.434
726.745;24444.813;  -11.438;35136.613
727.318;26085.344;   -9.828;35751.730
727.891;26897.193;  -10.868;35890.430
728.463;26797.248;  -11.348;34822.090
729.036;25672.508;  -11.608;32895.086
729.609;25449.875;  -14.738;31823.225
730.182;25807.576;   -8.448;31445.283
730.754;26623.523;  -11.228;32373.223
731.327;26901.373;  -12.018;33676.820
731.900;28636.799;  -13.748;33417.000
732.472;29656.414;  -10.928;31978.498
733.045;29199.416;   -9.478;30368.777
733.617;27525.760;  -12.967;30574.215
734.190;26863.346;  -11.707;31280.975
734.762;26186.883;  -11.067;31674.412
735.334;25190.885;  -10.587;31247.291
735.907;24168.723;  -11.947;29876.211
736.479;24591.908;  -11.667;29808.488
737.051;26198.629;  -10.187;30233.547
737.623;26826.770;   -6.887;31469.086
738.195;28193.955;  -12.117;31784.225
738.768;30336.529;  -14.077;32120.523
739.340;29772.340;  -12.207;32094.342
739.912;27378.227;   -8.977;31312.680
740.484;26043.568;  -11.017;31946.238
741.056;27946.090;  -13.517;32984.059
741.628;30287.264;  -11.507;33897.715
742.199;30676.502;   -7.597;33213.016
742.771;30313.697;  -12.227;31369.113
743.343;29024.666;  -12.427;31865.473
743.915;27217.729;   -9.827;32388.631
744.487;26081.463;  -10.007;31079.568
745.058;25124.203;  -11.887;30570.107
745.630;24004.881;  -10.787;29970.127
746.201;23502.188;  -10.887;29186.766
746.773;24958.748;   -9.707;28805.723
747.344;26068.182;  -11.137;29591.223
747.916;25455.123;  -11.887;31412.201
748.487;24761.719;   -9.707;32194.898
749.059;24239.354;  -10.027;32533.719
749.630;23472.969;  -11.787;32158.518
750.201;22153.549;  -12.767;30855.395
750.773;20356.066;  -11.497;28622.555
751.344;21331.410;   -9.937;28405.732
751.915;21368.287;  -11.567;28461.551
752.486;19345.920;  -13.267;27842.850
753.057;18294.998;  -10.627;27845.008
753.628;18300.146;  -11.657;27728.107
754.199;20670.666;  -12.097;27381.086
754.770;22207.025;  -11.447;25882.203
755.341;22544.887;  -11.997;25886.184
755.912;20861.896;  -10.207;26050.861
756.483;19052.156;  -10.937;26798.779
757.054;19531.051;  -11.527;27048.238
757.625;19833.848;  -12.886;26294.838
758.195;19395.512;  -11.226;26142.076
758.766;19706.229;  -12.366;26392.234
759.337;18502.262;  -11.946;26334.594
759.907;18133.916;  -13.856;27579.652
760.478;19520.939;   -9.606;28352.770
761.048;20980.939;  -11.606;27325.088
761.619;21523.305;  -11.036;26460.428
762.189;19869.582;  -12.206;26029.826
762.760;19129.412;   -9.666;26430.145
763.330;20145.514;   -9.796;26670.902
763.900;19893.295;  -10.896;26603.021
764.471;19365.914;  -11.726;25542.740
765.041;20156.803;   -9.656;24358.459
765.611;20668.818;  -11.276;23991.297
766.181;20153.555;  -12.116;24470.236
766.751;19918.936;  -12.376;24845.975
767.321;20196.922;  -11.626;24533.633
767.891;19959.848;  -10.426;24916.492
768.461;18283.699;  -13.456;24776.771
769.031;15825.441;  -11.616;24757.988
769.601;14852.861;  -11.356;24181.088
770.171;14806.826;  -11.586;23670.387
770.741;15401.573;  -12.696;22960.045
771.311;17042.547;  -10.226;22917.523
771.880;17674.785;  -11.146;23562.941
772.450;18091.189;  -11.716;24216.500
773.020;18024.857;  -13.226;24140.398
773.589;16964.645;  -12.586;24414.857
774.159;16584.225;  -10.246;23858.717
774.729;15993.479;  -11.586;22942.135
775.298;15776.812;  -15.926;22324.033
775.867;15760.554;  -10.426;21140.313
776.437;15332.823;  -11.416;20838.092
777.006;13528.749;  -12.766;20599.510
777.576;13564.014;  -13.666;20508.809
778.145;14969.938;  -10.066;20732.947
778.714;15198.354;  -10.276;21062.465
779.283;14687.704;  -12.086;20949.664
779.853;14529.414;  -14.016;20508.623
780.422;14379.484;  -12.376;20649.082
780.991;13718.516;   -9.246;21527.520
781.560;13476.502;   -9.775;22632.658
782.129;13745.448;  -12.495;23048.277
782.698;13766.045;  -11.775;23438.555
783.267;13664.379;  -10.065;23267.734
783.836;14485.792;  -12.455;22415.133
784.404;14974.258;  -13.385;20443.152
784.973;14970.150;  -11.045;19699.150
785.542;14559.934;   -9.505;19763.828
786.111;13796.779;   -9.385;20341.408
786.679;13528.790;  -13.475;20207.967
787.248;13469.889;  -11.245;19516.465
787.817;12035.461;  -12.485;18900.363
788.385;10557.505;  -11.165;17879.121
788.954;11049.506;  -11.755;17658.301
789.522;12039.039;   -9.625;17788.879
790.090;12354.255;   -9.665;18118.277
790.659;11721.050;   -9.295;18338.736
791.227;11761.769;  -12.175;18508.615
791.795;12607.409;  -12.145;17898.254
792.364;12556.376;  -11.575;17295.133
792.932;11925.599;  -11.085;16822.051
793.500;11496.265;  -11.345;17040.148
794.068;11121.445;  -12.565;17179.787
794.636;11696.478;  -12.105;16664.246
795.204;12755.926;  -11.995;16524.545
795.772;12718.684;  -12.615;17274.564
796.340;12159.301;  -12.425;17891.002
796.908;11743.455;  -11.455;17648.561
797.476;10947.703;  -12.165;17064.080
798.044; 9907.894;  -15.795;16672.777
798.612; 9440.955;  -10.985;17023.996
799.180;10044.261;  -12.055;16561.615
799.747;10561.310;  -12.525;15962.773
800.315; 9695.436;  -14.765;15296.992
800.883; 8489.651;  -12.435;14801.771
801.450; 8358.012;  -11.295;14534.430
802.018; 8763.520;  -11.185;14173.248
802.585; 8904.583;  -11.625;14029.547
803.153; 8199.217;  -10.665;13836.846
803.720; 7742.393;  -10.275;13567.324
804.287; 7924.059;  -12.865;13360.622
804.855; 8182.580;  -12.324;13681.981
805.422; 8170.402;  -11.574;13536.560
805.989; 7837.662;  -11.004;13355.958
806.556; 8041.105;  -12.214;13747.896
807.124; 8430.063;  -13.304;13987.376
807.691; 8323.681;  -12.034;14038.674
808.258; 8089.253;  -11.014;14120.152
808.825; 7952.928;  -11.804;13860.111
809.392; 7727.868;  -11.544;13268.790
809.959; 7574.864;  -14.954;12680.389
810.526; 7895.745;  -10.214;12427.308
811.093; 7968.759;  -10.754;12030.105
811.659; 7543.311;  -12.194;11653.664
812.226; 6772.320;   -9.194;11637.183
812.793; 6605.520;   -9.644;11611.521
813.360; 7276.734;  -11.544;11885.181
813.926; 8250.914;  -12.814;12770.539
814.493; 8307.936;  -11.524;12677.638
815.060; 8079.940;  -12.254;11974.336
815.626; 7854.801;  -12.114;11594.715
816.193; 7329.114;  -11.994;11579.474
816.759; 6810.610;  -11.464;11666.972
817.325; 6365.794;  -10.444;11325.530
817.892; 6078.126;  -11.124;11105.369
818.458; 6110.290;  -11.864;10843.928
819.024; 6644.826;  -10.634;10714.406
819.591; 6833.428;  -10.554;10469.165
820.157; 6877.962;  -13.334;10235.523
820.723; 6892.435;  -13.044;10847.563
821.289; 6776.281;   -9.664;11040.980
821.855; 6871.019;  -10.994;10357.100
822.421; 7124.211;  -11.784; 9978.918
822.987; 7284.209;  -12.554; 9754.177
823.553; 7285.750;  -12.554;10065.755
824.119; 6905.977;   -8.544;10036.294
824.685; 6118.717;  -12.144;10029.192
825.251; 5773.433;  -12.754;10199.230
825.816; 5469.172;  -11.354; 9820.189
826.382; 5086.293;  -11.004; 9297.248
826.948; 5052.886;  -11.004; 9381.347
827.513; 5237.684;  -12.474; 9450.726
828.079; 5327.778;  -13.084; 9472.444
828.645; 5461.154;  -10.813; 9292.643
829.210; 5317.157;  -11.593; 9065.341
829.776; 5363.899;  -12.633; 9132.620
830.341; 5659.012;  -10.473; 9092.878
830.906; 5545.614;   -8.763; 9078.557
831.472; 4858.515;  -13.453; 8534.535
832.037; 3954.344;  -12.173; 8677.874
832.602; 3674.352;  -14.093; 8628.692
833.167; 4028.199;  -13.593; 8879.031
833.733; 4605.388;  -10.793; 9189.790
834.298; 4971.542;  -14.783; 9052.608
834.863; 4627.555;  -11.023; 8895.087
835.428; 4300.766;  -11.113; 8824.266
835.993; 4624.748;   -9.983; 8845.385
836.558; 4876.179;  -13.003; 8888.563
837.123; 4771.685;  -10.733; 8966.582
837.688; 4415.607;   -9.683; 8617.860
838.253; 4194.341;  -12.253; 8590.699
838.817; 4371.810;  -11.643; 8443.797
839.382; 4571.927;  -11.953; 8799.356
839.947; 4540.478;  -11.443; 8810.595
840.511; 4416.131;  -10.843; 8796.394
841.076; 4427.002;  -13.533; 8347.231
841.641; 4536.742;  -11.743; 8224.330
842.205; 4368.982;  -10.013; 8223.349
842.770; 4215.201;  -11.023; 8622.107
843.334; 4225.099;  -14.273; 8410.386
843.898; 4395.444;  -11.323; 8337.465
844.463; 4769.825;  -10.263; 8506.283
845.027; 4942.089;  -10.353; 8280.962
845.591; 4870.976;  -12.163; 8231.141
846.156; 4690.702;  -12.263; 7969.179
846.720; 4688.662;  -11.553; 7768.278
847.284; 4588.172;  -12.393; 7630.957
847.848; 3962.156;  -12.623; 7472.395
848.412; 3395.634;  -11.863; 7437.394
848.976; 3300.400;  -10.203; 7674.592
849.540; 3400.218;  -10.603; 7836.011
850.104; 3542.720;  -12.423; 7913.669
850.668; 3616.179;  -14.613; 7694.508
851.232; 3551.618;  -12.873; 7756.887
851.796; 3578.820;  -14.192; 7926.545
852.359; 3721.838;  -13.652; 7827.844
852.923; 3702.372;  -11.402; 7641.163
853.487; 3577.208;  -12.022; 7342.501
854.050; 3445.544;  -15.202; 7042.820
854.614; 3449.373;  -14.592; 7151.338
855.177; 3417.135;  -12.572; 7105.077
855.741; 3436.947;   -9.932; 6989.675
856.304; 3594.552;  -12.192; 6596.634
856.868; 3635.778;  -13.462; 6356.272
857.431; 3594.891;  -11.542; 6468.571
857.995; 3620.676;  -12.062; 6373.210
858.558; 3390.788;  -11.142; 6324.448
859.121; 3101.516;  -11.742; 6408.327
859.684; 2940.894;  -10.332; 6347.886
860.247; 2924.049;  -11.962; 6321.264
860.810; 3058.415;  -12.332; 6301.903
861.374; 3086.573;  -10.292; 6607.881
861.937; 2997.752;  -12.062; 6408.200
862.500; 3075.640;  -11.702; 6572.639
863.062; 3252.575;  -13.852; 6387.297
863.625; 3350.824;  -12.972; 6190.836
864.188; 3254.208;  -10.292; 5807.254
864.751; 3112.409;  -12.382; 5682.413
865.314; 2922.554;  -13.232; 5547.492
865.876; 2701.763;  -12.772; 5500.150
866.439; 2529.229;  -11.952; 5415.909
867.002; 2510.452;   -9.332; 5501.567
867.564; 2737.034;  -11.712; 5413.946
868.127; 2928.280;  -12.012; 5160.325
868.689; 2717.325;  -11.882; 5133.183
869.252; 2388.768;  -11.572; 5252.382
869.814; 2248.994;  -10.692; 5297.141
870.377; 2329.689;  -12.392; 5390.919
870.939; 2456.570;  -10.582; 5599.898
871.501; 2483.779;  -12.782; 5248.336
872.063; 2441.422;  -15.612; 4854.235
872.626; 2431.467;  -13.922; 4817.074
873.188; 2320.963;  -13.832; 4987.732
873.750; 2188.864;  -10.962; 4868.651
874.312; 2232.614;  -11.022; 4779.330
874.874; 2277.752;  -13.152; 4866.348
875.436; 2253.363;  -13.401; 4718.887
875.998; 2195.557;   -8.891; 4660.005
876.560; 2127.227;  -12.591; 4462.964
877.122; 2051.933;  -14.531; 4145.042
877.683; 1971.953;  -10.781; 4056.481
878.245; 1906.129;  -14.281; 3950.740
878.807; 1904.582;  -10.311; 4058.958
879.369; 1833.020;  -13.201; 3954.677
879.930; 1770.153;  -12.061; 3941.495
880.492; 1769.931;   -9.181; 4067.014
881.053; 1824.059;  -12.051; 3859.633
881.615; 1894.670;  -11.501; 3776.071
882.176; 1931.307;  -12.221; 3734.750
882.738; 1827.459;   -8.931; 3678.489
883.299; 1556.255;  -13.571; 3405.407
883.860; 1293.076;  -12.331; 3351.106
884.422;  990.728;  -10.201; 3394.044
884.983;  769.140;  -12.521; 3166.443
885.544;  705.803;  -12.291; 3189.802
886.105;  732.916;  -12.991; 3160.360
886.666;  788.745;  -12.901; 3093.059
887.227;  824.515;  -12.061; 2941.957
887.788;  827.693;  -11.641; 2974.836
888.349;  813.898;  -14.691; 2721.214
888.910;  796.403;   -9.681; 2696.493
889.471;  791.050;   -9.971; 2560.172
890.032;  787.186;  -13.151; 2558.190
890.593;  773.427;  -12.051; 2567.669
891.153;  752.134;  -12.841; 2460.307
891.714;  734.876;  -13.561; 2372.046
892.275;  723.552;  -12.401; 2309.505
892.835;  696.480;  -13.191; 2382.543
893.396;  656.182;  -12.551; 2295.502
893.956;  643.014;  -11.981; 2162.420
894.517;  647.932;  -12.221; 2125.439
895.077;  623.880;  -12.021; 2086.978
895.638;  561.899;  -10.891; 2126.316
896.198;  504.217;  -13.171; 1838.275
896.758;  466.897;  -11.891; 1892.813
897.319;  428.997;  -12.491; 1792.232
897.879;  409.753;  -12.401; 1762.751
898.439;  385.049;  -13.431; 1661.149
898.999;  367.612;  -11.340; 1781.468
899.559;  359.787;  -13.930; 1703.347
900.119;  345.630;  -13.730; 1537.525
900.679;  329.648;   -9.210; 1638.384
901.239;  315.179;  -10.860; 1527.902
901.799;  297.676;  -11.450; 1456.441
902.359;  278.126;  -13.800; 1357.140
902.919;  268.506;  -12.130; 1331.118
903.479;  265.502;  -12.650; 1317.257
904.038;  256.070;  -16.110; 1262.595
904.598;  240.447;  -13.690; 1152.034
905.158;  226.528;  -10.290; 1240.893
905.717;  218.958;  -10.670; 1233.691
906.277;  217.083;  -14.040; 1217.330
906.836;  216.983;  -13.510; 1222.408
907.396;  212.033;  -11.530; 1193.047
907.955;  201.558;  -13.190; 1182.526
908.515;  189.853;  -12.950; 1099.364
909.074;  181.236;  -12.390; 1092.863
909.633;  174.793;  -10.340; 1069.121
910.192;  171.553;  -11.170; 1196.460
910.752;  166.860;  -14.200; 1029.960
911.311;  163.669;  -13.810; 1009.780
911.870;  161.390;  -12.750;  971.460
912.429;  161.461;  -12.380; 1094.080
912.988;  160.585;  -11.930; 1081.060
913.547;  155.269;  -10.990;  940.380
914.106;  152.221;  -11.200;  999.420
914.665;  150.974;  -13.150;  984.020
915.224;  148.403;  -13.310; 1035.760
915.782;  146.448;  -13.340;  922.560
916.341;  146.984;  -10.710; 1049.840
916.900;  144.738;  -12.980;  925.260
917.458;  142.807;  -13.060;  884.220
918.017;  141.303;  -10.900;  942.600
918.576;  141.214;  -11.630;  904.440
919.134;  139.709;  -12.860;  837.980
919.693;  140.233;  -15.160;  893.060
920.251;  139.917;  -13.470;  876.500
920.809;  138.297;  -13.700;  839.580
921.368;  139.238;  -13.420;  885.360
921.926;  140.324;  -14.710;  842.940
922.484;  141.178;  -12.560;  903.360
923.042;  140.730;  -11.930;  880.340
923.601;  141.718;  -10.270;  998.680
924.159;  139.179;  -12.960;  935.560
924.717;  136.747;  -13.040;  841.080
925.275;  138.278;  -12.560;  903.240
925.833;  140.207;  -13.040;  779.320
926.391;  142.624;  -13.360;  938.380
926.949;  142.131;  -13.940;  857.680
927.506;  141.926;   -9.400;  903.500
928.064;  141.657;  -10.940;  877.580
928.622;  141.496;  -13.180;  880.100
929.180;  140.579;  -12.730;  814.180
929.737;  141.379;  -12.840;  808.540
930.295;  145.149;  -11.810;  928.480
930.853;  149.688;  -13.650;  849.100
931.410;  153.318;  -13.580;  821.120
931.968;  155.594;  -12.020;  940.660
932.525;  155.813;  -13.320;  909.380
933.082;  155.094;  -13.800;  811.440
933.640;  158.217;  -11.380;  925.900
934.197;  160.279;  -11.480;  886.360
934.754;  163.523;  -13.220;  897.780
935.312;  162.548;  -14.950;  863.340
935.869;  160.400;  -10.940; 1012.980
936.426;  154.919;  -12.100;  872.800
936.983;  154.933;  -12.930;  889.020
937.540;  156.638;  -14.250;  838.280
938.097;  161.080;  -12.600;  940.120
938.654;  167.099;  -11.260;  898.860
939.211;  170.713;  -13.020;  952.480
939.768;  171.713;  -15.760;  915.420
940.324;  176.935;  -13.920;  904.200
940.881;  173.967;  -11.620;  878.500
941.438;  172.059;   -9.870; 1021.200
941.995;  167.242;  -13.920;  992.560
942.551;  165.363;  -12.830;  875.620
943.108;  165.939;  -11.980;  937.920
943.664;  169.181;  -13.740;  869.340
944.221;  177.367;  -12.670; 1088.140
944.777;  176.695;  -13.250;  869.680
945.334;  172.248;  -13.000;  884.840
945.890;  171.109;  -13.020;  946.480
946.446;  169.864;  -13.880;  947.020
947.003;  171.223;  -12.660;  964.940
947.559;  171.521;   -8.730; 1063.040
948.115;  170.501;  -11.960; 1026.540
948.671;  166.166;  -12.360;  967.300
949.227;  160.999;  -12.700;  859.560
949.783;  157.736;  -13.450;  858.900
950.339;  158.153;  -10.620;  991.000
950.895;  154.536;  -14.770; 1023.840
951.451;  152.031;  -13.650;  925.280
952.007;  153.057;  -11.180;  998.540
952.563;  152.482;  -11.680;  937.780
953.118;  151.096;  -13.280;  904.940
953.674;  153.434;  -12.510;  935.780
954.230;  153.577;  -12.220;  949.640
954.785;  149.594;  -12.190;  936.640
955.341;  145.646;  -12.270;  998.160
955.897;  142.859;  -14.900;  834.660
956.452;  144.330;  -12.520;  953.840
957.008;  143.794;   -9.410; 1083.640
957.563;  140.073;  -11.280; 1009.540
958.118;  137.830;  -13.470;  877.700
958.674;  137.997;  -12.190;  946.780
959.229;  139.765;  -12.760; 1013.980
959.784;  142.124;  -15.710;  832.400
960.339;  148.455;  -12.540; 1001.280
960.894;  147.197;  -11.680;  963.760
961.449;  143.308;  -11.410;  859.960
962.004;  142.731;  -10.430; 1212.840
962.559;  135.295;  -14.040;  860.140
963.114;  130.669;  -14.270;  742.480
963.669;  131.279;  -11.320;  915.500
964.224;  130.464;  -14.620;  874.340
964.779;  130.094;  -14.150;  828.420
965.334;  129.859;  -10.850; 1017.860
965.888;  129.201;  -14.530;  875.360
966.443;  131.123;  -13.520;  972.380
966.998;  127.816;  -13.370;  819.460
967.552;  125.968;   -9.960;  908.380
968.107;  122.746;  -12.360;  868.300
968.661;  122.796;  -12.270;  922.440
969.216;  121.224;  -12.140;  856.280
969.770;  121.348;  -11.860;  917.200
970.324;  121.742;  -12.170;  923.140
970.879;  120.905;  -14.160;  947.180
971.433;  119.036;  -12.940;  952.720
971.987;  115.512;  -10.180;  895.340
972.541;  114.300;  -12.130;  917.100
973.095;  113.722;  -14.980; 1009.460
973.649;  112.236;  -14.480;  809.480
974.203;  114.396;  -13.530;  829.040
974.757;  115.552;  -12.060;  855.220
975.311;  113.897;  -13.240;  872.600
975.865;  112.318;  -12.550;  881.820
976.419;  110.953;  -13.180;  857.400
976.973;  110.271;  -14.100;  849.620
977.526;  109.172;  -13.330;  949.920
978.080;  104.957;  -15.390;  796.780
978.634;  104.857;  -11.670;  921.320
979.187;  101.679;  -10.640;  905.400
979.741;  101.821;  -13.330; 1018.380
980.294;   99.699;  -14.480;  789.160
980.848;   99.114;  -13.420;  717.220
981.401;   97.114;  -12.360;  816.540
981.955;   94.408;  -12.480;  844.300
982.508;   90.288;  -14.000;  746.340
983.061;   89.951;  -10.440;  915.260
983.615;   85.994;  -14.340;  798.800
984.168;   83.978;  -14.950;  770.080
984.721;   84.465;  -13.270;  880.760
985.274;   82.520;  -12.240;  867.500
985.827;   79.656;  -12.720;  834.220
986.380;   77.000;  -14.920;  721.340
986.933;   77.114;  -12.860;  864.800
987.486;   75.887;  -10.440;  861.920
988.039;   74.254;  -11.820;  863.100
988.591;   73.505;  -13.760;  893.260
989.144;   71.350;  -14.080;  737.260
989.697;   71.014;  -13.440;  758.740
990.250;   71.206;  -12.050;  858.100
990.802;   69.660;  -14.550;  755.860
991.355;   70.759;  -10.770;  974.880
991.907;   68.730;  -11.710;  864.320
992.460;   66.702;  -12.650;  753.760
993.012;   66.605;  -13.860;  749.540
993.565;   64.313;  -14.310;  711.360
994.117;   64.307;   -9.920;  950.780
994.669;   59.746;  -13.420;  701.320
995.221;   60.167;  -14.200;  791.920
995.774;   59.464;  -13.400;  787.580
996.326;   58.446;  -11.850;  740.220
996.878;   58.474;  -12.230;  838.420
997.430;   55.594;  -14.260;  699.860
997.982;   54.706;  -11.430;  750.140
998.534;   55.451;  -11.590;  739.060
999.086;   55.002;  -11.960;  738.220
999.638;   53.489;  -13.640;  661.380
1000.190;   52.790;  -13.660;  699.320
1000.741;   52.905;   -9.980;  742.700
1001.293;   52.109;  -11.860;  686.020
1001.845;   51.188;  -14.280;  676.640
1002.396;   50.615;  -12.270;  743.400
1002.948;   50.158;  -13.670;  737.400
1003.500;   49.241;  -12.010;  723.780
1004.051;   50.580;  -11.890;  907.580
1004.603;   48.308;  -11.220;  791.820
1005.154;   45.490;  -13.210;  608.980
1005.705;   44.237;  -11.850;  723.960
1006.257;   43.701;  -13.670;  707.220
1006.808;   43.809;  -12.060;  685.460
1007.359;   42.516;  -10.250;  763.240
1007.910;   41.813;  -13.440;  646.640
1008.461;   41.104;  -13.170;  732.940
1009.013;   40.405;  -14.590;  588.340
1009.564;   41.026;  -12.100;  793.520
1010.115;   38.666;  -14.000;  597.040
1010.665;   38.569;  -15.020;  602.160
1011.216;   39.424;  -12.560;  667.920
1011.767;   39.173;  -11.330;  697.920
1012.318;   38.733;  -11.450;  736.980
1012.869;   37.241;  -11.000;  679.000
1013.419;   37.940;  -11.760;  603.120
1013.970;   37.334;  -11.800;  666.640
1014.521;   36.676;  -14.750;  620.620
1015.071;   36.867;  -14.430;  670.380
1015.622;   36.573;  -14.170;  635.460
1016.172;   35.399;  -11.700;  596.820
1016.723;   35.636;  -13.230;  614.380
1017.273;   35.405;  -16.120;  604.160
1017.823;   35.417;  -13.360;  650.340
1018.374;   35.223;  -13.710;  611.760
1018.924;   35.041;  -11.050;  716.880
1019.474;   35.483;  -14.120;  718.880
1020.024;   33.480;  -12.990;  657.580
1020.574;   34.417;  -12.010;  726.160
1021.124;   33.873;  -12.080;  673.580
1021.674;   32.467;  -15.860;  559.120
1022.224;   33.798;  -11.710;  708.940
1022.774;   33.288;  -13.030;  668.820
1023.324;   34.068;  -11.000;  753.520
1023.874;   35.145;  -13.270;  875.760
1024.423;   32.822;  -14.570;  613.700
1024.973;   31.609;  -12.620;  610.760
1025.523;   30.507;  -12.630;  620.960
1026.072;   31.355;  -14.110;  606.420
1026.622;   30.841;  -15.390;  675.740
1027.172;   32.113;   -9.090;  715.660
1027.721;   30.517;  -12.250;  601.220
1028.270;   31.331;  -15.590;  663.400
1028.820;   31.233;  -13.840;  638.080
1029.369;   30.154;  -13.170;  612.700
1029.918;   30.500;  -14.080;  649.840
1030.468;   29.805;  -13.860;  564.780
1031.017;   30.754;  -12.970;  634.800
1031.566;   29.156;  -12.320;  608.900
1032.115;   29.901;  -13.140;  694.500
1032.664;   28.262;  -14.560;  596.480
1033.213;   29.932;  -11.620;  735.420
1033.762;   28.391;  -13.190;  635.620
1034.311;   28.115;  -13.460;  677.220
1034.860;   28.153;  -15.770;  691.000
1035.408;   28.761;  -13.100;  722.720
1035.957;   28.775;  -12.880;  719.540
1036.506;   26.146;  -13.640;  530.800
1037.055;   29.539;  -12.420;  844.320
1037.603;   27.654;  -13.740;  664.000
1038.152;   26.409;  -13.840;  534.760
1038.700;   26.696;  -10.770;  585.740
1039.249;   26.008;  -13.520;  681.220
1039.797;   26.818;  -13.060;  633.360
1040.345;   26.860;  -11.760;  705.420
1040.894;   26.376;  -10.790;  625.300
1041.442;   26.127;  -15.420;  632.200
1041.990;   25.149;  -14.550;  559.160
1042.538;   24.666;  -15.620;  536.180
1043.087;   24.380;  -14.940;  570.860
1043.635;   26.560;  -12.100;  670.500
1044.183;   25.004;  -13.200;  586.400
1044.731;   24.554;  -11.630;  576.000
1045.279;   23.764;  -14.200;  674.920
1045.827;   26.668;  -12.510;  892.400
1046.374;   23.621;  -14.960;  515.420
1046.922;   22.723;  -11.850;  590.580
1047.470;   24.526;  -13.770;  691.300
1048.018;   23.904;  -15.380;  647.960
1048.565;   24.725;  -14.010;  708.600
1049.113;   22.990;  -14.620;  557.000
1049.660;   23.707;  -14.940;  629.660
1050.208;   23.715;  -14.540;  675.640
1050.755;   22.147;  -13.710;  606.580
1051.303;   23.734;  -11.880;  686.820
1051.850;   22.503;  -12.160;  635.120
1052.397;   20.782;  -15.110;  473.960
1052.945;   21.740;  -14.770;  617.760
1053.492;   23.441;  -12.320;  741.840
1054.039;   22.915;  -13.290;  720.180
1054.586;   21.372;  -15.210;  557.240
1055.133;   22.883;  -12.920;  693.140
1055.680;   22.769;  -12.610;  646.620
1056.227;   20.984;  -12.620;  542.780
1056.774;   24.132;  -13.010;  794.980
1057.321;   20.078;  -16.180;  523.260
1057.868;   20.906;  -11.230;  651.320
1058.415;   21.077;  -10.890;  651.980
1058.961;   21.177;  -12.530;  678.940
1059.508;   20.708;  -14.120;  643.820
1060.055;   19.847;  -13.340;  581.780
1060.601;   21.028;  -12.920;  624.300
1061.148;   19.604;  -14.430;  616.820
1061.694;   20.163;  -14.140;  592.580
1062.241;   19.754;  -12.550;  596.320
1062.787;   20.465;  -13.370;  663.140
1063.334;   22.345;  -12.260;  808.560
1063.880;   20.078;  -10.800;  668.360
1064.426;   19.633;   -9.920;  706.820
1064.972;   19.102;  -12.970;  601.340
1065.518;   17.572;  -14.440;  566.640
1066.065;   19.553;  -12.680;  624.460
1066.611;   17.686;  -13.520;  598.800
1067.157;   18.860;  -11.100;  641.860
1067.703;   18.448;  -14.100;  668.480
1068.249;   18.454;  -13.750;  605.220
1068.794;   18.211;  -11.070;  626.880
1069.340;   17.495;  -13.210;  578.960
1069.886;   18.656;  -14.850;  590.700
1070.432;   16.929;  -14.580;  541.720
1070.977;   17.167;  -12.930;  601.080
1071.523;   16.740;  -11.970;  573.060
1072.068;   17.420;  -13.730;  582.000
1072.614;   16.637;  -14.550;  527.760
1073.160;   17.458;  -13.690;  687.040
1073.705;   16.590;  -14.780;  572.520
1074.250;   16.162;  -15.430;  559.900
1074.796;   17.391;  -11.620;  655.160
1075.341;   17.814;  -11.580;  664.100
1075.886;   17.334;  -13.190;  594.240
1076.431;   16.980;  -13.630;  649.880
1076.976;   16.251;  -11.670;  639.220
1077.521;   15.092;  -11.600;  583.080
1078.067;   15.126;  -13.920;  579.400
1078.612;   16.180;  -12.910;  661.620
1079.156;   15.934;  -15.340;  601.540
1079.701;   15.705;  -12.560;  693.260
1080.246;   16.086;  -12.490;  696.300
1080.791;   16.105;  -14.550;  625.020
1081.336;   16.219;  -15.210;  659.320
1081.880;   15.368;  -11.280;  649.680
1082.425;   14.302;  -12.830;  573.480
1082.970;   16.658;  -11.680;  717.040
1083.514;   14.870;  -15.500;  597.000
1084.059;   13.667;  -11.770;  586.720
1084.603;   14.098;  -13.480;  565.840
1085.147;   14.498;  -13.940;  645.220
1085.692;   15.636;  -13.170;  716.800
1086.236;   12.399;  -15.740;  503.140
1086.780;   16.051;  -10.750;  751.440
1087.325;   14.386;  -14.900;  654.620
1087.869;   14.784;  -15.160;  610.700
1088.413;   14.849;  -11.030;  705.040
1088.957;   12.965;  -15.210;  543.400
1089.501;   15.012;  -12.310;  766.640
1090.045;   14.742;  -12.790;  726.480
1090.589;   11.523;  -14.040;  569.920
1091.133;   12.780;  -12.800;  673.340
1091.676;   13.589;  -13.600;  591.940
1092.220;   12.338;  -12.960;  600.920
1092.764;   13.735;  -10.830;  706.960
1093.307;   13.322;  -12.390;  673.780
1093.851;   11.898;  -15.850;  556.540
1094.395;   12.463;  -12.980;  683.140
1094.938;   11.823;  -13.670;  632.520
1095.482;   12.330;  -12.740;  559.800
1096.025;   13.351;  -13.340;  710.880
1096.568;   13.468;  -10.500;  779.280
1097.112;    9.432;  -13.500;  508.180
1097.655;   12.475;  -13.060;  603.000
1098.198;   10.699;  -13.240;  600.180
1098.741;   10.863;  -15.490;  612.860
1099.285;   12.192;  -13.410;  657.300
1099.828;    9.587;  -15.640;  439.400
1100.371;   11.432;  -13.980;  608.160
1100.914;   11.369;  -13.990;  682.660
1101.457;   11.150;  -15.030;  679.900
1101.999;   10.253;  -12.480;  584.680
1102.542;   11.648;  -12.410;  641.440
1103.085;   10.698;  -14.730;  658.500
1103.628;   10.853;  -12.190;  762.060
1104.170;   10.363;  -12.360;  588.280
1104.713;   10.405;  -13.350;  646.700
1105.256;    8.931;  -14.930;  557.440
1105.798;    8.450;  -15.150;  499.980
1106.341;   10.570;  -13.230;  728.900
1106.883;    9.465;  -14.680;  521.340
1107.425;    9.670;  -14.810;  668.180
1107.968;    9.334;  -12.940;  612.380
1108.510;    9.691;  -10.550;  684.960
1109.052;    7.736;  -15.640;  612.620
1109.594;    8.504;  -14.440;  554.440
1110.136;    9.945;  -11.380;  643.220
1110.679;    8.337;  -13.090;  633.080
1111.221;    8.705;  -14.230;  604.460
1111.763;    8.414;  -14.260;  559.220
1112.304;    7.933;  -14.510;  547.140
1112.846;    8.839;  -14.700;  666.240
1113.388;   12.107;  -12.270;  942.180
1113.930;    9.515;  -13.340;  694.200
1114.472;    8.085;  -12.560;  606.540
1115.013;    6.378;  -14.280;  551.280
1115.555;    7.342;  -14.010;  587.100
1116.097;    6.337;  -14.730;  579.480
1116.638;    7.875;  -12.160;  684.600
1117.180;    7.706;  -14.320;  667.740
1117.721;    7.187;  -15.730;  568.580
1118.262;    7.709;  -13.480;  677.960
1118.804;    7.218;  -11.530;  637.340
1119.345;    6.420;  -13.540;  578.400
1119.886;    8.214;  -14.470;  704.040
1120.427;    6.426;  -13.030;  589.020
1120.969;    6.554;  -13.150;  597.920
1121.510;    6.438;  -13.940;  563.060
1122.051;    7.452;  -12.310;  723.580
1122.592;    6.155;  -13.870;  655.420
1123.133;    5.115;  -12.890;  547.940
1123.673;    7.595;  -13.300;  706.480
1124.214;    5.582;  -14.000;  612.460
1124.755;    7.414;  -13.210;  639.460
1125.296;    6.071;  -13.450;  627.320
1125.836;    7.030;  -12.610;  691.500
1126.377;    5.626;  -15.840;  599.660
1126.918;    6.171;  -11.830;  614.980
1127.458;    5.037;  -11.830;  622.220
1127.999;    5.878;  -11.490;  656.980
1128.539;    6.873;  -12.900;  694.240
1129.079;    5.458;  -14.910;  632.720
1129.620;    4.382;  -12.920;  558.100
1130.160;    4.686;  -14.640;  539.480
1130.700;    6.028;  -13.270;  640.840
1131.240;    5.825;  -14.110;  643.700
1131.781;    4.937;  -13.130;  619.680
1132.321;    4.852;  -15.220;  599.120
1132.861;    4.110;  -15.670;  564.200
1133.401;    3.810;  -13.970;  593.940
1133.941;    4.670;  -13.740;  626.280
1134.481;    4.355;  -13.200;  597.580
1135.020;    4.181;  -14.830;  609.160
1135.560;    4.767;  -14.590;  674.940
1136.100;    2.705;  -13.730;  501.160
1136.640;    2.837;  -15.240;  510.480
1137.179;    3.844;  -14.710;  537.960
1137.719;    3.846;  -14.090;  605.400
1138.258;    3.308;  -12.470;  587.360
1138.798;    5.082;  -12.580;  663.780
1139.337;    2.895;  -16.480;  482.840
1139.877;    3.602;  -13.970;  642.360
1140.416;    5.718;   -9.870;  878.060
1140.955;    2.649;  -14.860;  535.380
1141.494;    3.882;  -14.530;  669.280
1142.034;    2.729;  -13.940;  583.520
1142.573;    4.318;  -11.160;  646.280
1143.112;    1.847;  -15.050;  553.480
1143.651;    2.939;  -15.390;  536.480
1144.190;    4.250;  -12.990;  691.640
1144.729;    3.079;  -12.220;  607.420
1145.267;    2.779;  -14.020;  584.900
1145.806;    3.628;  -12.740;  637.040
1146.345;    3.121;  -14.810;  635.020
1146.884;    2.439;  -12.920;  622.500
1147.422;    1.583;  -13.930;  533.060
1147.961;    3.678;  -11.830;  708.460
1148.500;    3.330;  -12.710;  669.720
1149.038;    3.555;  -14.420;  632.500
1149.577;    2.849;  -13.920;  698.640
1150.115;    0.843;  -17.050;  452.280
1150.653;    2.250;  -14.890;  607.340
1151.192;    1.671;  -15.270;  552.920
1151.730;    2.314;  -13.160;  652.560
1152.268;    1.326;  -15.430;  589.520
1152.806;    2.042;  -15.880;  571.180
1153.344;    0.426;  -13.240;  577.640
1153.882;    2.215;  -13.010;  600.060
1154.421;   -0.291;  -16.180;  470.620
1154.958;    1.103;  -13.880;  595.240
1155.496;    2.632;  -13.590;  645.280
1156.034;    2.022;  -11.910;  721.880
1156.572;    2.452;  -12.010;  667.060
1157.110;    0.030;  -16.250;  473.940
1157.647;    2.514;  -15.230;  676.960
1158.185;    0.414;  -13.770;  564.320
1158.723;   -0.256;  -15.300;  509.200
1159.260;    1.029;  -13.130;  701.700
1159.798;    1.825;  -11.300;  658.160
1160.335;    0.515;  -13.210;  631.820

