gmr_left
Integration time [ms]: 2152.735
Averaging Nr. [scans]: 20
Smoothing Nr. [pixels]: 0
Data measured with spectrometer [name]: 7414430SP
Wave   ;Sample   ;Dark     ;Reference
[nm]   ;[counts] ;[counts] ;[counts] 

288.544; 3266.594; 3108.699;    6.613
289.143; 2695.277; 2535.224;   14.216
289.742; 3469.038; 3309.371;   11.816
290.341; 3328.322; 3178.834;   -4.936
290.940; 3044.763; 2883.297;    0.852
291.538; 3817.151; 3676.572;    1.792
292.137; 3369.910; 3225.295;    6.262
292.736; 4380.722; 4214.734;    8.164
293.335; 3119.835; 2957.363;   -6.418
293.934; 3333.914; 3189.036;   -2.904
294.532; 4691.124; 4544.178;   -5.162
295.131; 3724.180; 3567.669;  -10.283
295.730; 3599.049; 3461.108;  -16.141
296.328; 3487.760; 3341.285;  -14.740
296.927; 3436.661; 3299.035;   -8.768
297.525; 3434.570; 3291.685;  -15.255
298.124; 2809.245; 2668.372;  -22.063
298.722; 3357.521; 3216.651;  -14.796
299.321; 3084.393; 2956.017;  -10.466
299.919; 3323.904; 3183.860;  -10.979
300.518; 3030.715; 2897.000;  -12.077
301.116; 3020.373; 2886.998;  -13.509
301.715; 3209.041; 3090.855;  -11.939
302.313; 3109.991; 2976.882;  -15.424
302.911; 3305.796; 3168.427;  -19.833
303.509; 4306.021; 4169.813;   -3.567
304.108; 3411.521; 3297.328;   -9.553
304.706; 3650.051; 3501.974;   -8.582
305.304; 3683.195; 3566.269;  -12.348
305.902; 3528.481; 3397.120;  -14.411
306.500; 3276.023; 3160.894;   -7.194
307.098; 3398.183; 3278.060;   -9.322
307.696; 3627.144; 3488.280;  -19.192
308.294; 3331.863; 3218.902;   -9.736
308.892; 3463.371; 3350.766;  -15.482
309.490; 3214.234; 3084.987;  -14.107
310.088; 3682.005; 3548.150;  -15.862
310.686; 3776.302; 3661.836;  -10.781
311.284; 3529.804; 3417.191;  -14.878
311.882; 3308.325; 3204.307;   -9.948
312.480; 3178.047; 3059.570;  -15.503
313.078; 3805.145; 3697.003;  -17.262
313.675; 3143.673; 3024.844;   -3.694
314.273; 3752.747; 3641.043;  -18.246
314.871; 2609.786; 2519.358;  -15.190
315.468; 2983.346; 2876.877;  -12.633
316.066; 3184.983; 3089.602;   -5.765
316.664; 3001.647; 2898.404;  -14.317
317.261; 4351.175; 4259.115;   -8.677
317.859; 3680.106; 3582.904;  -11.804
318.456; 3980.014; 3866.345;   -3.107
319.054; 3754.626; 3654.792;   -3.062
319.651; 3574.255; 3502.811;   -6.706
320.249; 3890.855; 3810.061;   -5.206
320.846; 3382.644; 3280.564;   -4.679
321.443; 4049.824; 3954.507;   -7.920
322.041; 3958.175; 3865.784;  -14.105
322.638; 3371.835; 3275.676;   -6.263
323.235; 3118.842; 3042.982;   -7.424
323.833; 3558.573; 3470.606;  -14.765
324.430; 2858.194; 2761.726;  -10.550
325.027; 4294.243; 4188.563;   -9.951
325.624; 2981.940; 2864.004;   -3.712
326.221; 3211.081; 3094.978;   -9.368
326.818; 3923.393; 3802.429;   -5.637
327.415; 3455.159; 3349.500;   -6.699
328.012; 3142.438; 3035.611;   -5.713
328.609; 3342.410; 3224.727;   -9.983
329.206; 3641.521; 3532.097;   -7.154
329.803; 3376.681; 3248.013;   -1.682
330.400; 3170.709; 3045.404;   -2.741
330.997; 3747.761; 3619.697;   -4.339
331.594; 3647.375; 3501.734;  -10.278
332.191; 3239.351; 3116.920;   -6.967
332.787; 3860.412; 3724.013;   -0.480
333.384; 3410.466; 3289.438;  -10.333
333.981; 3727.370; 3590.298;  -19.900
334.578; 3106.299; 2969.997;  -19.816
335.174; 3226.569; 3092.578;  -15.844
335.771; 3832.961; 3691.906;  -12.670
336.367; 3188.274; 3057.935;  -21.124
336.964; 3634.592; 3519.303;  -18.226
337.561; 3290.713; 3161.723;  -13.311
338.157; 4260.437; 4139.463;  -19.006
338.754; 3662.808; 3539.853;  -19.418
339.350; 3256.528; 3121.468;  -29.433
339.946; 3495.405; 3353.616;  -16.622
340.543; 3922.001; 3804.481;  -16.744
341.139; 3289.343; 3173.990;  -21.841
341.735; 3605.744; 3498.133;  -25.012
342.332; 3153.923; 3049.651;  -19.156
342.928; 3704.062; 3579.939;  -20.443
343.524; 3592.004; 3470.325;  -14.397
344.120; 3445.125; 3337.625;  -20.654
344.716; 3276.471; 3186.489;   -5.730
345.313; 3740.741; 3626.631;  -10.929
345.909; 2826.431; 2707.501;  -19.843
346.505; 3455.830; 3343.427;  -19.645
347.101; 3876.669; 3770.280;   -9.618
347.697; 3704.337; 3581.695;  -10.305
348.293; 2826.739; 2710.684;  -23.189
348.889; 3466.728; 3361.245;  -18.418
349.485; 3145.847; 3030.202;  -10.476
350.081; 3636.497; 3512.044;  -17.320
350.676; 3219.689; 3109.615;  -21.088
351.272; 3799.416; 3684.294;  -12.821
351.868; 3616.485; 3488.766;  -13.165
352.464; 3364.726; 3240.363;  -12.464
353.059; 2975.128; 2855.452;  -22.547
353.655; 3672.385; 3549.232;   -9.379
354.251; 3553.144; 3445.800;   -8.266
354.846; 3472.327; 3370.948;  -17.705
355.442; 3502.139; 3399.353;   -9.317
356.038; 3511.457; 3385.948;  -11.049
356.633; 3375.736; 3270.882;  -10.006
357.229; 3399.317; 3289.287;  -13.120
357.824; 3305.628; 3174.533;  -15.647
358.420; 3132.558; 3026.268;  -19.204
359.015; 3200.227; 3073.075;  -12.263
359.610; 3623.256; 3500.029;  -16.421
360.206; 2765.469; 2649.219;  -20.074
360.801; 2941.547; 2841.571;  -13.277
361.396; 3389.705; 3262.217;   -5.822
361.992; 3107.378; 3000.733;  -11.247
362.587; 3136.730; 3024.385;  -21.502
363.182; 3236.118; 3094.822;   -7.461
363.777; 3521.137; 3387.129;   -8.719
364.372; 3484.568; 3376.429;  -14.590
364.967; 3214.310; 3080.715;  -15.145
365.563; 3893.917; 3759.886;   -7.192
366.158; 3205.147; 3092.218;   -5.662
366.753; 3010.116; 2900.501;   -8.378
367.348; 3549.218; 3436.360;  -14.990
367.942; 3265.537; 3152.594;   -6.005
368.537; 3582.289; 3461.988;  -11.504
369.132; 3326.248; 3222.983;  -10.576
369.727; 2978.350; 2844.688;  -12.573
370.322; 2726.079; 2609.549;  -11.560
370.917; 3386.289; 3269.715;  -10.388
371.511; 4216.038; 4081.183;   -9.161
372.106; 3763.710; 3644.565;  -10.245
372.701; 2747.491; 2642.120;  -10.158
373.296; 4163.547; 4042.225;   -4.719
373.890; 3090.180; 2986.934;  -11.802
374.485; 3351.491; 3235.774;  -13.500
375.079; 3590.028; 3484.222;   -6.276
375.674; 3956.838; 3854.349;   -0.447
376.268; 3303.110; 3198.927;   -6.916
376.863; 2787.144; 2682.844;  -14.483
377.457; 3178.959; 3074.830;   -6.903
378.052; 3728.591; 3602.985;   -9.844
378.646; 3650.101; 3540.258;  -12.601
379.240; 3520.521; 3423.335;  -14.715
379.835; 3088.309; 2983.649;  -12.331
380.429; 2688.100; 2581.057;   -9.074
381.023; 3835.091; 3740.162;   -1.729
381.617; 3331.192; 3207.240;  -13.714
382.212; 3341.309; 3227.738;   -7.060
382.806; 3746.809; 3643.230;   -2.303
383.400; 3321.591; 3224.877;   -0.815
383.994; 3306.462; 3216.554;   -4.429
384.588; 3467.609; 3352.757;   -6.261
385.182; 3606.147; 3507.575;    0.008
385.776; 3532.658; 3437.041;   -3.247
386.370; 3376.630; 3292.404;   -1.030
386.964; 3406.389; 3312.761;   -1.346
387.558; 2950.437; 2854.898;   -2.020
388.152; 3409.240; 3309.773;   -5.345
388.745; 4119.259; 4036.423;   -2.774
389.339; 3722.158; 3612.983;    3.510
389.933; 3421.347; 3329.363;    5.280
390.527; 4376.078; 4272.356;    2.610
391.120; 2986.521; 2882.766;   -7.914
391.714; 3538.159; 3458.361;   -1.903
392.308; 3966.237; 3861.656;    6.023
392.901; 3241.699; 3154.065;   -4.103
393.495; 2997.621; 2927.354;    3.284
394.089; 3934.350; 3842.619;    8.655
394.682; 3562.540; 3496.196;    2.312
395.275; 3672.170; 3601.888;   -7.402
395.869; 3419.761; 3345.816;   -1.072
396.462; 3120.599; 3045.938;    6.454
397.056; 3942.007; 3857.206;    8.494
397.649; 3760.240; 3678.812;    1.599
398.242; 3648.098; 3586.076;    3.153
398.836; 3928.578; 3838.979;   11.395
399.429; 3185.738; 3113.075;   14.695
400.022; 3410.501; 3327.469;    3.627
400.615; 4197.919; 4096.342;    8.383
401.208; 3499.247; 3436.291;   13.295
401.802; 3575.309; 3515.176;    6.211
402.395; 3546.301; 3455.469;    7.227
402.988; 3589.631; 3519.278;    2.700
403.581; 3263.338; 3199.718;   11.225
404.174; 3468.336; 3419.794;   18.922
404.767; 3236.929; 3181.342;   14.169
405.360; 3218.581; 3143.247;    8.999
405.953; 3886.157; 3837.714;   13.138
406.545; 3749.217; 3676.998;   13.937
407.138; 3152.669; 3107.346;   10.869
407.731; 3153.899; 3098.022;   12.768
408.324; 3365.545; 3299.047;   22.921
408.917; 3519.547; 3445.625;   15.308
409.509; 3828.839; 3768.664;   12.239
410.102; 3336.860; 3290.350;   13.741
410.695; 3426.955; 3363.524;   20.249
411.287; 3092.396; 3019.467;   21.793
411.880; 3005.206; 2952.532;   22.965
412.472; 3154.059; 3094.634;   15.082
413.065; 3284.017; 3240.714;   23.423
413.657; 2975.094; 2917.858;   21.077
414.250; 3325.024; 3276.635;   12.349
414.842; 3482.707; 3434.236;   20.423
415.434; 2943.035; 2908.455;   19.906
416.027; 3324.951; 3263.518;   26.574
416.619; 3680.784; 3648.924;   15.705
417.211; 3064.074; 3018.362;   17.791
417.804; 3202.751; 3157.876;   30.244
418.396; 3145.014; 3099.101;   24.177
418.988; 3403.553; 3340.623;   24.904
419.580; 2928.425; 2873.624;   20.692
420.172; 2781.163; 2740.058;   22.275
420.764; 3433.791; 3397.641;   26.773
421.356; 3306.662; 3260.038;   25.731
421.948; 3493.933; 3435.200;   24.876
422.540; 3477.129; 3423.190;   30.042
423.132; 3071.639; 3030.340;   32.728
423.724; 2875.582; 2833.865;   21.317
424.316; 3200.291; 3152.976;   29.359
424.908; 3059.218; 3007.624;   28.798
425.500; 3328.988; 3278.232;   30.512
426.092; 3324.568; 3265.801;   26.741
426.683; 3572.500; 3526.767;   27.029
427.275; 3287.136; 3251.189;   32.611
427.867; 3397.316; 3359.100;   33.796
428.458; 3768.106; 3721.427;   34.453
429.050; 3507.338; 3458.009;   34.255
429.642; 3812.626; 3786.681;   39.082
430.233; 2844.166; 2787.846;   41.138
430.825; 3752.066; 3715.304;   31.581
431.416; 3592.898; 3544.155;   35.755
432.008; 3287.745; 3246.784;   40.566
432.599; 3314.814; 3280.537;   46.322
433.190; 3266.097; 3209.351;   46.897
433.782; 2897.047; 2859.089;   41.069
434.373; 4508.303; 4463.452;   48.778
434.964; 3030.733; 2985.810;   50.078
435.556; 3197.806; 3167.958;   52.381
436.147; 3853.465; 3819.980;   38.251
436.738; 3541.354; 3510.288;   47.237
437.329; 3620.981; 3602.766;   61.304
437.920; 3344.367; 3309.077;   48.611
438.511; 2822.316; 2779.346;   44.910
439.103; 3109.241; 3069.594;   62.404
439.694; 3413.361; 3370.062;   63.075
440.285; 3756.092; 3730.055;   61.033
440.876; 4323.893; 4277.044;   57.249
441.466; 2838.992; 2815.606;   61.306
442.057; 3290.059; 3267.438;   65.773
442.648; 3761.852; 3720.278;   65.676
443.239; 3088.263; 3072.171;   55.963
443.830; 3539.770; 3492.939;   69.631
444.421; 3224.808; 3199.115;   69.943
445.011; 3441.122; 3414.467;   72.791
445.602; 3732.952; 3691.379;   68.848
446.193; 2336.039; 2310.015;   80.044
446.783; 3091.057; 3062.945;   82.599
447.374; 3411.112; 3368.051;   77.419
447.964; 3558.402; 3525.090;   72.605
448.555; 4072.736; 4023.979;   82.041
449.145; 3237.918; 3227.077;   76.230
449.736; 4010.240; 3968.996;   75.545
450.326; 3514.379; 3478.700;   67.945
450.917; 3297.516; 3263.829;   77.598
451.507; 2907.416; 2878.521;   68.027
452.097; 3692.458; 3655.145;   67.771
452.688; 3619.257; 3576.729;   62.884
453.278; 2633.396; 2601.614;   65.512
453.868; 3937.724; 3876.982;   71.796
454.458; 3146.187; 3117.676;   60.956
455.048; 3465.987; 3417.457;   62.356
455.639; 2685.094; 2659.628;   58.782
456.229; 3425.083; 3383.981;   65.209
456.819; 3623.763; 3572.662;   61.466
457.409; 3762.874; 3736.039;   59.967
457.999; 3547.512; 3499.381;   58.093
458.589; 3250.752; 3211.092;   59.536
459.179; 3459.203; 3421.247;   55.994
459.769; 2954.554; 2937.251;   43.624
460.358; 3842.891; 3783.942;   46.978
460.948; 3272.632; 3240.204;   49.821
461.538; 3098.771; 3074.550;   54.678
462.128; 3132.283; 3096.481;   49.309
462.717; 3334.088; 3275.375;   52.774
463.307; 3315.747; 3299.139;   48.101
463.897; 3076.531; 3014.176;   45.606
464.486; 4038.794; 4012.458;   45.010
465.076; 3457.250; 3417.591;   45.519
465.666; 2981.187; 2935.135;   50.058
466.255; 3741.750; 3700.830;   44.463
466.845; 3081.821; 3038.430;   41.206
467.434; 3382.719; 3366.414;   44.847
468.023; 2980.678; 2960.963;   46.760
468.613; 3333.702; 3292.492;   39.736
469.202; 2959.469; 2913.698;   46.461
469.791; 3379.327; 3338.074;   47.944
470.381; 3389.426; 3344.177;   47.529
470.970; 3234.737; 3186.382;   43.773
471.559; 3393.938; 3348.013;   41.646
472.148; 3001.696; 2971.743;   37.914
472.738; 3476.065; 3435.496;   48.071
473.327; 2808.766; 2753.877;   47.871
473.916; 3358.198; 3296.517;   37.716
474.505; 3396.445; 3367.657;   40.256
475.094; 3716.473; 3657.318;   43.269
475.683; 3590.265; 3557.677;   36.499
476.272; 3268.265; 3207.235;   44.542
476.861; 3102.133; 3059.245;   42.297
477.449; 3184.319; 3129.335;   46.878
478.038; 3016.485; 2950.792;   35.156
478.627; 3108.125; 3068.450;   42.514
479.216; 3363.501; 3316.190;   43.937
479.805; 3405.010; 3345.516;   51.393
480.393; 4626.333; 4560.472;   53.239
480.982; 3932.894; 3888.076;   38.955
481.571; 3781.900; 3748.347;   45.436
482.159; 2926.890; 2891.639;   51.007
482.748; 3578.912; 3513.391;   49.695
483.336; 3731.251; 3683.336;   48.280
483.925; 3195.132; 3147.740;   47.166
484.513; 3147.227; 3096.038;   55.404
485.102; 3401.052; 3370.852;   54.238
485.690; 4431.288; 4372.523;   55.748
486.278; 4251.668; 4203.166;   55.934
486.867; 3310.339; 3253.127;   57.106
487.455; 3781.820; 3728.116;   56.979
488.043; 2934.610; 2876.305;   57.564
488.631; 4254.947; 4198.761;   57.432
489.220; 3712.256; 3669.291;   63.646
489.808; 2802.839; 2750.635;   65.449
490.396; 3691.838; 3639.685;   61.977
490.984; 3146.378; 3084.312;   68.834
491.572; 3689.067; 3633.780;   70.775
492.160; 3498.460; 3445.355;   67.564
492.748; 3230.150; 3164.167;   66.808
493.336; 3755.827; 3689.615;   79.747
493.924; 3247.625; 3171.299;   88.688
494.512; 3693.388; 3626.792;   84.120
495.100; 3612.540; 3549.947;   86.250
495.687; 3832.336; 3765.830;  103.074
496.275; 3104.027; 3041.672;  108.717
496.863; 3229.599; 3171.316;  107.035
497.451; 3208.920; 3149.382;  117.993
498.038; 3370.975; 3301.329;  120.116
498.626; 3227.096; 3187.129;  143.059
499.214; 3471.318; 3427.265;  153.434
499.801; 3375.649; 3297.170;  175.121
500.389; 2791.426; 2734.691;  185.617
500.976; 3535.116; 3478.914;  215.789
501.564; 3413.609; 3344.766;  240.321
502.151; 2457.000; 2416.186;  267.007
502.738; 3207.347; 3143.022;  317.961
503.326; 3260.465; 3202.583;  361.216
503.913; 3427.537; 3349.796;  401.433
504.500; 3533.769; 3464.969;  446.492
505.088; 3001.698; 2940.615;  512.063
505.675; 3275.285; 3207.314;  586.387
506.262; 3254.520; 3197.643;  671.021
506.849; 3333.208; 3264.200;  759.062
507.436; 3763.896; 3671.141;  849.788
508.023; 3315.086; 3259.976;  944.288
508.610; 3674.788; 3626.669; 1020.690
509.197; 3540.981; 3500.544; 1089.052
509.784; 3340.198; 3268.000; 1133.776
510.371; 2790.695; 2732.494; 1165.501
510.958; 3408.129; 3333.174; 1251.735
511.545; 3924.958; 3841.115; 1350.248
512.132; 3322.435; 3269.537; 1525.945
512.719; 2988.587; 2904.346; 1834.933
513.305; 3064.149; 3014.200; 1965.349
513.892; 3868.600; 3815.690; 1963.265
514.479; 3431.356; 3351.841; 2046.446
515.066; 3733.287; 3667.653; 2252.803
515.652; 3401.067; 3360.069; 2567.247
516.239; 3626.738; 3545.411; 2636.919
516.825; 2848.137; 2776.834; 2482.304
517.412; 4207.316; 4138.191; 2427.031
517.998; 3275.689; 3194.100; 2540.463
518.585; 3239.150; 3164.135; 2609.007
519.171; 3419.825; 3325.448; 2842.088
519.758; 2907.186; 2833.522; 3090.703
520.344; 3711.948; 3619.750; 3176.076
520.930; 2993.191; 2915.413; 3295.037
521.516; 3563.835; 3473.483; 3500.959
522.103; 3923.977; 3821.738; 3736.704
522.689; 3254.050; 3153.232; 3971.022
523.275; 3780.409; 3706.089; 4213.778
523.861; 3294.948; 3230.053; 4190.361
524.447; 3766.056; 3680.653; 4070.602
525.033; 3817.259; 3733.204; 4088.892
525.619; 3090.960; 3010.790; 4416.851
526.205; 2911.169; 2821.577; 4836.835
526.791; 3253.757; 3172.865; 4885.903
527.377; 3136.470; 3062.228; 4544.907
527.963; 3444.601; 3363.263; 4321.995
528.549; 3516.750; 3420.105; 4473.979
529.135; 3088.559; 3005.262; 4788.663
529.721; 3396.109; 3311.658; 4888.577
530.306; 4550.750; 4471.055; 4775.779
530.892; 3216.809; 3124.620; 4793.906
531.478; 3144.308; 3069.984; 4956.948
532.063; 3013.490; 2931.051; 5136.936
532.649; 4155.222; 4049.225; 5336.867
533.235; 3053.199; 2960.439; 5748.092
533.820; 3861.836; 3754.061; 6456.875
534.406; 3290.612; 3212.379; 6590.167
534.991; 3060.490; 2963.936; 6179.622
535.576; 3318.879; 3226.866; 6098.691
536.162; 4597.849; 4510.604; 6441.234
536.747; 2913.632; 2808.395; 6816.224
537.333; 3075.852; 2998.117; 6889.752
537.918; 3324.851; 3240.517; 7154.280
538.503; 3147.188; 3034.573; 7150.848
539.088; 3510.351; 3392.647; 7253.308
539.673; 3253.661; 3138.563; 7625.180
540.259; 3119.510; 3020.885; 8226.793
540.844; 2754.209; 2660.354; 8745.092
541.429; 4094.012; 3974.795; 8762.553
542.014; 2882.234; 2757.176; 8871.497
542.599; 3498.950; 3399.167; 8886.008
543.184; 2964.162; 2861.499; 9079.139
543.769; 3142.892; 3023.214; 9076.182
544.354; 3231.402; 3126.929; 8354.081
544.938; 3490.901; 3368.529; 8236.809
545.523; 4055.810; 3939.620; 8222.179
546.108; 3349.613; 3254.456; 8114.082
546.693; 3327.334; 3220.753; 8535.912
547.278; 3353.811; 3219.809; 9238.322
547.862; 3345.129; 3216.581; 9034.405
548.447; 3762.103; 3642.753; 7795.011
549.031; 3259.085; 3137.269; 7485.099
549.616; 3493.561; 3366.044; 7626.308
550.201; 3173.192; 3061.313; 7627.909
550.785; 3648.343; 3531.222; 7859.125
551.370; 2971.724; 2836.053; 7990.654
551.954; 3750.523; 3618.387; 8196.468
552.538; 3702.271; 3523.756; 7959.495
553.123; 3197.864; 3013.245; 7964.826
553.707; 3305.226; 3142.858; 8515.957
554.291; 3946.852; 3786.887; 8724.024
554.876; 3757.623; 3580.045; 8524.211
555.460; 3223.345; 3046.708; 8704.456
556.044; 3195.657; 3002.824; 9141.473
556.628; 3432.164; 3258.865; 9250.197
557.212; 3914.911; 3717.555; 9444.237
557.796; 3378.844; 3167.857; 9379.783
558.380; 3643.907; 3401.028; 9353.658
558.964; 3559.752; 3312.991; 9210.310
559.548; 3048.532; 2787.956; 8475.153
560.132; 3386.365; 3107.461; 7954.084
560.716; 3161.747; 2874.370; 7489.529
561.300; 3146.972; 2828.179; 7211.952
561.884; 3822.374; 3483.307; 7141.313
562.467; 3812.216; 3439.905; 7155.386
563.051; 3640.116; 3254.143; 7323.158
563.635; 3636.026; 3161.450; 7709.114
564.219; 3692.784; 3234.680; 7678.855
564.802; 3967.457; 3459.739; 7376.187
565.386; 3819.716; 3272.408; 7054.372
565.969; 4384.683; 3778.364; 6589.196
566.553; 4793.665; 4116.496; 6279.371
567.136; 4469.127; 3731.159; 5967.930
567.720; 4078.108; 3280.998; 5660.703
568.303; 4259.006; 3399.670; 5648.615
568.887; 4240.426; 3309.162; 5618.443
569.470; 4404.949; 3386.802; 5411.875
570.053; 4620.498; 3532.571; 5149.274
570.637; 4133.914; 2973.946; 5122.798
571.220; 4798.844; 3567.342; 4957.369
571.803; 5558.789; 4145.464; 4933.018
572.386; 4717.357; 3153.505; 4840.973
572.969; 4835.866; 3140.823; 4592.886
573.552; 5129.297; 3210.843; 4348.387
574.135; 4976.950; 2912.629; 4002.290
574.718; 5149.097; 3035.059; 3654.773
575.301; 5275.583; 3024.167; 3502.288
575.884; 5402.068; 3013.275; 3349.803
576.467; 6434.358; 3701.548; 3191.403
577.050; 6398.059; 3390.675; 3062.418
577.633; 7371.286; 4050.031; 3214.200
578.216; 6843.378; 3181.025; 3284.889
578.799; 7104.790; 3177.899; 3189.777
579.381; 8399.798; 4189.702; 3064.502
579.964; 7607.876; 3010.208; 2888.357
580.547; 8269.368; 3337.398; 2905.760
581.129; 9155.871; 3861.057; 2966.849
581.712; 9013.411; 3433.550; 2887.292
582.294; 9318.608; 3304.409; 2771.631
582.877;10678.617; 4222.413; 2711.602
583.459;10201.581; 3262.984; 2577.049
584.042;10518.512; 3211.365; 2454.707
584.624;10813.382; 2951.392; 2305.893
585.206;11052.868; 2581.002; 2189.546
585.789;12038.671; 3091.519; 2112.577
586.371;12553.442; 3449.589; 2153.065
586.953;12996.141; 3579.091; 2197.806
587.536;14130.778; 3818.325; 2105.489
588.118;14133.495; 3191.652; 1963.911
588.700;15023.412; 3831.815; 1843.179
589.282;15326.070; 3476.380; 1813.834
589.864;16052.991; 3331.888; 1777.620
590.446;16260.474; 2649.573; 1733.780
591.028;17628.713; 3296.008; 1676.008
591.610;17744.602; 2710.146; 1631.649
592.192;18965.859; 3336.645; 1632.362
592.774;19176.691; 2922.185; 1569.507
593.356;19869.115; 3067.894; 1524.539
593.937;20509.939; 3048.507; 1569.720
594.519;22340.182; 3684.453; 1569.049
595.101;22562.654; 2743.182; 1545.452
595.683;24604.045; 3079.413; 1607.568
596.264;26268.061; 3245.234; 1615.506
596.846;27367.771; 3138.738; 1667.622
597.427;28089.535; 3060.179; 1670.469
598.009;28566.266; 3017.244; 1640.312
598.591;29464.732; 3574.385; 1541.022
599.172;29412.953; 3185.835; 1598.665
599.753;29591.865; 2831.036; 1619.068
600.335;31122.445; 3826.164; 1548.612
600.916;31508.805; 3241.086; 1607.510
601.498;32647.664; 3428.308; 1745.181
602.079;33302.426; 3288.809; 1801.011
602.660;35228.438; 3226.648; 1834.640
603.241;36389.613; 2600.535; 1787.351
603.823;36691.414; 3074.812; 1684.266
604.404;37644.805; 2871.291; 1654.241
604.985;39627.207; 3101.822; 1758.741
605.566;40893.031; 3623.108; 1697.679
606.147;40805.629; 3198.180; 1526.728
606.728;41952.020; 2839.988; 1484.086
607.309;42572.965; 3052.179; 1421.070
607.890;41750.953; 3098.028; 1369.867
608.471;40224.215; 2999.490; 1277.826
609.051;39116.199; 3366.831; 1180.416
609.632;38577.199; 2948.700; 1075.816
610.213;39414.746; 3204.514; 1053.313
610.794;40695.438; 3114.410;  979.442
611.374;43927.398; 3411.226;  917.414
611.955;44789.039; 2785.661;  819.987
612.536;43669.258; 3373.525;  752.627
613.116;42077.766; 3084.741;  690.799
613.697;40885.949; 3041.954;  674.974
614.277;41009.020; 2960.316;  663.846
614.858;41939.496; 3037.749;  665.898
615.438;44049.586; 3265.218;  660.712
616.019;45224.469; 3823.801;  632.732
616.599;44102.949; 2549.677;  551.759
617.179;42941.309; 2853.045;  512.871
617.760;43115.465; 4315.902;  473.655
618.340;43874.641; 3211.163;  440.004
618.920;46117.418; 3933.839;  429.731
619.500;44908.152; 3100.532;  441.361
620.080;45235.871; 2943.727;  425.202
620.660;44400.793; 2937.741;  408.164
621.241;44408.160; 3109.947;  387.161
621.821;42952.949; 3302.062;  378.017
622.401;40233.859; 3673.566;  379.188
622.980;38971.613; 2792.782;  350.019
623.560;38589.859; 3126.301;  336.446
624.140;36561.281; 3330.562;  336.473
624.720;35228.129; 3386.743;  334.974
625.300;35003.961; 2945.527;  325.717
625.880;35809.871; 3210.029;  308.519
626.459;37593.332; 3246.250;  307.117
627.039;37577.320; 2709.486;  290.890
627.619;39692.754; 4135.275;  286.635
628.198;41020.023; 3717.456;  282.535
628.778;40648.629; 3486.143;  285.474
629.357;39014.090; 2838.500;  284.103
629.937;38821.484; 3116.510;  292.178
630.516;38884.563; 3885.456;  290.749
631.096;37510.871; 2985.343;  285.489
631.675;38025.934; 3821.330;  287.022
632.254;37481.227; 2974.842;  286.038
632.834;37869.613; 3205.180;  276.451
633.413;37197.352; 3819.067;  279.447
633.992;36168.133; 3640.415;  264.508
634.571;34801.305; 3481.650;  271.010
635.151;32803.355; 2911.550;  277.338
635.730;33002.512; 3169.486;  289.305
636.309;33462.691; 3456.237;  285.306
636.888;33704.105; 3493.034;  254.051
637.467;32824.566; 2650.261;  230.324
638.046;34169.543; 3889.563;  253.349
638.625;34072.375; 3742.642;  246.866
639.204;32892.426; 3368.739;  240.825
639.782;31794.488; 3252.536;  261.970
640.361;31827.865; 3769.430;  277.780
640.940;32458.186; 3029.845;  270.101
641.519;34405.555; 3411.010;  248.622
642.097;35899.273; 3468.976;  239.843
642.676;35513.344; 3277.091;  244.264
643.255;34722.363; 3134.106;  234.985
643.833;35057.781; 3497.271;  244.406
644.412;34402.500; 3098.736;  244.927
644.990;33980.223; 3282.351;  249.948
645.569;34625.789; 3462.566;  249.569
646.147;36098.762; 3659.082;  243.290
646.726;36383.480; 3322.997;  249.511
647.304;35396.449; 3115.312;  228.032
647.882;33646.969; 2640.727;  214.552
648.461;33100.738; 3351.192;  214.973
649.039;32677.957; 3530.157;  223.394
649.617;31407.826; 3489.872;  261.415
650.195;31175.295; 3353.387;  298.736
650.773;31207.164; 3091.453;  309.557
651.352;31209.535; 2590.768;  297.978
651.930;31014.953; 2564.833;  289.399
652.508;31192.523; 3551.098;  285.620
653.086;30618.242; 3440.013;  272.241
653.663;30349.313; 2990.578;  265.062
654.241;30017.082; 2792.493;  286.083
654.819;31219.500; 2853.908;  286.404
655.397;31373.520; 2912.974;  291.825
655.975;30925.238; 3153.889;  299.145
656.553;32737.609; 3877.154;  288.866
657.130;33014.328; 2906.969;  304.087
657.708;33574.797; 3383.234;  302.908
658.286;33276.918; 3277.849;  294.629
658.863;32855.336; 3314.064;  293.350
659.441;32104.906; 3362.129;  318.671
660.018;32178.676; 3170.495;  333.692
660.596;31986.395; 2602.860;  335.013
661.173;32409.414; 3065.175;  371.534
661.750;32140.232; 2921.590;  365.155
662.328;32972.852; 3475.555;  349.976
662.905;32061.121; 3089.470;  332.997
663.482;30742.941; 3185.135;  321.717
664.060;29770.010; 2967.500;  314.438
664.637;31842.830; 3479.216;  306.259
665.214;32332.699; 3308.981;  314.580
665.791;31777.918; 3123.946;  334.501
666.368;31986.938; 3073.011;  329.222
666.945;32431.807; 3524.926;  342.143
667.522;32615.377; 2952.591;  370.964
668.099;32743.096; 3177.956;  396.885
668.676;32171.916; 3198.021;  391.706
669.253;32903.137; 3893.537;  369.627
669.830;32803.305; 3748.952;  360.348
670.407;31490.324; 3179.367;  344.769
670.984;31700.443; 3170.182;  322.890
671.560;33526.113; 3478.447;  316.910
672.137;34316.781; 3086.412;  322.531
672.714;35319.301; 3412.327;  318.552
673.290;35129.871; 3353.242;  324.473
673.867;34309.391; 3005.758;  340.594
674.443;33410.109; 2823.273;  319.515
675.020;33564.180; 3320.938;  286.336
675.596;32814.996; 3122.303;  247.557
676.173;32664.268; 2775.118;  227.778
676.749;33003.887; 2440.583;  224.399
677.326;33788.305; 2720.848;  230.520
677.902;33449.125; 2969.614;  241.841
678.478;32413.244; 2785.979;  239.762
679.054;34302.516; 4735.894;  248.583
679.631;33708.285; 3382.509;  237.503
680.207;34313.305; 4033.774;  245.924
680.783;32028.973; 2552.439;  224.845
681.359;32786.293; 3169.854;  209.666
681.935;33005.410; 3280.969;  191.687
682.511;33326.332; 3249.485;  210.008
683.087;34188.000; 3427.900;  213.329
683.663;34625.770; 3097.765;  216.850
684.239;35329.438; 2784.080;  229.471
684.815;36823.359; 3575.995;  248.792
685.390;37068.828; 4099.360;  231.813
685.966;36150.195; 3266.775;  221.234
686.542;35302.816; 2863.590;  214.255
687.118;34829.184; 3320.555;  212.276
687.693;34379.953; 3455.871;  233.096
688.269;33607.023; 3116.986;  246.917
688.844;33852.145; 3409.751;  236.938
689.420;35200.363; 3234.216;  242.059
689.995;38028.133; 3955.081;  245.480
690.571;38691.551; 3796.096;  244.701
691.146;36352.020; 3090.461;  251.922
691.722;36050.340; 3390.977;  284.743
692.297;34725.660; 3070.992;  320.664
692.872;34841.527; 2938.857;  313.885
693.448;34897.398; 2851.972;  290.106
694.023;35868.520; 3270.537;  304.327
694.598;36976.789; 3281.352;  319.648
695.173;37354.309; 3074.267;  323.169
695.748;38406.926; 2622.032;  376.389
696.323;39840.746; 3181.848;  397.610
696.898;39539.363; 3663.213;  430.231
697.473;37377.484; 2675.378;  454.952
698.048;37433.055; 3100.643;  478.973
698.623;36217.324; 2775.408;  477.094
699.198;35363.191; 3296.673;  496.915
699.773;34609.160; 2968.338;  490.236
700.348;34604.133; 2855.503;  519.957
700.922;36043.449; 3266.769;  575.678
701.497;35415.570; 3214.734;  621.399
702.072;35615.988; 3572.049;  664.420
702.646;36531.957; 3489.264;  690.541
703.221;37330.129; 3316.479;  748.862
703.795;37578.246; 2866.944;  774.282
704.370;36514.168; 2368.859;  799.803
704.944;36693.637; 3040.724;  875.824
705.519;37451.105; 3314.189;  902.945
706.093;38712.727; 2920.555;  889.266
706.668;40678.195; 3412.170;  903.487
707.242;39782.363; 3528.885;  881.708
707.816;36632.684; 3069.850;  892.329
708.390;34562.652; 3201.315;  970.250
708.965;33789.871; 3325.180;  984.671
709.539;34543.941; 3114.196; 1026.092
710.113;35247.109; 3252.260; 1067.913
710.687;35724.230; 3517.676; 1166.434
711.261;35139.348; 2833.341; 1190.854
711.835;34531.570; 2880.906; 1197.275
712.409;34070.938; 2653.871; 1308.096
712.983;34540.105; 2679.236; 1461.617
713.557;34826.027; 2685.901; 1611.838
714.131;34262.945; 3113.266; 1554.359
714.704;33000.664; 2895.082; 1520.780
715.278;32838.086; 3222.897; 1575.101
715.852;33342.203; 3470.012; 1689.822
716.425;34793.473; 4004.327; 1829.143
716.999;31963.094; 2639.792; 2008.664
717.573;32524.262; 3400.607; 2000.485
718.146;33301.781; 3920.772; 1914.506
718.720;32190.551; 3289.587; 1818.026
719.293;32592.721; 3420.603; 1734.147
719.867;32478.490; 2978.718; 1716.968
720.440;32937.961; 3762.983; 1918.589
721.013;32569.229; 3009.698; 1975.410
721.587;32609.248; 2699.613; 2073.331
722.160;32462.168; 3580.428; 2357.852
722.733;32416.336; 3255.993; 2657.073
723.306;33096.906; 3199.208; 2703.894
723.880;31625.426; 3275.924; 2549.415
724.453;30069.846; 3731.789; 2414.336
725.026;29178.764; 3028.604; 2298.557
725.599;31021.084; 3330.769; 2168.778
726.172;32665.553; 3408.434; 2106.099
726.745;32463.771; 3368.099; 2253.320
727.318;31618.191; 3569.714; 2404.740
727.891;30911.061; 3335.330; 2680.161
728.463;31753.230; 3299.945; 2838.882
729.036;32183.750; 2929.710; 2755.103
729.609;32802.121; 2886.525; 2731.824
730.182;33009.039; 3516.990; 2855.645
730.754;30781.658; 2429.705; 2946.866
731.327;30917.377; 3410.420; 2840.187
731.900;30072.146; 2693.685; 2647.608
732.472;30238.865; 3153.400; 2473.929
733.045;30106.236; 3088.916; 2445.750
733.617;30222.805; 2649.781; 2511.771
734.190;31594.424; 3402.746; 2581.592
734.762;31303.645; 3183.161; 2710.813
735.334;30582.613; 3226.876; 3005.733
735.907;30772.332; 3217.141; 3154.954
736.479;31846.102; 3646.706; 3171.675
737.051;31705.021; 3394.471; 3217.496
737.623;32472.441; 3454.537; 3246.217
738.195;32974.910; 2965.752; 2985.238
738.768;32163.330; 2505.117; 2727.559
739.340;31711.699; 3029.332; 2666.880
739.912;32093.768; 3500.247; 2769.601
740.484;32139.838; 3382.062; 2731.422
741.056;31340.957; 3095.677; 2963.043
741.628;29882.227; 2884.393; 3361.364
742.199;29228.096; 3726.758; 3641.185
742.771;27089.215; 2747.973; 3932.005
743.343;26127.684; 2892.188; 4319.926
743.915;26313.803; 3348.153; 4706.647
744.487;27013.322; 3424.018; 4874.968
745.058;29053.592; 3470.983; 4616.589
745.630;29161.412; 3443.048; 4253.410
746.201;27626.682; 3029.114; 4056.131
746.773;27556.350; 3400.929; 3772.952
747.344;27363.670; 3189.994; 3642.473
747.916;28320.340; 3284.209; 3752.294
748.487;29798.209; 3530.774; 4106.215
749.059;29880.527; 2812.789; 4457.835
749.630;28705.947; 2928.204; 4366.457
750.201;27140.916; 3174.669; 4600.078
750.773;26292.387; 2989.584; 4658.499
751.344;26952.555; 3218.450; 4609.319
751.915;26758.475; 3199.965; 4526.440
752.486;26375.943; 2936.130; 4536.061
753.057;26553.463; 3253.845; 4383.282
753.628;27096.383; 2929.210; 4296.503
754.199;27295.852; 3062.875; 4383.224
754.770;27108.521; 3447.690; 4653.545
755.341;26148.791; 3580.956; 4831.666
755.912;25556.760; 3144.621; 4831.387
756.483;26868.580; 3425.586; 4735.808
757.054;27281.750; 3037.201; 4685.029
757.625;26768.918; 2813.616; 4994.250
758.195;26255.488; 2715.581; 5051.471
758.766;27032.508; 3289.546; 5317.792
759.337;27090.777; 2678.361; 5646.512
759.907;27123.646; 2710.927; 5404.133
760.478;25482.916; 2981.742; 5090.954
761.048;24019.686; 3436.057; 4871.175
761.619;24037.455; 3347.172; 4589.396
762.189;24617.574; 3163.137; 4171.317
762.760;25267.543; 3487.402; 3872.538
763.330;25174.363; 3439.867; 3832.259
763.900;24432.982; 3307.282; 4150.180
764.471;23647.900; 2889.597; 4529.801
765.041;23913.070; 3647.513; 4715.922
765.611;23276.289; 3390.728; 4681.442
766.181;23185.660; 3151.943; 4717.063
766.751;24304.928; 3206.208; 4710.285
767.321;24818.348; 2792.273; 4450.305
767.891;24820.668; 3264.538; 4274.126
768.461;23526.037; 3133.903; 4215.047
769.031;23251.957; 3162.819; 4173.068
769.601;23828.426; 3616.234; 4174.689
770.171;23285.795; 2716.549; 4229.310
770.741;23820.414; 3070.114; 4352.031
771.311;24405.834; 3400.329; 4336.652
771.880;24013.203; 2883.294; 4300.873
772.450;24137.473; 2918.259; 4387.194
773.020;23723.191; 2672.274; 4220.415
773.589;24630.162; 2986.040; 4075.835
774.159;24876.930; 3001.155; 4105.756
774.729;23775.150; 2962.970; 4114.978
775.298;23590.318; 2956.985; 3693.298
775.867;23287.639; 2985.200; 3343.119
776.437;23452.607; 3189.415; 3062.040
777.006;23673.328; 2697.530; 2927.161
777.576;24553.047; 3412.845; 3046.482
778.145;23986.416; 3355.411; 3230.203
778.714;23018.936; 3134.176; 3253.324
779.283;22515.904; 3396.891; 3129.745
779.853;21595.273; 3144.606; 2983.566
780.422;21320.494; 3167.121; 2929.887
780.991;21526.563; 3361.886; 2863.908
781.560;22060.432; 3726.801; 2948.029
782.129;21342.053; 3306.616; 3074.149
782.698;21185.221; 3678.031; 2893.970
783.267;20040.990; 2957.447; 2721.391
783.836;20256.510; 3291.912; 2659.712
784.404;19500.979; 2793.427; 2622.233
784.973;19246.498; 2396.992; 2600.754
785.542;20749.168; 3138.857; 2528.475
786.111;21475.938; 3647.922; 2404.396
786.679;20848.506; 3399.337; 2365.717
787.248;19341.576; 2688.302; 2498.438
787.817;19194.646; 3005.118; 2645.659
788.385;19752.664; 3586.983; 2709.280
788.954;18747.785; 2722.048; 2620.500
789.522;19942.604; 3473.713; 2625.422
790.090;20117.873; 2745.878; 2743.843
790.659;20040.043; 3040.893; 2635.163
791.227;19021.012; 3102.208; 2495.484
791.795;18936.531; 3278.774; 2413.705
792.364;18254.000; 2861.989; 2345.326
792.932;19292.070; 3365.904; 2350.447
793.500;19354.340; 3074.819; 2429.768
794.068;18957.709; 2710.984; 2513.589
794.636;19285.277; 2902.149; 2664.310
795.204;19126.947; 2630.664; 2721.431
795.772;19352.816; 2893.129; 2802.052
796.340;19007.887; 2982.045; 2847.173
796.908;18418.555; 2635.510; 2997.194
797.476;18545.676; 2805.925; 3151.615
798.044;18303.295; 2584.190; 3110.735
798.612;19392.764; 3118.405; 2931.656
799.180;19858.383; 3221.920; 2785.777
799.747;19106.152; 3186.985; 2899.098
800.315;17773.521; 2742.900; 2955.519
800.883;17025.441; 2528.816; 2948.940
801.450;17792.361; 3132.981; 2965.361
802.018;18302.279; 3310.996; 3070.582
802.585;18915.199; 3164.661; 3156.103
803.153;19086.818; 2917.976; 3199.524
803.720;19095.938; 2940.291; 3168.845
804.287;18676.357; 3060.656; 3248.366
804.855;18713.527; 3522.221; 3406.187
805.422;18082.996; 3072.587; 3430.907
805.989;18376.816; 2879.402; 3453.528
806.556;18333.186; 2884.117; 3612.649
807.124;19604.854; 3489.532; 3736.570
807.691;19231.924; 2804.997; 3770.491
808.258;19046.393; 3153.362; 3705.012
808.825;18633.963; 3500.177; 3828.733
809.392;18485.232; 3747.692; 3986.754
809.959;17865.650; 3299.208; 4410.075
810.526;18047.771; 3767.823; 4774.996
811.093;17573.840; 3562.838; 4754.217
811.659;16761.010; 3128.103; 4661.238
812.226;16528.229; 3115.568; 4672.559
812.793;16663.598; 3263.933; 4822.979
813.360;16688.867; 3116.098; 5189.800
813.926;17270.287; 3289.164; 5310.622
814.493;16814.105; 2735.729; 5414.542
815.060;16654.975; 2560.044; 5548.963
815.626;16874.145; 2759.259; 5452.284
816.193;17111.014; 3232.324; 5339.305
816.759;16332.584; 2878.989; 5544.426
817.325;15647.604; 2569.604; 5706.547
817.892;16622.723; 3447.719; 5623.468
818.458;16766.393; 3307.734; 5586.689
819.024;17144.762; 3586.150; 5647.910
819.591;16761.230; 3149.865; 5762.031
820.157;16163.550; 2736.980; 6284.452
820.723;16289.119; 3309.295; 6906.973
821.289;17739.289; 4815.660; 7086.894
821.855;16328.158; 3390.275; 7054.915
822.421;15695.478; 2976.290; 7112.035
822.987;15693.797; 2804.456; 7256.156
823.553;15616.466; 3051.521; 7538.077
824.119;15688.686; 3497.936; 7594.298
824.685;15602.655; 3634.951; 7613.619
825.251;15282.624; 3431.966; 7644.140
825.816;15748.594; 3850.231; 7720.261
826.382;15291.263; 3417.596; 8014.282
826.948;15323.982; 3495.461; 8281.503
827.513;14938.151; 3081.677; 8289.624
828.079;14936.571; 2855.092; 8587.045
828.645;15272.891; 3266.957; 8821.865
829.210;14339.060; 2787.672; 9054.486
829.776;14264.180; 3378.837; 9054.607
830.341;14215.698; 3475.952; 9415.628
830.906;14076.769; 3587.367; 9932.449
831.472;12562.487; 2911.832;10150.271
832.037;12419.007; 3511.397; 9420.391
832.602;11931.126; 2986.963; 8664.912
833.167;12343.695; 3211.328; 8491.933
833.733;13079.665; 3502.643; 8872.854
834.298;12438.784; 2829.408; 9370.575
834.863;12584.204; 3292.073; 9610.695
835.428;12669.123; 3293.638; 9655.616
835.993;12829.992; 3384.553; 9437.838
836.558;13064.462; 3424.719; 9441.459
837.123;13791.781; 4203.833; 9600.979
837.688;12732.950; 3329.249; 9798.301
838.253;12141.470; 3300.764; 9902.921
838.817;11563.539; 3086.579;10339.742
839.382;11846.259; 3683.294;10548.363
839.947;11119.128; 3242.909;10252.484
840.511;11790.947; 3810.024;10040.005
841.076;10421.617; 2557.090;10099.926
841.641;11063.486; 3415.755;10347.347
842.205;10782.056; 3300.270;10817.368
842.770;11208.825; 3933.585;11435.289
843.334;10173.895; 3139.050;12072.409
843.898; 9893.563; 3026.015;12635.431
844.463;10738.933; 3706.230;12537.252
845.027;10252.152; 3069.445;12759.673
845.591;10939.172; 3536.611;12821.993
846.156;10427.892; 3011.026;12520.914
846.720;10557.461; 3461.891;12390.436
847.284; 9850.479; 3292.556;12956.456
847.848; 9477.600; 3400.071;13240.177
848.412; 8861.619; 3229.786;13216.998
848.976; 9458.838; 3790.951;13014.619
849.540; 9991.607; 4085.366;12355.740
850.104; 9748.377; 3769.731;12208.761
850.668; 8546.097; 2618.047;12106.882
851.232; 8487.615; 2690.312;11862.103
851.796; 8884.735; 3186.377;11700.523
852.359; 9302.354; 3523.442;12375.944
852.923; 9540.073; 3622.907;13087.966
853.487; 9348.894; 3467.122;13297.187
854.050; 8002.763; 2229.537;13851.207
854.614; 8747.981; 3075.002;14854.229
855.177; 8985.951; 3345.118;15802.149
855.741; 9216.021; 3372.683;16603.570
856.304; 9574.890; 3569.698;16359.891
856.868; 8801.459; 2899.963;14365.512
857.431; 8797.778; 3212.078;13361.333
857.995; 8277.098; 3131.543;14130.554
858.558; 8349.417; 3354.608;14883.175
859.121; 8536.937; 3526.023;15754.195
859.684; 8513.606; 3302.589;15995.017
860.247; 8409.075; 3220.754;15149.537
860.810; 7977.195; 3080.769;14640.358
861.374; 8733.664; 4121.834;15551.079
861.937; 7373.384; 2843.599;16519.801
862.500; 7550.303; 3037.314;16796.521
863.062; 7273.572; 2900.929;16538.742
863.625; 7662.092; 3345.945;16716.764
864.188; 7398.911; 3061.310;17055.084
864.751; 7373.681; 3054.625;17197.705
865.314; 7494.550; 3265.590;17151.625
865.876; 7743.020; 3597.705;17783.547
866.439; 7616.639; 3504.320;19283.467
867.002; 8066.308; 4041.385;20256.389
867.564; 7503.627; 3673.850;20485.410
868.127; 6947.997; 3243.166;20789.730
868.689; 6985.716; 3371.481;21981.951
869.252; 7216.386; 3653.396;23803.771
869.814; 6567.905; 2957.311;24974.094
870.377; 7029.324; 3339.426;24690.314
870.939; 8318.943; 4634.291;23963.436
871.501; 6945.113; 3317.056;25167.156
872.063; 5972.132; 2423.721;26995.477
872.626; 6078.452; 2643.287;27443.098
873.188; 6685.621; 3320.952;26718.418
873.750; 6544.991; 3183.817;26558.840
874.312; 6458.710; 3077.782;26701.561
874.874; 7247.379; 3897.947;27970.582
875.436; 6857.949; 3545.262;29173.402
875.998; 7061.118; 3760.177;30376.623
876.560; 6878.288; 3558.192;32507.344
877.122; 6122.357; 2972.758;34833.066
877.683; 6361.476; 3489.773;36458.285
878.245; 5810.096; 3084.888;37248.207
878.807; 6131.115; 3431.653;36758.027
879.369; 5584.584; 2817.818;35223.551
879.930; 5734.204; 2896.433;33824.969
880.492; 6500.123; 3719.498;34436.492
881.053; 5577.442; 2936.513;37745.313
881.615; 5579.762; 3049.928;41184.633
882.176; 5664.581; 3184.294;42871.555
882.738; 5941.551; 3543.059;41693.074
883.299; 4940.270; 2606.974;40289.895
883.860; 4934.489; 2682.289;39231.215
884.422; 5657.659; 3496.904;38264.039
884.983; 5031.828; 2900.669;37171.859
885.544; 5439.897; 3324.135;35842.379
886.105; 5347.617; 3256.500;34810.000
886.666; 5076.786; 3082.465;34519.020
887.227; 4527.456; 2677.830;33905.641
887.788; 5042.125; 3365.945;34502.965
888.349; 4418.145; 2792.760;34241.785
888.910; 5102.514; 3503.575;33722.203
889.471; 4867.183; 3330.690;32539.625
890.032; 4756.603; 3233.156;31528.346
890.593; 4967.422; 3455.721;32655.068
891.153; 4688.741; 3201.686;33882.289
891.714; 4202.661; 2748.801;33318.711
892.275; 4231.930; 2823.766;31848.930
892.835; 4941.000; 3584.131;30339.752
893.396; 4797.219; 3533.946;30074.973
893.956; 4331.688; 3153.211;30338.393
894.517; 4478.458; 3314.276;30864.113
895.077; 4502.677; 3378.692;29766.734
895.638; 4975.446; 3893.757;26379.557
896.198; 3882.716; 2873.672;24056.277
896.758; 4565.585; 3551.287;22961.898
897.319; 4158.504; 3196.402;21772.020
897.879; 4151.124; 3228.517;20877.539
898.439; 3599.143; 2693.532;19509.461
898.999; 4328.313; 3458.698;17297.582
899.559; 4258.182; 3410.263;14712.002
900.119; 3697.501; 2878.378;12790.224
900.679; 4618.321; 3841.793;11586.744
901.239; 4207.890; 3492.008;10776.465
901.799; 3984.959; 3273.773; 9691.687
902.359; 3621.729; 2935.988; 8725.907
902.919; 3565.548; 2899.303; 8305.728
903.479; 3569.067; 2929.219; 8172.649
904.038; 3423.737; 2776.034; 7913.870
904.598; 3058.956; 2438.899; 7262.291
905.158; 3648.676; 3054.164; 6609.012
905.717; 3769.145; 3180.929; 6236.133
906.277; 3809.914; 3231.694; 5829.054
906.836; 3973.584; 3419.659; 5396.674
907.396; 3917.253; 3379.124; 4964.195
907.955; 3954.923; 3395.790; 4528.917
908.515; 3625.692; 3079.905; 4223.837
909.074; 3640.411; 3122.370; 4023.958
909.633; 3646.631; 3125.285; 4065.379
910.192; 4398.950; 3888.650; 4066.300
910.752; 3609.200; 3107.050; 3971.600
911.311; 3546.550; 3061.700; 3839.600
911.870; 3413.300; 2931.450; 3684.500
912.429; 4093.500; 3637.550; 3635.600
912.988; 4031.950; 3564.800; 3689.800
913.547; 3367.950; 2885.150; 3737.700
914.106; 3747.800; 3288.500; 3740.300
914.665; 3727.050; 3256.700; 3604.600
915.224; 4045.700; 3596.000; 3358.700
915.782; 3497.150; 3015.750; 3188.400
916.341; 4171.750; 3711.050; 3091.400
916.900; 3514.150; 3067.900; 3044.800
917.458; 3352.250; 2915.950; 2888.600
918.017; 3692.350; 3237.300; 2818.900
918.576; 3519.000; 3089.100; 2838.600
919.134; 3126.650; 2715.400; 2880.100
919.693; 3490.550; 3056.600; 2996.300
920.251; 3420.950; 2995.100; 3183.100
920.809; 3239.750; 2792.550; 3247.000
921.368; 3442.100; 3007.550; 3156.600
921.926; 3299.450; 2877.800; 2964.900
922.484; 3639.800; 3194.350; 2846.300
923.042; 3502.500; 3070.450; 2890.400
923.601; 4147.100; 3726.050; 2987.700
924.159; 3833.200; 3413.500; 3049.800
924.717; 3297.550; 2858.100; 3087.000
925.275; 3636.750; 3203.000; 3093.400
925.833; 3005.700; 2572.600; 3182.400
926.391; 3808.250; 3386.350; 3397.900
926.949; 3442.250; 2999.500; 3575.400
927.506; 3675.200; 3242.150; 3713.400
928.064; 3494.100; 3077.650; 3871.300
928.622; 3553.250; 3111.550; 4092.800
929.180; 3195.100; 2759.400; 4499.300
929.737; 3133.250; 2672.100; 4813.200
930.295; 3803.950; 3349.550; 5084.100
930.853; 3346.900; 2901.100; 5185.000
931.410; 3203.550; 2744.250; 5313.100
931.968; 3849.150; 3404.900; 5339.600
932.525; 3628.800; 3174.600; 5399.900
933.082; 3136.150; 2696.750; 5457.500
933.640; 3757.200; 3279.250; 5692.900
934.197; 3497.250; 3037.200; 5821.200
934.754; 3520.500; 3057.100; 5617.900
935.312; 3373.150; 2888.800; 5512.400
935.869; 4175.300; 3694.250; 5582.400
936.426; 3377.350; 2913.050; 5650.100
936.983; 3469.500; 3012.150; 5657.400
937.540; 3190.400; 2695.150; 5564.300
938.097; 3746.050; 3263.500; 5574.000
938.654; 3455.850; 2968.350; 5665.900
939.211; 3739.450; 3272.500; 5931.600
939.768; 3565.750; 3086.350; 6153.600
940.324; 3478.300; 2991.700; 6397.600
940.881; 3344.450; 2869.650; 6454.200
941.438; 4056.650; 3565.650; 6206.900
941.995; 3930.600; 3453.450; 6003.900
942.551; 3230.150; 2751.200; 6228.300
943.108; 3566.450; 3100.600; 6603.500
943.664; 3229.750; 2765.750; 7188.100
944.221; 4385.050; 3895.150; 7579.900
944.777; 3206.650; 2725.400; 7658.100
945.334; 3269.350; 2816.100; 7670.400
945.890; 3604.500; 3118.050; 7525.100
946.446; 3616.900; 3144.500; 7261.500
947.003; 3711.900; 3245.650; 6949.200
947.559; 4214.500; 3732.950; 6773.100
948.115; 4012.600; 3528.450; 6668.400
948.671; 3704.300; 3227.950; 6488.400
949.227; 3101.600; 2637.250; 6236.600
949.783; 3048.350; 2587.300; 6008.900
950.339; 3763.350; 3289.150; 5934.100
950.895; 3970.100; 3496.200; 5933.500
951.451; 3450.400; 2986.850; 6074.700
952.007; 3810.650; 3351.550; 6066.400
952.563; 3466.700; 3003.150; 5884.100
953.118; 3354.950; 2890.650; 5733.800
953.674; 3545.950; 3085.200; 5734.300
954.230; 3558.850; 3109.450; 6039.700
954.785; 3529.750; 3082.050; 6383.500
955.341; 3838.050; 3391.750; 6568.200
955.897; 3030.300; 2591.000; 6488.600
956.452; 3672.750; 3220.450; 6239.200
957.008; 4401.650; 3965.400; 5954.600
957.563; 4005.550; 3557.250; 5816.700
958.118; 3279.400; 2863.200; 5828.200
958.674; 3611.600; 3190.600; 5717.400
959.229; 4046.200; 3603.450; 5506.800
959.784; 3113.550; 2675.300; 5292.200
960.339; 4035.650; 3593.850; 5101.900
960.894; 3823.850; 3399.800; 5093.200
961.449; 3266.350; 2826.900; 5227.900
962.004; 5151.800; 4730.250; 5349.300
962.559; 3305.300; 2879.000; 5514.900
963.114; 2670.150; 2253.950; 5717.300
963.669; 3562.100; 3149.350; 5841.400
964.224; 3386.650; 2965.400; 5805.900
964.779; 3160.150; 2737.750; 5723.400
965.334; 4074.000; 3651.600; 5779.500
965.888; 3348.250; 2941.950; 5948.500
966.443; 3878.100; 3449.700; 6344.200
966.998; 3017.350; 2597.000; 6666.300
967.552; 3501.350; 3097.050; 6710.100
968.107; 3316.100; 2918.550; 6593.500
968.661; 3636.750; 3217.300; 6344.100
969.216; 3274.250; 2874.550; 6062.400
969.770; 3617.200; 3217.650; 5785.500
970.324; 3622.800; 3254.350; 5426.800
970.879; 3806.400; 3406.200; 5016.800
971.433; 3846.000; 3469.200; 4904.500
971.987; 3554.500; 3176.500; 4991.000
972.541; 3681.000; 3289.150; 4978.500
973.095; 4150.300; 3769.950; 4832.000
973.649; 3079.950; 2701.100; 4767.900
974.203; 3193.900; 2826.700; 4881.200
974.757; 3335.300; 2957.400; 4969.500
975.311; 3444.450; 3099.850; 4953.000
975.865; 3505.450; 3132.000; 4884.300
976.419; 3374.800; 3016.200; 4739.800
976.973; 3333.750; 2967.900; 4698.100
977.526; 3887.750; 3539.750; 4631.100
978.080; 3069.950; 2719.950; 4621.600
978.634; 3698.200; 3373.250; 4650.200
979.187; 3667.000; 3329.300; 4669.200
979.741; 4273.050; 3920.100; 4658.000
980.294; 3077.550; 2728.850; 4579.100
980.848; 2713.950; 2385.800; 4452.800
981.401; 3269.950; 2938.700; 4271.900
981.955; 3451.250; 3122.100; 4087.800
982.508; 2917.100; 2596.550; 3973.900
983.061; 3837.200; 3511.650; 3928.600
983.615; 3172.650; 2864.250; 3851.200
984.168; 3038.550; 2731.750; 3734.800
984.721; 3640.650; 3315.350; 3628.300
985.274; 3544.950; 3248.550; 3564.300
985.827; 3408.700; 3126.500; 3558.100
986.380; 2822.850; 2523.850; 3559.900
986.933; 3572.350; 3277.950; 3688.700
987.486; 3568.150; 3280.750; 3778.500
988.039; 3538.800; 3278.200; 3559.900
988.591; 3785.950; 3494.400; 3219.300
989.144; 2952.050; 2681.750; 2902.900
989.697; 3102.950; 2832.250; 2722.600
990.250; 3664.600; 3377.950; 2618.000
990.802; 3117.700; 2868.550; 2523.900
991.355; 4337.000; 4067.550; 2436.500
991.907; 3753.100; 3500.525; 2412.200
992.460; 3169.200; 2933.500; 2387.900
993.012; 3189.200; 2944.500; 2365.800
993.565; 2975.050; 2742.700; 2311.100
994.117; 4253.350; 3997.250; 2308.700
994.669; 2983.600; 2743.250; 2249.300
995.221; 3496.900; 3276.350; 2158.100
995.774; 3457.850; 3232.850; 2085.600
996.326; 3207.900; 3002.500; 2068.100
996.878; 3762.400; 3550.000; 1975.300
997.430; 3042.350; 2832.800; 1929.500
997.982; 3328.200; 3114.350; 1861.900
998.534; 3293.550; 3079.500; 1830.200
999.086; 3267.250; 3080.400; 1823.200
999.638; 2869.000; 2675.850; 1815.000
1000.190; 3114.100; 2926.950; 1796.600
1000.741; 3346.350; 3148.450; 1738.800
1001.293; 3042.250; 2849.700; 1666.200
1001.845; 3032.500; 2838.350; 1566.500
1002.396; 3399.300; 3204.050; 1471.900
1002.948; 3369.600; 3172.500; 1398.000
1003.500; 3294.500; 3107.700; 1356.500
1004.051; 4340.100; 4128.400; 1294.200
1004.603; 3736.450; 3553.050; 1190.000
1005.154; 2762.950; 2604.050; 1063.900
1005.705; 3387.250; 3223.450;  968.300
1006.257; 3330.700; 3172.950;  889.800
1006.808; 3221.550; 3078.150;  801.500
1007.359; 3686.400; 3544.250;  716.400
1007.910; 3055.550; 2920.100;  639.100
1008.461; 3536.950; 3405.550;  561.600
1009.013; 2777.550; 2638.450;  500.400
1009.564; 3872.650; 3740.150;  476.100
1010.115; 2814.550; 2688.250;  431.600
1010.665; 2867.700; 2745.000;  409.300
1011.216; 3214.450; 3103.700;  399.700
1011.767; 3354.050; 3217.900;  388.100
1012.318; 3514.600; 3410.550;  381.400
1012.869; 3251.650; 3111.850;  375.400
1013.419; 2867.800; 2737.350;  357.600
1013.970; 3229.250; 3123.100;  358.300
1014.521; 2939.800; 2826.000;  344.100
1015.071; 3260.000; 3144.400;  322.800
1015.622; 3047.250; 2938.550;  320.600
1016.172; 2854.350; 2744.450;  301.700
1016.723; 2948.400; 2827.350;  289.800
1017.273; 2917.300; 2795.650;  287.600
1017.823; 3137.800; 3030.550;  278.700
1018.374; 2951.100; 2835.900;  274.400
1018.924; 3517.650; 3392.300;  283.200
1019.474; 3475.800; 3375.500;  278.500
1020.024; 3180.300; 3070.150;  274.700
1020.574; 3546.350; 3450.500;  272.700
1021.124; 3296.400; 3187.200;  278.400
1021.674; 2682.250; 2577.450;  269.200
1022.224; 3489.450; 3382.700;  267.800
1022.774; 3235.300; 3140.650;  258.100
1023.324; 3726.650; 3603.750;  260.000
1023.874; 4402.450; 4296.550;  260.700
1024.423; 2964.850; 2871.350;  252.700
1024.973; 2929.850; 2810.850;  234.700
1025.523; 3008.200; 2908.150;  226.500
1026.072; 2938.800; 2839.150;  225.500
1026.622; 3316.000; 3205.850;  210.100
1027.172; 3510.350; 3417.050;  213.000
1027.721; 2905.150; 2806.750;  207.700
1028.270; 3284.600; 3188.850;  205.400
1028.820; 3135.650; 3028.250;  201.000
1029.369; 2999.200; 2897.000;  201.000
1029.918; 3157.900; 3064.000;  198.400
1030.468; 2743.850; 2639.150;  199.200
1031.017; 3134.000; 3030.550;  192.600
1031.566; 2982.650; 2886.650;  197.400
1032.115; 3431.750; 3326.550;  188.300
1032.664; 2955.050; 2847.400;  193.700
1033.213; 3646.250; 3540.000;  191.900
1033.762; 3118.600; 3012.500;  184.500
1034.311; 3361.350; 3248.900;  194.300
1034.860; 3408.950; 3313.250;  192.300
1035.408; 3604.350; 3520.300;  182.600
1035.957; 3550.150; 3460.550;  173.900
1036.506; 2558.200; 2477.900;  185.200
1037.055; 4246.450; 4143.100;  182.500
1037.603; 3304.600; 3190.300;  167.600
1038.152; 2591.000; 2488.400;  168.200
1038.700; 2853.200; 2773.100;  169.600
1039.249; 3370.000; 3282.400;  164.300
1039.797; 3145.300; 3028.700;  169.600
1040.345; 3495.750; 3410.200;  167.100
1040.894; 3105.250; 3023.800;  164.400
1041.442; 3151.000; 3048.250;  158.300
1041.990; 2757.250; 2680.650;  160.000
1042.538; 2627.750; 2544.200;  156.800
1043.087; 2795.450; 2691.650;  146.600
1043.635; 3360.900; 3272.250;  162.400
1044.183; 2919.550; 2833.000;  156.300
1044.731; 2847.700; 2748.650;  158.100
1045.279; 3358.150; 3272.550;  154.500
1045.827; 4553.600; 4447.750;  146.200
1046.374; 2509.750; 2429.100;  154.000
1046.922; 2911.450; 2832.250;  149.000
1047.470; 3454.500; 3382.600;  154.900
1048.018; 3253.050; 3169.550;  148.400
1048.565; 3581.600; 3503.450;  146.300
1049.113; 2721.650; 2642.200;  156.100
1049.660; 3107.700; 3015.750;  154.300
1050.208; 3368.350; 3280.300;  149.400
1050.755; 3022.300; 2940.200;  157.500
1051.303; 3439.550; 3360.300;  157.700
1051.850; 3157.250; 3064.700;  152.800
1052.397; 2332.600; 2224.000;  146.300
1052.945; 3083.000; 2993.300;  149.500
1053.492; 3744.550; 3655.750;  149.300
1054.039; 3629.950; 3553.450;  163.100
1054.586; 2770.950; 2689.000;  150.400
1055.133; 3486.000; 3408.800;  153.500
1055.680; 3236.900; 3141.700;  155.600
1056.227; 2673.050; 2591.100;  148.700
1056.774; 4021.400; 3934.400;  151.500
1057.321; 2594.900; 2497.900;  143.700
1057.868; 3245.900; 3163.450;  145.300
1058.415; 3259.300; 3180.750;  153.500
1058.961; 3390.550; 3305.900;  149.900
1059.508; 3217.350; 3125.750;  147.300
1060.055; 2908.950; 2846.550;  151.000
1060.601; 3100.600; 3017.200;  148.700
1061.148; 3141.500; 3050.800;  153.800
1061.694; 2974.100; 2886.100;  150.500
1062.241; 2981.400; 2895.950;  149.100
1062.787; 3352.900; 3267.600;  153.000
1063.334; 4069.800; 3977.950;  153.200
1063.880; 3390.950; 3310.600;  148.400
1064.426; 3578.650; 3486.900;  149.200
1064.972; 2991.800; 2916.200;  156.400
1065.518; 2846.450; 2745.750;  144.700
1066.065; 3161.200; 3085.050;  139.400
1066.611; 3012.100; 2934.800;  139.300
1067.157; 3220.400; 3152.650;  138.400
1067.703; 3388.000; 3304.550;  142.700
1068.249; 3003.550; 2929.500;  136.700
1068.794; 3146.550; 3066.900;  139.400
1069.340; 2881.250; 2812.300;  142.700
1069.886; 2983.400; 2898.150;  135.600
1070.432; 2698.850; 2626.050;  133.400
1070.977; 3044.900; 2958.900;  138.200
1071.523; 2830.600; 2759.500;  132.400
1072.068; 2891.800; 2822.600;  132.700
1072.614; 2629.000; 2543.300;  127.000
1073.160; 3508.200; 3439.050;  131.300
1073.705; 2900.900; 2827.350;  135.700
1074.250; 2806.250; 2745.150;  133.000
1074.796; 3321.750; 3251.800;  138.000
1075.341; 3347.750; 3287.550;  137.300
1075.886; 2975.300; 2906.250;  134.300
1076.431; 3337.500; 3269.600;  138.200
1076.976; 3269.150; 3169.850;  132.200
1077.521; 2929.450; 2852.750;  138.900
1078.067; 2936.800; 2877.550;  128.600
1078.612; 3410.750; 3337.100;  138.900
1079.156; 3044.800; 2964.300;  128.900
1079.701; 3531.250; 3461.200;  129.700
1080.246; 3524.300; 3472.100;  128.600
1080.791; 3200.900; 3126.450;  122.600
1081.336; 3337.300; 3267.050;  122.000
1081.880; 3287.900; 3235.450;  123.900
1082.425; 2885.050; 2817.050;  120.600
1082.970; 3660.500; 3585.800;  124.500
1083.514; 3035.650; 2964.550;  112.000
1084.059; 2962.500; 2881.350;  120.700
1084.603; 2872.750; 2813.400;  116.000
1085.147; 3292.850; 3233.650;  116.300
1085.692; 3678.550; 3605.850;  108.200
1086.236; 2540.400; 2467.450;  114.600
1086.780; 3854.700; 3788.950;  118.900
1087.325; 3352.800; 3278.100;  120.400
1087.869; 3123.300; 3065.000;  110.500
1088.413; 3589.400; 3514.400;  114.000
1088.957; 2719.350; 2657.500;  114.300
1089.501; 3946.200; 3866.800;  114.600
1090.045; 3743.750; 3647.650;  114.200
1090.589; 2892.450; 2823.050;  105.500
1091.133; 3436.500; 3370.250;  111.800
1091.676; 2966.600; 2906.550;  110.900
1092.220; 3055.300; 3001.500;  110.100
1092.764; 3616.850; 3559.850;  108.100
1093.307; 3420.900; 3374.050;  109.900
1093.851; 2828.350; 2764.850;  107.500
1094.395; 3515.400; 3464.300;   96.200
1094.938; 3220.150; 3176.450;   99.300
1095.482; 2841.300; 2777.700;   97.700
1096.025; 3637.500; 3584.200;   84.900
1096.568; 3975.400; 3894.400;   88.500
1097.112; 2539.850; 2500.700;   95.700
1097.655; 3029.300; 2976.900;   97.300
1098.198; 3040.000; 2987.450;   92.600
1098.741; 3147.000; 3073.000;   91.800
1099.285; 3357.700; 3288.950;   88.000
1099.828; 2218.350; 2167.850;   91.700
1100.371; 3147.550; 3062.250;   89.900
1100.914; 3517.400; 3450.800;   91.500
1101.457; 3469.550; 3415.400;   88.100
1101.999; 2958.500; 2903.450;   86.400
1102.542; 3267.050; 3213.850;   90.800
1103.085; 3384.250; 3327.750;   95.400
1103.628; 3948.700; 3890.900;   97.700
1104.170; 2989.400; 2925.350;   84.000
1104.713; 3309.700; 3260.600;   93.900
1105.256; 2849.550; 2790.400;   93.000
1105.798; 2559.300; 2509.350;   85.600
1106.341; 3767.400; 3711.650;   87.100
1106.883; 2658.700; 2602.700;   85.200
1107.425; 3447.600; 3392.850;   85.000
1107.968; 3172.550; 3120.200;   84.300
1108.510; 3516.600; 3469.550;   88.200
1109.052; 3179.900; 3127.500;   86.600
1109.594; 2876.550; 2818.200;   79.400
1110.136; 3322.950; 3252.450;   81.700
1110.679; 3225.000; 3169.300;   75.500
1111.221; 3131.350; 3058.750;   88.500
1111.763; 2850.600; 2783.600;   87.700
1112.304; 2791.800; 2733.150;   89.700
1112.846; 3438.950; 3379.650;   81.900
1113.388; 4908.150; 4868.150;   86.400
1113.930; 3593.800; 3517.100;   84.700
1114.472; 3132.500; 3076.650;   78.900
1115.013; 2819.650; 2768.850;   78.100
1115.555; 3043.150; 2999.550;   84.900
1116.097; 2960.700; 2900.700;   79.200
1116.638; 3551.300; 3511.250;   83.700
1117.180; 3406.900; 3365.700;   85.500
1117.721; 2968.050; 2905.200;   78.800
1118.262; 3503.250; 3457.150;   77.400
1118.804; 3272.900; 3228.500;   81.400
1119.345; 3000.850; 2952.800;   77.800
1119.886; 3652.600; 3589.850;   81.200
1120.427; 3018.950; 2983.550;   77.200
1120.969; 3095.750; 3047.550;   75.200
1121.510; 2919.850; 2856.600;   80.900
1122.051; 3747.700; 3698.400;   77.300
1122.592; 3413.050; 3354.800;   73.300
1123.133; 2804.950; 2752.350;   90.100
1123.673; 3675.600; 3621.550;   75.000
1124.214; 3173.250; 3111.950;   80.600
1124.755; 3330.250; 3265.500;   78.000
1125.296; 3206.100; 3158.950;   77.500
1125.836; 3571.850; 3524.950;   80.400
1126.377; 3111.900; 3070.600;   75.600
1126.918; 3216.550; 3158.000;   78.900
1127.458; 3208.500; 3180.150;   78.000
1127.999; 3397.850; 3357.850;   76.100
1128.539; 3599.500; 3535.500;   81.400
1129.079; 3303.100; 3258.850;   77.400
1129.620; 2877.900; 2839.800;   68.000
1130.160; 2789.900; 2740.700;   77.500
1130.700; 3329.250; 3267.000;   76.300
1131.240; 3342.750; 3292.800;   66.800
1131.781; 3233.400; 3179.900;   70.600
1132.321; 3135.700; 3081.550;   77.200
1132.861; 2903.650; 2850.850;   70.400
1133.401; 3100.300; 3042.950;   68.700
1133.941; 3254.800; 3210.250;   68.500
1134.481; 3142.050; 3076.550;   75.900
1135.020; 3157.250; 3106.950;   66.600
1135.560; 3476.550; 3449.250;   68.100
1136.100; 2586.650; 2539.250;   64.900
1136.640; 2655.150; 2617.650;   72.500
1137.179; 2777.250; 2736.600;   69.700
1137.719; 3154.250; 3106.700;   68.400
1138.258; 3055.700; 3005.100;   67.000
1138.798; 3430.700; 3401.750;   69.600
1139.337; 2491.100; 2450.900;   64.000
1139.877; 3344.100; 3301.250;   64.500
1140.416; 4553.600; 4493.700;   74.900
1140.955; 2750.750; 2706.800;   67.200
1141.494; 3516.700; 3466.950;   69.900
1142.034; 3040.650; 2982.500;   59.100
1142.573; 3359.600; 3309.250;   65.900
1143.112; 2875.800; 2840.000;   70.600
1143.651; 2804.150; 2757.500;   67.100
1144.190; 3611.200; 3565.750;   56.700
1144.729; 3160.650; 3117.050;   61.800
1145.267; 3032.850; 2980.150;   62.500
1145.806; 3324.950; 3273.900;   68.500
1146.345; 3361.250; 3290.400;   58.300
1146.884; 3266.400; 3224.900;   63.100
1147.422; 2778.600; 2726.700;   54.800
1147.961; 3713.250; 3670.700;   67.600
1148.500; 3500.950; 3445.700;   64.700
1149.038; 3316.350; 3280.950;   61.000
1149.577; 3650.950; 3620.550;   65.100
1150.115; 2343.100; 2305.150;   58.100
1150.653; 3167.200; 3136.150;   60.500
1151.192; 2898.400; 2861.500;   56.600
1151.730; 3429.950; 3386.450;   62.300
1152.268; 3068.250; 3019.950;   55.500
1152.806; 3008.900; 2967.600;   58.200
1153.344; 3000.750; 2961.100;   55.000
1153.882; 3122.300; 3083.300;   64.200
1154.421; 2443.500; 2405.850;   60.300
1154.958; 3137.550; 3091.950;   58.100
1155.496; 3376.450; 3327.500;   55.800
1156.034; 3773.050; 3745.800;   61.000
1156.572; 3506.900; 3457.550;   56.200
1157.110; 2451.150; 2423.050;   53.200
1157.647; 3534.200; 3501.850;   57.400
1158.185; 2970.050; 2925.650;   55.500
1158.723; 2673.100; 2619.950;   58.000
1159.260; 3658.900; 3598.900;   53.700
1159.798; 3443.550; 3406.100;   51.700
1160.335; 3292.400; 3257.400;   59.600

