gmr_right
Integration time [ms]: 2152.735
Averaging Nr. [scans]: 20
Smoothing Nr. [pixels]: 0
Data measured with spectrometer [name]: 7414430SP
Wave   ;Sample   ;Dark     ;Reference
[nm]   ;[counts] ;[counts] ;[counts] 

288.544; 3207.411; 3108.699;    6.613
289.143; 2642.200; 2535.224;   14.216
289.742; 3431.782; 3309.371;   11.816
290.341; 3263.305; 3178.834;   -4.936
290.940; 2996.600; 2883.297;    0.852
291.538; 3776.350; 3676.572;    1.792
292.137; 3334.501; 3225.295;    6.262
292.736; 4326.205; 4214.734;    8.164
293.335; 3071.843; 2957.363;   -6.418
293.934; 3291.934; 3189.036;   -2.904
294.532; 4654.977; 4544.178;   -5.162
295.131; 3677.809; 3567.669;  -10.283
295.730; 3556.434; 3461.108;  -16.141
296.328; 3431.373; 3341.285;  -14.740
296.927; 3411.772; 3299.035;   -8.768
297.525; 3397.043; 3291.685;  -15.255
298.124; 2776.727; 2668.372;  -22.063
298.722; 3337.946; 3216.651;  -14.796
299.321; 3044.589; 2956.017;  -10.466
299.919; 3291.382; 3183.860;  -10.979
300.518; 2992.936; 2897.000;  -12.077
301.116; 3000.607; 2886.998;  -13.509
301.715; 3189.225; 3090.855;  -11.939
302.313; 3090.493; 2976.882;  -15.424
302.911; 3259.464; 3168.427;  -19.833
303.509; 4283.711; 4169.813;   -3.567
304.108; 3369.665; 3297.328;   -9.553
304.706; 3619.187; 3501.974;   -8.582
305.304; 3650.338; 3566.269;  -12.348
305.902; 3491.658; 3397.120;  -14.411
306.500; 3248.618; 3160.894;   -7.194
307.098; 3361.092; 3278.060;   -9.322
307.696; 3581.704; 3488.280;  -19.192
308.294; 3317.375; 3218.902;   -9.736
308.892; 3467.350; 3350.766;  -15.482
309.490; 3177.411; 3084.987;  -14.107
310.088; 3651.615; 3548.150;  -15.862
310.686; 3762.152; 3661.836;  -10.781
311.284; 3508.839; 3417.191;  -14.878
311.882; 3281.482; 3204.307;   -9.948
312.480; 3148.237; 3059.570;  -15.503
313.078; 3795.634; 3697.003;  -17.262
313.675; 3120.118; 3024.844;   -3.694
314.273; 3743.618; 3641.043;  -18.246
314.871; 2604.202; 2519.358;  -15.190
315.468; 2964.364; 2876.877;  -12.633
316.066; 3168.315; 3089.602;   -5.765
316.664; 2991.933; 2898.404;  -14.317
317.261; 4329.709; 4259.115;   -8.677
317.859; 3664.404; 3582.904;  -11.804
318.456; 3964.798; 3866.345;   -3.107
319.054; 3719.878; 3654.792;   -3.062
319.651; 3564.681; 3502.811;   -6.706
320.249; 3898.031; 3810.061;   -5.206
320.846; 3370.450; 3280.564;   -4.679
321.443; 4046.083; 3954.507;   -7.920
322.041; 3954.952; 3865.784;  -14.105
322.638; 3367.145; 3275.676;   -6.263
323.235; 3105.694; 3042.982;   -7.424
323.833; 3544.234; 3470.606;  -14.765
324.430; 2851.466; 2761.726;  -10.550
325.027; 4276.851; 4188.563;   -9.951
325.624; 2970.925; 2864.004;   -3.712
326.221; 3206.235; 3094.978;   -9.368
326.818; 3913.304; 3802.429;   -5.637
327.415; 3456.877; 3349.500;   -6.699
328.012; 3148.353; 3035.611;   -5.713
328.609; 3333.596; 3224.727;   -9.983
329.206; 3652.708; 3532.097;   -7.154
329.803; 3375.631; 3248.013;   -1.682
330.400; 3167.365; 3045.404;   -2.741
330.997; 3758.438; 3619.697;   -4.339
331.594; 3646.352; 3501.734;  -10.278
332.191; 3231.498; 3116.920;   -6.967
332.787; 3847.641; 3724.013;   -0.480
333.384; 3428.070; 3289.438;  -10.333
333.981; 3715.545; 3590.298;  -19.900
334.578; 3102.005; 2969.997;  -19.816
335.174; 3219.003; 3092.578;  -15.844
335.771; 3813.701; 3691.906;  -12.670
336.367; 3183.989; 3057.935;  -21.124
336.964; 3636.172; 3519.303;  -18.226
337.561; 3299.154; 3161.723;  -13.311
338.157; 4274.127; 4139.463;  -19.006
338.754; 3665.551; 3539.853;  -19.418
339.350; 3255.745; 3121.468;  -29.433
339.946; 3486.056; 3353.616;  -16.622
340.543; 3919.199; 3804.481;  -16.744
341.139; 3280.655; 3173.990;  -21.841
341.735; 3613.577; 3498.133;  -25.012
342.332; 3156.730; 3049.651;  -19.156
342.928; 3701.445; 3579.939;  -20.443
343.524; 3581.670; 3470.325;  -14.397
344.120; 3454.960; 3337.625;  -20.654
344.716; 3293.116; 3186.489;   -5.730
345.313; 3753.729; 3626.631;  -10.929
345.909; 2815.951; 2707.501;  -19.843
346.505; 3467.571; 3343.427;  -19.645
347.101; 3890.290; 3770.280;   -9.618
347.697; 3694.484; 3581.695;  -10.305
348.293; 2817.318; 2710.684;  -23.189
348.889; 3497.164; 3361.245;  -18.418
349.485; 3146.781; 3030.202;  -10.476
350.081; 3625.804; 3512.044;  -17.320
350.676; 3214.276; 3109.615;  -21.088
351.272; 3814.995; 3684.294;  -12.821
351.868; 3619.516; 3488.766;  -13.165
352.464; 3351.807; 3240.363;  -12.464
353.059; 2975.391; 2855.452;  -22.547
353.655; 3675.570; 3549.232;   -9.379
354.251; 3545.683; 3445.800;   -8.266
354.846; 3480.753; 3370.948;  -17.705
355.442; 3518.260; 3399.353;   -9.317
356.038; 3512.513; 3385.948;  -11.049
356.633; 3383.119; 3270.882;  -10.006
357.229; 3401.167; 3289.287;  -13.120
357.824; 3287.198; 3174.533;  -15.647
358.420; 3140.755; 3026.268;  -19.204
359.015; 3194.372; 3073.075;  -12.263
359.610; 3623.921; 3500.029;  -16.421
360.206; 2769.674; 2649.219;  -20.074
360.801; 2948.224; 2841.571;  -13.277
361.396; 3390.906; 3262.217;   -5.822
361.992; 3114.249; 3000.733;  -11.247
362.587; 3119.448; 3024.385;  -21.502
363.182; 3209.463; 3094.822;   -7.461
363.777; 3515.530; 3387.129;   -8.719
364.372; 3492.840; 3376.429;  -14.590
364.967; 3213.415; 3080.715;  -15.145
365.563; 3865.618; 3759.886;   -7.192
366.158; 3200.835; 3092.218;   -5.662
366.753; 3017.122; 2900.501;   -8.378
367.348; 3546.648; 3436.360;  -14.990
367.942; 3260.284; 3152.594;   -6.005
368.537; 3575.307; 3461.988;  -11.504
369.132; 3321.239; 3222.983;  -10.576
369.727; 2972.526; 2844.688;  -12.573
370.322; 2710.702; 2609.549;  -11.560
370.917; 3383.875; 3269.715;  -10.388
371.511; 4212.219; 4081.183;   -9.161
372.106; 3773.515; 3644.565;  -10.245
372.701; 2746.813; 2642.120;  -10.158
373.296; 4172.112; 4042.225;   -4.719
373.890; 3071.398; 2986.934;  -11.802
374.485; 3333.251; 3235.774;  -13.500
375.079; 3577.833; 3484.222;   -6.276
375.674; 3954.472; 3854.349;   -0.447
376.268; 3295.831; 3198.927;   -6.916
376.863; 2768.343; 2682.844;  -14.483
377.457; 3170.420; 3074.830;   -6.903
378.052; 3721.917; 3602.985;   -9.844
378.646; 3629.768; 3540.258;  -12.601
379.240; 3510.277; 3423.335;  -14.715
379.835; 3074.362; 2983.649;  -12.331
380.429; 2682.319; 2581.057;   -9.074
381.023; 3845.736; 3740.162;   -1.729
381.617; 3311.405; 3207.240;  -13.714
382.212; 3343.646; 3227.738;   -7.060
382.806; 3728.370; 3643.230;   -2.303
383.400; 3300.290; 3224.877;   -0.815
383.994; 3283.449; 3216.554;   -4.429
384.588; 3444.689; 3352.757;   -6.261
385.182; 3604.312; 3507.575;    0.008
385.776; 3510.686; 3437.041;   -3.247
386.370; 3371.190; 3292.404;   -1.030
386.964; 3386.987; 3312.761;   -1.346
387.558; 2938.723; 2854.898;   -2.020
388.152; 3389.952; 3309.773;   -5.345
388.745; 4117.393; 4036.423;   -2.774
389.339; 3695.809; 3612.983;    3.510
389.933; 3413.997; 3329.363;    5.280
390.527; 4360.979; 4272.356;    2.610
391.120; 2969.785; 2882.766;   -7.914
391.714; 3544.427; 3458.361;   -1.903
392.308; 3936.500; 3861.656;    6.023
392.901; 3244.846; 3154.065;   -4.103
393.495; 2996.270; 2927.354;    3.284
394.089; 3907.984; 3842.619;    8.655
394.682; 3558.483; 3496.196;    2.312
395.275; 3648.466; 3601.888;   -7.402
395.869; 3416.615; 3345.816;   -1.072
396.462; 3115.026; 3045.938;    6.454
397.056; 3932.490; 3857.206;    8.494
397.649; 3740.187; 3678.812;    1.599
398.242; 3654.111; 3586.076;    3.153
398.836; 3926.160; 3838.979;   11.395
399.429; 3176.992; 3113.075;   14.695
400.022; 3413.683; 3327.469;    3.627
400.615; 4176.805; 4096.342;    8.383
401.208; 3493.216; 3436.291;   13.295
401.802; 3587.581; 3515.176;    6.211
402.395; 3531.533; 3455.469;    7.227
402.988; 3588.370; 3519.278;    2.700
403.581; 3262.615; 3199.718;   11.225
404.174; 3479.235; 3419.794;   18.922
404.767; 3238.975; 3181.342;   14.169
405.360; 3206.262; 3143.247;    8.999
405.953; 3890.817; 3837.714;   13.138
406.545; 3748.883; 3676.998;   13.937
407.138; 3157.293; 3107.346;   10.869
407.731; 3155.423; 3098.022;   12.768
408.324; 3361.894; 3299.047;   22.921
408.917; 3504.862; 3445.625;   15.308
409.509; 3821.976; 3768.664;   12.239
410.102; 3342.511; 3290.350;   13.741
410.695; 3422.983; 3363.524;   20.249
411.287; 3082.136; 3019.467;   21.793
411.880; 2996.010; 2952.532;   22.965
412.472; 3138.758; 3094.634;   15.082
413.065; 3280.687; 3240.714;   23.423
413.657; 2970.010; 2917.858;   21.077
414.250; 3313.539; 3276.635;   12.349
414.842; 3478.248; 3434.236;   20.423
415.434; 2960.501; 2908.455;   19.906
416.027; 3327.446; 3263.518;   26.574
416.619; 3692.543; 3648.924;   15.705
417.211; 3055.208; 3018.362;   17.791
417.804; 3205.124; 3157.876;   30.244
418.396; 3148.223; 3099.101;   24.177
418.988; 3402.184; 3340.623;   24.904
419.580; 2923.623; 2873.624;   20.692
420.172; 2781.550; 2740.058;   22.275
420.764; 3429.357; 3397.641;   26.773
421.356; 3286.358; 3260.038;   25.731
421.948; 3479.763; 3435.200;   24.876
422.540; 3472.538; 3423.190;   30.042
423.132; 3064.108; 3030.340;   32.728
423.724; 2860.118; 2833.865;   21.317
424.316; 3199.854; 3152.976;   29.359
424.908; 3029.765; 3007.624;   28.798
425.500; 3329.232; 3278.232;   30.512
426.092; 3312.534; 3265.801;   26.741
426.683; 3571.447; 3526.767;   27.029
427.275; 3289.409; 3251.189;   32.611
427.867; 3390.935; 3359.100;   33.796
428.458; 3739.684; 3721.427;   34.453
429.050; 3494.201; 3458.009;   34.255
429.642; 3818.463; 3786.681;   39.082
430.233; 2821.497; 2787.846;   41.138
430.825; 3771.624; 3715.304;   31.581
431.416; 3571.133; 3544.155;   35.755
432.008; 3290.392; 3246.784;   40.566
432.599; 3304.171; 3280.537;   46.322
433.190; 3250.895; 3209.351;   46.897
433.782; 2891.729; 2859.089;   41.069
434.373; 4496.405; 4463.452;   48.778
434.964; 3022.592; 2985.810;   50.078
435.556; 3212.242; 3167.958;   52.381
436.147; 3843.643; 3819.980;   38.251
436.738; 3544.450; 3510.288;   47.237
437.329; 3627.570; 3602.766;   61.304
437.920; 3331.804; 3309.077;   48.611
438.511; 2821.947; 2779.346;   44.910
439.103; 3120.159; 3069.594;   62.404
439.694; 3410.542; 3370.062;   63.075
440.285; 3760.624; 3730.055;   61.033
440.876; 4317.508; 4277.044;   57.249
441.466; 2843.724; 2815.606;   61.306
442.057; 3297.812; 3267.438;   65.773
442.648; 3772.175; 3720.278;   65.676
443.239; 3094.117; 3072.171;   55.963
443.830; 3520.731; 3492.939;   69.631
444.421; 3232.582; 3199.115;   69.943
445.011; 3432.449; 3414.467;   72.791
445.602; 3725.675; 3691.379;   68.848
446.193; 2325.741; 2310.015;   80.044
446.783; 3096.290; 3062.945;   82.599
447.374; 3399.626; 3368.051;   77.419
447.964; 3560.890; 3525.090;   72.605
448.555; 4054.096; 4023.979;   82.041
449.145; 3241.566; 3227.077;   76.230
449.736; 4013.498; 3968.996;   75.545
450.326; 3520.717; 3478.700;   67.945
450.917; 3305.856; 3263.829;   77.598
451.507; 2919.479; 2878.521;   68.027
452.097; 3687.989; 3655.145;   67.771
452.688; 3612.786; 3576.729;   62.884
453.278; 2647.462; 2601.614;   65.512
453.868; 3931.265; 3876.982;   71.796
454.458; 3151.557; 3117.676;   60.956
455.048; 3465.465; 3417.457;   62.356
455.639; 2689.117; 2659.628;   58.782
456.229; 3412.936; 3383.981;   65.209
456.819; 3605.504; 3572.662;   61.466
457.409; 3774.493; 3736.039;   59.967
457.999; 3542.347; 3499.381;   58.093
458.589; 3243.392; 3211.092;   59.536
459.179; 3451.230; 3421.247;   55.994
459.769; 2951.618; 2937.251;   43.624
460.358; 3834.672; 3783.942;   46.978
460.948; 3279.768; 3240.204;   49.821
461.538; 3093.909; 3074.550;   54.678
462.128; 3140.786; 3096.481;   49.309
462.717; 3333.470; 3275.375;   52.774
463.307; 3323.544; 3299.139;   48.101
463.897; 3056.849; 3014.176;   45.606
464.486; 4041.175; 4012.458;   45.010
465.076; 3453.443; 3417.591;   45.519
465.666; 2970.286; 2935.135;   50.058
466.255; 3729.477; 3700.830;   44.463
466.845; 3060.267; 3038.430;   41.206
467.434; 3399.014; 3366.414;   44.847
468.023; 2992.985; 2960.963;   46.760
468.613; 3325.642; 3292.492;   39.736
469.202; 2934.611; 2913.698;   46.461
469.791; 3383.201; 3338.074;   47.944
470.381; 3391.239; 3344.177;   47.529
470.970; 3237.647; 3186.382;   43.773
471.559; 3389.705; 3348.013;   41.646
472.148; 3005.333; 2971.743;   37.914
472.738; 3478.312; 3435.496;   48.071
473.327; 2801.720; 2753.877;   47.871
473.916; 3342.563; 3296.517;   37.716
474.505; 3400.738; 3367.657;   40.256
475.094; 3707.614; 3657.318;   43.269
475.683; 3583.870; 3557.677;   36.499
476.272; 3234.047; 3207.235;   44.542
476.861; 3098.653; 3059.245;   42.297
477.449; 3176.758; 3129.335;   46.878
478.038; 2984.214; 2950.792;   35.156
478.627; 3106.470; 3068.450;   42.514
479.216; 3374.906; 3316.190;   43.937
479.805; 3417.646; 3345.516;   51.393
480.393; 4627.822; 4560.472;   53.239
480.982; 3935.380; 3888.076;   38.955
481.571; 3793.033; 3748.347;   45.436
482.159; 2933.986; 2891.639;   51.007
482.748; 3565.775; 3513.391;   49.695
483.336; 3712.968; 3683.336;   48.280
483.925; 3197.765; 3147.740;   47.166
484.513; 3140.917; 3096.038;   55.404
485.102; 3382.371; 3370.852;   54.238
485.690; 4429.433; 4372.523;   55.748
486.278; 4246.966; 4203.166;   55.934
486.867; 3307.322; 3253.127;   57.106
487.455; 3774.815; 3728.116;   56.979
488.043; 2930.880; 2876.305;   57.564
488.631; 4251.238; 4198.761;   57.432
489.220; 3706.816; 3669.291;   63.646
489.808; 2800.348; 2750.635;   65.449
490.396; 3688.749; 3639.685;   61.977
490.984; 3137.398; 3084.312;   68.834
491.572; 3689.621; 3633.780;   70.775
492.160; 3484.480; 3445.355;   67.564
492.748; 3220.025; 3164.167;   66.808
493.336; 3747.587; 3689.615;   79.747
493.924; 3220.484; 3171.299;   88.688
494.512; 3673.075; 3626.792;   84.120
495.100; 3583.963; 3549.947;   86.250
495.687; 3820.061; 3765.830;  103.074
496.275; 3089.714; 3041.672;  108.717
496.863; 3235.226; 3171.316;  107.035
497.451; 3181.819; 3149.382;  117.993
498.038; 3365.192; 3301.329;  120.116
498.626; 3235.681; 3187.129;  143.059
499.214; 3451.366; 3427.265;  153.434
499.801; 3368.364; 3297.170;  175.121
500.389; 2783.757; 2734.691;  185.617
500.976; 3534.517; 3478.914;  215.789
501.564; 3391.096; 3344.766;  240.321
502.151; 2449.168; 2416.186;  267.007
502.738; 3187.604; 3143.022;  317.961
503.326; 3258.860; 3202.583;  361.216
503.913; 3407.865; 3349.796;  401.433
504.500; 3502.755; 3464.969;  446.492
505.088; 2986.326; 2940.615;  512.063
505.675; 3230.358; 3207.314;  586.387
506.262; 3236.635; 3197.643;  671.021
506.849; 3319.993; 3264.200;  759.062
507.436; 3741.897; 3671.141;  849.788
508.023; 3315.273; 3259.976;  944.288
508.610; 3650.095; 3626.669; 1020.690
509.197; 3539.704; 3500.544; 1089.052
509.784; 3324.923; 3268.000; 1133.776
510.371; 2778.736; 2732.494; 1165.501
510.958; 3390.963; 3333.174; 1251.735
511.545; 3903.846; 3841.115; 1350.248
512.132; 3309.638; 3269.537; 1525.945
512.719; 2969.564; 2904.346; 1834.933
513.305; 3056.472; 3014.200; 1965.349
513.892; 3850.006; 3815.690; 1963.265
514.479; 3406.766; 3351.841; 2046.446
515.066; 3730.942; 3667.653; 2252.803
515.652; 3403.155; 3360.069; 2567.247
516.239; 3611.218; 3545.411; 2636.919
516.825; 2834.899; 2776.834; 2482.304
517.412; 4184.586; 4138.191; 2427.031
517.998; 3251.752; 3194.100; 2540.463
518.585; 3205.718; 3164.135; 2609.007
519.171; 3399.184; 3325.448; 2842.088
519.758; 2902.584; 2833.522; 3090.703
520.344; 3689.323; 3619.750; 3176.076
520.930; 2956.717; 2915.413; 3295.037
521.516; 3539.150; 3473.483; 3500.959
522.103; 3905.968; 3821.738; 3736.704
522.689; 3224.279; 3153.232; 3971.022
523.275; 3777.126; 3706.089; 4213.778
523.861; 3280.361; 3230.053; 4190.361
524.447; 3736.982; 3680.653; 4070.602
525.033; 3814.531; 3733.204; 4088.892
525.619; 3066.826; 3010.790; 4416.851
526.205; 2893.981; 2821.577; 4836.835
526.791; 3232.397; 3172.865; 4885.903
527.377; 3117.781; 3062.228; 4544.907
527.963; 3407.736; 3363.263; 4321.995
528.549; 3475.410; 3420.105; 4473.979
529.135; 3050.208; 3005.262; 4788.663
529.721; 3356.619; 3311.658; 4888.577
530.306; 4540.210; 4471.055; 4775.779
530.892; 3191.434; 3124.620; 4793.906
531.478; 3138.039; 3069.984; 4956.948
532.063; 2996.952; 2931.051; 5136.936
532.649; 4135.642; 4049.225; 5336.867
533.235; 3014.707; 2960.439; 5748.092
533.820; 3846.369; 3754.061; 6456.875
534.406; 3262.410; 3212.379; 6590.167
534.991; 3020.798; 2963.936; 6179.622
535.576; 3285.636; 3226.866; 6098.691
536.162; 4578.711; 4510.604; 6441.234
536.747; 2882.254; 2808.395; 6816.224
537.333; 3045.774; 2998.117; 6889.752
537.918; 3308.575; 3240.517; 7154.280
538.503; 3121.883; 3034.573; 7150.848
539.088; 3483.283; 3392.647; 7253.308
539.673; 3205.756; 3138.563; 7625.180
540.259; 3093.488; 3020.885; 8226.793
540.844; 2729.581; 2660.354; 8745.092
541.429; 4051.864; 3974.795; 8762.553
542.014; 2839.161; 2757.176; 8871.497
542.599; 3479.625; 3399.167; 8886.008
543.184; 2932.152; 2861.499; 9079.139
543.769; 3106.816; 3023.214; 9076.182
544.354; 3190.190; 3126.929; 8354.081
544.938; 3461.040; 3368.529; 8236.809
545.523; 4024.634; 3939.620; 8222.179
546.108; 3334.279; 3254.456; 8114.082
546.693; 3305.330; 3220.753; 8535.912
547.278; 3328.118; 3219.809; 9238.322
547.862; 3302.790; 3216.581; 9034.405
548.447; 3703.520; 3642.753; 7795.011
549.031; 3205.633; 3137.269; 7485.099
549.616; 3435.614; 3366.044; 7626.308
550.201; 3125.666; 3061.313; 7627.909
550.785; 3616.292; 3531.222; 7859.125
551.370; 2905.410; 2836.053; 7990.654
551.954; 3695.956; 3618.387; 8196.468
552.538; 3615.249; 3523.756; 7959.495
553.123; 3117.263; 3013.245; 7964.826
553.707; 3234.747; 3142.858; 8515.957
554.291; 3874.317; 3786.887; 8724.024
554.876; 3678.283; 3580.045; 8524.211
555.460; 3124.838; 3046.708; 8704.456
556.044; 3112.611; 3002.824; 9141.473
556.628; 3342.455; 3258.865; 9250.197
557.212; 3824.680; 3717.555; 9444.237
557.796; 3262.588; 3167.857; 9379.783
558.380; 3502.499; 3401.028; 9353.658
558.964; 3413.955; 3312.991; 9210.310
559.548; 2903.769; 2787.956; 8475.153
560.132; 3204.666; 3107.461; 7954.084
560.716; 2964.402; 2874.370; 7489.529
561.300; 2932.230; 2828.179; 7211.952
561.884; 3600.148; 3483.307; 7141.313
562.467; 3554.839; 3439.905; 7155.386
563.051; 3363.923; 3254.143; 7323.158
563.635; 3301.670; 3161.450; 7709.114
564.219; 3354.099; 3234.680; 7678.855
564.802; 3595.115; 3459.739; 7376.187
565.386; 3397.077; 3272.408; 7054.372
565.969; 3907.696; 3778.364; 6589.196
566.553; 4281.512; 4116.496; 6279.371
567.136; 3874.947; 3731.159; 5967.930
567.720; 3434.091; 3280.998; 5660.703
568.303; 3554.672; 3399.670; 5648.615
568.887; 3447.336; 3309.162; 5618.443
569.470; 3553.409; 3386.802; 5411.875
570.053; 3719.602; 3532.571; 5149.274
570.637; 3174.463; 2973.946; 5122.798
571.220; 3766.984; 3567.342; 4957.369
571.803; 4346.754; 4145.464; 4933.018
572.386; 3364.768; 3153.505; 4840.973
572.969; 3357.681; 3140.823; 4592.886
573.552; 3434.933; 3210.843; 4348.387
574.135; 3159.228; 2912.629; 4002.290
574.718; 3293.687; 3035.059; 3654.773
575.301; 3291.433; 3024.167; 3502.288
575.884; 3289.180; 3013.275; 3349.803
576.467; 4026.791; 3701.548; 3191.403
577.050; 3735.610; 3390.675; 3062.418
577.633; 4461.148; 4050.031; 3214.200
578.216; 3580.750; 3181.025; 3284.889
578.799; 3613.400; 3177.899; 3189.777
579.381; 4692.810; 4189.702; 3064.502
579.964; 3538.897; 3010.208; 2888.357
580.547; 3956.361; 3337.398; 2905.760
581.129; 4507.236; 3861.057; 2966.849
581.712; 4141.439; 3433.550; 2887.292
582.294; 4043.406; 3304.409; 2771.631
582.877; 5022.515; 4222.413; 2711.602
583.459; 4146.275; 3262.984; 2577.049
584.042; 4174.393; 3211.365; 2454.707
584.624; 4035.102; 2951.392; 2305.893
585.206; 3732.899; 2581.002; 2189.546
585.789; 4320.052; 3091.519; 2112.577
586.371; 4791.583; 3449.589; 2153.065
586.953; 5074.022; 3579.091; 2197.806
587.536; 5483.500; 3818.325; 2105.489
588.118; 5044.697; 3191.652; 1963.911
588.700; 5890.893; 3831.815; 1843.179
589.282; 5743.518; 3476.380; 1813.834
589.864; 5803.334; 3331.888; 1777.620
590.446; 5346.489; 2649.573; 1733.780
591.028; 6212.916; 3296.008; 1676.008
591.610; 5852.431; 2710.146; 1631.649
592.192; 6603.401; 3336.645; 1632.362
592.774; 6270.295; 2922.185; 1569.507
593.356; 6695.611; 3067.894; 1524.539
593.937; 6989.977; 3048.507; 1569.720
594.519; 7984.568; 3684.453; 1569.049
595.101; 7400.226; 2743.182; 1545.452
595.683; 8176.263; 3079.413; 1607.568
596.264; 8888.686; 3245.234; 1615.506
596.846; 9196.743; 3138.738; 1667.622
597.427; 9554.396; 3060.179; 1670.469
598.009;10108.860; 3017.244; 1640.312
598.591;11195.875; 3574.385; 1541.022
599.172;11191.215; 3185.835; 1598.665
599.753;11430.533; 2831.036; 1619.068
600.335;12872.012; 3826.164; 1548.612
600.916;12664.214; 3241.086; 1607.510
601.498;13458.665; 3428.308; 1745.181
602.079;14060.984; 3288.809; 1801.011
602.660;14163.938; 3226.648; 1834.640
603.241;13638.234; 2600.535; 1787.351
603.823;14684.554; 3074.812; 1684.266
604.404;14940.651; 2871.291; 1654.241
604.985;15830.359; 3101.822; 1758.741
605.566;17019.756; 3623.108; 1697.679
606.147;17058.875; 3198.180; 1526.728
606.728;17172.732; 2839.988; 1484.086
607.309;18113.355; 3052.179; 1421.070
607.890;19029.486; 3098.028; 1369.867
608.471;19699.422; 2999.490; 1277.826
609.051;20513.465; 3366.831; 1180.416
609.632;20270.307; 2948.700; 1075.816
610.213;20995.463; 3204.514; 1053.313
610.794;21375.803; 3114.410;  979.442
611.374;21934.727; 3411.226;  917.414
611.955;21634.902; 2785.661;  819.987
612.536;22472.148; 3373.525;  752.627
613.116;22050.922; 3084.741;  690.799
613.697;22297.645; 3041.954;  674.974
614.277;22531.301; 2960.316;  663.846
614.858;22433.059; 3037.749;  665.898
615.438;22461.031; 3265.218;  660.712
616.019;24157.346; 3823.801;  632.732
616.599;24868.127; 2549.677;  551.759
617.179;26691.340; 2853.045;  512.871
617.760;27517.588; 4315.902;  473.655
618.340;26153.301; 3211.163;  440.004
618.920;27643.932; 3933.839;  429.731
619.500;27537.113; 3100.532;  441.361
620.080;27663.865; 2943.727;  425.202
620.660;27802.520; 2937.741;  408.164
621.241;27606.037; 3109.947;  387.161
621.821;27573.172; 3302.062;  378.017
622.401;28269.531; 3673.566;  379.188
622.980;27890.982; 2792.782;  350.019
623.560;27953.176; 3126.301;  336.446
624.140;25396.232; 3330.562;  336.473
624.720;24157.090; 3386.743;  334.974
625.300;24343.746; 2945.527;  325.717
625.880;25820.615; 3210.029;  308.519
626.459;27842.266; 3246.250;  307.117
627.039;27004.242; 2709.486;  290.890
627.619;28222.035; 4135.275;  286.635
628.198;28872.734; 3717.456;  282.535
628.778;30573.490; 3486.143;  285.474
629.357;30876.686; 2838.500;  284.103
629.937;29813.342; 3116.510;  292.178
630.516;29873.064; 3885.456;  290.749
631.096;29428.420; 2985.343;  285.489
631.675;31251.484; 3821.330;  287.022
632.254;30936.529; 2974.842;  286.038
632.834;30448.344; 3205.180;  276.451
633.413;31157.010; 3819.067;  279.447
633.992;31870.230; 3640.415;  264.508
634.571;32204.365; 3481.650;  271.010
635.151;31169.465; 2911.550;  277.338
635.730;30563.973; 3169.486;  289.305
636.309;29567.932; 3456.237;  285.306
636.888;29209.313; 3493.034;  254.051
637.467;28796.951; 2650.261;  230.324
638.046;31067.301; 3889.563;  253.349
638.625;30748.578; 3742.642;  246.866
639.204;30198.389; 3368.739;  240.825
639.782;30537.670; 3252.536;  261.970
640.361;31034.396; 3769.430;  277.780
640.940;30711.689; 3029.845;  270.101
641.519;31607.332; 3411.010;  248.622
642.097;32610.127; 3468.976;  239.843
642.676;31767.320; 3277.091;  244.264
643.255;31005.313; 3134.106;  234.985
643.833;31651.105; 3497.271;  244.406
644.412;29538.949; 3098.736;  244.927
644.990;28908.543; 3282.351;  249.948
645.569;29012.986; 3462.566;  249.569
646.147;29371.631; 3659.082;  243.290
646.726;29491.924; 3322.997;  249.511
647.304;29670.566; 3115.312;  228.032
647.882;29455.010; 2640.727;  214.552
648.461;30010.254; 3351.192;  214.973
649.039;29578.947; 3530.157;  223.394
649.617;28904.592; 3489.872;  261.415
650.195;28477.084; 3353.387;  298.736
650.773;28436.479; 3091.453;  309.557
651.352;26652.771; 2590.768;  297.978
651.930;24506.016; 2564.833;  289.399
652.508;25092.109; 3551.098;  285.620
653.086;25416.002; 3440.013;  272.241
653.663;26582.045; 2990.578;  265.062
654.241;27343.889; 2792.493;  286.083
654.819;27943.883; 2853.908;  286.404
655.397;27341.125; 2912.974;  291.825
655.975;26082.619; 3153.889;  299.145
656.553;27064.662; 3877.154;  288.866
657.130;27710.057; 2906.969;  304.087
657.708;29146.199; 3383.234;  302.908
658.286;29724.594; 3277.849;  294.629
658.863;29218.137; 3314.064;  293.350
659.441;29043.580; 3362.129;  318.671
660.018;27790.723; 3170.495;  333.692
660.596;26504.768; 2602.860;  335.013
661.173;27358.660; 3065.175;  371.534
661.750;27295.555; 2921.590;  365.155
662.328;27022.797; 3475.555;  349.976
662.905;25231.791; 3089.470;  332.997
663.482;23859.734; 3185.135;  321.717
664.060;23718.729; 2967.500;  314.438
664.637;24662.721; 3479.216;  306.259
665.214;26018.365; 3308.981;  314.580
665.791;25830.809; 3123.946;  334.501
666.368;25524.451; 3073.011;  329.222
666.945;26309.545; 3524.926;  342.143
667.522;25974.488; 2952.591;  370.964
668.099;26322.432; 3177.956;  396.885
668.676;26452.625; 3198.021;  391.706
669.253;27494.020; 3893.537;  369.627
669.830;27125.813; 3748.952;  360.348
670.407;27489.105; 3179.367;  344.769
670.984;28726.600; 3170.182;  322.890
671.560;29734.293; 3478.447;  316.910
672.137;29198.637; 3086.412;  322.531
672.714;28288.631; 3412.327;  318.552
673.290;27614.674; 3353.242;  324.473
673.867;27489.268; 3005.758;  340.594
674.443;27364.561; 2823.273;  319.515
675.020;27773.404; 3320.938;  286.336
675.596;27043.047; 3122.303;  247.557
676.173;25940.041; 2775.118;  227.778
676.749;25177.834; 2440.583;  224.399
677.326;25521.178; 2720.848;  230.520
677.902;26379.320; 2969.614;  241.841
678.478;26909.215; 2785.979;  239.762
679.054;29306.209; 4735.894;  248.583
679.631;27788.301; 3382.509;  237.503
680.207;29210.346; 4033.774;  245.924
680.783;28316.588; 2552.439;  224.845
681.359;29789.531; 3169.854;  209.666
681.935;29448.926; 3280.969;  191.687
682.511;28469.918; 3249.485;  210.008
683.087;27910.863; 3427.900;  213.329
683.663;27123.906; 3097.765;  216.850
684.239;26268.549; 2784.080;  229.471
684.815;26953.943; 3575.995;  248.792
685.390;27921.387; 4099.360;  231.813
685.966;27416.580; 3266.775;  221.234
686.542;27425.674; 2863.590;  214.255
687.118;28518.217; 3320.555;  212.276
687.693;28523.561; 3455.871;  233.096
688.269;28209.354; 3116.986;  246.917
688.844;27998.797; 3409.751;  236.938
689.420;27101.490; 3234.216;  242.059
689.995;28148.533; 3955.081;  245.480
690.571;28468.527; 3796.096;  244.701
691.146;27136.771; 3090.461;  251.922
691.722;27178.465; 3390.977;  284.743
692.297;27075.957; 3070.992;  320.664
692.872;26518.150; 2938.857;  313.885
693.448;26894.045; 2851.972;  290.106
694.023;27513.139; 3270.537;  304.327
694.598;27808.131; 3281.352;  319.648
695.173;28348.525; 3074.267;  323.169
695.748;28393.770; 2622.032;  376.389
696.323;28222.861; 3181.848;  397.610
696.898;28101.455; 3663.213;  430.231
697.473;26874.850; 2675.378;  454.952
698.048;26971.992; 3100.643;  478.973
698.623;26695.387; 2775.408;  477.094
699.198;28037.029; 3296.673;  496.915
699.773;28231.973; 2968.338;  490.236
700.348;29114.867; 2855.503;  519.957
700.922;29902.209; 3266.769;  575.678
701.497;30656.854; 3214.734;  621.399
702.072;30580.447; 3572.049;  664.420
702.646;28384.939; 3489.264;  690.541
703.221;27377.334; 3316.479;  748.862
703.795;27537.227; 2866.944;  774.282
704.370;27702.920; 2368.859;  799.803
704.944;27848.363; 3040.724;  875.824
705.519;28123.357; 3314.189;  902.945
706.093;28068.400; 2920.555;  889.266
706.668;30180.645; 3412.170;  903.487
707.242;29816.488; 3528.885;  881.708
707.816;27484.332; 3069.850;  892.329
708.390;25921.426; 3201.315;  970.250
708.965;25826.668; 3325.180;  984.671
709.539;26235.813; 3114.196; 1026.092
710.113;26707.105; 3252.260; 1067.913
710.687;27243.699; 3517.676; 1166.434
711.261;26675.643; 2833.341; 1190.854
711.835;26839.535; 2880.906; 1197.275
712.409;26558.180; 2653.871; 1308.096
712.983;26076.223; 2679.236; 1461.617
713.557;25404.365; 2685.901; 1611.838
714.131;24361.811; 3113.266; 1554.359
714.704;23040.854; 2895.082; 1520.780
715.278;23165.846; 3222.897; 1575.101
715.852;24390.641; 3470.012; 1689.822
716.425;26134.383; 4004.327; 1829.143
716.999;26119.027; 2639.792; 2008.664
717.573;27626.721; 3400.607; 2000.485
718.146;28692.465; 3920.772; 1914.506
718.720;27618.158; 3289.587; 1818.026
719.293;27714.000; 3420.603; 1734.147
719.867;28320.094; 2978.718; 1716.968
720.440;29503.838; 3762.983; 1918.589
721.013;28982.631; 3009.698; 1975.410
721.587;28359.275; 2699.613; 2073.331
722.160;28726.219; 3580.428; 2357.852
722.733;28292.762; 3255.993; 2657.073
723.306;27538.555; 3199.208; 2703.894
723.880;26609.398; 3275.924; 2549.415
724.453;26735.842; 3731.789; 2414.336
725.026;26662.236; 3028.604; 2298.557
725.599;27256.279; 3330.769; 2168.778
726.172;27146.172; 3408.434; 2106.099
726.745;26896.717; 3368.099; 2253.320
727.318;26478.459; 3569.714; 2404.740
727.891;25189.254; 3335.330; 2680.161
728.463;24714.047; 3299.945; 2838.882
729.036;24630.990; 2929.710; 2755.103
729.609;25070.184; 2886.525; 2731.824
730.182;25793.027; 3516.990; 2855.645
730.754;24494.570; 2429.705; 2946.866
731.327;24516.164; 3410.420; 2840.187
731.900;22848.557; 2693.685; 2647.608
732.472;23483.150; 3153.400; 2473.929
733.045;23434.344; 3088.916; 2445.750
733.617;22260.238; 2649.781; 2511.771
734.190;23056.131; 3402.746; 2581.592
734.762;21947.174; 3183.161; 2710.813
735.334;21093.367; 3226.876; 3005.733
735.907;21331.762; 3217.141; 3154.954
736.479;22611.705; 3646.706; 3171.675
737.051;23652.148; 3394.471; 3217.496
737.623;24650.791; 3454.537; 3246.217
738.195;24788.736; 2965.752; 2985.238
738.768;25011.328; 2505.117; 2727.559
739.340;26137.623; 3029.332; 2666.880
739.912;26504.566; 3500.247; 2769.601
740.484;27070.010; 3382.062; 2731.422
741.056;27250.803; 3095.677; 2963.043
741.628;27096.646; 2884.393; 3361.364
742.199;26118.289; 3726.758; 3641.185
742.771;23382.184; 2747.973; 3932.005
743.343;23736.627; 2892.188; 4319.926
743.915;25640.270; 3348.153; 4706.647
744.487;26784.564; 3424.018; 4874.968
745.058;26547.957; 3470.983; 4616.589
745.630;25888.100; 3443.048; 4253.410
746.201;25168.744; 3029.114; 4056.131
746.773;25144.287; 3400.929; 3772.952
747.344;24440.580; 3189.994; 3642.473
747.916;24240.725; 3284.209; 3752.294
748.487;24242.969; 3530.774; 4106.215
749.059;23254.311; 2812.789; 4457.835
749.630;22557.105; 2928.204; 4366.457
750.201;21935.598; 3174.669; 4600.078
750.773;21566.242; 2989.584; 4658.499
751.344;22074.635; 3218.450; 4609.319
751.915;21968.229; 3199.965; 4526.440
752.486;20844.473; 2936.130; 4536.061
753.057;20620.365; 3253.845; 4383.282
753.628;19441.109; 2929.210; 4296.503
754.199;20302.053; 3062.875; 4383.224
754.770;21329.396; 3447.690; 4653.545
755.341;21886.340; 3580.956; 4831.666
755.912;22376.184; 3144.621; 4831.387
756.483;23733.627; 3425.586; 4735.808
757.054;23434.570; 3037.201; 4685.029
757.625;23185.363; 2813.616; 4994.250
758.195;23245.607; 2715.581; 5051.471
758.766;24377.201; 3289.546; 5317.792
759.337;24109.994; 2678.361; 5646.512
759.907;23756.387; 2710.927; 5404.133
760.478;23693.131; 2981.742; 5090.954
761.048;23737.875; 3436.057; 4871.175
761.619;23435.967; 3347.172; 4589.396
762.189;23386.861; 3163.137; 4171.317
762.760;23684.654; 3487.402; 3872.538
763.330;23718.898; 3439.867; 3832.259
763.900;24156.141; 3307.282; 4150.180
764.471;23467.484; 2889.597; 4529.801
765.041;23772.629; 3647.513; 4715.922
765.611;24137.771; 3390.728; 4681.442
766.181;23969.865; 3151.943; 4717.063
766.751;23639.908; 3206.208; 4710.285
767.321;22871.402; 2792.273; 4450.305
767.891;22588.246; 3264.538; 4274.126
768.461;21728.488; 3133.903; 4215.047
769.031;21559.934; 3162.819; 4173.068
769.601;21884.775; 3616.234; 4174.689
770.171;20915.770; 2716.549; 4229.310
770.741;21304.414; 3070.114; 4352.031
771.311;21286.506; 3400.329; 4336.652
771.880;20588.051; 2883.294; 4300.873
772.450;20267.943; 2918.259; 4387.194
773.020;19668.938; 2672.274; 4220.415
773.589;19612.031; 2986.040; 4075.835
774.159;19570.975; 3001.155; 4105.756
774.729;19397.367; 2962.970; 4114.978
775.298;19999.961; 2956.985; 3693.298
775.867;20548.455; 2985.200; 3343.119
776.437;21096.648; 3189.415; 3062.040
777.006;20260.242; 2697.530; 2927.161
777.576;20557.686; 3412.845; 3046.482
778.145;20748.729; 3355.411; 3230.203
778.714;20336.322; 3134.176; 3253.324
779.283;20532.064; 3396.891; 3129.745
779.853;20600.258; 3144.606; 2983.566
780.422;20782.451; 3167.121; 2929.887
780.991;20729.295; 3361.886; 2863.908
781.560;20971.789; 3726.801; 2948.029
782.129;20669.232; 3306.616; 3074.149
782.698;20766.025; 3678.031; 2893.970
783.267;19581.770; 2957.447; 2721.391
783.836;19936.863; 3291.912; 2659.712
784.404;18767.156; 2793.427; 2622.233
784.973;17850.650; 2396.992; 2600.754
785.542;18679.693; 3138.857; 2528.475
786.111;18979.787; 3647.922; 2404.396
786.679;18339.480; 3399.337; 2365.717
787.248;16438.225; 2688.302; 2498.438
787.817;16140.667; 3005.118; 2645.659
788.385;17360.861; 3586.983; 2709.280
788.954;17553.404; 2722.048; 2620.500
789.522;18795.047; 3473.713; 2625.422
790.090;17852.141; 2745.878; 2743.843
790.659;18341.934; 3040.893; 2635.163
791.227;18817.277; 3102.208; 2495.484
791.795;18522.422; 3278.774; 2413.705
792.364;17628.314; 2861.989; 2345.326
792.932;18238.359; 3365.904; 2350.447
793.500;18069.102; 3074.819; 2429.768
794.068;17931.846; 2710.984; 2513.589
794.636;18530.539; 2902.149; 2664.310
795.204;18041.732; 2630.664; 2721.431
795.772;18327.625; 2893.129; 2802.052
796.340;18367.818; 2982.045; 2847.173
796.908;17632.563; 2635.510; 2997.194
797.476;17660.855; 2805.925; 3151.615
798.044;17519.150; 2584.190; 3110.735
798.612;17358.992; 3118.405; 2931.656
799.180;17031.037; 3221.920; 2785.777
799.747;16268.380; 3186.985; 2899.098
800.315;15657.474; 2742.900; 2955.519
800.883;16260.117; 2528.816; 2948.940
801.450;17210.461; 3132.981; 2965.361
802.018;17677.104; 3310.996; 3070.582
802.585;17541.248; 3164.661; 3156.103
803.153;17639.641; 2917.976; 3199.524
803.720;17876.484; 2940.291; 3168.845
804.287;17397.777; 3060.656; 3248.366
804.855;17543.021; 3522.221; 3406.187
805.422;16940.064; 3072.587; 3430.907
805.989;16650.107; 2879.402; 3453.528
806.556;16751.502; 2884.117; 3612.649
807.124;17321.496; 3489.532; 3736.570
807.691;16836.988; 2804.997; 3770.491
808.258;17240.982; 3153.362; 3705.012
808.825;17029.426; 3500.177; 3828.733
809.392;17102.818; 3747.692; 3986.754
809.959;16625.863; 3299.208; 4410.075
810.526;17082.605; 3767.823; 4774.996
811.093;16931.150; 3562.838; 4754.217
811.659;16017.443; 3128.103; 4661.238
812.226;15726.437; 3115.568; 4672.559
812.793;16174.530; 3263.933; 4822.979
813.360;16587.773; 3116.098; 5189.800
813.926;17073.816; 3289.164; 5310.622
814.493;16179.010; 2735.729; 5414.542
815.060;15659.954; 2560.044; 5548.963
815.626;15896.147; 2759.259; 5452.284
816.193;16332.990; 3232.324; 5339.305
816.759;16102.685; 2878.989; 5544.426
817.325;15431.577; 2569.604; 5706.547
817.892;15855.521; 3447.719; 5623.468
818.458;15635.515; 3307.734; 5586.689
819.024;16056.308; 3586.150; 5647.910
819.591;15538.701; 3149.865; 5762.031
820.157;15007.595; 2736.980; 6284.452
820.723;15350.639; 3309.295; 6906.973
821.289;16479.832; 4815.660; 7086.894
821.855;15134.476; 3390.275; 7054.915
822.421;14932.568; 2976.290; 7112.035
822.987;14742.712; 2804.456; 7256.156
823.553;15099.006; 3051.521; 7538.077
824.119;15184.100; 3497.936; 7594.298
824.685;14796.093; 3634.951; 7613.619
825.251;14150.187; 3431.966; 7644.140
825.816;14568.380; 3850.231; 7720.261
826.382;14420.173; 3417.596; 8014.282
826.948;14824.517; 3495.461; 8281.503
827.513;14582.460; 3081.677; 8289.624
828.079;14213.054; 2855.092; 8587.045
828.645;14158.447; 3266.957; 8821.865
829.210;13466.440; 2787.672; 9054.486
829.776;13769.584; 3378.837; 9054.607
830.341;13786.928; 3475.952; 9415.628
830.906;13504.171; 3587.367; 9932.449
831.472;12252.015; 2911.832;10150.271
832.037;12848.107; 3511.397; 9420.391
832.602;12775.352; 2986.963; 8664.912
833.167;13375.944; 3211.328; 8491.933
833.733;13784.389; 3502.643; 8872.854
834.298;12912.481; 2829.408; 9370.575
834.863;12868.476; 3292.073; 9610.695
835.428;12272.568; 3293.638; 9655.616
835.993;12231.462; 3384.553; 9437.838
836.558;12318.306; 3424.719; 9441.459
837.123;13304.599; 4203.833; 9600.979
837.688;12578.343; 3329.249; 9798.301
838.253;12247.486; 3300.764; 9902.921
838.817;11681.329; 3086.579;10339.742
839.382;11852.522; 3683.294;10548.363
839.947;10943.416; 3242.909;10252.484
840.511;11269.359; 3810.024;10040.005
841.076; 9870.054; 2557.090;10099.926
841.641;10600.747; 3415.755;10347.347
842.205;10699.040; 3300.270;10817.368
842.770;11402.733; 3933.585;11435.289
843.334;10499.228; 3139.050;12072.409
843.898;10256.771; 3026.015;12635.431
844.463;10609.364; 3706.230;12537.252
845.027; 9646.407; 3069.445;12759.673
845.591; 9967.501; 3536.611;12821.993
846.156; 9467.795; 3011.026;12520.914
846.720;10001.788; 3461.891;12390.436
847.284;10089.031; 3292.556;12956.456
847.848;10469.925; 3400.071;13240.177
848.412;10073.969; 3229.786;13216.998
848.976;10194.462; 3790.951;13014.619
849.540;10222.806; 4085.366;12355.740
850.104; 9881.699; 3769.731;12208.761
850.668; 8870.842; 2618.047;12106.882
851.232; 9051.036; 2690.312;11862.103
851.796; 9442.229; 3186.377;11700.523
852.359; 9498.822; 3523.442;12375.944
852.923; 9393.866; 3622.907;13087.966
853.487; 9242.609; 3467.122;13297.187
854.050; 8001.753; 2229.537;13851.207
854.614; 8892.646; 3075.002;14854.229
855.177; 9127.690; 3345.118;15802.149
855.741; 8907.134; 3372.683;16603.570
856.304; 8903.727; 3569.698;16359.891
856.868; 8074.771; 2899.963;14365.512
857.431; 8367.164; 3212.078;13361.333
857.995; 8373.457; 3131.543;14130.554
858.558; 8740.900; 3354.608;14883.175
859.121; 8877.494; 3526.023;15754.195
859.684; 8577.487; 3302.589;15995.017
860.247; 8337.531; 3220.754;15149.537
860.810; 8149.125; 3080.769;14640.358
861.374; 9152.918; 4121.834;15551.079
861.937; 7877.612; 2843.599;16519.801
862.500; 7950.005; 3037.314;16796.521
863.062; 7556.099; 2900.929;16538.742
863.625; 7715.692; 3345.945;16716.764
864.188; 7259.036; 3061.310;17055.084
864.751; 7202.329; 3054.625;17197.705
865.314; 7499.522; 3265.590;17151.625
865.876; 7824.416; 3597.705;17783.547
866.439; 7583.409; 3504.320;19283.467
867.002; 7834.003; 4041.385;20256.389
867.564; 7220.646; 3673.850;20485.410
868.127; 6659.990; 3243.166;20789.730
868.689; 6832.833; 3371.481;21981.951
869.252; 7216.077; 3653.396;23803.771
869.814; 6446.170; 2957.311;24974.094
870.377; 6754.714; 3339.426;24690.314
870.939; 8037.757; 4634.291;23963.436
871.501; 6733.400; 3317.056;25167.156
872.063; 5844.944; 2423.721;26995.477
872.626; 6061.888; 2643.287;27443.098
873.188; 6633.931; 3320.952;26718.418
873.750; 6362.674; 3183.817;26558.840
874.312; 6162.468; 3077.782;26701.561
874.874; 6904.412; 3897.947;27970.582
875.436; 6515.455; 3545.262;29173.402
875.998; 6568.999; 3760.177;30376.623
876.560; 6360.592; 3558.192;32507.344
877.122; 5805.335; 2972.758;34833.066
877.683; 6233.479; 3489.773;36458.285
878.245; 5615.372; 3084.888;37248.207
878.807; 5888.016; 3431.653;36758.027
879.369; 5319.959; 2817.818;35223.551
879.930; 5449.353; 2896.433;33824.969
880.492; 6245.846; 3719.498;34436.492
881.053; 5372.439; 2936.513;37745.313
881.615; 5351.483; 3049.928;41184.633
882.176; 5337.876; 3184.294;42871.555
882.738; 5646.920; 3543.059;41693.074
883.299; 4643.363; 2606.974;40289.895
883.860; 4656.357; 2682.289;39231.215
884.422; 5458.000; 3496.904;38264.039
884.983; 4833.644; 2900.669;37171.859
885.544; 5180.188; 3324.135;35842.379
886.105; 5052.431; 3256.500;34810.000
886.666; 4793.924; 3082.465;34519.020
887.227; 4378.868; 2677.830;33905.641
887.788; 5000.811; 3365.945;34502.965
888.349; 4403.305; 2792.760;34241.785
888.910; 5054.598; 3503.575;33722.203
889.471; 4810.242; 3330.690;32539.625
890.032; 4642.885; 3233.156;31528.346
890.593; 4834.929; 3455.721;32655.068
891.153; 4491.372; 3201.686;33882.289
891.714; 3997.416; 2748.801;33318.711
892.275; 4038.159; 2823.766;31848.930
892.835; 4747.752; 3584.131;30339.752
893.396; 4617.246; 3533.946;30074.973
893.956; 4180.239; 3153.211;30338.393
894.517; 4294.183; 3314.276;30864.113
895.077; 4319.076; 3378.692;29766.734
895.638; 4805.320; 3893.757;26379.557
896.198; 3747.563; 2873.672;24056.277
896.758; 4425.907; 3551.287;22961.898
897.319; 3997.350; 3196.402;21772.020
897.879; 4010.144; 3228.517;20877.539
898.439; 3453.087; 2693.532;19509.461
898.999; 4205.480; 3458.698;17297.582
899.559; 4111.224; 3410.263;14712.002
900.119; 3560.368; 2878.378;12790.224
900.679; 4487.511; 3841.793;11586.744
901.239; 4129.904; 3492.008;10776.465
901.799; 3878.348; 3273.773; 9691.687
902.359; 3515.141; 2935.988; 8725.907
902.919; 3471.535; 2899.303; 8305.728
903.479; 3481.978; 2929.219; 8172.649
904.038; 3334.822; 2776.034; 7913.870
904.598; 2964.865; 2438.899; 7262.291
905.158; 3558.359; 3054.164; 6609.012
905.717; 3692.352; 3180.929; 6236.133
906.277; 3730.846; 3231.694; 5829.054
906.836; 3905.039; 3419.659; 5396.674
907.396; 3849.383; 3379.124; 4964.195
907.955; 3859.676; 3395.790; 4528.917
908.515; 3556.820; 3079.905; 4223.837
909.074; 3572.013; 3122.370; 4023.958
909.633; 3572.457; 3125.285; 4065.379
910.192; 4355.250; 3888.650; 4066.300
910.752; 3546.250; 3107.050; 3971.600
911.311; 3488.500; 3061.700; 3839.600
911.870; 3371.950; 2931.450; 3684.500
912.429; 4050.850; 3637.550; 3635.600
912.988; 3961.800; 3564.800; 3689.800
913.547; 3304.850; 2885.150; 3737.700
914.106; 3700.950; 3288.500; 3740.300
914.665; 3662.200; 3256.700; 3604.600
915.224; 4005.700; 3596.000; 3358.700
915.782; 3430.000; 3015.750; 3188.400
916.341; 4106.550; 3711.050; 3091.400
916.900; 3469.900; 3067.900; 3044.800
917.458; 3299.050; 2915.950; 2888.600
918.017; 3642.500; 3237.300; 2818.900
918.576; 3474.750; 3089.100; 2838.600
919.134; 3100.950; 2715.400; 2880.100
919.693; 3458.800; 3056.600; 2996.300
920.251; 3369.600; 2995.100; 3183.100
920.809; 3196.750; 2792.550; 3247.000
921.368; 3392.300; 3007.550; 3156.600
921.926; 3253.250; 2877.800; 2964.900
922.484; 3586.300; 3194.350; 2846.300
923.042; 3468.950; 3070.450; 2890.400
923.601; 4112.500; 3726.050; 2987.700
924.159; 3768.800; 3413.500; 3049.800
924.717; 3247.100; 2858.100; 3087.000
925.275; 3582.500; 3203.000; 3093.400
925.833; 2961.100; 2572.600; 3182.400
926.391; 3764.200; 3386.350; 3397.900
926.949; 3384.800; 2999.500; 3575.400
927.506; 3638.950; 3242.150; 3713.400
928.064; 3450.950; 3077.650; 3871.300
928.622; 3488.650; 3111.550; 4092.800
929.180; 3134.000; 2759.400; 4499.300
929.737; 3056.550; 2672.100; 4813.200
930.295; 3741.450; 3349.550; 5084.100
930.853; 3298.250; 2901.100; 5185.000
931.410; 3125.900; 2744.250; 5313.100
931.968; 3804.300; 3404.900; 5339.600
932.525; 3560.950; 3174.600; 5399.900
933.082; 3077.200; 2696.750; 5457.500
933.640; 3685.800; 3279.250; 5692.900
934.197; 3462.350; 3037.200; 5821.200
934.754; 3467.050; 3057.100; 5617.900
935.312; 3296.650; 2888.800; 5512.400
935.869; 4102.450; 3694.250; 5582.400
936.426; 3309.700; 2913.050; 5650.100
936.983; 3417.250; 3012.150; 5657.400
937.540; 3132.800; 2695.150; 5564.300
938.097; 3682.500; 3263.500; 5574.000
938.654; 3404.900; 2968.350; 5665.900
939.211; 3694.800; 3272.500; 5931.600
939.768; 3535.650; 3086.350; 6153.600
940.324; 3445.050; 2991.700; 6397.600
940.881; 3314.250; 2869.650; 6454.200
941.438; 4024.050; 3565.650; 6206.900
941.995; 3892.300; 3453.450; 6003.900
942.551; 3200.100; 2751.200; 6228.300
943.108; 3536.450; 3100.600; 6603.500
943.664; 3217.150; 2765.750; 7188.100
944.221; 4344.150; 3895.150; 7579.900
944.777; 3184.600; 2725.400; 7658.100
945.334; 3247.500; 2816.100; 7670.400
945.890; 3567.100; 3118.050; 7525.100
946.446; 3567.100; 3144.500; 7261.500
947.003; 3670.650; 3245.650; 6949.200
947.559; 4180.350; 3732.950; 6773.100
948.115; 3952.900; 3528.450; 6668.400
948.671; 3653.350; 3227.950; 6488.400
949.227; 3072.500; 2637.250; 6236.600
949.783; 3010.950; 2587.300; 6008.900
950.339; 3725.300; 3289.150; 5934.100
950.895; 3913.850; 3496.200; 5933.500
951.451; 3407.400; 2986.850; 6074.700
952.007; 3766.750; 3351.550; 6066.400
952.563; 3421.050; 3003.150; 5884.100
953.118; 3301.350; 2890.650; 5733.800
953.674; 3493.800; 3085.200; 5734.300
954.230; 3511.250; 3109.450; 6039.700
954.785; 3491.350; 3082.050; 6383.500
955.341; 3801.600; 3391.750; 6568.200
955.897; 2985.950; 2591.000; 6488.600
956.452; 3640.350; 3220.450; 6239.200
957.008; 4402.850; 3965.400; 5954.600
957.563; 3959.150; 3557.250; 5816.700
958.118; 3252.550; 2863.200; 5828.200
958.674; 3592.200; 3190.600; 5717.400
959.229; 4006.750; 3603.450; 5506.800
959.784; 3079.350; 2675.300; 5292.200
960.339; 3981.900; 3593.850; 5101.900
960.894; 3772.900; 3399.800; 5093.200
961.449; 3230.250; 2826.900; 5227.900
962.004; 5123.450; 4730.250; 5349.300
962.559; 3269.350; 2879.000; 5514.900
963.114; 2641.050; 2253.950; 5717.300
963.669; 3526.950; 3149.350; 5841.400
964.224; 3329.450; 2965.400; 5805.900
964.779; 3093.900; 2737.750; 5723.400
965.334; 4006.150; 3651.600; 5779.500
965.888; 3298.750; 2941.950; 5948.500
966.443; 3842.300; 3449.700; 6344.200
966.998; 2971.700; 2597.000; 6666.300
967.552; 3473.700; 3097.050; 6710.100
968.107; 3278.200; 2918.550; 6593.500
968.661; 3567.800; 3217.300; 6344.100
969.216; 3216.250; 2874.550; 6062.400
969.770; 3568.000; 3217.650; 5785.500
970.324; 3588.700; 3254.350; 5426.800
970.879; 3765.250; 3406.200; 5016.800
971.433; 3808.000; 3469.200; 4904.500
971.987; 3499.700; 3176.500; 4991.000
972.541; 3628.100; 3289.150; 4978.500
973.095; 4097.150; 3769.950; 4832.000
973.649; 3041.400; 2701.100; 4767.900
974.203; 3155.550; 2826.700; 4881.200
974.757; 3313.650; 2957.400; 4969.500
975.311; 3406.800; 3099.850; 4953.000
975.865; 3467.000; 3132.000; 4884.300
976.419; 3345.500; 3016.200; 4739.800
976.973; 3287.850; 2967.900; 4698.100
977.526; 3847.500; 3539.750; 4631.100
978.080; 3029.000; 2719.950; 4621.600
978.634; 3678.600; 3373.250; 4650.200
979.187; 3630.350; 3329.300; 4669.200
979.741; 4260.950; 3920.100; 4658.000
980.294; 3046.600; 2728.850; 4579.100
980.848; 2693.800; 2385.800; 4452.800
981.401; 3238.750; 2938.700; 4271.900
981.955; 3413.900; 3122.100; 4087.800
982.508; 2893.100; 2596.550; 3973.900
983.061; 3801.600; 3511.650; 3928.600
983.615; 3128.800; 2864.250; 3851.200
984.168; 3014.100; 2731.750; 3734.800
984.721; 3608.250; 3315.350; 3628.300
985.274; 3530.450; 3248.550; 3564.300
985.827; 3385.200; 3126.500; 3558.100
986.380; 2803.750; 2523.850; 3559.900
986.933; 3557.100; 3277.950; 3688.700
987.486; 3545.900; 3280.750; 3778.500
988.039; 3528.850; 3278.200; 3559.900
988.591; 3746.850; 3494.400; 3219.300
989.144; 2937.650; 2681.750; 2902.900
989.697; 3079.800; 2832.250; 2722.600
990.250; 3629.400; 3377.950; 2618.000
990.802; 3086.350; 2868.550; 2523.900
991.355; 4306.150; 4067.550; 2436.500
991.907; 3728.575; 3500.525; 2412.200
992.460; 3151.000; 2933.500; 2387.900
993.012; 3162.250; 2944.500; 2365.800
993.565; 2963.500; 2742.700; 2311.100
994.117; 4237.600; 3997.250; 2308.700
994.669; 2977.700; 2743.250; 2249.300
995.221; 3479.650; 3276.350; 2158.100
995.774; 3435.100; 3232.850; 2085.600
996.326; 3192.300; 3002.500; 2068.100
996.878; 3746.350; 3550.000; 1975.300
997.430; 3021.950; 2832.800; 1929.500
997.982; 3294.200; 3114.350; 1861.900
998.534; 3276.400; 3079.500; 1830.200
999.086; 3237.350; 3080.400; 1823.200
999.638; 2845.400; 2675.850; 1815.000
1000.190; 3104.300; 2926.950; 1796.600
1000.741; 3325.450; 3148.450; 1738.800
1001.293; 3027.850; 2849.700; 1666.200
1001.845; 3009.350; 2838.350; 1566.500
1002.396; 3385.850; 3204.050; 1471.900
1002.948; 3328.600; 3172.500; 1398.000
1003.500; 3265.650; 3107.700; 1356.500
1004.051; 4309.750; 4128.400; 1294.200
1004.603; 3697.050; 3553.050; 1190.000
1005.154; 2755.300; 2604.050; 1063.900
1005.705; 3377.550; 3223.450;  968.300
1006.257; 3317.200; 3172.950;  889.800
1006.808; 3227.750; 3078.150;  801.500
1007.359; 3677.850; 3544.250;  716.400
1007.910; 3038.700; 2920.100;  639.100
1008.461; 3517.000; 3405.550;  561.600
1009.013; 2758.400; 2638.450;  500.400
1009.564; 3860.350; 3740.150;  476.100
1010.115; 2803.800; 2688.250;  431.600
1010.665; 2857.150; 2745.000;  409.300
1011.216; 3203.400; 3103.700;  399.700
1011.767; 3339.300; 3217.900;  388.100
1012.318; 3505.300; 3410.550;  381.400
1012.869; 3214.900; 3111.850;  375.400
1013.419; 2862.850; 2737.350;  357.600
1013.970; 3233.750; 3123.100;  358.300
1014.521; 2934.000; 2826.000;  344.100
1015.071; 3256.250; 3144.400;  322.800
1015.622; 3034.900; 2938.550;  320.600
1016.172; 2832.600; 2744.450;  301.700
1016.723; 2940.250; 2827.350;  289.800
1017.273; 2906.650; 2795.650;  287.600
1017.823; 3127.900; 3030.550;  278.700
1018.374; 2942.450; 2835.900;  274.400
1018.924; 3511.450; 3392.300;  283.200
1019.474; 3470.700; 3375.500;  278.500
1020.024; 3154.300; 3070.150;  274.700
1020.574; 3541.850; 3450.500;  272.700
1021.124; 3284.250; 3187.200;  278.400
1021.674; 2687.750; 2577.450;  269.200
1022.224; 3484.800; 3382.700;  267.800
1022.774; 3236.750; 3140.650;  258.100
1023.324; 3724.450; 3603.750;  260.000
1023.874; 4396.700; 4296.550;  260.700
1024.423; 2964.250; 2871.350;  252.700
1024.973; 2922.000; 2810.850;  234.700
1025.523; 3006.650; 2908.150;  226.500
1026.072; 2935.850; 2839.150;  225.500
1026.622; 3301.200; 3205.850;  210.100
1027.172; 3509.700; 3417.050;  213.000
1027.721; 2912.250; 2806.750;  207.700
1028.270; 3269.100; 3188.850;  205.400
1028.820; 3128.600; 3028.250;  201.000
1029.369; 2988.750; 2897.000;  201.000
1029.918; 3158.100; 3064.000;  198.400
1030.468; 2730.600; 2639.150;  199.200
1031.017; 3107.100; 3030.550;  192.600
1031.566; 2991.500; 2886.650;  197.400
1032.115; 3431.150; 3326.550;  188.300
1032.664; 2922.700; 2847.400;  193.700
1033.213; 3634.050; 3540.000;  191.900
1033.762; 3119.350; 3012.500;  184.500
1034.311; 3350.950; 3248.900;  194.300
1034.860; 3396.000; 3313.250;  192.300
1035.408; 3581.600; 3520.300;  182.600
1035.957; 3542.400; 3460.550;  173.900
1036.506; 2567.300; 2477.900;  185.200
1037.055; 4226.350; 4143.100;  182.500
1037.603; 3286.650; 3190.300;  167.600
1038.152; 2579.700; 2488.400;  168.200
1038.700; 2850.000; 2773.100;  169.600
1039.249; 3354.750; 3282.400;  164.300
1039.797; 3124.800; 3028.700;  169.600
1040.345; 3480.900; 3410.200;  167.100
1040.894; 3102.800; 3023.800;  164.400
1041.442; 3147.900; 3048.250;  158.300
1041.990; 2748.500; 2680.650;  160.000
1042.538; 2624.900; 2544.200;  156.800
1043.087; 2775.350; 2691.650;  146.600
1043.635; 3359.300; 3272.250;  162.400
1044.183; 2909.550; 2833.000;  156.300
1044.731; 2832.200; 2748.650;  158.100
1045.279; 3356.650; 3272.550;  154.500
1045.827; 4534.600; 4447.750;  146.200
1046.374; 2498.750; 2429.100;  154.000
1046.922; 2904.350; 2832.250;  149.000
1047.470; 3460.950; 3382.600;  154.900
1048.018; 3241.650; 3169.550;  148.400
1048.565; 3576.700; 3503.450;  146.300
1049.113; 2734.250; 2642.200;  156.100
1049.660; 3101.550; 3015.750;  154.300
1050.208; 3363.700; 3280.300;  149.400
1050.755; 3001.250; 2940.200;  157.500
1051.303; 3440.000; 3360.300;  157.700
1051.850; 3159.600; 3064.700;  152.800
1052.397; 2320.900; 2224.000;  146.300
1052.945; 3072.650; 2993.300;  149.500
1053.492; 3727.000; 3655.750;  149.300
1054.039; 3603.000; 3553.450;  163.100
1054.586; 2772.900; 2689.000;  150.400
1055.133; 3480.950; 3408.800;  153.500
1055.680; 3225.600; 3141.700;  155.600
1056.227; 2669.450; 2591.100;  148.700
1056.774; 4025.650; 3934.400;  151.500
1057.321; 2582.450; 2497.900;  143.700
1057.868; 3235.250; 3163.450;  145.300
1058.415; 3271.350; 3180.750;  153.500
1058.961; 3400.800; 3305.900;  149.900
1059.508; 3217.150; 3125.750;  147.300
1060.055; 2915.400; 2846.550;  151.000
1060.601; 3098.950; 3017.200;  148.700
1061.148; 3134.700; 3050.800;  153.800
1061.694; 2979.300; 2886.100;  150.500
1062.241; 2979.800; 2895.950;  149.100
1062.787; 3351.700; 3267.600;  153.000
1063.334; 4057.550; 3977.950;  153.200
1063.880; 3385.400; 3310.600;  148.400
1064.426; 3560.450; 3486.900;  149.200
1064.972; 2986.850; 2916.200;  156.400
1065.518; 2829.100; 2745.750;  144.700
1066.065; 3164.900; 3085.050;  139.400
1066.611; 3006.050; 2934.800;  139.300
1067.157; 3202.150; 3152.650;  138.400
1067.703; 3383.300; 3304.550;  142.700
1068.249; 2987.250; 2929.500;  136.700
1068.794; 3147.200; 3066.900;  139.400
1069.340; 2889.950; 2812.300;  142.700
1069.886; 2989.700; 2898.150;  135.600
1070.432; 2688.800; 2626.050;  133.400
1070.977; 3024.350; 2958.900;  138.200
1071.523; 2843.600; 2759.500;  132.400
1072.068; 2894.350; 2822.600;  132.700
1072.614; 2613.450; 2543.300;  127.000
1073.160; 3503.150; 3439.050;  131.300
1073.705; 2880.900; 2827.350;  135.700
1074.250; 2817.050; 2745.150;  133.000
1074.796; 3314.200; 3251.800;  138.000
1075.341; 3347.850; 3287.550;  137.300
1075.886; 2966.600; 2906.250;  134.300
1076.431; 3309.050; 3269.600;  138.200
1076.976; 3253.700; 3169.850;  132.200
1077.521; 2920.600; 2852.750;  138.900
1078.067; 2923.250; 2877.550;  128.600
1078.612; 3395.200; 3337.100;  138.900
1079.156; 3040.250; 2964.300;  128.900
1079.701; 3519.100; 3461.200;  129.700
1080.246; 3526.900; 3472.100;  128.600
1080.791; 3199.850; 3126.450;  122.600
1081.336; 3344.950; 3267.050;  122.000
1081.880; 3302.850; 3235.450;  123.900
1082.425; 2876.100; 2817.050;  120.600
1082.970; 3650.900; 3585.800;  124.500
1083.514; 3030.500; 2964.550;  112.000
1084.059; 2962.850; 2881.350;  120.700
1084.603; 2865.300; 2813.400;  116.000
1085.147; 3295.850; 3233.650;  116.300
1085.692; 3672.350; 3605.850;  108.200
1086.236; 2552.200; 2467.450;  114.600
1086.780; 3851.150; 3788.950;  118.900
1087.325; 3332.550; 3278.100;  120.400
1087.869; 3115.650; 3065.000;  110.500
1088.413; 3578.450; 3514.400;  114.000
1088.957; 2720.750; 2657.500;  114.300
1089.501; 3939.400; 3866.800;  114.600
1090.045; 3710.500; 3647.650;  114.200
1090.589; 2883.100; 2823.050;  105.500
1091.133; 3437.450; 3370.250;  111.800
1091.676; 2980.350; 2906.550;  110.900
1092.220; 3044.900; 3001.500;  110.100
1092.764; 3625.800; 3559.850;  108.100
1093.307; 3437.850; 3374.050;  109.900
1093.851; 2819.350; 2764.850;  107.500
1094.395; 3507.550; 3464.300;   96.200
1094.938; 3218.550; 3176.450;   99.300
1095.482; 2855.650; 2777.700;   97.700
1096.025; 3639.850; 3584.200;   84.900
1096.568; 3950.000; 3894.400;   88.500
1097.112; 2544.250; 2500.700;   95.700
1097.655; 3035.900; 2976.900;   97.300
1098.198; 3041.900; 2987.450;   92.600
1098.741; 3139.200; 3073.000;   91.800
1099.285; 3349.000; 3288.950;   88.000
1099.828; 2222.950; 2167.850;   91.700
1100.371; 3124.600; 3062.250;   89.900
1100.914; 3517.900; 3450.800;   91.500
1101.457; 3485.350; 3415.400;   88.100
1101.999; 2960.050; 2903.450;   86.400
1102.542; 3275.450; 3213.850;   90.800
1103.085; 3385.250; 3327.750;   95.400
1103.628; 3928.850; 3890.900;   97.700
1104.170; 2980.700; 2925.350;   84.000
1104.713; 3310.350; 3260.600;   93.900
1105.256; 2836.800; 2790.400;   93.000
1105.798; 2561.950; 2509.350;   85.600
1106.341; 3780.250; 3711.650;   87.100
1106.883; 2662.100; 2602.700;   85.200
1107.425; 3443.900; 3392.850;   85.000
1107.968; 3174.300; 3120.200;   84.300
1108.510; 3516.550; 3469.550;   88.200
1109.052; 3180.400; 3127.500;   86.600
1109.594; 2858.250; 2818.200;   79.400
1110.136; 3320.200; 3252.450;   81.700
1110.679; 3223.750; 3169.300;   75.500
1111.221; 3120.000; 3058.750;   88.500
1111.763; 2842.750; 2783.600;   87.700
1112.304; 2788.600; 2733.150;   89.700
1112.846; 3430.200; 3379.650;   81.900
1113.388; 4925.600; 4868.150;   86.400
1113.930; 3577.350; 3517.100;   84.700
1114.472; 3129.750; 3076.650;   78.900
1115.013; 2810.800; 2768.850;   78.100
1115.555; 3032.500; 2999.550;   84.900
1116.097; 2955.750; 2900.700;   79.200
1116.638; 3533.100; 3511.250;   83.700
1117.180; 3414.350; 3365.700;   85.500
1117.721; 2953.250; 2905.200;   78.800
1118.262; 3515.400; 3457.150;   77.400
1118.804; 3298.500; 3228.500;   81.400
1119.345; 2996.850; 2952.800;   77.800
1119.886; 3657.150; 3589.850;   81.200
1120.427; 3032.750; 2983.550;   77.200
1120.969; 3084.300; 3047.550;   75.200
1121.510; 2927.550; 2856.600;   80.900
1122.051; 3750.850; 3698.400;   77.300
1122.592; 3402.250; 3354.800;   73.300
1123.133; 2817.650; 2752.350;   90.100
1123.673; 3667.950; 3621.550;   75.000
1124.214; 3151.150; 3111.950;   80.600
1124.755; 3332.500; 3265.500;   78.000
1125.296; 3210.350; 3158.950;   77.500
1125.836; 3574.950; 3524.950;   80.400
1126.377; 3114.350; 3070.600;   75.600
1126.918; 3191.900; 3158.000;   78.900
1127.458; 3235.650; 3180.150;   78.000
1127.999; 3411.400; 3357.850;   76.100
1128.539; 3602.500; 3535.500;   81.400
1129.079; 3300.450; 3258.850;   77.400
1129.620; 2884.300; 2839.800;   68.000
1130.160; 2799.200; 2740.700;   77.500
1130.700; 3325.850; 3267.000;   76.300
1131.240; 3346.600; 3292.800;   66.800
1131.781; 3225.050; 3179.900;   70.600
1132.321; 3120.250; 3081.550;   77.200
1132.861; 2897.950; 2850.850;   70.400
1133.401; 3088.800; 3042.950;   68.700
1133.941; 3247.000; 3210.250;   68.500
1134.481; 3145.450; 3076.550;   75.900
1135.020; 3164.600; 3106.950;   66.600
1135.560; 3501.400; 3449.250;   68.100
1136.100; 2586.900; 2539.250;   64.900
1136.640; 2660.550; 2617.650;   72.500
1137.179; 2769.800; 2736.600;   69.700
1137.719; 3154.500; 3106.700;   68.400
1138.258; 3047.950; 3005.100;   67.000
1138.798; 3449.050; 3401.750;   69.600
1139.337; 2497.900; 2450.900;   64.000
1139.877; 3346.850; 3301.250;   64.500
1140.416; 4558.200; 4493.700;   74.900
1140.955; 2757.400; 2706.800;   67.200
1141.494; 3510.800; 3466.950;   69.900
1142.034; 3036.100; 2982.500;   59.100
1142.573; 3371.700; 3309.250;   65.900
1143.112; 2870.700; 2840.000;   70.600
1143.651; 2788.150; 2757.500;   67.100
1144.190; 3611.300; 3565.750;   56.700
1144.729; 3160.850; 3117.050;   61.800
1145.267; 3017.550; 2980.150;   62.500
1145.806; 3330.150; 3273.900;   68.500
1146.345; 3341.400; 3290.400;   58.300
1146.884; 3266.000; 3224.900;   63.100
1147.422; 2762.400; 2726.700;   54.800
1147.961; 3713.850; 3670.700;   67.600
1148.500; 3491.650; 3445.700;   64.700
1149.038; 3330.900; 3280.950;   61.000
1149.577; 3648.700; 3620.550;   65.100
1150.115; 2347.100; 2305.150;   58.100
1150.653; 3171.850; 3136.150;   60.500
1151.192; 2891.000; 2861.500;   56.600
1151.730; 3431.400; 3386.450;   62.300
1152.268; 3072.450; 3019.950;   55.500
1152.806; 3008.000; 2967.600;   58.200
1153.344; 2997.250; 2961.100;   55.000
1153.882; 3124.100; 3083.300;   64.200
1154.421; 2437.800; 2405.850;   60.300
1154.958; 3129.100; 3091.950;   58.100
1155.496; 3371.950; 3327.500;   55.800
1156.034; 3780.500; 3745.800;   61.000
1156.572; 3498.250; 3457.550;   56.200
1157.110; 2461.500; 2423.050;   53.200
1157.647; 3549.650; 3501.850;   57.400
1158.185; 2969.650; 2925.650;   55.500
1158.723; 2658.350; 2619.950;   58.000
1159.260; 3656.350; 3598.900;   53.700
1159.798; 3449.550; 3406.100;   51.700
1160.335; 3296.050; 3257.400;   59.600

