source_right
Integration time [ms]: 2152.735
Averaging Nr. [scans]: 20
Smoothing Nr. [pixels]: 0
Data measured with spectrometer [name]: 7414430SP
Wave   ;Sample   ;Dark     ;Reference
[nm]   ;[counts] ;[counts] ;[counts] 

288.544; 3251.834; 3108.699;    6.613
289.143; 2680.042; 2535.224;   14.216
289.742; 3462.964; 3309.371;   11.816
290.341; 3324.242; 3178.834;   -4.936
290.940; 3026.017; 2883.297;    0.852
291.538; 3807.264; 3676.572;    1.792
292.137; 3356.798; 3225.295;    6.262
292.736; 4367.742; 4214.734;    8.164
293.335; 3095.347; 2957.363;   -6.418
293.934; 3322.886; 3189.036;   -2.904
294.532; 4704.606; 4544.178;   -5.162
295.131; 3719.128; 3567.669;  -10.283
295.730; 3588.869; 3461.108;  -16.141
296.328; 3461.748; 3341.285;  -14.740
296.927; 3437.940; 3299.035;   -8.768
297.525; 3428.929; 3291.685;  -15.255
298.124; 2803.263; 2668.372;  -22.063
298.722; 3356.646; 3216.651;  -14.796
299.321; 3098.376; 2956.017;  -10.466
299.919; 3320.480; 3183.860;  -10.979
300.518; 3020.973; 2897.000;  -12.077
301.116; 3026.729; 2886.998;  -13.509
301.715; 3219.770; 3090.855;  -11.939
302.313; 3122.767; 2976.882;  -15.424
302.911; 3313.658; 3168.427;  -19.833
303.509; 4309.419; 4169.813;   -3.567
304.108; 3404.352; 3297.328;   -9.553
304.706; 3640.586; 3501.974;   -8.582
305.304; 3686.703; 3566.269;  -12.348
305.902; 3536.321; 3397.120;  -14.411
306.500; 3268.719; 3160.894;   -7.194
307.098; 3396.775; 3278.060;   -9.322
307.696; 3614.833; 3488.280;  -19.192
308.294; 3324.549; 3218.902;   -9.736
308.892; 3459.929; 3350.766;  -15.482
309.490; 3224.022; 3084.987;  -14.107
310.088; 3664.192; 3548.150;  -15.862
310.686; 3787.001; 3661.836;  -10.781
311.284; 3528.387; 3417.191;  -14.878
311.882; 3316.017; 3204.307;   -9.948
312.480; 3198.137; 3059.570;  -15.503
313.078; 3819.720; 3697.003;  -17.262
313.675; 3168.469; 3024.844;   -3.694
314.273; 3780.082; 3641.043;  -18.246
314.871; 2620.541; 2519.358;  -15.190
315.468; 2995.858; 2876.877;  -12.633
316.066; 3202.162; 3089.602;   -5.765
316.664; 3007.955; 2898.404;  -14.317
317.261; 4369.988; 4259.115;   -8.677
317.859; 3683.444; 3582.904;  -11.804
318.456; 3998.279; 3866.345;   -3.107
319.054; 3768.285; 3654.792;   -3.062
319.651; 3606.522; 3502.811;   -6.706
320.249; 3918.322; 3810.061;   -5.206
320.846; 3386.859; 3280.564;   -4.679
321.443; 4063.525; 3954.507;   -7.920
322.041; 3960.972; 3865.784;  -14.105
322.638; 3381.092; 3275.676;   -6.263
323.235; 3148.717; 3042.982;   -7.424
323.833; 3584.041; 3470.606;  -14.765
324.430; 2886.731; 2761.726;  -10.550
325.027; 4298.966; 4188.563;   -9.951
325.624; 3004.028; 2864.004;   -3.712
326.221; 3238.183; 3094.978;   -9.368
326.818; 3943.499; 3802.429;   -5.637
327.415; 3489.388; 3349.500;   -6.699
328.012; 3180.555; 3035.611;   -5.713
328.609; 3378.236; 3224.727;   -9.983
329.206; 3676.444; 3532.097;   -7.154
329.803; 3405.400; 3248.013;   -1.682
330.400; 3207.691; 3045.404;   -2.741
330.997; 3798.513; 3619.697;   -4.339
331.594; 3679.930; 3501.734;  -10.278
332.191; 3282.376; 3116.920;   -6.967
332.787; 3892.530; 3724.013;   -0.480
333.384; 3473.093; 3289.438;  -10.333
333.981; 3757.224; 3590.298;  -19.900
334.578; 3153.277; 2969.997;  -19.816
335.174; 3272.997; 3092.578;  -15.844
335.771; 3867.597; 3691.906;  -12.670
336.367; 3231.660; 3057.935;  -21.124
336.964; 3668.324; 3519.303;  -18.226
337.561; 3344.564; 3161.723;  -13.311
338.157; 4302.916; 4139.463;  -19.006
338.754; 3724.741; 3539.853;  -19.418
339.350; 3307.136; 3121.468;  -29.433
339.946; 3534.797; 3353.616;  -16.622
340.543; 3956.391; 3804.481;  -16.744
341.139; 3328.706; 3173.990;  -21.841
341.735; 3631.136; 3498.133;  -25.012
342.332; 3200.273; 3049.651;  -19.156
342.928; 3731.227; 3579.939;  -20.443
343.524; 3617.647; 3470.325;  -14.397
344.120; 3495.852; 3337.625;  -20.654
344.716; 3326.466; 3186.489;   -5.730
345.313; 3793.759; 3626.631;  -10.929
345.909; 2865.262; 2707.501;  -19.843
346.505; 3484.683; 3343.427;  -19.645
347.101; 3931.169; 3770.280;   -9.618
347.697; 3723.473; 3581.695;  -10.305
348.293; 2859.185; 2710.684;  -23.189
348.889; 3523.934; 3361.245;  -18.418
349.485; 3191.067; 3030.202;  -10.476
350.081; 3660.605; 3512.044;  -17.320
350.676; 3248.242; 3109.615;  -21.088
351.272; 3845.875; 3684.294;  -12.821
351.868; 3654.741; 3488.766;  -13.165
352.464; 3391.692; 3240.363;  -12.464
353.059; 3009.604; 2855.452;  -22.547
353.655; 3709.666; 3549.232;   -9.379
354.251; 3600.598; 3445.800;   -8.266
354.846; 3512.452; 3370.948;  -17.705
355.442; 3534.470; 3399.353;   -9.317
356.038; 3546.496; 3385.948;  -11.049
356.633; 3434.808; 3270.882;  -10.006
357.229; 3445.647; 3289.287;  -13.120
357.824; 3324.611; 3174.533;  -15.647
358.420; 3177.723; 3026.268;  -19.204
359.015; 3227.407; 3073.075;  -12.263
359.610; 3639.761; 3500.029;  -16.421
360.206; 2796.289; 2649.219;  -20.074
360.801; 2988.010; 2841.571;  -13.277
361.396; 3429.697; 3262.217;   -5.822
361.992; 3140.011; 3000.733;  -11.247
362.587; 3157.246; 3024.385;  -21.502
363.182; 3254.957; 3094.822;   -7.461
363.777; 3535.041; 3387.129;   -8.719
364.372; 3519.427; 3376.429;  -14.590
364.967; 3232.098; 3080.715;  -15.145
365.563; 3896.905; 3759.886;   -7.192
366.158; 3221.750; 3092.218;   -5.662
366.753; 3053.338; 2900.501;   -8.378
367.348; 3567.085; 3436.360;  -14.990
367.942; 3281.223; 3152.594;   -6.005
368.537; 3602.245; 3461.988;  -11.504
369.132; 3355.774; 3222.983;  -10.576
369.727; 2995.411; 2844.688;  -12.573
370.322; 2753.436; 2609.549;  -11.560
370.917; 3421.392; 3269.715;  -10.388
371.511; 4228.943; 4081.183;   -9.161
372.106; 3807.248; 3644.565;  -10.245
372.701; 2760.987; 2642.120;  -10.158
373.296; 4178.212; 4042.225;   -4.719
373.890; 3103.996; 2986.934;  -11.802
374.485; 3350.739; 3235.774;  -13.500
375.079; 3602.039; 3484.222;   -6.276
375.674; 3967.775; 3854.349;   -0.447
376.268; 3311.570; 3198.927;   -6.916
376.863; 2785.458; 2682.844;  -14.483
377.457; 3194.638; 3074.830;   -6.903
378.052; 3740.369; 3602.985;   -9.844
378.646; 3653.146; 3540.258;  -12.601
379.240; 3544.056; 3423.335;  -14.715
379.835; 3101.073; 2983.649;  -12.331
380.429; 2703.604; 2581.057;   -9.074
381.023; 3851.767; 3740.162;   -1.729
381.617; 3329.814; 3207.240;  -13.714
382.212; 3354.400; 3227.738;   -7.060
382.806; 3735.538; 3643.230;   -2.303
383.400; 3335.649; 3224.877;   -0.815
383.994; 3310.260; 3216.554;   -4.429
384.588; 3462.443; 3352.757;   -6.261
385.182; 3615.470; 3507.575;    0.008
385.776; 3539.518; 3437.041;   -3.247
386.370; 3388.580; 3292.404;   -1.030
386.964; 3396.940; 3312.761;   -1.346
387.558; 2966.033; 2854.898;   -2.020
388.152; 3419.505; 3309.773;   -5.345
388.745; 4125.818; 4036.423;   -2.774
389.339; 3711.056; 3612.983;    3.510
389.933; 3419.847; 3329.363;    5.280
390.527; 4387.156; 4272.356;    2.610
391.120; 2973.364; 2882.766;   -7.914
391.714; 3534.095; 3458.361;   -1.903
392.308; 3969.246; 3861.656;    6.023
392.901; 3255.074; 3154.065;   -4.103
393.495; 3005.349; 2927.354;    3.284
394.089; 3926.876; 3842.619;    8.655
394.682; 3555.100; 3496.196;    2.312
395.275; 3679.424; 3601.888;   -7.402
395.869; 3421.990; 3345.816;   -1.072
396.462; 3114.769; 3045.938;    6.454
397.056; 3961.809; 3857.206;    8.494
397.649; 3774.924; 3678.812;    1.599
398.242; 3664.504; 3586.076;    3.153
398.836; 3937.109; 3838.979;   11.395
399.429; 3181.630; 3113.075;   14.695
400.022; 3420.868; 3327.469;    3.627
400.615; 4187.634; 4096.342;    8.383
401.208; 3490.044; 3436.291;   13.295
401.802; 3595.378; 3515.176;    6.211
402.395; 3540.268; 3455.469;    7.227
402.988; 3594.468; 3519.278;    2.700
403.581; 3256.010; 3199.718;   11.225
404.174; 3486.081; 3419.794;   18.922
404.767; 3236.466; 3181.342;   14.169
405.360; 3202.560; 3143.247;    8.999
405.953; 3899.121; 3837.714;   13.138
406.545; 3729.628; 3676.998;   13.937
407.138; 3153.844; 3107.346;   10.869
407.731; 3137.544; 3098.022;   12.768
408.324; 3363.880; 3299.047;   22.921
408.917; 3518.870; 3445.625;   15.308
409.509; 3837.300; 3768.664;   12.239
410.102; 3343.815; 3290.350;   13.741
410.695; 3413.417; 3363.524;   20.249
411.287; 3082.765; 3019.467;   21.793
411.880; 3006.822; 2952.532;   22.965
412.472; 3149.848; 3094.634;   15.082
413.065; 3290.052; 3240.714;   23.423
413.657; 2975.811; 2917.858;   21.077
414.250; 3324.603; 3276.635;   12.349
414.842; 3478.024; 3434.236;   20.423
415.434; 2944.569; 2908.455;   19.906
416.027; 3315.188; 3263.518;   26.574
416.619; 3696.862; 3648.924;   15.705
417.211; 3070.858; 3018.362;   17.791
417.804; 3199.408; 3157.876;   30.244
418.396; 3140.454; 3099.101;   24.177
418.988; 3406.283; 3340.623;   24.904
419.580; 2925.372; 2873.624;   20.692
420.172; 2786.332; 2740.058;   22.275
420.764; 3435.409; 3397.641;   26.773
421.356; 3300.455; 3260.038;   25.731
421.948; 3479.125; 3435.200;   24.876
422.540; 3467.193; 3423.190;   30.042
423.132; 3057.425; 3030.340;   32.728
423.724; 2857.915; 2833.865;   21.317
424.316; 3191.727; 3152.976;   29.359
424.908; 3032.845; 3007.624;   28.798
425.500; 3319.170; 3278.232;   30.512
426.092; 3313.850; 3265.801;   26.741
426.683; 3565.154; 3526.767;   27.029
427.275; 3276.499; 3251.189;   32.611
427.867; 3390.216; 3359.100;   33.796
428.458; 3752.439; 3721.427;   34.453
429.050; 3491.426; 3458.009;   34.255
429.642; 3807.155; 3786.681;   39.082
430.233; 2824.263; 2787.846;   41.138
430.825; 3753.826; 3715.304;   31.581
431.416; 3574.047; 3544.155;   35.755
432.008; 3286.586; 3246.784;   40.566
432.599; 3304.359; 3280.537;   46.322
433.190; 3238.395; 3209.351;   46.897
433.782; 2893.972; 2859.089;   41.069
434.373; 4477.768; 4463.452;   48.778
434.964; 3028.875; 2985.810;   50.078
435.556; 3204.204; 3167.958;   52.381
436.147; 3843.989; 3819.980;   38.251
436.738; 3544.677; 3510.288;   47.237
437.329; 3615.061; 3602.766;   61.304
437.920; 3324.063; 3309.077;   48.611
438.511; 2808.206; 2779.346;   44.910
439.103; 3113.289; 3069.594;   62.404
439.694; 3418.095; 3370.062;   63.075
440.285; 3746.412; 3730.055;   61.033
440.876; 4327.424; 4277.044;   57.249
441.466; 2828.254; 2815.606;   61.306
442.057; 3296.666; 3267.438;   65.773
442.648; 3766.338; 3720.278;   65.676
443.239; 3086.392; 3072.171;   55.963
443.830; 3524.390; 3492.939;   69.631
444.421; 3232.429; 3199.115;   69.943
445.011; 3436.971; 3414.467;   72.791
445.602; 3723.980; 3691.379;   68.848
446.193; 2335.008; 2310.015;   80.044
446.783; 3086.602; 3062.945;   82.599
447.374; 3389.015; 3368.051;   77.419
447.964; 3550.261; 3525.090;   72.605
448.555; 4057.214; 4023.979;   82.041
449.145; 3225.225; 3227.077;   76.230
449.736; 4008.315; 3968.996;   75.545
450.326; 3513.794; 3478.700;   67.945
450.917; 3295.759; 3263.829;   77.598
451.507; 2888.788; 2878.521;   68.027
452.097; 3704.594; 3655.145;   67.771
452.688; 3588.969; 3576.729;   62.884
453.278; 2635.063; 2601.614;   65.512
453.868; 3929.108; 3876.982;   71.796
454.458; 3144.254; 3117.676;   60.956
455.048; 3454.961; 3417.457;   62.356
455.639; 2677.061; 2659.628;   58.782
456.229; 3427.297; 3383.981;   65.209
456.819; 3627.500; 3572.662;   61.466
457.409; 3771.278; 3736.039;   59.967
457.999; 3540.000; 3499.381;   58.093
458.589; 3247.341; 3211.092;   59.536
459.179; 3450.593; 3421.247;   55.994
459.769; 2954.138; 2937.251;   43.624
460.358; 3814.967; 3783.942;   46.978
460.948; 3262.958; 3240.204;   49.821
461.538; 3107.524; 3074.550;   54.678
462.128; 3137.998; 3096.481;   49.309
462.717; 3321.366; 3275.375;   52.774
463.307; 3316.438; 3299.139;   48.101
463.897; 3055.561; 3014.176;   45.606
464.486; 4047.326; 4012.458;   45.010
465.076; 3462.814; 3417.591;   45.519
465.666; 2982.904; 2935.135;   50.058
466.255; 3741.184; 3700.830;   44.463
466.845; 3069.739; 3038.430;   41.206
467.434; 3384.422; 3366.414;   44.847
468.023; 2997.862; 2960.963;   46.760
468.613; 3326.941; 3292.492;   39.736
469.202; 2924.848; 2913.698;   46.461
469.791; 3381.350; 3338.074;   47.944
470.381; 3386.860; 3344.177;   47.529
470.970; 3233.344; 3186.382;   43.773
471.559; 3393.093; 3348.013;   41.646
472.148; 2997.256; 2971.743;   37.914
472.738; 3495.879; 3435.496;   48.071
473.327; 2796.836; 2753.877;   47.871
473.916; 3352.235; 3296.517;   37.716
474.505; 3412.946; 3367.657;   40.256
475.094; 3713.771; 3657.318;   43.269
475.683; 3608.094; 3557.677;   36.499
476.272; 3256.007; 3207.235;   44.542
476.861; 3108.408; 3059.245;   42.297
477.449; 3171.445; 3129.335;   46.878
478.038; 2995.232; 2950.792;   35.156
478.627; 3105.763; 3068.450;   42.514
479.216; 3379.726; 3316.190;   43.937
479.805; 3402.971; 3345.516;   51.393
480.393; 4618.863; 4560.472;   53.239
480.982; 3930.639; 3888.076;   38.955
481.571; 3786.905; 3748.347;   45.436
482.159; 2943.710; 2891.639;   51.007
482.748; 3572.950; 3513.391;   49.695
483.336; 3725.274; 3683.336;   48.280
483.925; 3198.313; 3147.740;   47.166
484.513; 3151.702; 3096.038;   55.404
485.102; 3406.841; 3370.852;   54.238
485.690; 4422.793; 4372.523;   55.748
486.278; 4260.218; 4203.166;   55.934
486.867; 3305.396; 3253.127;   57.106
487.455; 3762.152; 3728.116;   56.979
488.043; 2924.498; 2876.305;   57.564
488.631; 4260.460; 4198.761;   57.432
489.220; 3733.607; 3669.291;   63.646
489.808; 2805.158; 2750.635;   65.449
490.396; 3690.866; 3639.685;   61.977
490.984; 3146.189; 3084.312;   68.834
491.572; 3695.259; 3633.780;   70.775
492.160; 3486.998; 3445.355;   67.564
492.748; 3219.989; 3164.167;   66.808
493.336; 3760.008; 3689.615;   79.747
493.924; 3253.490; 3171.299;   88.688
494.512; 3685.828; 3626.792;   84.120
495.100; 3610.573; 3549.947;   86.250
495.687; 3826.379; 3765.830;  103.074
496.275; 3098.078; 3041.672;  108.717
496.863; 3240.497; 3171.316;  107.035
497.451; 3206.235; 3149.382;  117.993
498.038; 3355.156; 3301.329;  120.116
498.626; 3242.861; 3187.129;  143.059
499.214; 3474.118; 3427.265;  153.434
499.801; 3377.857; 3297.170;  175.121
500.389; 2791.470; 2734.691;  185.617
500.976; 3541.284; 3478.914;  215.789
501.564; 3395.179; 3344.766;  240.321
502.151; 2478.882; 2416.186;  267.007
502.738; 3195.483; 3143.022;  317.961
503.326; 3268.884; 3202.583;  361.216
503.913; 3438.096; 3349.796;  401.433
504.500; 3520.020; 3464.969;  446.492
505.088; 2992.855; 2940.615;  512.063
505.675; 3265.405; 3207.314;  586.387
506.262; 3252.907; 3197.643;  671.021
506.849; 3321.962; 3264.200;  759.062
507.436; 3749.833; 3671.141;  849.788
508.023; 3317.119; 3259.976;  944.288
508.610; 3687.191; 3626.669; 1020.690
509.197; 3549.423; 3500.544; 1089.052
509.784; 3328.580; 3268.000; 1133.776
510.371; 2807.451; 2732.494; 1165.501
510.958; 3411.904; 3333.174; 1251.735
511.545; 3905.586; 3841.115; 1350.248
512.132; 3335.300; 3269.537; 1525.945
512.719; 2981.996; 2904.346; 1834.933
513.305; 3080.522; 3014.200; 1965.349
513.892; 3859.684; 3815.690; 1963.265
514.479; 3409.007; 3351.841; 2046.446
515.066; 3741.017; 3667.653; 2252.803
515.652; 3425.436; 3360.069; 2567.247
516.239; 3629.771; 3545.411; 2636.919
516.825; 2846.724; 2776.834; 2482.304
517.412; 4204.539; 4138.191; 2427.031
517.998; 3264.891; 3194.100; 2540.463
518.585; 3240.182; 3164.135; 2609.007
519.171; 3428.990; 3325.448; 2842.088
519.758; 2899.009; 2833.522; 3090.703
520.344; 3700.780; 3619.750; 3176.076
520.930; 2985.848; 2915.413; 3295.037
521.516; 3568.040; 3473.483; 3500.959
522.103; 3904.202; 3821.738; 3736.704
522.689; 3250.972; 3153.232; 3971.022
523.275; 3777.824; 3706.089; 4213.778
523.861; 3290.090; 3230.053; 4190.361
524.447; 3775.887; 3680.653; 4070.602
525.033; 3815.106; 3733.204; 4088.892
525.619; 3093.866; 3010.790; 4416.851
526.205; 2910.733; 2821.577; 4836.835
526.791; 3254.252; 3172.865; 4885.903
527.377; 3135.425; 3062.228; 4544.907
527.963; 3437.321; 3363.263; 4321.995
528.549; 3497.767; 3420.105; 4473.979
529.135; 3077.776; 3005.262; 4788.663
529.721; 3392.616; 3311.658; 4888.577
530.306; 4554.417; 4471.055; 4775.779
530.892; 3220.239; 3124.620; 4793.906
531.478; 3155.829; 3069.984; 4956.948
532.063; 3006.833; 2931.051; 5136.936
532.649; 4148.199; 4049.225; 5336.867
533.235; 3049.192; 2960.439; 5748.092
533.820; 3847.237; 3754.061; 6456.875
534.406; 3294.178; 3212.379; 6590.167
534.991; 3058.350; 2963.936; 6179.622
535.576; 3304.142; 3226.866; 6098.691
536.162; 4594.732; 4510.604; 6441.234
536.747; 2908.766; 2808.395; 6816.224
537.333; 3068.824; 2998.117; 6889.752
537.918; 3334.031; 3240.517; 7154.280
538.503; 3142.694; 3034.573; 7150.848
539.088; 3507.297; 3392.647; 7253.308
539.673; 3225.053; 3138.563; 7625.180
540.259; 3117.914; 3020.885; 8226.793
540.844; 2749.656; 2660.354; 8745.092
541.429; 4065.052; 3974.795; 8762.553
542.014; 2864.665; 2757.176; 8871.497
542.599; 3489.389; 3399.167; 8886.008
543.184; 2950.762; 2861.499; 9079.139
543.769; 3128.832; 3023.214; 9076.182
544.354; 3222.646; 3126.929; 8354.081
544.938; 3476.604; 3368.529; 8236.809
545.523; 4054.081; 3939.620; 8222.179
546.108; 3363.975; 3254.456; 8114.082
546.693; 3327.112; 3220.753; 8535.912
547.278; 3351.501; 3219.809; 9238.322
547.862; 3337.724; 3216.581; 9034.405
548.447; 3757.833; 3642.753; 7795.011
549.031; 3237.237; 3137.269; 7485.099
549.616; 3468.318; 3366.044; 7626.308
550.201; 3160.140; 3061.313; 7627.909
550.785; 3643.694; 3531.222; 7859.125
551.370; 2948.739; 2836.053; 7990.654
551.954; 3723.664; 3618.387; 8196.468
552.538; 3649.064; 3523.756; 7959.495
553.123; 3144.845; 3013.245; 7964.826
553.707; 3255.925; 3142.858; 8515.957
554.291; 3901.358; 3786.887; 8724.024
554.876; 3686.826; 3580.045; 8524.211
555.460; 3165.046; 3046.708; 8704.456
556.044; 3150.937; 3002.824; 9141.473
556.628; 3376.129; 3258.865; 9250.197
557.212; 3856.791; 3717.555; 9444.237
557.796; 3319.804; 3167.857; 9379.783
558.380; 3552.097; 3401.028; 9353.658
558.964; 3457.019; 3312.991; 9210.310
559.548; 2932.638; 2787.956; 8475.153
560.132; 3241.562; 3107.461; 7954.084
560.716; 3004.453; 2874.370; 7489.529
561.300; 2970.809; 2828.179; 7211.952
561.884; 3660.591; 3483.307; 7141.313
562.467; 3605.434; 3439.905; 7155.386
563.051; 3424.611; 3254.143; 7323.158
563.635; 3350.813; 3161.450; 7709.114
564.219; 3410.567; 3234.680; 7678.855
564.802; 3643.819; 3459.739; 7376.187
565.386; 3463.644; 3272.408; 7054.372
565.969; 3980.200; 3778.364; 6589.196
566.553; 4357.529; 4116.496; 6279.371
567.136; 3939.767; 3731.159; 5967.930
567.720; 3505.574; 3280.998; 5660.703
568.303; 3630.284; 3399.670; 5648.615
568.887; 3533.635; 3309.162; 5618.443
569.470; 3631.145; 3386.802; 5411.875
570.053; 3803.687; 3532.571; 5149.274
570.637; 3262.637; 2973.946; 5122.798
571.220; 3886.171; 3567.342; 4957.369
571.803; 4457.786; 4145.464; 4933.018
572.386; 3482.594; 3153.505; 4840.973
572.969; 3479.626; 3140.823; 4592.886
573.552; 3594.198; 3210.843; 4348.387
574.135; 3306.942; 2912.629; 4002.290
574.718; 3452.673; 3035.059; 3654.773
575.301; 3464.588; 3024.167; 3502.288
575.884; 3476.503; 3013.275; 3349.803
576.467; 4259.824; 3701.548; 3191.403
577.050; 4000.321; 3390.675; 3062.418
577.633; 4710.902; 4050.031; 3214.200
578.216; 3869.084; 3181.025; 3284.889
578.799; 3946.645; 3177.899; 3189.777
579.381; 5040.302; 4189.702; 3064.502
579.964; 3945.825; 3010.208; 2888.357
580.547; 4405.848; 3337.398; 2905.760
581.129; 4984.944; 3861.057; 2966.849
581.712; 4647.093; 3433.550; 2887.292
582.294; 4610.546; 3304.409; 2771.631
582.877; 5634.288; 4222.413; 2711.602
583.459; 4799.073; 3262.984; 2577.049
584.042; 4908.375; 3211.365; 2454.707
584.624; 4822.686; 2951.392; 2305.893
585.206; 4589.308; 2581.002; 2189.546
585.789; 5258.117; 3091.519; 2112.577
586.371; 5786.999; 3449.589; 2153.065
586.953; 6160.975; 3579.091; 2197.806
587.536; 6686.734; 3818.325; 2105.489
588.118; 6382.698; 3191.652; 1963.911
588.700; 7387.768; 3831.815; 1843.179
589.282; 7399.397; 3476.380; 1813.834
589.864; 7560.915; 3331.888; 1777.620
590.446; 7247.753; 2649.573; 1733.780
591.028; 8280.098; 3296.008; 1676.008
591.610; 8036.909; 2710.146; 1631.649
592.192; 8869.648; 3336.645; 1632.362
592.774; 8553.396; 2922.185; 1569.507
593.356; 9233.049; 3067.894; 1524.539
593.937; 9783.607; 3048.507; 1569.720
594.519;11022.916; 3684.453; 1569.049
595.101;10639.853; 2743.182; 1545.452
595.683;11711.278; 3079.413; 1607.568
596.264;12681.468; 3245.234; 1615.506
596.846;13208.644; 3138.738; 1667.622
597.427;13865.521; 3060.179; 1670.469
598.009;14805.541; 3017.244; 1640.312
598.591;16139.815; 3574.385; 1541.022
599.172;16445.971; 3185.835; 1598.665
599.753;17050.828; 2831.036; 1619.068
600.335;18876.363; 3826.164; 1548.612
600.916;18853.305; 3241.086; 1607.510
601.498;19908.539; 3428.308; 1745.181
602.079;20884.455; 3288.809; 1801.011
602.660;20971.156; 3226.648; 1834.640
603.241;20433.803; 2600.535; 1787.351
603.823;21887.799; 3074.812; 1684.266
604.404;22532.500; 2871.291; 1654.241
604.985;23872.957; 3101.822; 1758.741
605.566;25245.711; 3623.108; 1697.679
606.147;25536.924; 3198.180; 1526.728
606.728;25925.756; 2839.988; 1484.086
607.309;27394.900; 3052.179; 1421.070
607.890;28741.092; 3098.028; 1369.867
608.471;29913.980; 2999.490; 1277.826
609.051;30999.613; 3366.831; 1180.416
609.632;30918.107; 2948.700; 1075.816
610.213;31769.563; 3204.514; 1053.313
610.794;32427.570; 3114.410;  979.442
611.374;33079.676; 3411.226;  917.414
611.955;33212.105; 2785.661;  819.987
612.536;34214.168; 3373.525;  752.627
613.116;33426.023; 3084.741;  690.799
613.697;33773.359; 3041.954;  674.974
614.277;33988.035; 2960.316;  663.846
614.858;33784.379; 3037.749;  665.898
615.438;33890.293; 3265.218;  660.712
616.019;36426.055; 3823.801;  632.732
616.599;38320.063; 2549.677;  551.759
617.179;41160.395; 2853.045;  512.871
617.760;41518.102; 4315.902;  473.655
618.340;39888.281; 3211.163;  440.004
618.920;41829.039; 3933.839;  429.731
619.500;42426.348; 3100.532;  441.361
620.080;42602.266; 2943.727;  425.202
620.660;42798.063; 2937.741;  408.164
621.241;42291.262; 3109.947;  387.161
621.821;42082.223; 3302.062;  378.017
622.401;42632.715; 3673.566;  379.188
622.980;42322.723; 2792.782;  350.019
623.560;42316.023; 3126.301;  336.446
624.140;38514.566; 3330.562;  336.473
624.720;36579.074; 3386.743;  334.974
625.300;37217.637; 2945.527;  325.717
625.880;39479.945; 3210.029;  308.519
626.459;42635.438; 3246.250;  307.117
627.039;41453.863; 2709.486;  290.890
627.619;42271.914; 4135.275;  286.635
628.198;43611.789; 3717.456;  282.535
628.778;46573.172; 3486.143;  285.474
629.357;47738.969; 2838.500;  284.103
629.937;45738.625; 3116.510;  292.178
630.516;45185.461; 3885.456;  290.749
631.096;45300.391; 2985.343;  285.489
631.675;47862.051; 3821.330;  287.022
632.254;47500.887; 2974.842;  286.038
632.834;46690.488; 3205.180;  276.451
633.413;47345.914; 3819.067;  279.447
633.992;48485.418; 3640.415;  264.508
634.571;49063.285; 3481.650;  271.010
635.151;47939.344; 2911.550;  277.338
635.730;46855.133; 3169.486;  289.305
636.309;45098.910; 3456.237;  285.306
636.888;44366.016; 3493.034;  254.051
637.467;44470.590; 2650.261;  230.324
638.046;47209.566; 3889.563;  253.349
638.625;46661.242; 3742.642;  246.866
639.204;45790.617; 3368.739;  240.825
639.782;46334.973; 3252.536;  261.970
640.361;46669.098; 3769.430;  277.780
640.940;46622.164; 3029.845;  270.101
641.519;47930.730; 3411.010;  248.622
642.097;49394.746; 3468.976;  239.843
642.676;48397.313; 3277.091;  244.264
643.255;47332.328; 3134.106;  234.985
643.833;47819.047; 3497.271;  244.406
644.412;44848.262; 3098.736;  244.927
644.990;43820.879; 3282.351;  249.948
645.569;43606.145; 3462.566;  249.569
646.147;43804.961; 3659.082;  243.290
646.726;43978.578; 3322.997;  249.511
647.304;44545.441; 3115.312;  228.032
647.882;44783.059; 2640.727;  214.552
648.461;45281.523; 3351.192;  214.973
649.039;44685.441; 3530.157;  223.394
649.617;43442.859; 3489.872;  261.415
650.195;42316.074; 3353.387;  298.736
650.773;42151.789; 3091.453;  309.557
651.352;39833.805; 2590.768;  297.978
651.930;36764.621; 2564.833;  289.399
652.508;37325.988; 3551.098;  285.620
653.086;37778.254; 3440.013;  272.241
653.663;39680.719; 2990.578;  265.062
654.241;40620.438; 2792.493;  286.083
654.819;41709.102; 2853.908;  286.404
655.397;40922.617; 2912.974;  291.825
655.975;38778.484; 3153.889;  299.145
656.553;39793.902; 3877.154;  288.866
657.130;41264.668; 2906.969;  304.087
657.708;43077.582; 3383.234;  302.908
658.286;43969.551; 3277.849;  294.629
658.863;43159.367; 3314.064;  293.350
659.441;42806.980; 3362.129;  318.671
660.018;40861.699; 3170.495;  333.692
660.596;39211.016; 2602.860;  335.013
661.173;40122.180; 3065.175;  371.534
661.750;39930.945; 2921.590;  365.155
662.328;39159.063; 3475.555;  349.976
662.905;36500.230; 3089.470;  332.997
663.482;34421.746; 3185.135;  321.717
664.060;34380.160; 2967.500;  314.438
664.637;35742.078; 3479.216;  306.259
665.214;38039.543; 3308.981;  314.580
665.791;37536.609; 3123.946;  334.501
666.368;37124.375; 3073.011;  329.222
666.945;38169.441; 3524.926;  342.143
667.522;37940.156; 2952.591;  370.964
668.099;38196.523; 3177.956;  396.885
668.676;38243.488; 3198.021;  391.706
669.253;39684.258; 3893.537;  369.627
669.830;39475.824; 3748.952;  360.348
670.407;40257.289; 3179.367;  344.769
670.984;41953.555; 3170.182;  322.890
671.560;43026.422; 3478.447;  316.910
672.137;42198.336; 3086.412;  322.531
672.714;40631.805; 3412.327;  318.552
673.290;39696.918; 3353.242;  324.473
673.867;39661.785; 3005.758;  340.594
674.443;39354.250; 2823.273;  319.515
675.020;39676.066; 3320.938;  286.336
675.596;38581.984; 3122.303;  247.557
676.173;37167.051; 2775.118;  227.778
676.749;36358.965; 2440.583;  224.399
677.326;36661.230; 2720.848;  230.520
677.902;37597.898; 2969.614;  241.841
678.478;38433.664; 2785.979;  239.762
679.054;41072.531; 4735.894;  248.583
679.631;39573.445; 3382.509;  237.503
680.207;41455.613; 4033.774;  245.924
680.783;40879.328; 2552.439;  224.845
681.359;42785.047; 3169.854;  209.666
681.935;42214.813; 3280.969;  191.687
682.511;40895.129; 3249.485;  210.008
683.087;39979.645; 3427.900;  213.329
683.663;38942.359; 3097.765;  216.850
684.239;37688.777; 2784.080;  229.471
684.815;38403.344; 3575.995;  248.792
685.390;39604.258; 4099.360;  231.813
685.966;39207.324; 3266.775;  221.234
686.542;39296.090; 2863.590;  214.255
687.118;40499.707; 3320.555;  212.276
687.693;40544.324; 3455.871;  233.096
688.269;40419.090; 3116.986;  246.917
688.844;40369.203; 3409.751;  236.938
689.420;39161.320; 3234.216;  242.059
689.995;40192.086; 3955.081;  245.480
690.571;40899.703; 3796.096;  244.701
691.146;39151.770; 3090.461;  251.922
691.722;38942.086; 3390.977;  284.743
692.297;38931.750; 3070.992;  320.664
692.872;38056.168; 2938.857;  313.885
693.448;38575.934; 2851.972;  290.106
694.023;39323.148; 3270.537;  304.327
694.598;39868.668; 3281.352;  319.648
695.173;41022.984; 3074.267;  323.169
695.748;41745.098; 2622.032;  376.389
696.323;41428.664; 3181.848;  397.610
696.898;40668.480; 3663.213;  430.231
697.473;39382.648; 2675.378;  454.952
698.048;39498.262; 3100.643;  478.973
698.623;39238.629; 2775.408;  477.094
699.198;40677.344; 3296.673;  496.915
699.773;40789.363; 2968.338;  490.236
700.348;42172.129; 2855.503;  519.957
700.922;43112.742; 3266.769;  575.678
701.497;44606.059; 3214.734;  621.399
702.072;44469.578; 3572.049;  664.420
702.646;41098.992; 3489.264;  690.541
703.221;39417.609; 3316.479;  748.862
703.795;40005.477; 2866.944;  774.282
704.370;40557.039; 2368.859;  799.803
704.944;40502.809; 3040.724;  875.824
705.519;40823.273; 3314.189;  902.945
706.093;40867.141; 2920.555;  889.266
706.668;43641.406; 3412.170;  903.487
707.242;43234.023; 3528.885;  881.708
707.816;40186.488; 3069.850;  892.329
708.390;37569.402; 3201.315;  970.250
708.965;37418.371; 3325.180;  984.671
709.539;38357.984; 3114.196; 1026.092
710.113;39190.152; 3252.260; 1067.913
710.687;39911.719; 3517.676; 1166.434
711.261;39555.184; 2833.341; 1190.854
711.835;39805.152; 2880.906; 1197.275
712.409;39445.367; 2653.871; 1308.096
712.983;38637.184; 2679.236; 1461.617
713.557;37348.898; 2685.901; 1611.838
714.131;35426.016; 3113.266; 1554.359
714.704;33351.082; 2895.082; 1520.780
715.278;33180.797; 3222.897; 1575.101
715.852;34892.113; 3470.012; 1689.822
716.425;37470.879; 4004.327; 1829.143
716.999;38235.645; 2639.792; 2008.664
717.573;40298.512; 3400.607; 2000.485
718.146;41658.727; 3920.772; 1914.506
718.720;40224.945; 3289.587; 1818.026
719.293;40230.262; 3420.603; 1734.147
719.867;41575.125; 2978.718; 1716.968
720.440;42862.645; 3762.983; 1918.589
721.013;42459.508; 3009.698; 1975.410
721.587;41924.676; 2699.613; 2073.331
722.160;42026.141; 3580.428; 2357.852
722.733;41325.809; 3255.993; 2657.073
723.306;40093.824; 3199.208; 2703.894
723.880;38536.988; 3275.924; 2549.415
724.453;38691.305; 3731.789; 2414.336
725.026;39287.172; 3028.604; 2298.557
725.599;39929.938; 3330.769; 2168.778
726.172;39595.004; 3408.434; 2106.099
726.745;39235.219; 3368.099; 2253.320
727.318;38770.586; 3569.714; 2404.740
727.891;36801.004; 3335.330; 2680.161
728.463;35908.418; 3299.945; 2838.882
729.036;35829.535; 2929.710; 2755.103
729.609;36397.801; 2886.525; 2731.824
730.182;37272.867; 3516.990; 2855.645
730.754;35791.734; 2429.705; 2946.866
731.327;35481.801; 3410.420; 2840.187
731.900;33431.066; 2693.685; 2647.608
732.472;34142.531; 3153.400; 2473.929
733.045;34157.848; 3088.916; 2445.750
733.617;32628.414; 2649.781; 2511.771
734.190;33190.230; 3402.746; 2581.592
734.762;31654.496; 3183.161; 2710.813
735.334;30375.613; 3226.876; 3005.733
735.907;30781.779; 3217.141; 3154.954
736.479;32564.994; 3646.706; 3171.675
737.051;34378.859; 3394.471; 3217.496
737.623;35920.727; 3454.537; 3246.217
738.195;36277.742; 2965.752; 2985.238
738.768;36814.910; 2505.117; 2727.559
739.340;38397.574; 3029.332; 2666.880
739.912;38523.293; 3500.247; 2769.601
740.484;39465.656; 3382.062; 2731.422
741.056;39806.273; 3095.677; 2963.043
741.628;39441.641; 2884.393; 3361.364
742.199;37778.207; 3726.758; 3641.185
742.771;34072.074; 2747.973; 3932.005
743.343;34525.637; 2892.188; 4319.926
743.915;37068.355; 3348.153; 4706.647
744.487;38845.070; 3424.018; 4874.968
745.058;38583.887; 3470.983; 4616.589
745.630;37614.055; 3443.048; 4253.410
746.201;36721.367; 3029.114; 4056.131
746.773;36303.535; 3400.929; 3772.952
747.344;35349.000; 3189.994; 3642.473
747.916;35076.168; 3284.209; 3752.294
748.487;34730.832; 3530.774; 4106.215
749.059;33301.000; 2812.789; 4457.835
749.630;32206.066; 2928.204; 4366.457
750.201;31442.082; 3174.669; 4600.078
750.773;31152.098; 2989.584; 4658.499
751.344;31713.314; 3218.450; 4609.319
751.915;31419.330; 3199.965; 4526.440
752.486;29727.846; 2936.130; 4536.061
753.057;29336.463; 3253.845; 4383.282
753.628;27781.430; 2929.210; 4296.503
754.199;29037.596; 3062.875; 4383.224
754.770;30394.012; 3447.690; 4653.545
755.341;31260.078; 3580.956; 4831.666
755.912;32348.893; 3144.621; 4831.387
756.483;34233.359; 3425.586; 4735.808
757.054;34136.426; 3037.201; 4685.029
757.625;33766.891; 2813.616; 4994.250
758.195;33773.156; 2715.581; 5051.471
758.766;35115.273; 3289.546; 5317.792
759.337;34947.840; 2678.361; 5646.512
759.907;34491.156; 2710.927; 5404.133
760.478;34205.723; 2981.742; 5090.954
761.048;34004.039; 3436.057; 4871.175
761.619;33724.754; 3347.172; 4589.396
762.189;33738.070; 3163.137; 4171.317
762.760;34002.836; 3487.402; 3872.538
763.330;33952.805; 3439.867; 3832.259
763.900;34716.770; 3307.282; 4150.180
764.471;33789.484; 2889.597; 4529.801
765.041;33836.703; 3647.513; 4715.922
765.611;34597.020; 3390.728; 4681.442
766.181;34229.684; 3151.943; 4717.063
766.751;33700.051; 3206.208; 4710.285
767.321;32765.766; 2792.273; 4450.305
767.891;32062.283; 3264.538; 4274.126
768.461;30920.248; 3133.903; 4215.047
769.031;30846.414; 3162.819; 4173.068
769.601;31176.631; 3616.234; 4174.689
770.171;30115.896; 2716.549; 4229.310
770.741;30520.313; 3070.114; 4352.031
771.311;30206.779; 3400.329; 4336.652
771.880;29159.895; 2883.294; 4300.873
772.450;28746.961; 2918.259; 4387.194
773.020;28050.828; 2672.274; 4220.415
773.589;27891.994; 2986.040; 4075.835
774.159;28039.609; 3001.155; 4105.756
774.729;27807.576; 2962.970; 4114.978
775.298;28552.043; 2956.985; 3693.298
775.867;29277.908; 2985.200; 3343.119
776.437;29960.275; 3189.415; 3062.040
777.006;29244.941; 2697.530; 2927.161
777.576;29355.207; 3412.845; 3046.482
778.145;29567.273; 3355.411; 3230.203
778.714;29062.840; 3134.176; 3253.324
779.283;29342.705; 3396.891; 3129.745
779.853;29519.322; 3144.606; 2983.566
780.422;29625.088; 3167.121; 2929.887
780.991;29496.104; 3361.886; 2863.908
781.560;29730.869; 3726.801; 2948.029
782.129;29612.986; 3306.616; 3074.149
782.698;29616.303; 3678.031; 2893.970
783.267;27963.369; 2957.447; 2721.391
783.836;28318.334; 3291.912; 2659.712
784.404;26912.500; 2793.427; 2622.233
784.973;25622.166; 2396.992; 2600.754
785.542;26506.982; 3138.857; 2528.475
786.111;26537.148; 3647.922; 2404.396
786.679;25649.615; 3399.337; 2365.717
787.248;23198.730; 2688.302; 2498.438
787.817;22648.047; 3005.118; 2645.659
788.385;24296.213; 3586.983; 2709.280
788.954;25070.830; 2722.048; 2620.500
789.522;26634.045; 3473.713; 2625.422
790.090;25641.361; 2745.878; 2743.843
790.659;26280.277; 3040.893; 2635.163
791.227;26873.494; 3102.208; 2495.484
791.795;26115.510; 3278.774; 2413.705
792.364;24928.777; 2861.989; 2345.326
792.932;25515.793; 3365.904; 2350.447
793.500;25440.760; 3074.819; 2429.768
794.068;25460.324; 2710.984; 2513.589
794.636;26101.191; 2902.149; 2664.310
795.204;25652.207; 2630.664; 2721.431
795.772;25786.023; 2893.129; 2802.052
796.340;25858.689; 2982.045; 2847.173
796.908;25013.057; 2635.510; 2997.194
797.476;24975.871; 2805.925; 3151.615
798.044;24924.738; 2584.190; 3110.735
798.612;24465.654; 3118.405; 2931.656
799.180;23981.070; 3221.920; 2785.777
799.747;22887.586; 3186.985; 2899.098
800.315;22083.553; 2742.900; 2955.519
800.883;23203.068; 2528.816; 2948.940
801.450;24532.285; 3132.981; 2965.361
802.018;25137.102; 3310.996; 3070.582
802.585;24934.467; 3164.661; 3156.103
803.153;25012.584; 2917.976; 3199.524
803.720;25191.600; 2940.291; 3168.845
804.287;24378.916; 3060.656; 3248.366
804.855;24359.482; 3522.221; 3406.187
805.422;23612.197; 3072.587; 3430.907
805.989;23364.564; 2879.402; 3453.528
806.556;23486.080; 2884.117; 3612.649
807.124;24307.346; 3489.532; 3736.570
807.691;23816.012; 2804.997; 3770.491
808.258;24145.879; 3153.362; 3705.012
808.825;23547.094; 3500.177; 3828.733
809.392;23464.160; 3747.692; 3986.754
809.959;23022.377; 3299.208; 4410.075
810.526;23453.293; 3767.823; 4774.996
811.093;23467.359; 3562.838; 4754.217
811.659;22308.275; 3128.103; 4661.238
812.226;21667.842; 3115.568; 4672.559
812.793;22290.508; 3263.933; 4822.979
813.360;22936.824; 3116.098; 5189.800
813.926;23681.340; 3289.164; 5310.622
814.493;22721.906; 2735.729; 5414.542
815.060;22111.473; 2560.044; 5548.963
815.626;22332.789; 2759.259; 5452.284
816.193;22776.705; 3232.324; 5339.305
816.759;22630.771; 2878.989; 5544.426
817.325;21957.537; 2569.604; 5706.547
817.892;22235.652; 3447.719; 5623.468
818.458;21928.119; 3307.734; 5586.689
819.024;22228.484; 3586.150; 5647.910
819.591;21636.852; 3149.865; 5762.031
820.157;21114.867; 2736.980; 6284.452
820.723;21357.434; 3309.295; 6906.973
821.289;22135.799; 4815.660; 7086.894
821.855;20757.717; 3390.275; 7054.915
822.421;20570.482; 2976.290; 7112.035
822.987;20539.998; 2804.456; 7256.156
823.553;20825.414; 3051.521; 7538.077
824.119;20837.631; 3497.936; 7594.298
824.685;20266.197; 3634.951; 7613.619
825.251;19542.713; 3431.966; 7644.140
825.816;19923.828; 3850.231; 7720.261
826.382;19959.994; 3417.596; 8014.282
826.948;20401.811; 3495.461; 8281.503
827.513;20300.377; 3081.677; 8289.624
828.079;19718.994; 2855.092; 8587.045
828.645;19501.160; 3266.957; 8821.865
829.210;18637.375; 2787.672; 9054.486
829.776;18676.143; 3378.837; 9054.607
830.341;18681.258; 3475.952; 9415.628
830.906;18481.674; 3587.367; 9932.449
831.472;17671.689; 2911.832;10150.271
832.037;18763.156; 3511.397; 9420.391
832.602;18891.023; 2986.963; 8664.912
833.167;18949.939; 3211.328; 8491.933
833.733;18990.654; 3502.643; 8872.854
834.298;17785.070; 2829.408; 9370.575
834.863;17603.486; 3292.073; 9610.695
835.428;16763.354; 3293.638; 9655.616
835.993;16650.369; 3384.553; 9437.838
836.558;16671.535; 3424.719; 9441.459
837.123;17766.402; 4203.833; 9600.979
837.688;17022.617; 3329.249; 9798.301
838.253;16552.234; 3300.764; 9902.921
838.817;15752.950; 3086.579;10339.742
839.382;15748.966; 3683.294;10548.363
839.947;14654.832; 3242.909;10252.484
840.511;14920.299; 3810.024;10040.005
841.076;13543.965; 2557.090;10099.926
841.641;14267.431; 3415.755;10347.347
842.205;14372.896; 3300.270;10817.368
842.770;15067.763; 3933.585;11435.289
843.334;14079.979; 3139.050;12072.409
843.898;13694.445; 3026.015;12635.431
844.463;13950.611; 3706.230;12537.252
845.027;12900.378; 3069.445;12759.673
845.591;13105.994; 3536.611;12821.993
846.156;12603.660; 3011.026;12520.914
846.720;13210.826; 3461.891;12390.436
847.284;13447.842; 3292.556;12956.456
847.848;13929.509; 3400.071;13240.177
848.412;13399.624; 3229.786;13216.998
848.976;13319.990; 3790.951;13014.619
849.540;13296.106; 4085.366;12355.740
850.104;12933.423; 3769.731;12208.761
850.668;11959.589; 2618.047;12106.882
851.232;12213.455; 2690.312;11862.103
851.796;12607.871; 3186.377;11700.523
852.359;12439.338; 3523.442;12375.944
852.923;12318.304; 3622.907;13087.966
853.487;12149.370; 3467.122;13297.187
854.050;10889.486; 2229.537;13851.207
854.614;11883.102; 3075.002;14854.229
855.177;12088.818; 3345.118;15802.149
855.741;11790.385; 3372.683;16603.570
856.304;11664.101; 3569.698;16359.891
856.868;10840.316; 2899.963;14365.512
857.431;11134.283; 3212.078;13361.333
857.995;11115.049; 3131.543;14130.554
858.558;11535.365; 3354.608;14883.175
859.121;11676.182; 3526.023;15754.195
859.684;11343.397; 3302.589;15995.017
860.247;11095.514; 3220.754;15149.537
860.810;10900.279; 3080.769;14640.358
861.374;11854.346; 4121.834;15551.079
861.937;10563.912; 2843.599;16519.801
862.500;10601.128; 3037.314;16796.521
863.062;10047.645; 2900.929;16538.742
863.625;10049.610; 3345.945;16716.764
864.188; 9514.026; 3061.310;17055.084
864.751; 9405.242; 3054.625;17197.705
865.314; 9723.159; 3265.590;17151.625
865.876;10046.725; 3597.705;17783.547
866.439; 9772.191; 3504.320;19283.467
867.002; 9772.957; 4041.385;20256.389
867.564; 9004.423; 3673.850;20485.410
868.127; 8400.989; 3243.166;20789.730
868.689; 8534.905; 3371.481;21981.951
869.252; 8974.321; 3653.396;23803.771
869.814; 8221.338; 2957.311;24974.094
870.377; 8519.704; 3339.426;24690.314
870.939; 9800.920; 4634.291;23963.436
871.501; 8481.687; 3317.056;25167.156
872.063; 7598.252; 2423.721;26995.477
872.626; 7756.068; 2643.287;27443.098
873.188; 8326.234; 3320.952;26718.418
873.750; 7987.001; 3183.817;26558.840
874.312; 7655.667; 3077.782;26701.561
874.874; 8349.633; 3897.947;27970.582
875.436; 7928.199; 3545.262;29173.402
875.998; 7968.016; 3760.177;30376.623
876.560; 7765.532; 3558.192;32507.344
877.122; 7239.748; 2972.758;34833.066
877.683; 7632.514; 3489.773;36458.285
878.245; 6878.780; 3084.888;37248.207
878.807; 7101.946; 3431.653;36758.027
879.369; 6560.112; 2817.818;35223.551
879.930; 6701.628; 2896.433;33824.969
880.492; 7504.345; 3719.498;34436.492
881.053; 6572.511; 2936.513;37745.313
881.615; 6464.477; 3049.928;41184.633
882.176; 6419.143; 3184.294;42871.555
882.738; 6674.409; 3543.059;41693.074
883.299; 5654.425; 2606.974;40289.895
883.860; 5645.991; 2682.289;39231.215
884.422; 6454.208; 3496.904;38264.039
884.983; 5816.224; 2900.669;37171.859
885.544; 6120.940; 3324.135;35842.379
886.105; 5917.356; 3256.500;34810.000
886.666; 5621.022; 3082.465;34519.020
887.227; 5172.438; 2677.830;33905.641
887.788; 5784.254; 3365.945;34502.965
888.349; 5168.521; 2792.760;34241.785
888.910; 5798.086; 3503.575;33722.203
889.471; 5519.753; 3330.690;32539.625
890.032; 5314.019; 3233.156;31528.346
890.593; 5466.585; 3455.721;32655.068
891.153; 5123.851; 3201.686;33882.289
891.714; 4601.268; 2748.801;33318.711
892.275; 4621.434; 2823.766;31848.930
892.835; 5285.300; 3584.131;30339.752
893.396; 5144.016; 3533.946;30074.973
893.956; 4659.982; 3153.211;30338.393
894.517; 4743.248; 3314.276;30864.113
895.077; 4724.964; 3378.692;29766.734
895.638; 5229.130; 3893.757;26379.557
896.198; 4163.646; 2873.672;24056.277
896.758; 4800.513; 3551.287;22961.898
897.319; 4380.229; 3196.402;21772.020
897.879; 4373.295; 3228.517;20877.539
898.439; 3796.411; 2693.532;19509.461
898.999; 4539.077; 3458.698;17297.582
899.559; 4421.793; 3410.263;14712.002
900.119; 3859.310; 2878.378;12790.224
900.679; 4778.525; 3841.793;11586.744
901.239; 4401.992; 3492.008;10776.465
901.799; 4138.658; 3273.773; 9691.687
902.359; 3769.474; 2935.988; 8725.907
902.919; 3714.190; 2899.303; 8305.728
903.479; 3719.506; 2929.219; 8172.649
904.038; 3578.272; 2776.034; 7913.870
904.598; 3198.188; 2438.899; 7262.291
905.158; 3777.005; 3054.164; 6609.012
905.717; 3884.821; 3180.929; 6236.133
906.277; 3924.137; 3231.694; 5829.054
906.836; 4090.053; 3419.659; 5396.674
907.396; 4040.969; 3379.124; 4964.195
907.955; 4050.085; 3395.790; 4528.917
908.515; 3710.052; 3079.905; 4223.837
909.074; 3770.718; 3122.370; 4023.958
909.633; 3749.984; 3125.285; 4065.379
910.192; 4519.250; 3888.650; 4066.300
910.752; 3713.500; 3107.050; 3971.600
911.311; 3648.050; 3061.700; 3839.600
911.870; 3543.200; 2931.450; 3684.500
912.429; 4220.400; 3637.550; 3635.600
912.988; 4134.550; 3564.800; 3689.800
913.547; 3457.400; 2885.150; 3737.700
914.106; 3830.750; 3288.500; 3740.300
914.665; 3812.750; 3256.700; 3604.600
915.224; 4155.400; 3596.000; 3358.700
915.782; 3577.850; 3015.750; 3188.400
916.341; 4257.500; 3711.050; 3091.400
916.900; 3610.500; 3067.900; 3044.800
917.458; 3454.800; 2915.950; 2888.600
918.017; 3785.550; 3237.300; 2818.900
918.576; 3614.550; 3089.100; 2838.600
919.134; 3232.750; 2715.400; 2880.100
919.693; 3576.750; 3056.600; 2996.300
920.251; 3524.350; 2995.100; 3183.100
920.809; 3325.700; 2792.550; 3247.000
921.368; 3537.550; 3007.550; 3156.600
921.926; 3410.600; 2877.800; 2964.900
922.484; 3721.500; 3194.350; 2846.300
923.042; 3606.400; 3070.450; 2890.400
923.601; 4229.700; 3726.050; 2987.700
924.159; 3914.900; 3413.500; 3049.800
924.717; 3379.250; 2858.100; 3087.000
925.275; 3725.750; 3203.000; 3093.400
925.833; 3111.950; 2572.600; 3182.400
926.391; 3917.100; 3386.350; 3397.900
926.949; 3538.650; 2999.500; 3575.400
927.506; 3788.550; 3242.150; 3713.400
928.064; 3597.250; 3077.650; 3871.300
928.622; 3647.000; 3111.550; 4092.800
929.180; 3298.250; 2759.400; 4499.300
929.737; 3222.600; 2672.100; 4813.200
930.295; 3884.400; 3349.550; 5084.100
930.853; 3448.100; 2901.100; 5185.000
931.410; 3288.300; 2744.250; 5313.100
931.968; 3947.950; 3404.900; 5339.600
932.525; 3712.250; 3174.600; 5399.900
933.082; 3246.900; 2696.750; 5457.500
933.640; 3841.550; 3279.250; 5692.900
934.197; 3602.300; 3037.200; 5821.200
934.754; 3622.950; 3057.100; 5617.900
935.312; 3458.700; 2888.800; 5512.400
935.869; 4265.750; 3694.250; 5582.400
936.426; 3487.750; 2913.050; 5650.100
936.983; 3563.500; 3012.150; 5657.400
937.540; 3276.400; 2695.150; 5564.300
938.097; 3849.200; 3263.500; 5574.000
938.654; 3560.300; 2968.350; 5665.900
939.211; 3849.650; 3272.500; 5931.600
939.768; 3677.550; 3086.350; 6153.600
940.324; 3598.500; 2991.700; 6397.600
940.881; 3484.000; 2869.650; 6454.200
941.438; 4164.250; 3565.650; 6206.900
941.995; 4064.500; 3453.450; 6003.900
942.551; 3361.450; 2751.200; 6228.300
943.108; 3700.100; 3100.600; 6603.500
943.664; 3368.450; 2765.750; 7188.100
944.221; 4517.100; 3895.150; 7579.900
944.777; 3338.300; 2725.400; 7658.100
945.334; 3409.850; 2816.100; 7670.400
945.890; 3723.650; 3118.050; 7525.100
946.446; 3735.900; 3144.500; 7261.500
947.003; 3836.400; 3245.650; 6949.200
947.559; 4341.100; 3732.950; 6773.100
948.115; 4148.000; 3528.450; 6668.400
948.671; 3824.050; 3227.950; 6488.400
949.227; 3248.250; 2637.250; 6236.600
949.783; 3192.200; 2587.300; 6008.900
950.339; 3899.300; 3289.150; 5934.100
950.895; 4098.450; 3496.200; 5933.500
951.451; 3569.000; 2986.850; 6074.700
952.007; 3940.400; 3351.550; 6066.400
952.563; 3597.350; 3003.150; 5884.100
953.118; 3458.700; 2890.650; 5733.800
953.674; 3653.750; 3085.200; 5734.300
954.230; 3655.950; 3109.450; 6039.700
954.785; 3642.400; 3082.050; 6383.500
955.341; 3947.700; 3391.750; 6568.200
955.897; 3153.200; 2591.000; 6488.600
956.452; 3795.500; 3220.450; 6239.200
957.008; 4539.650; 3965.400; 5954.600
957.563; 4129.150; 3557.250; 5816.700
958.118; 3407.800; 2863.200; 5828.200
958.674; 3740.450; 3190.600; 5717.400
959.229; 4163.800; 3603.450; 5506.800
959.784; 3220.200; 2675.300; 5292.200
960.339; 4149.050; 3593.850; 5101.900
960.894; 3953.300; 3399.800; 5093.200
961.449; 3385.700; 2826.900; 5227.900
962.004; 5288.250; 4730.250; 5349.300
962.559; 3415.700; 2879.000; 5514.900
963.114; 2784.250; 2253.950; 5717.300
963.669; 3645.650; 3149.350; 5841.400
964.224; 3477.550; 2965.400; 5805.900
964.779; 3244.550; 2737.750; 5723.400
965.334; 4155.050; 3651.600; 5779.500
965.888; 3427.900; 2941.950; 5948.500
966.443; 3963.050; 3449.700; 6344.200
966.998; 3107.250; 2597.000; 6666.300
967.552; 3604.600; 3097.050; 6710.100
968.107; 3427.200; 2918.550; 6593.500
968.661; 3736.250; 3217.300; 6344.100
969.216; 3366.300; 2874.550; 6062.400
969.770; 3709.400; 3217.650; 5785.500
970.324; 3716.850; 3254.350; 5426.800
970.879; 3897.150; 3406.200; 5016.800
971.433; 3929.700; 3469.200; 4904.500
971.987; 3629.550; 3176.500; 4991.000
972.541; 3764.750; 3289.150; 4978.500
973.095; 4226.450; 3769.950; 4832.000
973.649; 3155.250; 2701.100; 4767.900
974.203; 3287.450; 2826.700; 4881.200
974.757; 3419.250; 2957.400; 4969.500
975.311; 3545.600; 3099.850; 4953.000
975.865; 3582.050; 3132.000; 4884.300
976.419; 3477.200; 3016.200; 4739.800
976.973; 3393.150; 2967.900; 4698.100
977.526; 3971.650; 3539.750; 4631.100
978.080; 3140.700; 2719.950; 4621.600
978.634; 3788.850; 3373.250; 4650.200
979.187; 3757.650; 3329.300; 4669.200
979.741; 4370.450; 3920.100; 4658.000
980.294; 3162.500; 2728.850; 4579.100
980.848; 2805.350; 2385.800; 4452.800
981.401; 3341.650; 2938.700; 4271.900
981.955; 3530.650; 3122.100; 4087.800
982.508; 2985.050; 2596.550; 3973.900
983.061; 3891.300; 3511.650; 3928.600
983.615; 3255.150; 2864.250; 3851.200
984.168; 3101.350; 2731.750; 3734.800
984.721; 3699.350; 3315.350; 3628.300
985.274; 3623.900; 3248.550; 3564.300
985.827; 3471.750; 3126.500; 3558.100
986.380; 2891.250; 2523.850; 3559.900
986.933; 3659.250; 3277.950; 3688.700
987.486; 3657.800; 3280.750; 3778.500
988.039; 3624.650; 3278.200; 3559.900
988.591; 3855.300; 3494.400; 3219.300
989.144; 3020.100; 2681.750; 2902.900
989.697; 3161.550; 2832.250; 2722.600
990.250; 3705.550; 3377.950; 2618.000
990.802; 3163.650; 2868.550; 2523.900
991.355; 4384.050; 4067.550; 2436.500
991.907; 3806.075; 3500.525; 2412.200
992.460; 3228.100; 2933.500; 2387.900
993.012; 3242.750; 2944.500; 2365.800
993.565; 3035.550; 2742.700; 2311.100
994.117; 4306.900; 3997.250; 2308.700
994.669; 3030.350; 2743.250; 2249.300
995.221; 3553.600; 3276.350; 2158.100
995.774; 3509.750; 3232.850; 2085.600
996.326; 3258.750; 3002.500; 2068.100
996.878; 3823.900; 3550.000; 1975.300
997.430; 3097.500; 2832.800; 1929.500
997.982; 3377.050; 3114.350; 1861.900
998.534; 3347.850; 3079.500; 1830.200
999.086; 3320.600; 3080.400; 1823.200
999.638; 2911.500; 2675.850; 1815.000
1000.190; 3165.750; 2926.950; 1796.600
1000.741; 3386.700; 3148.450; 1738.800
1001.293; 3088.250; 2849.700; 1666.200
1001.845; 3072.950; 2838.350; 1566.500
1002.396; 3439.200; 3204.050; 1471.900
1002.948; 3403.400; 3172.500; 1398.000
1003.500; 3322.250; 3107.700; 1356.500
1004.051; 4369.400; 4128.400; 1294.200
1004.603; 3751.900; 3553.050; 1190.000
1005.154; 2792.050; 2604.050; 1063.900
1005.705; 3410.400; 3223.450;  968.300
1006.257; 3367.050; 3172.950;  889.800
1006.808; 3271.850; 3078.150;  801.500
1007.359; 3714.100; 3544.250;  716.400
1007.910; 3082.200; 2920.100;  639.100
1008.461; 3579.150; 3405.550;  561.600
1009.013; 2805.450; 2638.450;  500.400
1009.564; 3910.200; 3740.150;  476.100
1010.115; 2845.650; 2688.250;  431.600
1010.665; 2905.300; 2745.000;  409.300
1011.216; 3249.850; 3103.700;  399.700
1011.767; 3380.800; 3217.900;  388.100
1012.318; 3535.950; 3410.550;  381.400
1012.869; 3274.950; 3111.850;  375.400
1013.419; 2891.400; 2737.350;  357.600
1013.970; 3262.550; 3123.100;  358.300
1014.521; 2987.450; 2826.000;  344.100
1015.071; 3304.700; 3144.400;  322.800
1015.622; 3072.350; 2938.550;  320.600
1016.172; 2882.650; 2744.450;  301.700
1016.723; 2978.050; 2827.350;  289.800
1017.273; 2949.250; 2795.650;  287.600
1017.823; 3177.450; 3030.550;  278.700
1018.374; 2991.000; 2835.900;  274.400
1018.924; 3541.950; 3392.300;  283.200
1019.474; 3509.650; 3375.500;  278.500
1020.024; 3209.000; 3070.150;  274.700
1020.574; 3589.650; 3450.500;  272.700
1021.124; 3326.000; 3187.200;  278.400
1021.674; 2720.950; 2577.450;  269.200
1022.224; 3523.350; 3382.700;  267.800
1022.774; 3272.900; 3140.650;  258.100
1023.324; 3747.800; 3603.750;  260.000
1023.874; 4441.100; 4296.550;  260.700
1024.423; 3007.100; 2871.350;  252.700
1024.973; 2946.150; 2810.850;  234.700
1025.523; 3037.650; 2908.150;  226.500
1026.072; 2978.850; 2839.150;  225.500
1026.622; 3347.350; 3205.850;  210.100
1027.172; 3537.650; 3417.050;  213.000
1027.721; 2942.250; 2806.750;  207.700
1028.270; 3304.050; 3188.850;  205.400
1028.820; 3173.000; 3028.250;  201.000
1029.369; 3025.750; 2897.000;  201.000
1029.918; 3177.350; 3064.000;  198.400
1030.468; 2772.200; 2639.150;  199.200
1031.017; 3151.750; 3030.550;  192.600
1031.566; 3005.250; 2886.650;  197.400
1032.115; 3457.050; 3326.550;  188.300
1032.664; 2982.050; 2847.400;  193.700
1033.213; 3670.100; 3540.000;  191.900
1033.762; 3150.600; 3012.500;  184.500
1034.311; 3383.750; 3248.900;  194.300
1034.860; 3439.250; 3313.250;  192.300
1035.408; 3630.300; 3520.300;  182.600
1035.957; 3584.800; 3460.550;  173.900
1036.506; 2590.450; 2477.900;  185.200
1037.055; 4277.700; 4143.100;  182.500
1037.603; 3320.600; 3190.300;  167.600
1038.152; 2615.500; 2488.400;  168.200
1038.700; 2874.850; 2773.100;  169.600
1039.249; 3406.250; 3282.400;  164.300
1039.797; 3168.650; 3028.700;  169.600
1040.345; 3525.150; 3410.200;  167.100
1040.894; 3124.100; 3023.800;  164.400
1041.442; 3163.750; 3048.250;  158.300
1041.990; 2794.650; 2680.650;  160.000
1042.538; 2665.050; 2544.200;  156.800
1043.087; 2807.450; 2691.650;  146.600
1043.635; 3387.550; 3272.250;  162.400
1044.183; 2941.300; 2833.000;  156.300
1044.731; 2850.750; 2748.650;  158.100
1045.279; 3382.500; 3272.550;  154.500
1045.827; 4570.500; 4447.750;  146.200
1046.374; 2537.750; 2429.100;  154.000
1046.922; 2946.200; 2832.250;  149.000
1047.470; 3498.550; 3382.600;  154.900
1048.018; 3264.600; 3169.550;  148.400
1048.565; 3612.050; 3503.450;  146.300
1049.113; 2757.650; 2642.200;  156.100
1049.660; 3123.850; 3015.750;  154.300
1050.208; 3401.600; 3280.300;  149.400
1050.755; 3041.100; 2940.200;  157.500
1051.303; 3475.600; 3360.300;  157.700
1051.850; 3181.400; 3064.700;  152.800
1052.397; 2349.950; 2224.000;  146.300
1052.945; 3095.700; 2993.300;  149.500
1053.492; 3761.550; 3655.750;  149.300
1054.039; 3654.750; 3553.450;  163.100
1054.586; 2803.700; 2689.000;  150.400
1055.133; 3519.150; 3408.800;  153.500
1055.680; 3261.850; 3141.700;  155.600
1056.227; 2696.000; 2591.100;  148.700
1056.774; 4049.850; 3934.400;  151.500
1057.321; 2604.100; 2497.900;  143.700
1057.868; 3264.550; 3163.450;  145.300
1058.415; 3294.050; 3180.750;  153.500
1058.961; 3430.750; 3305.900;  149.900
1059.508; 3234.200; 3125.750;  147.300
1060.055; 2928.500; 2846.550;  151.000
1060.601; 3129.300; 3017.200;  148.700
1061.148; 3165.250; 3050.800;  153.800
1061.694; 3001.300; 2886.100;  150.500
1062.241; 3001.100; 2895.950;  149.100
1062.787; 3355.000; 3267.600;  153.000
1063.334; 4093.600; 3977.950;  153.200
1063.880; 3404.750; 3310.600;  148.400
1064.426; 3592.600; 3486.900;  149.200
1064.972; 3031.650; 2916.200;  156.400
1065.518; 2862.200; 2745.750;  144.700
1066.065; 3183.350; 3085.050;  139.400
1066.611; 3035.650; 2934.800;  139.300
1067.157; 3247.250; 3152.650;  138.400
1067.703; 3399.550; 3304.550;  142.700
1068.249; 3024.150; 2929.500;  136.700
1068.794; 3187.050; 3066.900;  139.400
1069.340; 2908.600; 2812.300;  142.700
1069.886; 3008.500; 2898.150;  135.600
1070.432; 2714.350; 2626.050;  133.400
1070.977; 3073.600; 2958.900;  138.200
1071.523; 2857.200; 2759.500;  132.400
1072.068; 2932.000; 2822.600;  132.700
1072.614; 2644.000; 2543.300;  127.000
1073.160; 3537.600; 3439.050;  131.300
1073.705; 2921.950; 2827.350;  135.700
1074.250; 2835.650; 2745.150;  133.000
1074.796; 3350.200; 3251.800;  138.000
1075.341; 3379.150; 3287.550;  137.300
1075.886; 3001.700; 2906.250;  134.300
1076.431; 3361.750; 3269.600;  138.200
1076.976; 3288.600; 3169.850;  132.200
1077.521; 2953.500; 2852.750;  138.900
1078.067; 2951.200; 2877.550;  128.600
1078.612; 3420.050; 3337.100;  138.900
1079.156; 3063.200; 2964.300;  128.900
1079.701; 3547.450; 3461.200;  129.700
1080.246; 3557.850; 3472.100;  128.600
1080.791; 3223.050; 3126.450;  122.600
1081.336; 3370.100; 3267.050;  122.000
1081.880; 3327.300; 3235.450;  123.900
1082.425; 2905.550; 2817.050;  120.600
1082.970; 3684.650; 3585.800;  124.500
1083.514; 3049.250; 2964.550;  112.000
1084.059; 2981.200; 2881.350;  120.700
1084.603; 2893.250; 2813.400;  116.000
1085.147; 3327.150; 3233.650;  116.300
1085.692; 3695.700; 3605.850;  108.200
1086.236; 2566.600; 2467.450;  114.600
1086.780; 3874.750; 3788.950;  118.900
1087.325; 3355.250; 3278.100;  120.400
1087.869; 3140.900; 3065.000;  110.500
1088.413; 3612.100; 3514.400;  114.000
1088.957; 2720.000; 2657.500;  114.300
1089.501; 3968.950; 3866.800;  114.600
1090.045; 3747.400; 3647.650;  114.200
1090.589; 2900.100; 2823.050;  105.500
1091.133; 3451.450; 3370.250;  111.800
1091.676; 2999.000; 2906.550;  110.900
1092.220; 3085.050; 3001.500;  110.100
1092.764; 3632.500; 3559.850;  108.100
1093.307; 3465.200; 3374.050;  109.900
1093.851; 2838.700; 2764.850;  107.500
1094.395; 3541.650; 3464.300;   96.200
1094.938; 3244.300; 3176.450;   99.300
1095.482; 2871.800; 2777.700;   97.700
1096.025; 3663.900; 3584.200;   84.900
1096.568; 3999.250; 3894.400;   88.500
1097.112; 2574.150; 2500.700;   95.700
1097.655; 3057.950; 2976.900;   97.300
1098.198; 3070.400; 2987.450;   92.600
1098.741; 3171.050; 3073.000;   91.800
1099.285; 3384.800; 3288.950;   88.000
1099.828; 2240.750; 2167.850;   91.700
1100.371; 3149.400; 3062.250;   89.900
1100.914; 3538.100; 3450.800;   91.500
1101.457; 3489.800; 3415.400;   88.100
1101.999; 2962.150; 2903.450;   86.400
1102.542; 3283.650; 3213.850;   90.800
1103.085; 3409.350; 3327.750;   95.400
1103.628; 3970.150; 3890.900;   97.700
1104.170; 3002.700; 2925.350;   84.000
1104.713; 3333.400; 3260.600;   93.900
1105.256; 2878.550; 2790.400;   93.000
1105.798; 2580.300; 2509.350;   85.600
1106.341; 3774.500; 3711.650;   87.100
1106.883; 2681.550; 2602.700;   85.200
1107.425; 3465.650; 3392.850;   85.000
1107.968; 3190.000; 3120.200;   84.300
1108.510; 3533.800; 3469.550;   88.200
1109.052; 3199.300; 3127.500;   86.600
1109.594; 2888.500; 2818.200;   79.400
1110.136; 3331.200; 3252.450;   81.700
1110.679; 3243.550; 3169.300;   75.500
1111.221; 3129.200; 3058.750;   88.500
1111.763; 2868.100; 2783.600;   87.700
1112.304; 2799.900; 2733.150;   89.700
1112.846; 3456.050; 3379.650;   81.900
1113.388; 4954.000; 4868.150;   86.400
1113.930; 3597.100; 3517.100;   84.700
1114.472; 3145.400; 3076.650;   78.900
1115.013; 2849.500; 2768.850;   78.100
1115.555; 3057.250; 2999.550;   84.900
1116.097; 2971.100; 2900.700;   79.200
1116.638; 3567.100; 3511.250;   83.700
1117.180; 3447.650; 3365.700;   85.500
1117.721; 2982.950; 2905.200;   78.800
1118.262; 3524.150; 3457.150;   77.400
1118.804; 3286.950; 3228.500;   81.400
1119.345; 3011.000; 2952.800;   77.800
1119.886; 3680.350; 3589.850;   81.200
1120.427; 3053.400; 2983.550;   77.200
1120.969; 3113.900; 3047.550;   75.200
1121.510; 2934.350; 2856.600;   80.900
1122.051; 3767.750; 3698.400;   77.300
1122.592; 3418.200; 3354.800;   73.300
1123.133; 2826.050; 2752.350;   90.100
1123.673; 3695.250; 3621.550;   75.000
1124.214; 3181.200; 3111.950;   80.600
1124.755; 3353.700; 3265.500;   78.000
1125.296; 3229.350; 3158.950;   77.500
1125.836; 3597.350; 3524.950;   80.400
1126.377; 3129.400; 3070.600;   75.600
1126.918; 3214.050; 3158.000;   78.900
1127.458; 3235.300; 3180.150;   78.000
1127.999; 3436.850; 3357.850;   76.100
1128.539; 3614.150; 3535.500;   81.400
1129.079; 3323.650; 3258.850;   77.400
1129.620; 2888.000; 2839.800;   68.000
1130.160; 2813.300; 2740.700;   77.500
1130.700; 3330.950; 3267.000;   76.300
1131.240; 3354.200; 3292.800;   66.800
1131.781; 3252.050; 3179.900;   70.600
1132.321; 3134.200; 3081.550;   77.200
1132.861; 2915.750; 2850.850;   70.400
1133.401; 3119.850; 3042.950;   68.700
1133.941; 3268.300; 3210.250;   68.500
1134.481; 3155.950; 3076.550;   75.900
1135.020; 3175.450; 3106.950;   66.600
1135.560; 3508.650; 3449.250;   68.100
1136.100; 2604.950; 2539.250;   64.900
1136.640; 2665.100; 2617.650;   72.500
1137.179; 2785.050; 2736.600;   69.700
1137.719; 3168.300; 3106.700;   68.400
1138.258; 3061.950; 3005.100;   67.000
1138.798; 3439.150; 3401.750;   69.600
1139.337; 2521.300; 2450.900;   64.000
1139.877; 3351.500; 3301.250;   64.500
1140.416; 4585.950; 4493.700;   74.900
1140.955; 2776.500; 2706.800;   67.200
1141.494; 3521.800; 3466.950;   69.900
1142.034; 3054.500; 2982.500;   59.100
1142.573; 3384.950; 3309.250;   65.900
1143.112; 2889.050; 2840.000;   70.600
1143.651; 2806.700; 2757.500;   67.100
1144.190; 3627.700; 3565.750;   56.700
1144.729; 3162.700; 3117.050;   61.800
1145.267; 3036.250; 2980.150;   62.500
1145.806; 3320.650; 3273.900;   68.500
1146.345; 3359.850; 3290.400;   58.300
1146.884; 3269.750; 3224.900;   63.100
1147.422; 2779.300; 2726.700;   54.800
1147.961; 3719.450; 3670.700;   67.600
1148.500; 3509.300; 3445.700;   64.700
1149.038; 3346.350; 3280.950;   61.000
1149.577; 3681.000; 3620.550;   65.100
1150.115; 2365.900; 2305.150;   58.100
1150.653; 3190.050; 3136.150;   60.500
1151.192; 2908.150; 2861.500;   56.600
1151.730; 3440.600; 3386.450;   62.300
1152.268; 3070.550; 3019.950;   55.500
1152.806; 3017.150; 2967.600;   58.200
1153.344; 3010.150; 2961.100;   55.000
1153.882; 3114.000; 3083.300;   64.200
1154.421; 2459.700; 2405.850;   60.300
1154.958; 3141.700; 3091.950;   58.100
1155.496; 3388.850; 3327.500;   55.800
1156.034; 3793.300; 3745.800;   61.000
1156.572; 3507.500; 3457.550;   56.200
1157.110; 2469.200; 2423.050;   53.200
1157.647; 3571.800; 3501.850;   57.400
1158.185; 2993.900; 2925.650;   55.500
1158.723; 2689.050; 2619.950;   58.000
1159.260; 3673.000; 3598.900;   53.700
1159.798; 3456.850; 3406.100;   51.700
1160.335; 3298.700; 3257.400;   59.600

