source_left
Integration time [ms]: 2152.735
Averaging Nr. [scans]: 20
Smoothing Nr. [pixels]: 0
Data measured with spectrometer [name]: 7414430SP
Wave   ;Sample   ;Dark     ;Reference
[nm]   ;[counts] ;[counts] ;[counts] 

288.544; 3333.800; 3108.699;    6.613
289.143; 2765.255; 2535.224;   14.216
289.742; 3552.531; 3309.371;   11.816
290.341; 3389.766; 3178.834;   -4.936
290.940; 3087.429; 2883.297;    0.852
291.538; 3888.625; 3676.572;    1.792
292.137; 3442.352; 3225.295;    6.262
292.736; 4436.266; 4214.734;    8.164
293.335; 3176.780; 2957.363;   -6.418
293.934; 3398.908; 3189.036;   -2.904
294.532; 4767.225; 4544.178;   -5.162
295.131; 3783.220; 3567.669;  -10.283
295.730; 3633.862; 3461.108;  -16.141
296.328; 3523.718; 3341.285;  -14.740
296.927; 3498.737; 3299.035;   -8.768
297.525; 3476.284; 3291.685;  -15.255
298.124; 2844.302; 2668.372;  -22.063
298.722; 3415.853; 3216.651;  -14.796
299.321; 3151.154; 2956.017;  -10.466
299.919; 3379.759; 3183.860;  -10.979
300.518; 3087.274; 2897.000;  -12.077
301.116; 3081.482; 2886.998;  -13.509
301.715; 3269.075; 3090.855;  -11.939
302.313; 3156.015; 2976.882;  -15.424
302.911; 3352.531; 3168.427;  -19.833
303.509; 4355.193; 4169.813;   -3.567
304.108; 3472.323; 3297.328;   -9.553
304.706; 3695.781; 3501.974;   -8.582
305.304; 3715.062; 3566.269;  -12.348
305.902; 3574.789; 3397.120;  -14.411
306.500; 3326.442; 3160.894;   -7.194
307.098; 3444.507; 3278.060;   -9.322
307.696; 3654.482; 3488.280;  -19.192
308.294; 3371.875; 3218.902;   -9.736
308.892; 3521.883; 3350.766;  -15.482
309.490; 3238.997; 3084.987;  -14.107
310.088; 3712.108; 3548.150;  -15.862
310.686; 3818.090; 3661.836;  -10.781
311.284; 3568.539; 3417.191;  -14.878
311.882; 3349.890; 3204.307;   -9.948
312.480; 3207.201; 3059.570;  -15.503
313.078; 3843.082; 3697.003;  -17.262
313.675; 3178.592; 3024.844;   -3.694
314.273; 3787.781; 3641.043;  -18.246
314.871; 2641.975; 2519.358;  -15.190
315.468; 3003.331; 2876.877;  -12.633
316.066; 3226.108; 3089.602;   -5.765
316.664; 3023.970; 2898.404;  -14.317
317.261; 4399.270; 4259.115;   -8.677
317.859; 3686.467; 3582.904;  -11.804
318.456; 4002.395; 3866.345;   -3.107
319.054; 3784.660; 3654.792;   -3.062
319.651; 3610.428; 3502.811;   -6.706
320.249; 3931.578; 3810.061;   -5.206
320.846; 3405.783; 3280.564;   -4.679
321.443; 4068.520; 3954.507;   -7.920
322.041; 3969.160; 3865.784;  -14.105
322.638; 3399.376; 3275.676;   -6.263
323.235; 3155.215; 3042.982;   -7.424
323.833; 3592.032; 3470.606;  -14.765
324.430; 2874.473; 2761.726;  -10.550
325.027; 4302.714; 4188.563;   -9.951
325.624; 3011.456; 2864.004;   -3.712
326.221; 3249.089; 3094.978;   -9.368
326.818; 3945.444; 3802.429;   -5.637
327.415; 3508.679; 3349.500;   -6.699
328.012; 3184.917; 3035.611;   -5.713
328.609; 3378.768; 3224.727;   -9.983
329.206; 3685.493; 3532.097;   -7.154
329.803; 3414.509; 3248.013;   -1.682
330.400; 3203.788; 3045.404;   -2.741
330.997; 3801.927; 3619.697;   -4.339
331.594; 3684.541; 3501.734;  -10.278
332.191; 3281.591; 3116.920;   -6.967
332.787; 3905.396; 3724.013;   -0.480
333.384; 3454.053; 3289.438;  -10.333
333.981; 3769.280; 3590.298;  -19.900
334.578; 3158.259; 2969.997;  -19.816
335.174; 3266.721; 3092.578;  -15.844
335.771; 3868.683; 3691.906;  -12.670
336.367; 3222.728; 3057.935;  -21.124
336.964; 3683.511; 3519.303;  -18.226
337.561; 3337.752; 3161.723;  -13.311
338.157; 4299.241; 4139.463;  -19.006
338.754; 3699.022; 3539.853;  -19.418
339.350; 3292.734; 3121.468;  -29.433
339.946; 3522.344; 3353.616;  -16.622
340.543; 3963.784; 3804.481;  -16.744
341.139; 3313.706; 3173.990;  -21.841
341.735; 3634.426; 3498.133;  -25.012
342.332; 3195.245; 3049.651;  -19.156
342.928; 3738.619; 3579.939;  -20.443
343.524; 3600.212; 3470.325;  -14.397
344.120; 3486.513; 3337.625;  -20.654
344.716; 3341.516; 3186.489;   -5.730
345.313; 3789.318; 3626.631;  -10.929
345.909; 2861.491; 2707.501;  -19.843
346.505; 3503.673; 3343.427;  -19.645
347.101; 3924.028; 3770.280;   -9.618
347.697; 3734.521; 3581.695;  -10.305
348.293; 2863.069; 2710.684;  -23.189
348.889; 3498.024; 3361.245;  -18.418
349.485; 3192.237; 3030.202;  -10.476
350.081; 3673.337; 3512.044;  -17.320
350.676; 3250.249; 3109.615;  -21.088
351.272; 3862.550; 3684.294;  -12.821
351.868; 3659.943; 3488.766;  -13.165
352.464; 3386.556; 3240.363;  -12.464
353.059; 3027.754; 2855.452;  -22.547
353.655; 3710.442; 3549.232;   -9.379
354.251; 3598.059; 3445.800;   -8.266
354.846; 3517.745; 3370.948;  -17.705
355.442; 3542.609; 3399.353;   -9.317
356.038; 3548.393; 3385.948;  -11.049
356.633; 3430.311; 3270.882;  -10.006
357.229; 3449.239; 3289.287;  -13.120
357.824; 3337.084; 3174.533;  -15.647
358.420; 3187.252; 3026.268;  -19.204
359.015; 3236.965; 3073.075;  -12.263
359.610; 3664.453; 3500.029;  -16.421
360.206; 2792.707; 2649.219;  -20.074
360.801; 3001.207; 2841.571;  -13.277
361.396; 3441.094; 3262.217;   -5.822
361.992; 3162.184; 3000.733;  -11.247
362.587; 3167.823; 3024.385;  -21.502
363.182; 3266.278; 3094.822;   -7.461
363.777; 3552.591; 3387.129;   -8.719
364.372; 3524.608; 3376.429;  -14.590
364.967; 3243.851; 3080.715;  -15.145
365.563; 3932.969; 3759.886;   -7.192
366.158; 3248.867; 3092.218;   -5.662
366.753; 3058.849; 2900.501;   -8.378
367.348; 3588.438; 3436.360;  -14.990
367.942; 3322.171; 3152.594;   -6.005
368.537; 3620.510; 3461.988;  -11.504
369.132; 3372.516; 3222.983;  -10.576
369.727; 3007.865; 2844.688;  -12.573
370.322; 2764.183; 2609.549;  -11.560
370.917; 3428.099; 3269.715;  -10.388
371.511; 4244.250; 4081.183;   -9.161
372.106; 3806.001; 3644.565;  -10.245
372.701; 2786.178; 2642.120;  -10.158
373.296; 4195.917; 4042.225;   -4.719
373.890; 3119.073; 2986.934;  -11.802
374.485; 3373.737; 3235.774;  -13.500
375.079; 3616.144; 3484.222;   -6.276
375.674; 3983.630; 3854.349;   -0.447
376.268; 3350.841; 3198.927;   -6.916
376.863; 2816.066; 2682.844;  -14.483
377.457; 3219.312; 3074.830;   -6.903
378.052; 3755.808; 3602.985;   -9.844
378.646; 3678.304; 3540.258;  -12.601
379.240; 3562.076; 3423.335;  -14.715
379.835; 3123.951; 2983.649;  -12.331
380.429; 2726.385; 2581.057;   -9.074
381.023; 3883.897; 3740.162;   -1.729
381.617; 3359.987; 3207.240;  -13.714
382.212; 3362.361; 3227.738;   -7.060
382.806; 3765.911; 3643.230;   -2.303
383.400; 3366.528; 3224.877;   -0.815
383.994; 3332.549; 3216.554;   -4.429
384.588; 3483.332; 3352.757;   -6.261
385.182; 3646.647; 3507.575;    0.008
385.776; 3570.732; 3437.041;   -3.247
386.370; 3408.512; 3292.404;   -1.030
386.964; 3442.639; 3312.761;   -1.346
387.558; 2983.761; 2854.898;   -2.020
388.152; 3427.299; 3309.773;   -5.345
388.745; 4145.531; 4036.423;   -2.774
389.339; 3734.582; 3612.983;    3.510
389.933; 3439.207; 3329.363;    5.280
390.527; 4403.514; 4272.356;    2.610
391.120; 3004.605; 2882.766;   -7.914
391.714; 3580.091; 3458.361;   -1.903
392.308; 3997.411; 3861.656;    6.023
392.901; 3250.665; 3154.065;   -4.103
393.495; 3031.946; 2927.354;    3.284
394.089; 3946.825; 3842.619;    8.655
394.682; 3564.529; 3496.196;    2.312
395.275; 3685.647; 3601.888;   -7.402
395.869; 3436.170; 3345.816;   -1.072
396.462; 3131.795; 3045.938;    6.454
397.056; 3973.143; 3857.206;    8.494
397.649; 3784.178; 3678.812;    1.599
398.242; 3671.436; 3586.076;    3.153
398.836; 3936.724; 3838.979;   11.395
399.429; 3203.550; 3113.075;   14.695
400.022; 3438.044; 3327.469;    3.627
400.615; 4207.487; 4096.342;    8.383
401.208; 3518.847; 3436.291;   13.295
401.802; 3607.371; 3515.176;    6.211
402.395; 3551.044; 3455.469;    7.227
402.988; 3601.011; 3519.278;    2.700
403.581; 3273.370; 3199.718;   11.225
404.174; 3491.851; 3419.794;   18.922
404.767; 3256.253; 3181.342;   14.169
405.360; 3228.882; 3143.247;    8.999
405.953; 3905.243; 3837.714;   13.138
406.545; 3763.909; 3676.998;   13.937
407.138; 3179.927; 3107.346;   10.869
407.731; 3159.996; 3098.022;   12.768
408.324; 3368.938; 3299.047;   22.921
408.917; 3528.947; 3445.625;   15.308
409.509; 3843.330; 3768.664;   12.239
410.102; 3331.220; 3290.350;   13.741
410.695; 3415.775; 3363.524;   20.249
411.287; 3080.178; 3019.467;   21.793
411.880; 3018.644; 2952.532;   22.965
412.472; 3148.002; 3094.634;   15.082
413.065; 3288.059; 3240.714;   23.423
413.657; 2961.159; 2917.858;   21.077
414.250; 3336.847; 3276.635;   12.349
414.842; 3496.003; 3434.236;   20.423
415.434; 2955.353; 2908.455;   19.906
416.027; 3333.157; 3263.518;   26.574
416.619; 3695.973; 3648.924;   15.705
417.211; 3069.667; 3018.362;   17.791
417.804; 3219.037; 3157.876;   30.244
418.396; 3149.561; 3099.101;   24.177
418.988; 3403.436; 3340.623;   24.904
419.580; 2929.176; 2873.624;   20.692
420.172; 2786.072; 2740.058;   22.275
420.764; 3432.951; 3397.641;   26.773
421.356; 3299.313; 3260.038;   25.731
421.948; 3482.674; 3435.200;   24.876
422.540; 3471.897; 3423.190;   30.042
423.132; 3067.913; 3030.340;   32.728
423.724; 2872.035; 2833.865;   21.317
424.316; 3199.671; 3152.976;   29.359
424.908; 3046.412; 3007.624;   28.798
425.500; 3336.694; 3278.232;   30.512
426.092; 3321.882; 3265.801;   26.741
426.683; 3573.668; 3526.767;   27.029
427.275; 3283.855; 3251.189;   32.611
427.867; 3388.293; 3359.100;   33.796
428.458; 3767.847; 3721.427;   34.453
429.050; 3491.364; 3458.009;   34.255
429.642; 3820.389; 3786.681;   39.082
430.233; 2821.083; 2787.846;   41.138
430.825; 3763.733; 3715.304;   31.581
431.416; 3583.840; 3544.155;   35.755
432.008; 3298.242; 3246.784;   40.566
432.599; 3317.665; 3280.537;   46.322
433.190; 3247.230; 3209.351;   46.897
433.782; 2884.690; 2859.089;   41.069
434.373; 4515.209; 4463.452;   48.778
434.964; 3014.057; 2985.810;   50.078
435.556; 3216.757; 3167.958;   52.381
436.147; 3861.584; 3819.980;   38.251
436.738; 3543.598; 3510.288;   47.237
437.329; 3640.549; 3602.766;   61.304
437.920; 3324.883; 3309.077;   48.611
438.511; 2816.153; 2779.346;   44.910
439.103; 3103.105; 3069.594;   62.404
439.694; 3417.607; 3370.062;   63.075
440.285; 3763.645; 3730.055;   61.033
440.876; 4315.593; 4277.044;   57.249
441.466; 2825.564; 2815.606;   61.306
442.057; 3300.689; 3267.438;   65.773
442.648; 3772.441; 3720.278;   65.676
443.239; 3086.596; 3072.171;   55.963
443.830; 3526.174; 3492.939;   69.631
444.421; 3238.740; 3199.115;   69.943
445.011; 3439.902; 3414.467;   72.791
445.602; 3723.610; 3691.379;   68.848
446.193; 2334.477; 2310.015;   80.044
446.783; 3100.031; 3062.945;   82.599
447.374; 3396.737; 3368.051;   77.419
447.964; 3546.981; 3525.090;   72.605
448.555; 4072.999; 4023.979;   82.041
449.145; 3244.015; 3227.077;   76.230
449.736; 4003.056; 3968.996;   75.545
450.326; 3522.130; 3478.700;   67.945
450.917; 3299.697; 3263.829;   77.598
451.507; 2900.617; 2878.521;   68.027
452.097; 3688.600; 3655.145;   67.771
452.688; 3602.300; 3576.729;   62.884
453.278; 2642.785; 2601.614;   65.512
453.868; 3944.784; 3876.982;   71.796
454.458; 3152.158; 3117.676;   60.956
455.048; 3439.938; 3417.457;   62.356
455.639; 2704.476; 2659.628;   58.782
456.229; 3424.931; 3383.981;   65.209
456.819; 3632.409; 3572.662;   61.466
457.409; 3772.015; 3736.039;   59.967
457.999; 3546.210; 3499.381;   58.093
458.589; 3251.934; 3211.092;   59.536
459.179; 3448.693; 3421.247;   55.994
459.769; 2948.222; 2937.251;   43.624
460.358; 3822.398; 3783.942;   46.978
460.948; 3262.522; 3240.204;   49.821
461.538; 3115.497; 3074.550;   54.678
462.128; 3134.431; 3096.481;   49.309
462.717; 3342.641; 3275.375;   52.774
463.307; 3321.418; 3299.139;   48.101
463.897; 3062.433; 3014.176;   45.606
464.486; 4043.437; 4012.458;   45.010
465.076; 3464.226; 3417.591;   45.519
465.666; 2978.392; 2935.135;   50.058
466.255; 3751.505; 3700.830;   44.463
466.845; 3069.107; 3038.430;   41.206
467.434; 3392.288; 3366.414;   44.847
468.023; 2998.085; 2960.963;   46.760
468.613; 3328.684; 3292.492;   39.736
469.202; 2939.989; 2913.698;   46.461
469.791; 3382.536; 3338.074;   47.944
470.381; 3387.026; 3344.177;   47.529
470.970; 3260.602; 3186.382;   43.773
471.559; 3391.751; 3348.013;   41.646
472.148; 3023.839; 2971.743;   37.914
472.738; 3500.511; 3435.496;   48.071
473.327; 2811.341; 2753.877;   47.871
473.916; 3341.907; 3296.517;   37.716
474.505; 3404.250; 3367.657;   40.256
475.094; 3724.269; 3657.318;   43.269
475.683; 3607.622; 3557.677;   36.499
476.272; 3254.071; 3207.235;   44.542
476.861; 3117.455; 3059.245;   42.297
477.449; 3189.562; 3129.335;   46.878
478.038; 3008.803; 2950.792;   35.156
478.627; 3110.337; 3068.450;   42.514
479.216; 3371.058; 3316.190;   43.937
479.805; 3417.675; 3345.516;   51.393
480.393; 4641.625; 4560.472;   53.239
480.982; 3932.720; 3888.076;   38.955
481.571; 3789.019; 3748.347;   45.436
482.159; 2950.453; 2891.639;   51.007
482.748; 3595.294; 3513.391;   49.695
483.336; 3735.699; 3683.336;   48.280
483.925; 3206.076; 3147.740;   47.166
484.513; 3164.279; 3096.038;   55.404
485.102; 3424.167; 3370.852;   54.238
485.690; 4441.234; 4372.523;   55.748
486.278; 4282.002; 4203.166;   55.934
486.867; 3321.944; 3253.127;   57.106
487.455; 3777.491; 3728.116;   56.979
488.043; 2957.235; 2876.305;   57.564
488.631; 4276.792; 4198.761;   57.432
489.220; 3745.118; 3669.291;   63.646
489.808; 2812.944; 2750.635;   65.449
490.396; 3706.875; 3639.685;   61.977
490.984; 3151.678; 3084.312;   68.834
491.572; 3703.863; 3633.780;   70.775
492.160; 3511.935; 3445.355;   67.564
492.748; 3239.109; 3164.167;   66.808
493.336; 3768.249; 3689.615;   79.747
493.924; 3263.281; 3171.299;   88.688
494.512; 3695.274; 3626.792;   84.120
495.100; 3612.303; 3549.947;   86.250
495.687; 3838.976; 3765.830;  103.074
496.275; 3130.480; 3041.672;  108.717
496.863; 3247.490; 3171.316;  107.035
497.451; 3211.671; 3149.382;  117.993
498.038; 3389.691; 3301.329;  120.116
498.626; 3254.292; 3187.129;  143.059
499.214; 3491.403; 3427.265;  153.434
499.801; 3393.180; 3297.170;  175.121
500.389; 2805.950; 2734.691;  185.617
500.976; 3557.514; 3478.914;  215.789
501.564; 3407.756; 3344.766;  240.321
502.151; 2478.129; 2416.186;  267.007
502.738; 3224.731; 3143.022;  317.961
503.326; 3293.065; 3202.583;  361.216
503.913; 3445.145; 3349.796;  401.433
504.500; 3546.312; 3464.969;  446.492
505.088; 3027.020; 2940.615;  512.063
505.675; 3290.877; 3207.314;  586.387
506.262; 3260.911; 3197.643;  671.021
506.849; 3348.837; 3264.200;  759.062
507.436; 3756.732; 3671.141;  849.788
508.023; 3333.936; 3259.976;  944.288
508.610; 3696.475; 3626.669; 1020.690
509.197; 3556.116; 3500.544; 1089.052
509.784; 3361.021; 3268.000; 1133.776
510.371; 2817.303; 2732.494; 1165.501
510.958; 3418.288; 3333.174; 1251.735
511.545; 3935.186; 3841.115; 1350.248
512.132; 3364.907; 3269.537; 1525.945
512.719; 3007.095; 2904.346; 1834.933
513.305; 3087.640; 3014.200; 1965.349
513.892; 3879.839; 3815.690; 1963.265
514.479; 3438.768; 3351.841; 2046.446
515.066; 3775.726; 3667.653; 2252.803
515.652; 3444.873; 3360.069; 2567.247
516.239; 3640.045; 3545.411; 2636.919
516.825; 2864.305; 2776.834; 2482.304
517.412; 4217.834; 4138.191; 2427.031
517.998; 3281.024; 3194.100; 2540.463
518.585; 3258.979; 3164.135; 2609.007
519.171; 3443.381; 3325.448; 2842.088
519.758; 2926.396; 2833.522; 3090.703
520.344; 3723.171; 3619.750; 3176.076
520.930; 3008.302; 2915.413; 3295.037
521.516; 3581.667; 3473.483; 3500.959
522.103; 3936.079; 3821.738; 3736.704
522.689; 3262.439; 3153.232; 3971.022
523.275; 3808.836; 3706.089; 4213.778
523.861; 3325.061; 3230.053; 4190.361
524.447; 3803.338; 3680.653; 4070.602
525.033; 3828.766; 3733.204; 4088.892
525.619; 3121.455; 3010.790; 4416.851
526.205; 2938.112; 2821.577; 4836.835
526.791; 3284.448; 3172.865; 4885.903
527.377; 3170.281; 3062.228; 4544.907
527.963; 3450.188; 3363.263; 4321.995
528.549; 3521.669; 3420.105; 4473.979
529.135; 3101.496; 3005.262; 4788.663
529.721; 3402.506; 3311.658; 4888.577
530.306; 4584.569; 4471.055; 4775.779
530.892; 3254.546; 3124.620; 4793.906
531.478; 3171.107; 3069.984; 4956.948
532.063; 3039.843; 2931.051; 5136.936
532.649; 4177.229; 4049.225; 5336.867
533.235; 3071.119; 2960.439; 5748.092
533.820; 3876.506; 3754.061; 6456.875
534.406; 3319.654; 3212.379; 6590.167
534.991; 3076.913; 2963.936; 6179.622
535.576; 3351.238; 3226.866; 6098.691
536.162; 4632.130; 4510.604; 6441.234
536.747; 2928.985; 2808.395; 6816.224
537.333; 3100.948; 2998.117; 6889.752
537.918; 3377.878; 3240.517; 7154.280
538.503; 3189.235; 3034.573; 7150.848
539.088; 3538.688; 3392.647; 7253.308
539.673; 3254.104; 3138.563; 7625.180
540.259; 3153.595; 3020.885; 8226.793
540.844; 2794.816; 2660.354; 8745.092
541.429; 4117.603; 3974.795; 8762.553
542.014; 2912.684; 2757.176; 8871.497
542.599; 3524.309; 3399.167; 8886.008
543.184; 2987.243; 2861.499; 9079.139
543.769; 3185.241; 3023.214; 9076.182
544.354; 3260.488; 3126.929; 8354.081
544.938; 3517.418; 3368.529; 8236.809
545.523; 4103.815; 3939.620; 8222.179
546.108; 3417.093; 3254.456; 8114.082
546.693; 3372.774; 3220.753; 8535.912
547.278; 3401.245; 3219.809; 9238.322
547.862; 3397.668; 3216.581; 9034.405
548.447; 3817.337; 3642.753; 7795.011
549.031; 3289.123; 3137.269; 7485.099
549.616; 3538.615; 3366.044; 7626.308
550.201; 3232.372; 3061.313; 7627.909
550.785; 3694.141; 3531.222; 7859.125
551.370; 3008.988; 2836.053; 7990.654
551.954; 3810.939; 3618.387; 8196.468
552.538; 3734.690; 3523.756; 7959.495
553.123; 3229.873; 3013.245; 7964.826
553.707; 3359.487; 3142.858; 8515.957
554.291; 4012.587; 3786.887; 8724.024
554.876; 3813.539; 3580.045; 8524.211
555.460; 3287.500; 3046.708; 8704.456
556.044; 3265.404; 3002.824; 9141.473
556.628; 3517.262; 3258.865; 9250.197
557.212; 3987.504; 3717.555; 9444.237
557.796; 3466.280; 3167.857; 9379.783
558.380; 3712.944; 3401.028; 9353.658
558.964; 3672.978; 3312.991; 9210.310
559.548; 3162.325; 2787.956; 8475.153
560.132; 3492.091; 3107.461; 7954.084
560.716; 3268.028; 2874.370; 7489.529
561.300; 3264.870; 2828.179; 7211.952
561.884; 3975.148; 3483.307; 7141.313
562.467; 3965.580; 3439.905; 7155.386
563.051; 3819.690; 3254.143; 7323.158
563.635; 3799.637; 3161.450; 7709.114
564.219; 3898.994; 3234.680; 7678.855
564.802; 4188.384; 3459.739; 7376.187
565.386; 4057.620; 3272.408; 7054.372
565.969; 4629.775; 3778.364; 6589.196
566.553; 5086.611; 4116.496; 6279.371
567.136; 4780.606; 3731.159; 5967.930
567.720; 4429.853; 3280.998; 5660.703
568.303; 4667.644; 3399.670; 5648.615
568.887; 4679.577; 3309.162; 5618.443
569.470; 4821.646; 3386.802; 5411.875
570.053; 5024.817; 3532.571; 5149.274
570.637; 4584.492; 2973.946; 5122.798
571.220; 5291.650; 3567.342; 4957.369
571.803; 6094.020; 4145.464; 4933.018
572.386; 5327.283; 3153.505; 4840.973
572.969; 5460.250; 3140.823; 4592.886
573.552; 5797.658; 3210.843; 4348.387
574.135; 5645.286; 2912.629; 4002.290
574.718; 5844.808; 3035.059; 3654.773
575.301; 6124.833; 3024.167; 3502.288
575.884; 6404.858; 3013.275; 3349.803
576.467; 7538.453; 3701.548; 3191.403
577.050; 7607.243; 3390.675; 3062.418
577.633; 8772.982; 4050.031; 3214.200
578.216; 8393.175; 3181.025; 3284.889
578.799; 8712.909; 3177.899; 3189.777
579.381;10059.277; 4189.702; 3064.502
579.964; 9483.187; 3010.208; 2888.357
580.547;10075.889; 3337.398; 2905.760
581.129;10862.827; 3861.057; 2966.849
581.712;10709.030; 3433.550; 2887.292
582.294;11034.693; 3304.409; 2771.631
582.877;12568.449; 4222.413; 2711.602
583.459;12134.482; 3262.984; 2577.049
584.042;12520.261; 3211.365; 2454.707
584.624;12891.433; 2951.392; 2305.893
585.206;13349.329; 2581.002; 2189.546
585.789;14150.267; 3091.519; 2112.577
586.371;14611.728; 3449.589; 2153.065
586.953;15707.329; 3579.091; 2197.806
587.536;17462.225; 3818.325; 2105.489
588.118;17985.875; 3191.652; 1963.911
588.700;19060.480; 3831.815; 1843.179
589.282;19669.988; 3476.380; 1813.834
589.864;20724.689; 3331.888; 1777.620
590.446;21102.865; 2649.573; 1733.780
591.028;22638.949; 3296.008; 1676.008
591.610;22567.004; 2710.146; 1631.649
592.192;23236.201; 3336.645; 1632.362
592.774;23065.018; 2922.185; 1569.507
593.356;23592.408; 3067.894; 1524.539
593.937;24736.010; 3048.507; 1569.720
594.519;27692.053; 3684.453; 1569.049
595.101;29031.883; 2743.182; 1545.452
595.683;31129.445; 3079.413; 1607.568
596.264;32650.980; 3245.234; 1615.506
596.846;33781.727; 3138.738; 1667.622
597.427;34955.180; 3060.179; 1670.469
598.009;36632.977; 3017.244; 1640.312
598.591;37662.203; 3574.385; 1541.022
599.172;37702.602; 3185.835; 1598.665
599.753;37802.227; 2831.036; 1619.068
600.335;39440.285; 3826.164; 1548.612
600.916;40781.094; 3241.086; 1607.510
601.498;41163.820; 3428.308; 1745.181
602.079;41227.375; 3288.809; 1801.011
602.660;43362.117; 3226.648; 1834.640
603.241;44358.668; 2600.535; 1787.351
603.823;44518.660; 3074.812; 1684.266
604.404;45681.520; 2871.291; 1654.241
604.985;48194.551; 3101.822; 1758.741
605.566;51298.633; 3623.108; 1697.679
606.147;52407.500; 3198.180; 1526.728
606.728;54081.336; 2839.988; 1484.086
607.309;54826.066; 3052.179; 1421.070
607.890;54469.992; 3098.028; 1369.867
608.471;53453.938; 2999.490; 1277.826
609.051;51759.441; 3366.831; 1180.416
609.632;50550.012; 2948.700; 1075.816
610.213;49967.535; 3204.514; 1053.313
610.794;50926.629; 3114.410;  979.442
611.374;55270.445; 3411.226;  917.414
611.955;56521.016; 2785.661;  819.987
612.536;54705.891; 3373.525;  752.627
613.116;53976.305; 3084.741;  690.799
613.697;52578.570; 3041.954;  674.974
614.277;52996.164; 2960.316;  663.846
614.858;53020.203; 3037.749;  665.898
615.438;54404.707; 3265.218;  660.712
616.019;54216.184; 3823.801;  632.732
616.599;54691.883; 2549.677;  551.759
617.179;55323.551; 2853.045;  512.871
617.760;57615.277; 4315.902;  473.655
618.340;61974.523; 3211.163;  440.004
618.920;64568.875; 3933.839;  429.731
619.500;63673.031; 3100.532;  441.361
620.080;62672.684; 2943.727;  425.202
620.660;61107.102; 2937.741;  408.164
621.241;60598.277; 3109.947;  387.161
621.821;59345.871; 3302.062;  378.017
622.401;55116.578; 3673.566;  379.188
622.980;52894.867; 2792.782;  350.019
623.560;50758.719; 3126.301;  336.446
624.140;45803.320; 3330.562;  336.473
624.720;43502.148; 3386.743;  334.974
625.300;43533.668; 2945.527;  325.717
625.880;47154.543; 3210.029;  308.519
626.459;50092.648; 3246.250;  307.117
627.039;50298.773; 2709.486;  290.890
627.619;52586.688; 4135.275;  286.635
628.198;54716.480; 3717.456;  282.535
628.778;56105.551; 3486.143;  285.474
629.357;56008.664; 2838.500;  284.103
629.937;56311.059; 3116.510;  292.178
630.516;56143.164; 3885.456;  290.749
631.096;53812.434; 2985.343;  285.489
631.675;54106.465; 3821.330;  287.022
632.254;53088.059; 2974.842;  286.038
632.834;54309.383; 3205.180;  276.451
633.413;54277.152; 3819.067;  279.447
633.992;52677.734; 3640.415;  264.508
634.571;50394.277; 3481.650;  271.010
635.151;47895.656; 2911.550;  277.338
635.730;47757.508; 3169.486;  289.305
636.309;48095.094; 3456.237;  285.306
636.888;47672.609; 3493.034;  254.051
637.467;46554.781; 2650.261;  230.324
638.046;47376.215; 3889.563;  253.349
638.625;46781.789; 3742.642;  246.866
639.204;44617.488; 3368.739;  240.825
639.782;43198.953; 3252.536;  261.970
640.361;40528.219; 3769.430;  277.780
640.940;41339.340; 3029.845;  270.101
641.519;43142.563; 3411.010;  248.622
642.097;47520.684; 3468.976;  239.843
642.676;48783.402; 3277.091;  244.264
643.255;49222.324; 3134.106;  234.985
643.833;49262.645; 3497.271;  244.406
644.412;48389.266; 3098.736;  244.927
644.990;48400.387; 3282.351;  249.948
645.569;49973.410; 3462.566;  249.569
646.147;53740.680; 3659.082;  243.290
646.726;54341.102; 3322.997;  249.511
647.304;52734.324; 3115.312;  228.032
647.882;50099.695; 2640.727;  214.552
648.461;49623.617; 3351.192;  214.973
649.039;49548.238; 3530.157;  223.394
649.617;48110.309; 3489.872;  261.415
650.195;47703.031; 3353.387;  298.736
650.773;47184.602; 3091.453;  309.557
651.352;45362.422; 2590.768;  297.978
651.930;41631.492; 2564.833;  289.399
652.508;40837.816; 3551.098;  285.620
653.086;39642.387; 3440.013;  272.241
653.663;40810.105; 2990.578;  265.062
654.241;41796.578; 2792.493;  286.083
654.819;44795.449; 2853.908;  286.404
655.397;44954.922; 2912.974;  291.825
655.975;44795.992; 3153.889;  299.145
656.553;47775.363; 3877.154;  288.866
657.130;48072.934; 2906.969;  304.087
657.708;46559.906; 3383.234;  302.908
658.286;46563.977; 3277.849;  294.629
658.863;46263.898; 3314.064;  293.350
659.441;46489.371; 3362.129;  318.671
660.018;46633.340; 3170.495;  333.692
660.596;46035.711; 2602.860;  335.013
661.173;46491.984; 3065.175;  371.534
661.750;46403.055; 2921.590;  365.155
662.328;47756.328; 3475.555;  349.976
662.905;43389.699; 3089.470;  332.997
663.482;39839.020; 3185.135;  321.717
664.060;38441.141; 2967.500;  314.438
664.637;41202.262; 3479.216;  306.259
665.214;44915.883; 3308.981;  314.580
665.791;46282.004; 3123.946;  334.501
666.368;47862.926; 3073.011;  329.222
666.945;48753.648; 3524.926;  342.143
667.522;49634.719; 2952.591;  370.964
668.099;50271.539; 3177.956;  396.885
668.676;48783.211; 3198.021;  391.706
669.253;47956.980; 3893.537;  369.627
669.830;47649.453; 3748.952;  360.348
670.407;46678.426; 3179.367;  344.769
670.984;47508.195; 3170.182;  322.890
671.560;48740.516; 3478.447;  316.910
672.137;48521.590; 3086.412;  322.531
672.714;49160.059; 3412.327;  318.552
673.290;49243.582; 3353.242;  324.473
673.867;48342.453; 3005.758;  340.594
674.443;47951.023; 2823.273;  319.515
675.020;48492.094; 3320.938;  286.336
675.596;47763.465; 3122.303;  247.557
676.173;47194.488; 2775.118;  227.778
676.749;47921.508; 2440.583;  224.399
677.326;49089.129; 2720.848;  230.520
677.902;48496.301; 2969.614;  241.841
678.478;48477.773; 2785.979;  239.762
679.054;50652.543; 4735.894;  248.583
679.631;49860.914; 3382.509;  237.503
680.207;51796.234; 4033.774;  245.924
680.783;49357.207; 2552.439;  224.845
681.359;50032.328; 3169.854;  209.666
681.935;50102.301; 3280.969;  191.687
682.511;50781.520; 3249.485;  210.008
683.087;51083.391; 3427.900;  213.329
683.663;52263.563; 3097.765;  216.850
684.239;53296.984; 2784.080;  229.471
684.815;54820.457; 3575.995;  248.792
685.390;55186.129; 4099.360;  231.813
685.966;54298.898; 3266.775;  221.234
686.542;53442.371; 2863.590;  214.255
687.118;51986.441; 3320.555;  212.276
687.693;50414.762; 3455.871;  233.096
688.269;50189.633; 3116.986;  246.917
688.844;50860.156; 3409.751;  236.938
689.420;53600.477; 3234.216;  242.059
689.995;57160.098; 3955.081;  245.480
690.571;56203.418; 3796.096;  244.701
691.146;53620.941; 3090.461;  251.922
691.722;53534.160; 3390.977;  284.743
692.297;52866.434; 3070.992;  320.664
692.872;52391.953; 2938.857;  313.885
693.448;52228.426; 2851.972;  290.106
694.023;53520.746; 3270.537;  304.327
694.598;55592.969; 3281.352;  319.648
695.173;57082.391; 3074.267;  323.169
695.748;59194.410; 2622.032;  376.389
696.323;61220.180; 3181.848;  397.610
696.898;60452.254; 3663.213;  430.231
697.473;57481.223; 2675.378;  454.952
698.048;56480.195; 3100.643;  478.973
698.623;54502.418; 2775.408;  477.094
699.198;53542.488; 3296.673;  496.915
699.773;52566.859; 2968.338;  490.236
700.348;52630.680; 2855.503;  519.957
700.922;54596.652; 3266.769;  575.678
701.497;53711.973; 3214.734;  621.399
702.072;53898.645; 3572.049;  664.420
702.646;55461.664; 3489.264;  690.541
703.221;54798.336; 3316.479;  748.862
703.795;54059.906; 2866.944;  774.282
704.370;53220.078; 2368.859;  799.803
704.944;53959.801; 3040.724;  875.824
705.519;55976.871; 3314.189;  902.945
706.093;57607.992; 2920.555;  889.266
706.668;59210.914; 3412.170;  903.487
707.242;57938.684; 3528.885;  881.708
707.816;53711.605; 3069.850;  892.329
708.390;50698.578; 3201.315;  970.250
708.965;50838.801; 3325.180;  984.671
709.539;51848.719; 3114.196; 1026.092
710.113;52613.441; 3252.260; 1067.913
710.687;53729.715; 3517.676; 1166.434
711.261;54071.633; 2833.341; 1190.854
711.835;52891.406; 2880.906; 1197.275
712.409;52130.578; 2653.871; 1308.096
712.983;52815.750; 2679.236; 1461.617
713.557;53978.918; 2685.901; 1611.838
714.131;53133.242; 3113.266; 1554.359
714.704;51142.160; 2895.082; 1520.780
715.278;51356.184; 3222.897; 1575.101
715.852;53205.703; 3470.012; 1689.822
716.425;55141.074; 4004.327; 1829.143
716.999;53582.996; 2639.792; 2008.664
717.573;55525.719; 3400.607; 2000.485
718.146;55810.488; 3920.772; 1914.506
718.720;53667.313; 3289.587; 1818.026
719.293;53273.383; 3420.603; 1734.147
719.867;52518.852; 2978.718; 1716.968
720.440;52884.824; 3762.983; 1918.589
721.013;52856.746; 3009.698; 1975.410
721.587;52380.867; 2699.613; 2073.331
722.160;51928.840; 3580.428; 2357.852
722.733;51966.758; 3255.993; 2657.073
723.306;52816.480; 3199.208; 2703.894
723.880;50169.551; 3275.924; 2549.415
724.453;47389.973; 3731.789; 2414.336
725.026;45089.344; 3028.604; 2298.557
725.599;47713.266; 3330.769; 2168.778
726.172;49224.336; 3408.434; 2106.099
726.745;47976.957; 3368.099; 2253.320
727.318;45512.480; 3569.714; 2404.740
727.891;44386.602; 3335.330; 2680.161
728.463;45145.074; 3299.945; 2838.882
729.036;46019.293; 2929.710; 2755.103
729.609;47333.164; 2886.525; 2731.824
730.182;47159.938; 3516.990; 2855.645
730.754;44366.707; 2429.705; 2946.866
731.327;44964.879; 3410.420; 2840.187
731.900;44383.602; 2693.685; 2647.608
732.472;43709.473; 3153.400; 2473.929
733.045;43928.992; 3088.916; 2445.750
733.617;45000.016; 2649.781; 2511.771
734.190;46687.137; 3402.746; 2581.592
734.762;45807.406; 3183.161; 2710.813
735.334;44330.477; 3226.876; 3005.733
735.907;45471.750; 3217.141; 3154.954
736.479;48736.820; 3646.706; 3171.675
737.051;49165.590; 3394.471; 3217.496
737.623;49821.711; 3454.537; 3246.217
738.195;49872.734; 2965.752; 2985.238
738.768;49010.957; 2505.117; 2727.559
739.340;49828.875; 3029.332; 2666.880
739.912;49912.047; 3500.247; 2769.601
740.484;48766.168; 3382.062; 2731.422
741.056;46391.090; 3095.677; 2963.043
741.628;44886.762; 2884.393; 3361.364
742.199;44961.184; 3726.758; 3641.185
742.771;43684.555; 2747.973; 3932.005
743.343;42995.375; 2892.188; 4319.926
743.915;42453.148; 3348.153; 4706.647
744.487;42549.566; 3424.018; 4874.968
745.058;43884.039; 3470.983; 4616.589
745.630;43454.461; 3443.048; 4253.410
746.201;41191.633; 3029.114; 4056.131
746.773;40618.852; 3400.929; 3772.952
747.344;40561.973; 3189.994; 3642.473
747.916;41882.496; 3284.209; 3752.294
748.487;43103.516; 3530.774; 4106.215
749.059;42895.590; 2812.789; 4457.835
749.630;41923.059; 2928.204; 4366.457
750.201;39554.082; 3174.669; 4600.078
750.773;38524.004; 2989.584; 4658.499
751.344;39984.223; 3218.450; 4609.319
751.915;40038.094; 3199.965; 4526.440
752.486;41392.516; 2936.130; 4536.061
753.057;42853.586; 3253.845; 4383.282
753.628;43138.160; 2929.210; 4296.503
754.199;43274.430; 3062.875; 4383.224
754.770;42341.902; 3447.690; 4653.545
755.341;40465.320; 3580.956; 4831.666
755.912;39346.445; 3144.621; 4831.387
756.483;40893.766; 3425.586; 4735.808
757.054;41360.188; 3037.201; 4685.029
757.625;40840.406; 2813.616; 4994.250
758.195;40900.629; 2715.581; 5051.471
758.766;42021.352; 3289.546; 5317.792
759.337;41724.770; 2678.361; 5646.512
759.907;41519.441; 2710.927; 5404.133
760.478;39225.762; 2981.742; 5090.954
761.048;37523.934; 3436.057; 4871.175
761.619;37610.555; 3347.172; 4589.396
762.189;38604.879; 3163.137; 4171.317
762.760;39828.348; 3487.402; 3872.538
763.330;39187.070; 3439.867; 3832.259
763.900;37944.090; 3307.282; 4150.180
764.471;36515.313; 2889.597; 4529.801
765.041;37004.484; 3647.513; 4715.922
765.611;36112.703; 3390.728; 4681.442
766.181;36002.277; 3151.943; 4717.063
766.751;37234.098; 3206.208; 4710.285
767.321;37842.469; 2792.273; 4450.305
767.891;37329.090; 3264.538; 4274.126
768.461;35669.512; 3133.903; 4215.047
769.031;35805.734; 3162.819; 4173.068
769.601;36478.402; 3616.234; 4174.689
770.171;35724.977; 2716.549; 4229.310
770.741;35655.445; 3070.114; 4352.031
771.311;35923.918; 3400.329; 4336.652
771.880;35587.688; 2883.294; 4300.873
772.450;35082.410; 2918.259; 4387.194
773.020;34387.480; 2672.274; 4220.415
773.589;35125.602; 2986.040; 4075.835
774.159;34532.426; 3001.155; 4105.756
774.729;33019.996; 2962.970; 4114.978
775.298;33541.465; 2956.985; 3693.298
775.867;33698.637; 2985.200; 3343.119
776.437;33791.609; 3189.415; 3062.040
777.006;34227.430; 2697.530; 2927.161
777.576;35686.652; 3412.845; 3046.482
778.145;35089.824; 3355.411; 3230.203
778.714;34513.344; 3134.176; 3253.324
779.283;33906.867; 3396.891; 3129.745
779.853;32807.688; 3144.606; 2983.566
780.422;32468.908; 3167.121; 2929.887
780.991;32973.078; 3361.886; 2863.908
781.560;33498.102; 3726.801; 2948.029
782.129;32731.723; 3306.616; 3074.149
782.698;32361.943; 3678.031; 2893.970
783.267;30974.164; 2957.447; 2721.391
783.836;31344.035; 3291.912; 2659.712
784.404;30761.406; 2793.427; 2622.233
784.973;30671.129; 2396.992; 2600.754
785.542;32295.799; 3138.857; 2528.475
786.111;33483.621; 3647.922; 2404.396
786.679;33094.992; 3399.337; 2365.717
787.248;31828.463; 2688.302; 2498.438
787.817;30865.885; 3005.118; 2645.659
788.385;29962.506; 3586.983; 2709.280
788.954;28236.877; 2722.048; 2620.500
789.522;30013.398; 3473.713; 2625.422
790.090;30905.119; 2745.878; 2743.843
790.659;30468.191; 3040.893; 2635.163
791.227;29340.563; 3102.208; 2495.484
791.795;29563.334; 3278.774; 2413.705
792.364;29007.955; 2861.989; 2345.326
792.932;30316.227; 3365.904; 2350.447
793.500;30269.248; 3074.819; 2429.768
794.068;29602.818; 2710.984; 2513.589
794.636;29523.090; 2902.149; 2664.310
795.204;28950.311; 2630.664; 2721.431
795.772;29387.682; 2893.129; 2802.052
796.340;28838.303; 2982.045; 2847.173
796.908;27893.025; 2635.510; 2997.194
797.476;28073.396; 2805.925; 3151.615
798.044;27638.566; 2584.190; 3110.735
798.612;29002.988; 3118.405; 2931.656
799.180;29877.910; 3221.920; 2785.777
799.747;29396.281; 3186.985; 2899.098
800.315;27777.352; 2742.900; 2955.519
800.883;26078.674; 2528.816; 2948.940
801.450;26278.445; 3132.981; 2965.361
802.018;27339.016; 3310.996; 3070.582
802.585;28698.387; 3164.661; 3156.103
803.153;29142.658; 2917.976; 3199.524
803.720;29001.680; 2940.291; 3168.845
804.287;28701.201; 3060.656; 3248.366
804.855;28518.523; 3522.221; 3406.187
805.422;27628.193; 3072.587; 3430.907
805.989;27946.615; 2879.402; 3453.528
806.556;28342.637; 2884.117; 3612.649
807.124;30318.408; 3489.532; 3736.570
807.691;30286.279; 2804.997; 3770.491
808.258;29587.350; 3153.362; 3705.012
808.825;28317.072; 3500.177; 3828.733
809.392;27836.143; 3747.692; 3986.754
809.959;27307.215; 3299.208; 4410.075
810.526;27208.936; 3767.823; 4774.996
811.093;26233.506; 3562.838; 4754.217
811.659;24973.127; 3128.103; 4661.238
812.226;24631.299; 3115.568; 4672.559
812.793;24820.920; 3263.933; 4822.979
813.360;24878.492; 3116.098; 5189.800
813.926;25482.863; 3289.164; 5310.622
814.493;25705.033; 2735.729; 5414.542
815.060;26217.455; 2560.044; 5548.963
815.626;26380.926; 2759.259; 5452.284
816.193;26300.848; 3232.324; 5339.305
816.759;24858.969; 2878.989; 5544.426
817.325;23692.691; 2569.604; 5706.547
817.892;24701.912; 3447.719; 5623.468
818.458;25344.783; 3307.734; 5586.689
819.024;25747.654; 3586.150; 5647.910
819.591;25494.826; 3149.865; 5762.031
820.157;25078.547; 2736.980; 6284.452
820.723;25014.969; 3309.295; 6906.973
821.289;26264.590; 4815.660; 7086.894
821.855;24767.061; 3390.275; 7054.915
822.421;24347.232; 2976.290; 7112.035
822.987;24582.703; 2804.456; 7256.156
823.553;24501.174; 3051.521; 7538.077
824.119;24185.596; 3497.936; 7594.298
824.685;23964.418; 3634.951; 7613.619
825.251;23403.438; 3431.966; 7644.140
825.816;23589.559; 3850.231; 7720.261
826.382;22937.131; 3417.596; 8014.282
826.948;22786.252; 3495.461; 8281.503
827.513;22849.174; 3081.677; 8289.624
828.079;22749.744; 2855.092; 8587.045
828.645;23384.666; 3266.957; 8821.865
829.210;22422.137; 2787.672; 9054.486
829.776;21831.559; 3378.837; 9054.607
830.341;21604.830; 3475.952; 9415.628
830.906;21793.852; 3587.367; 9932.449
831.472;20388.072; 2911.832;10150.271
832.037;19986.594; 3511.397; 9420.391
832.602;18868.215; 2986.963; 8664.912
833.167;19120.736; 3211.328; 8491.933
833.733;20472.057; 3502.643; 8872.854
834.298;19676.879; 2829.408; 9370.575
834.863;19341.900; 3292.073; 9610.695
835.428;19070.320; 3293.638; 9655.616
835.993;19204.393; 3384.553; 9437.838
836.558;19823.514; 3424.719; 9441.459
837.123;20703.535; 4203.833; 9600.979
837.688;19731.957; 3329.249; 9798.301
838.253;18916.027; 3300.764; 9902.921
838.817;17797.248; 3086.579;10339.742
839.382;17585.920; 3683.294;10548.363
839.947;16624.092; 3242.909;10252.484
840.511;16908.563; 3810.024;10040.005
841.076;15504.034; 2557.090;10099.926
841.641;16219.755; 3415.755;10347.347
842.205;16230.776; 3300.270;10817.368
842.770;16639.197; 3933.585;11435.289
843.334;15205.019; 3139.050;12072.409
843.898;14751.990; 3026.015;12635.431
844.463;15484.012; 3706.230;12537.252
845.027;15368.083; 3069.445;12759.673
845.591;15928.054; 3536.611;12821.993
846.156;15140.125; 3011.026;12520.914
846.720;15275.696; 3461.891;12390.436
847.284;14668.868; 3292.556;12956.456
847.848;14306.139; 3400.071;13240.177
848.412;13366.860; 3229.786;13216.998
848.976;13606.432; 3790.951;13014.619
849.540;13767.203; 4085.366;12355.740
850.104;13513.824; 3769.731;12208.761
850.668;12285.945; 2618.047;12106.882
851.232;12066.217; 2690.312;11862.103
851.796;12460.538; 3186.377;11700.523
852.359;12981.509; 3523.442;12375.944
852.923;13084.131; 3622.907;13087.966
853.487;12815.901; 3467.122;13297.187
854.050;11441.423; 2229.537;13851.207
854.614;12042.444; 3075.002;14854.229
855.177;12187.365; 3345.118;15802.149
855.741;12400.937; 3372.683;16603.570
856.304;12686.059; 3569.698;16359.891
856.868;11616.930; 2899.963;14365.512
857.431;11447.351; 3212.078;13361.333
857.995;10948.822; 3131.543;14130.554
858.558;11101.443; 3354.608;14883.175
859.121;11580.015; 3526.023;15754.195
859.684;11845.586; 3302.589;15995.017
860.247;11883.557; 3220.754;15149.537
860.810;11312.378; 3080.769;14640.358
861.374;11885.449; 4121.834;15551.079
861.937;10593.921; 2843.599;16519.801
862.500;10954.592; 3037.314;16796.521
863.062;10696.313; 2900.929;16538.742
863.625;10960.984; 3345.945;16716.764
864.188;10623.056; 3061.310;17055.084
864.751;10545.177; 3054.625;17197.705
865.314;10644.198; 3265.590;17151.625
865.876;10704.020; 3597.705;17783.547
866.439;10453.241; 3504.320;19283.467
867.002;10886.212; 4041.385;20256.389
867.564;10106.033; 3673.850;20485.410
868.127; 9337.555; 3243.166;20789.730
868.689; 9291.326; 3371.481;21981.951
869.252; 9515.247; 3653.396;23803.771
869.814; 8971.368; 2957.311;24974.094
870.377; 9501.490; 3339.426;24690.314
870.939;10882.312; 4634.291;23963.436
871.501; 9488.532; 3317.056;25167.156
872.063; 8301.504; 2423.721;26995.477
872.626; 8232.425; 2643.287;27443.098
873.188; 8760.347; 3320.952;26718.418
873.750; 8577.218; 3183.817;26558.840
874.312; 8542.889; 3077.782;26701.561
874.874; 9291.010; 3897.947;27970.582
875.436; 8915.731; 3545.262;29173.402
875.998; 9093.803; 3760.177;30376.623
876.560; 8779.574; 3558.192;32507.344
877.122; 7815.045; 2972.758;34833.066
877.683; 8011.966; 3489.773;36458.285
878.245; 7561.587; 3084.888;37248.207
878.807; 7907.059; 3431.653;36758.027
879.369; 7395.380; 2817.818;35223.551
879.930; 7604.651; 2896.433;33824.969
880.492; 8269.723; 3719.498;34436.492
881.053; 7259.394; 2936.513;37745.313
881.615; 7213.865; 3049.928;41184.633
882.176; 7192.437; 3184.294;42871.555
882.738; 7439.958; 3543.059;41693.074
883.299; 6439.329; 2606.974;40289.895
883.860; 6400.400; 2682.289;39231.215
884.422; 7155.622; 3496.904;38264.039
884.983; 6498.093; 2900.669;37171.859
885.544; 6913.064; 3324.135;35842.379
886.105; 6772.835; 3256.500;34810.000
886.666; 6395.957; 3082.465;34519.020
887.227; 5704.928; 2677.830;33905.641
887.788; 6130.549; 3365.945;34502.965
888.349; 5454.121; 2792.760;34241.785
888.910; 6151.542; 3503.575;33722.203
889.471; 5898.863; 3330.690;32539.625
890.032; 5740.384; 3233.156;31528.346
890.593; 5889.906; 3455.721;32655.068
891.153; 5538.077; 3201.686;33882.289
891.714; 5007.848; 2748.801;33318.711
892.275; 4987.369; 2823.766;31848.930
892.835; 5670.141; 3584.131;30339.752
893.396; 5487.262; 3533.946;30074.973
893.956; 4985.633; 3153.211;30338.393
894.517; 5083.705; 3314.276;30864.113
895.077; 5081.426; 3378.692;29766.734
895.638; 5507.197; 3893.757;26379.557
896.198; 4427.168; 2873.672;24056.277
896.758; 5041.939; 3551.287;22961.898
897.319; 4611.511; 3196.402;21772.020
897.879; 4605.882; 3228.517;20877.539
898.439; 4042.603; 2693.532;19509.461
898.999; 4749.825; 3458.698;17297.582
899.559; 4620.996; 3410.263;14712.002
900.119; 4065.917; 2878.378;12790.224
900.679; 4977.838; 3841.793;11586.744
901.239; 4574.260; 3492.008;10776.465
901.799; 4329.931; 3273.773; 9691.687
902.359; 3971.552; 2935.988; 8725.907
902.919; 3895.323; 2899.303; 8305.728
903.479; 3885.145; 2929.219; 8172.649
904.038; 3728.066; 2776.034; 7913.870
904.598; 3366.237; 2438.899; 7262.291
905.158; 3934.409; 3054.164; 6609.012
905.717; 4059.530; 3180.929; 6236.133
906.277; 4089.051; 3231.694; 5829.054
906.836; 4247.522; 3419.659; 5396.674
907.396; 4203.694; 3379.124; 4964.195
907.955; 4206.465; 3395.790; 4528.917
908.515; 3890.836; 3079.905; 4223.837
909.074; 3902.458; 3122.370; 4023.958
909.633; 3902.929; 3125.285; 4065.379
910.192; 4662.800; 3888.650; 4066.300
910.752; 3837.650; 3107.050; 3971.600
911.311; 3778.600; 3061.700; 3839.600
911.870; 3661.700; 2931.450; 3684.500
912.429; 4330.600; 3637.550; 3635.600
912.988; 4257.700; 3564.800; 3689.800
913.547; 3574.850; 2885.150; 3737.700
914.106; 3974.200; 3288.500; 3740.300
914.665; 3942.600; 3256.700; 3604.600
915.224; 4250.350; 3596.000; 3358.700
915.782; 3687.900; 3015.750; 3188.400
916.341; 4382.100; 3711.050; 3091.400
916.900; 3725.400; 3067.900; 3044.800
917.458; 3547.550; 2915.950; 2888.600
918.017; 3884.050; 3237.300; 2818.900
918.576; 3728.600; 3089.100; 2838.600
919.134; 3344.100; 2715.400; 2880.100
919.693; 3686.850; 3056.600; 2996.300
920.251; 3620.500; 2995.100; 3183.100
920.809; 3454.900; 2792.550; 3247.000
921.368; 3642.650; 3007.550; 3156.600
921.926; 3500.750; 2877.800; 2964.900
922.484; 3818.250; 3194.350; 2846.300
923.042; 3702.350; 3070.450; 2890.400
923.601; 4343.800; 3726.050; 2987.700
924.159; 4007.000; 3413.500; 3049.800
924.717; 3480.050; 2858.100; 3087.000
925.275; 3810.900; 3203.000; 3093.400
925.833; 3188.550; 2572.600; 3182.400
926.391; 3994.000; 3386.350; 3397.900
926.949; 3630.800; 2999.500; 3575.400
927.506; 3858.300; 3242.150; 3713.400
928.064; 3685.900; 3077.650; 3871.300
928.622; 3724.500; 3111.550; 4092.800
929.180; 3396.750; 2759.400; 4499.300
929.737; 3311.350; 2672.100; 4813.200
930.295; 4007.350; 3349.550; 5084.100
930.853; 3537.300; 2901.100; 5185.000
931.410; 3378.850; 2744.250; 5313.100
931.968; 4045.800; 3404.900; 5339.600
932.525; 3826.300; 3174.600; 5399.900
933.082; 3316.700; 2696.750; 5457.500
933.640; 3942.700; 3279.250; 5692.900
934.197; 3713.150; 3037.200; 5821.200
934.754; 3732.350; 3057.100; 5617.900
935.312; 3561.000; 2888.800; 5512.400
935.869; 4362.550; 3694.250; 5582.400
936.426; 3567.950; 2913.050; 5650.100
936.983; 3670.200; 3012.150; 5657.400
937.540; 3387.200; 2695.150; 5564.300
938.097; 3943.350; 3263.500; 5574.000
938.654; 3649.550; 2968.350; 5665.900
939.211; 3946.200; 3272.500; 5931.600
939.768; 3761.750; 3086.350; 6153.600
940.324; 3690.100; 2991.700; 6397.600
940.881; 3580.200; 2869.650; 6454.200
941.438; 4288.650; 3565.650; 6206.900
941.995; 4149.850; 3453.450; 6003.900
942.551; 3437.950; 2751.200; 6228.300
943.108; 3783.150; 3100.600; 6603.500
943.664; 3471.100; 2765.750; 7188.100
944.221; 4601.750; 3895.150; 7579.900
944.777; 3442.300; 2725.400; 7658.100
945.334; 3503.650; 2816.100; 7670.400
945.890; 3841.300; 3118.050; 7525.100
946.446; 3837.550; 3144.500; 7261.500
947.003; 3942.150; 3245.650; 6949.200
947.559; 4470.000; 3732.950; 6773.100
948.115; 4250.900; 3528.450; 6668.400
948.671; 3929.100; 3227.950; 6488.400
949.227; 3354.300; 2637.250; 6236.600
949.783; 3312.550; 2587.300; 6008.900
950.339; 4022.700; 3289.150; 5934.100
950.895; 4217.650; 3496.200; 5933.500
951.451; 3690.600; 2986.850; 6074.700
952.007; 4056.800; 3351.550; 6066.400
952.563; 3725.850; 3003.150; 5884.100
953.118; 3591.600; 2890.650; 5733.800
953.674; 3783.800; 3085.200; 5734.300
954.230; 3786.650; 3109.450; 6039.700
954.785; 3744.850; 3082.050; 6383.500
955.341; 4059.500; 3391.750; 6568.200
955.897; 3257.250; 2591.000; 6488.600
956.452; 3915.400; 3220.450; 6239.200
957.008; 4656.950; 3965.400; 5954.600
957.563; 4211.850; 3557.250; 5816.700
958.118; 3520.650; 2863.200; 5828.200
958.674; 3846.750; 3190.600; 5717.400
959.229; 4269.200; 3603.450; 5506.800
959.784; 3335.200; 2675.300; 5292.200
960.339; 4236.050; 3593.850; 5101.900
960.894; 4043.550; 3399.800; 5093.200
961.449; 3463.100; 2826.900; 5227.900
962.004; 5372.250; 4730.250; 5349.300
962.559; 3496.600; 2879.000; 5514.900
963.114; 2885.150; 2253.950; 5717.300
963.669; 3771.150; 3149.350; 5841.400
964.224; 3586.000; 2965.400; 5805.900
964.779; 3349.500; 2737.750; 5723.400
965.334; 4273.500; 3651.600; 5779.500
965.888; 3544.700; 2941.950; 5948.500
966.443; 4063.900; 3449.700; 6344.200
966.998; 3209.350; 2597.000; 6666.300
967.552; 3704.300; 3097.050; 6710.100
968.107; 3509.900; 2918.550; 6593.500
968.661; 3824.950; 3217.300; 6344.100
969.216; 3468.450; 2874.550; 6062.400
969.770; 3812.800; 3217.650; 5785.500
970.324; 3808.350; 3254.350; 5426.800
970.879; 3973.200; 3406.200; 5016.800
971.433; 4010.950; 3469.200; 4904.500
971.987; 3736.450; 3176.500; 4991.000
972.541; 3846.400; 3289.150; 4978.500
973.095; 4307.650; 3769.950; 4832.000
973.649; 3238.500; 2701.100; 4767.900
974.203; 3359.200; 2826.700; 4881.200
974.757; 3490.450; 2957.400; 4969.500
975.311; 3623.950; 3099.850; 4953.000
975.865; 3673.100; 3132.000; 4884.300
976.419; 3538.800; 3016.200; 4739.800
976.973; 3484.650; 2967.900; 4698.100
977.526; 4044.550; 3539.750; 4631.100
978.080; 3228.500; 2719.950; 4621.600
978.634; 3883.800; 3373.250; 4650.200
979.187; 3854.950; 3329.300; 4669.200
979.741; 4436.800; 3920.100; 4658.000
980.294; 3252.200; 2728.850; 4579.100
980.848; 2875.800; 2385.800; 4452.800
981.401; 3430.950; 2938.700; 4271.900
981.955; 3605.800; 3122.100; 4087.800
982.508; 3073.800; 2596.550; 3973.900
983.061; 4007.250; 3511.650; 3928.600
983.615; 3333.450; 2864.250; 3851.200
984.168; 3184.100; 2731.750; 3734.800
984.721; 3772.900; 3315.350; 3628.300
985.274; 3691.600; 3248.550; 3564.300
985.827; 3557.150; 3126.500; 3558.100
986.380; 2971.000; 2523.850; 3559.900
986.933; 3715.100; 3277.950; 3688.700
987.486; 3727.150; 3280.750; 3778.500
988.039; 3693.600; 3278.200; 3559.900
988.591; 3923.250; 3494.400; 3219.300
989.144; 3082.200; 2681.750; 2902.900
989.697; 3241.550; 2832.250; 2722.600
990.250; 3781.400; 3377.950; 2618.000
990.802; 3230.750; 2868.550; 2523.900
991.355; 4446.400; 4067.550; 2436.500
991.907; 3871.900; 3500.525; 2412.200
992.460; 3297.400; 2933.500; 2387.900
993.012; 3298.750; 2944.500; 2365.800
993.565; 3087.450; 2742.700; 2311.100
994.117; 4357.600; 3997.250; 2308.700
994.669; 3084.100; 2743.250; 2249.300
995.221; 3600.500; 3276.350; 2158.100
995.774; 3557.250; 3232.850; 2085.600
996.326; 3314.300; 3002.500; 2068.100
996.878; 3875.450; 3550.000; 1975.300
997.430; 3148.550; 2832.800; 1929.500
997.982; 3425.850; 3114.350; 1861.900
998.534; 3392.000; 3079.500; 1830.200
999.086; 3374.600; 3080.400; 1823.200
999.638; 2947.500; 2675.850; 1815.000
1000.190; 3212.600; 2926.950; 1796.600
1000.741; 3433.550; 3148.450; 1738.800
1001.293; 3138.450; 2849.700; 1666.200
1001.845; 3114.850; 2838.350; 1566.500
1002.396; 3475.750; 3204.050; 1471.900
1002.948; 3459.250; 3172.500; 1398.000
1003.500; 3374.550; 3107.700; 1356.500
1004.051; 4405.400; 4128.400; 1294.200
1004.603; 3818.350; 3553.050; 1190.000
1005.154; 2853.650; 2604.050; 1063.900
1005.705; 3456.450; 3223.450;  968.300
1006.257; 3402.100; 3172.950;  889.800
1006.808; 3309.350; 3078.150;  801.500
1007.359; 3759.550; 3544.250;  716.400
1007.910; 3132.050; 2920.100;  639.100
1008.461; 3596.100; 3405.550;  561.600
1009.013; 2827.250; 2638.450;  500.400
1009.564; 3940.800; 3740.150;  476.100
1010.115; 2874.550; 2688.250;  431.600
1010.665; 2944.950; 2745.000;  409.300
1011.216; 3276.450; 3103.700;  399.700
1011.767; 3415.050; 3217.900;  388.100
1012.318; 3587.000; 3410.550;  381.400
1012.869; 3313.150; 3111.850;  375.400
1013.419; 2927.050; 2737.350;  357.600
1013.970; 3305.450; 3123.100;  358.300
1014.521; 3015.900; 2826.000;  344.100
1015.071; 3320.000; 3144.400;  322.800
1015.622; 3115.100; 2938.550;  320.600
1016.172; 2938.050; 2744.450;  301.700
1016.723; 3010.200; 2827.350;  289.800
1017.273; 2974.500; 2795.650;  287.600
1017.823; 3191.150; 3030.550;  278.700
1018.374; 3017.650; 2835.900;  274.400
1018.924; 3575.000; 3392.300;  283.200
1019.474; 3536.100; 3375.500;  278.500
1020.024; 3232.750; 3070.150;  274.700
1020.574; 3610.350; 3450.500;  272.700
1021.124; 3350.100; 3187.200;  278.400
1021.674; 2737.550; 2577.450;  269.200
1022.224; 3547.250; 3382.700;  267.800
1022.774; 3307.200; 3140.650;  258.100
1023.324; 3788.550; 3603.750;  260.000
1023.874; 4442.300; 4296.550;  260.700
1024.423; 3016.750; 2871.350;  252.700
1024.973; 2983.500; 2810.850;  234.700
1025.523; 3053.600; 2908.150;  226.500
1026.072; 2997.750; 2839.150;  225.500
1026.622; 3362.150; 3205.850;  210.100
1027.172; 3560.450; 3417.050;  213.000
1027.721; 2985.250; 2806.750;  207.700
1028.270; 3339.650; 3188.850;  205.400
1028.820; 3201.200; 3028.250;  201.000
1029.369; 3050.200; 2897.000;  201.000
1029.918; 3205.700; 3064.000;  198.400
1030.468; 2798.250; 2639.150;  199.200
1031.017; 3172.000; 3030.550;  192.600
1031.566; 3034.650; 2886.650;  197.400
1032.115; 3487.900; 3326.550;  188.300
1032.664; 3002.950; 2847.400;  193.700
1033.213; 3705.300; 3540.000;  191.900
1033.762; 3194.100; 3012.500;  184.500
1034.311; 3403.100; 3248.900;  194.300
1034.860; 3450.800; 3313.250;  192.300
1035.408; 3649.400; 3520.300;  182.600
1035.957; 3609.250; 3460.550;  173.900
1036.506; 2620.850; 2477.900;  185.200
1037.055; 4292.450; 4143.100;  182.500
1037.603; 3347.000; 3190.300;  167.600
1038.152; 2631.700; 2488.400;  168.200
1038.700; 2902.950; 2773.100;  169.600
1039.249; 3430.450; 3282.400;  164.300
1039.797; 3179.000; 3028.700;  169.600
1040.345; 3544.100; 3410.200;  167.100
1040.894; 3165.350; 3023.800;  164.400
1041.442; 3193.850; 3048.250;  158.300
1041.990; 2801.450; 2680.650;  160.000
1042.538; 2676.550; 2544.200;  156.800
1043.087; 2833.300; 2691.650;  146.600
1043.635; 3397.250; 3272.250;  162.400
1044.183; 2961.250; 2833.000;  156.300
1044.731; 2880.250; 2748.650;  158.100
1045.279; 3414.950; 3272.550;  154.500
1045.827; 4577.200; 4447.750;  146.200
1046.374; 2549.950; 2429.100;  154.000
1046.922; 2967.200; 2832.250;  149.000
1047.470; 3514.100; 3382.600;  154.900
1048.018; 3297.250; 3169.550;  148.400
1048.565; 3618.650; 3503.450;  146.300
1049.113; 2775.450; 2642.200;  156.100
1049.660; 3161.750; 3015.750;  154.300
1050.208; 3414.350; 3280.300;  149.400
1050.755; 3065.400; 2940.200;  157.500
1051.303; 3490.650; 3360.300;  157.700
1051.850; 3209.700; 3064.700;  152.800
1052.397; 2362.450; 2224.000;  146.300
1052.945; 3116.100; 2993.300;  149.500
1053.492; 3777.650; 3655.750;  149.300
1054.039; 3681.850; 3553.450;  163.100
1054.586; 2796.200; 2689.000;  150.400
1055.133; 3539.050; 3408.800;  153.500
1055.680; 3270.400; 3141.700;  155.600
1056.227; 2706.500; 2591.100;  148.700
1056.774; 4067.550; 3934.400;  151.500
1057.321; 2641.700; 2497.900;  143.700
1057.868; 3283.650; 3163.450;  145.300
1058.415; 3320.300; 3180.750;  153.500
1058.961; 3445.750; 3305.900;  149.900
1059.508; 3253.900; 3125.750;  147.300
1060.055; 2961.900; 2846.550;  151.000
1060.601; 3146.250; 3017.200;  148.700
1061.148; 3187.150; 3050.800;  153.800
1061.694; 3016.400; 2886.100;  150.500
1062.241; 3021.200; 2895.950;  149.100
1062.787; 3392.150; 3267.600;  153.000
1063.334; 4109.200; 3977.950;  153.200
1063.880; 3423.850; 3310.600;  148.400
1064.426; 3626.750; 3486.900;  149.200
1064.972; 3024.450; 2916.200;  156.400
1065.518; 2876.150; 2745.750;  144.700
1066.065; 3198.400; 3085.050;  139.400
1066.611; 3067.800; 2934.800;  139.300
1067.157; 3253.400; 3152.650;  138.400
1067.703; 3421.750; 3304.550;  142.700
1068.249; 3041.700; 2929.500;  136.700
1068.794; 3194.100; 3066.900;  139.400
1069.340; 2930.500; 2812.300;  142.700
1069.886; 3024.950; 2898.150;  135.600
1070.432; 2733.750; 2626.050;  133.400
1070.977; 3076.550; 2958.900;  138.200
1071.523; 2874.050; 2759.500;  132.400
1072.068; 2944.200; 2822.600;  132.700
1072.614; 2650.000; 2543.300;  127.000
1073.160; 3544.550; 3439.050;  131.300
1073.705; 2946.200; 2827.350;  135.700
1074.250; 2844.450; 2745.150;  133.000
1074.796; 3364.100; 3251.800;  138.000
1075.341; 3405.900; 3287.550;  137.300
1075.886; 3007.850; 2906.250;  134.300
1076.431; 3373.700; 3269.600;  138.200
1076.976; 3299.950; 3169.850;  132.200
1077.521; 2972.700; 2852.750;  138.900
1078.067; 2975.350; 2877.550;  128.600
1078.612; 3420.350; 3337.100;  138.900
1079.156; 3086.250; 2964.300;  128.900
1079.701; 3565.750; 3461.200;  129.700
1080.246; 3575.000; 3472.100;  128.600
1080.791; 3239.600; 3126.450;  122.600
1081.336; 3394.050; 3267.050;  122.000
1081.880; 3342.750; 3235.450;  123.900
1082.425; 2926.950; 2817.050;  120.600
1082.970; 3673.850; 3585.800;  124.500
1083.514; 3062.300; 2964.550;  112.000
1084.059; 3005.550; 2881.350;  120.700
1084.603; 2910.550; 2813.400;  116.000
1085.147; 3335.300; 3233.650;  116.300
1085.692; 3705.900; 3605.850;  108.200
1086.236; 2571.950; 2467.450;  114.600
1086.780; 3901.650; 3788.950;  118.900
1087.325; 3372.700; 3278.100;  120.400
1087.869; 3170.400; 3065.000;  110.500
1088.413; 3621.300; 3514.400;  114.000
1088.957; 2761.650; 2657.500;  114.300
1089.501; 3994.850; 3866.800;  114.600
1090.045; 3766.050; 3647.650;  114.200
1090.589; 2926.400; 2823.050;  105.500
1091.133; 3487.950; 3370.250;  111.800
1091.676; 3014.300; 2906.550;  110.900
1092.220; 3102.750; 3001.500;  110.100
1092.764; 3669.250; 3559.850;  108.100
1093.307; 3475.500; 3374.050;  109.900
1093.851; 2862.250; 2764.850;  107.500
1094.395; 3541.350; 3464.300;   96.200
1094.938; 3267.900; 3176.450;   99.300
1095.482; 2874.350; 2777.700;   97.700
1096.025; 3677.800; 3584.200;   84.900
1096.568; 4004.400; 3894.400;   88.500
1097.112; 2580.000; 2500.700;   95.700
1097.655; 3062.950; 2976.900;   97.300
1098.198; 3083.100; 2987.450;   92.600
1098.741; 3188.850; 3073.000;   91.800
1099.285; 3393.300; 3288.950;   88.000
1099.828; 2249.550; 2167.850;   91.700
1100.371; 3160.950; 3062.250;   89.900
1100.914; 3540.150; 3450.800;   91.500
1101.457; 3515.850; 3415.400;   88.100
1101.999; 2987.450; 2903.450;   86.400
1102.542; 3304.150; 3213.850;   90.800
1103.085; 3421.000; 3327.750;   95.400
1103.628; 3979.550; 3890.900;   97.700
1104.170; 3025.150; 2925.350;   84.000
1104.713; 3351.300; 3260.600;   93.900
1105.256; 2887.700; 2790.400;   93.000
1105.798; 2587.700; 2509.350;   85.600
1106.341; 3799.400; 3711.650;   87.100
1106.883; 2693.200; 2602.700;   85.200
1107.425; 3461.300; 3392.850;   85.000
1107.968; 3198.050; 3120.200;   84.300
1108.510; 3555.500; 3469.550;   88.200
1109.052; 3219.450; 3127.500;   86.600
1109.594; 2899.850; 2818.200;   79.400
1110.136; 3354.700; 3252.450;   81.700
1110.679; 3262.350; 3169.300;   75.500
1111.221; 3149.950; 3058.750;   88.500
1111.763; 2871.150; 2783.600;   87.700
1112.304; 2843.900; 2733.150;   89.700
1112.846; 3486.750; 3379.650;   81.900
1113.388; 4962.500; 4868.150;   86.400
1113.930; 3587.800; 3517.100;   84.700
1114.472; 3171.200; 3076.650;   78.900
1115.013; 2861.450; 2768.850;   78.100
1115.555; 3063.000; 2999.550;   84.900
1116.097; 2978.800; 2900.700;   79.200
1116.638; 3571.600; 3511.250;   83.700
1117.180; 3461.250; 3365.700;   85.500
1117.721; 2997.750; 2905.200;   78.800
1118.262; 3545.500; 3457.150;   77.400
1118.804; 3318.900; 3228.500;   81.400
1119.345; 3032.300; 2952.800;   77.800
1119.886; 3683.250; 3589.850;   81.200
1120.427; 3065.100; 2983.550;   77.200
1120.969; 3122.350; 3047.550;   75.200
1121.510; 2938.000; 2856.600;   80.900
1122.051; 3794.800; 3698.400;   77.300
1122.592; 3455.800; 3354.800;   73.300
1123.133; 2841.900; 2752.350;   90.100
1123.673; 3691.950; 3621.550;   75.000
1124.214; 3184.850; 3111.950;   80.600
1124.755; 3351.600; 3265.500;   78.000
1125.296; 3228.450; 3158.950;   77.500
1125.836; 3585.300; 3524.950;   80.400
1126.377; 3140.450; 3070.600;   75.600
1126.918; 3204.350; 3158.000;   78.900
1127.458; 3236.600; 3180.150;   78.000
1127.999; 3434.700; 3357.850;   76.100
1128.539; 3629.950; 3535.500;   81.400
1129.079; 3320.150; 3258.850;   77.400
1129.620; 2915.950; 2839.800;   68.000
1130.160; 2825.500; 2740.700;   77.500
1130.700; 3338.250; 3267.000;   76.300
1131.240; 3367.650; 3292.800;   66.800
1131.781; 3260.950; 3179.900;   70.600
1132.321; 3148.300; 3081.550;   77.200
1132.861; 2924.150; 2850.850;   70.400
1133.401; 3117.950; 3042.950;   68.700
1133.941; 3283.300; 3210.250;   68.500
1134.481; 3160.350; 3076.550;   75.900
1135.020; 3189.100; 3106.950;   66.600
1135.560; 3513.650; 3449.250;   68.100
1136.100; 2614.650; 2539.250;   64.900
1136.640; 2695.200; 2617.650;   72.500
1137.179; 2804.100; 2736.600;   69.700
1137.719; 3170.750; 3106.700;   68.400
1138.258; 3079.150; 3005.100;   67.000
1138.798; 3475.100; 3401.750;   69.600
1139.337; 2522.500; 2450.900;   64.000
1139.877; 3356.650; 3301.250;   64.500
1140.416; 4589.200; 4493.700;   74.900
1140.955; 2791.650; 2706.800;   67.200
1141.494; 3530.750; 3466.950;   69.900
1142.034; 3046.950; 2982.500;   59.100
1142.573; 3397.100; 3309.250;   65.900
1143.112; 2896.400; 2840.000;   70.600
1143.651; 2821.050; 2757.500;   67.100
1144.190; 3633.450; 3565.750;   56.700
1144.729; 3170.100; 3117.050;   61.800
1145.267; 3063.800; 2980.150;   62.500
1145.806; 3346.100; 3273.900;   68.500
1146.345; 3363.800; 3290.400;   58.300
1146.884; 3288.050; 3224.900;   63.100
1147.422; 2791.850; 2726.700;   54.800
1147.961; 3741.100; 3670.700;   67.600
1148.500; 3511.300; 3445.700;   64.700
1149.038; 3351.650; 3280.950;   61.000
1149.577; 3676.800; 3620.550;   65.100
1150.115; 2354.050; 2305.150;   58.100
1150.653; 3195.200; 3136.150;   60.500
1151.192; 2921.450; 2861.500;   56.600
1151.730; 3456.300; 3386.450;   62.300
1152.268; 3082.600; 3019.950;   55.500
1152.806; 3037.350; 2967.600;   58.200
1153.344; 3012.100; 2961.100;   55.000
1153.882; 3154.150; 3083.300;   64.200
1154.421; 2469.150; 2405.850;   60.300
1154.958; 3152.150; 3091.950;   58.100
1155.496; 3398.700; 3327.500;   55.800
1156.034; 3810.450; 3745.800;   61.000
1156.572; 3514.900; 3457.550;   56.200
1157.110; 2485.750; 2423.050;   53.200
1157.647; 3571.150; 3501.850;   57.400
1158.185; 2996.600; 2925.650;   55.500
1158.723; 2694.950; 2619.950;   58.000
1159.260; 3682.550; 3598.900;   53.700
1159.798; 3486.400; 3406.100;   51.700
1160.335; 3321.550; 3257.400;   59.600

