
Integration time [ms]:   3.276
Averaging Nr. [scans]: 1000
Smoothing Nr. [pixels]: 0
Data measured with spectrometer [name]: 7414430SP
Wave   ;Sample   ;Dark     ;Reference
[nm]   ;[counts] ;[counts] ;[counts] 

288.544;  150.334;    7.793;  793.890
289.143;  153.676;    7.462;  681.602
289.742;  154.066;    8.602;  828.814
290.341;  138.963;    1.321;  789.841
290.940;  128.046;   -0.709;  730.702
291.538;  128.987;    0.881;  881.108
292.137;  129.598;    0.122;  792.581
292.736;  133.857;   -1.929;  975.101
293.335;  131.088;   -8.229;  735.086
293.934;  131.002;   -5.279;  781.677
294.532;  128.689;   -1.369; 1031.958
295.131;  115.565;   -7.641;  834.394
295.730;  114.698;   -8.420;  809.588
296.328;  114.264;   -5.611;  783.442
296.927;  114.895;   -5.781;  779.652
297.525;  115.804;   -6.361;  781.236
298.124;  107.463;  -11.382;  654.009
298.722;  110.266;   -7.641;  761.933
299.321;  107.543;   -6.811;  708.597
299.919;  106.378;   -6.991;  751.918
300.518;  102.256;  -10.362;  689.338
301.116;  104.425;   -9.581;  691.381
301.715;  104.330;   -4.891;  730.222
302.313;  103.947;   -8.801;  704.943
302.911;   98.567;   -8.522;  733.830
303.509;  104.898;   -6.171;  925.627
304.108;  102.297;   -7.311;  760.383
304.706;  101.434;   -8.321;  801.664
305.304;   96.303;  -10.222;  796.707
305.902;  100.657;   -6.021;  784.484
306.500;   96.251;   -4.971;  728.200
307.098;   96.287;   -7.061;  746.560
307.696;   93.535;   -8.801;  780.432
308.294;   94.292;   -6.411;  731.359
308.892;   95.767;   -2.901;  759.769
309.490;   91.917;   -5.041;  712.161
310.088;   90.354;   -5.002;  788.444
310.686;   94.372;   -2.041;  821.749
311.284;   90.070;   -2.351;  766.040
311.882;   87.644;   -4.422;  731.225
312.480;   85.635;   -4.192;  697.167
313.078;   86.355;   -1.172;  808.331
313.675;   87.477;   -2.601;  691.600
314.273;   83.222;   -1.312;  797.837
314.871;   81.205;   -3.942;  589.829
315.468;   79.581;   -2.802;  652.090
316.066;   81.837;   -0.701;  694.427
316.664;   75.300;   -4.362;  656.351
317.261;   79.617;   -2.872;  910.128
317.859;   75.003;   -2.022;  768.735
318.456;   74.984;   -0.531;  830.096
319.054;   71.476;   -3.912;  787.828
319.651;   70.800;   -4.752;  759.928
320.249;   67.977;   -2.602;  810.188
320.846;   67.062;   -0.821;  714.286
321.443;   64.366;   -4.642;  832.135
322.041;   61.730;   -5.002;  812.315
322.638;   59.813;   -3.982;  701.456
323.235;   60.800;   -3.411;  665.683
323.833;   57.427;   -7.361;  740.354
324.430;   53.349;   -8.611;  615.900
325.027;   54.258;   -4.061;  876.855
325.624;   53.982;   -4.031;  644.532
326.221;   51.660;   -7.481;  689.717
326.818;   49.800;   -5.281;  818.332
327.415;   54.155;   -7.460;  748.828
328.012;   52.977;   -5.510;  690.585
328.609;   51.741;   -7.880;  731.389
329.206;   50.743;   -8.331;  778.621
329.803;   50.443;   -5.121;  737.841
330.400;   52.316;   -4.510;  704.260
330.997;   54.203;   -6.441;  817.147
331.594;   52.580;   -8.831;  788.185
332.191;   57.540;   -7.621;  728.722
332.787;   60.698;   -4.591;  844.463
333.384;   59.351;   -7.412;  763.093
333.981;   57.689;   -8.293;  815.687
334.578;   60.493;   -7.052;  708.378
335.174;   63.467;   -3.102;  731.469
335.771;   62.985;   -5.943;  836.456
336.367;   60.810;   -7.393;  710.631
336.964;   63.369;   -4.063;  793.266
337.561;   61.681;   -3.813;  731.112
338.157;   57.167;   -4.654;  911.916
338.754;   55.425;   -7.934;  796.589
339.350;   53.302;   -4.414;  722.493
339.946;   54.953;   -4.664;  773.135
340.543;   46.137;   -6.375;  846.136
341.139;   41.944;   -9.815;  720.836
341.735;   39.819;   -4.526;  772.593
342.332;   38.487;   -4.895;  691.472
342.928;   38.734;   -4.295;  795.394
343.524;   33.036;   -5.476;  761.684
344.120;   28.708;   -5.856;  738.562
344.716;   32.601;   -2.155;  723.717
345.313;   29.915;   -6.275;  795.342
345.909;   24.777;   -8.815;  627.336
346.505;   26.118;   -5.305;  740.247
347.101;   27.035;   -2.674;  827.864
347.697;   27.551;   -4.344;  785.398
348.293;   22.981;   -9.975;  627.244
348.889;   23.601;   -5.774;  745.914
349.485;   22.306;   -5.004;  688.205
350.081;   22.947;   -4.704;  772.592
350.676;   18.577;   -6.635;  691.606
351.272;   22.803;   -4.504;  809.530
351.868;   22.670;   -3.914;  780.497
352.464;   19.550;   -9.044;  723.932
353.059;   15.584;   -8.314;  646.017
353.655;   18.526;   -7.024;  777.063
354.251;   19.598;   -5.343;  759.845
354.846;   14.814;   -8.604;  740.646
355.442;   12.090;   -6.945;  753.071
356.038;   14.182;   -7.564;  751.708
356.633;   14.245;   -5.814;  728.594
357.229;   13.018;   -7.364;  724.757
357.824;   10.569;   -8.024;  703.600
358.420;   10.088;   -9.384;  679.726
359.015;   10.200;   -5.104;  695.357
359.610;   11.704;   -6.854;  763.920
360.206;    5.604;  -10.185;  603.240
360.801;    7.700;   -7.054;  646.503
361.396;   10.400;   -5.034;  725.975
361.992;    5.702;   -8.284;  668.220
362.587;    3.616;   -8.625;  670.160
363.182;    5.329;   -7.674;  689.631
363.777;    5.677;   -5.164;  738.242
364.372;    5.476;   -8.604;  737.314
364.967;    1.378;   -9.055;  680.744
365.563;    5.318;   -6.114;  815.567
366.158;    2.386;   -5.814;  685.161
366.753;    3.527;   -7.854;  649.263
367.348;    2.200;   -7.804;  746.056
367.942;    1.470;   -7.954;  697.298
368.537;    0.568;   -4.984;  754.245
369.132;    1.226;   -8.564;  703.428
369.727;   -3.162;   -8.855;  638.079
370.322;   -1.383;   -6.245;  580.186
370.917;   -2.447;   -6.425;  710.646
371.511;    0.493;   -6.294;  861.834
372.106;   -2.713;   -7.685;  776.964
372.701;   -5.676;   -7.335;  585.988
373.296;   -0.455;   -4.564;  863.135
373.890;   -5.128;  -10.235;  647.840
374.485;   -7.457;   -7.885;  691.199
375.079;   -3.354;   -7.324;  738.685
375.674;   -1.884;   -3.494;  812.970
376.268;   -6.270;   -8.525;  691.759
376.863;  -11.478;  -10.086;  580.327
377.457;   -5.967;   -7.025;  662.490
378.052;   -7.522;   -3.585;  764.884
378.646;   -8.996;   -7.595;  741.167
379.240;   -8.551;   -8.335;  721.176
379.835;   -8.161;   -5.785;  636.978
380.429;   -9.654;   -4.335;  562.557
381.023;  -10.095;   -6.805;  779.205
381.617;  -12.217;   -9.195;  680.106
382.212;   -9.067;   -6.905;  685.303
382.806;   -7.607;   -3.745;  760.690
383.400;  -12.280;   -7.745;  672.281
383.994;  -12.979;   -9.765;  664.870
384.588;   -9.303;   -6.564;  697.701
385.182;   -7.627;   -5.344;  726.624
385.776;   -9.800;   -8.514;  706.875
386.370;  -12.410;   -9.555;  681.968
386.964;  -12.275;   -8.715;  684.155
387.558;  -10.005;   -6.174;  598.360
388.152;  -13.421;   -8.725;  681.959
388.745;  -12.341;   -7.965;  814.707
389.339;   -9.447;   -5.924;  747.642
389.933;   -8.985;   -5.524;  695.370
390.527;   -9.799;   -7.114;  859.029
391.120;  -15.949;  -10.725;  595.318
391.714;  -13.145;   -8.035;  711.633
392.308;  -10.168;   -3.574;  780.253
392.901;  -14.071;   -7.245;  642.460
393.495;  -15.714;   -9.285;  595.414
394.089;  -13.667;   -5.895;  760.452
394.682;  -13.938;   -4.295;  697.188
395.275;  -14.734;   -9.875;  719.927
395.869;  -15.883;   -8.485;  667.314
396.462;  -15.135;   -7.455;  616.609
397.056;  -11.166;   -5.424;  776.621
397.649;  -15.596;   -6.605;  731.575
398.242;  -12.467;   -8.224;  712.645
398.836;  -12.035;   -7.474;  766.408
399.429;  -13.173;   -7.094;  631.041
400.022;  -16.627;   -9.475;  665.902
400.615;  -13.552;   -7.145;  805.609
401.208;  -12.223;   -7.174;  691.451
401.802;  -14.139;   -5.515;  699.329
402.395;  -15.408;   -9.875;  683.502
402.988;  -16.257;   -8.845;  696.627
403.581;  -14.091;   -8.874;  646.878
404.174;  -11.054;   -5.324;  686.568
404.767;  -14.101;   -9.575;  638.583
405.360;  -15.530;  -10.965;  621.445
405.953;  -10.856;   -8.764;  759.034
406.545;  -10.838;   -7.514;  725.342
407.138;  -14.651;  -10.025;  618.350
407.731;  -13.842;  -10.034;  613.303
408.324;   -9.254;   -9.374;  660.554
408.917;  -10.825;   -6.534;  681.864
409.509;  -12.257;   -8.004;  740.396
410.102;  -14.428;   -9.875;  643.948
410.695;   -8.776;   -8.604;  665.758
411.287;   -9.571;   -6.794;  599.821
411.880;  -10.355;   -9.334;  585.421
412.472;  -13.488;  -10.254;  613.092
413.065;  -10.297;   -6.714;  629.408
413.657;   -8.965;   -7.234;  576.678
414.250;   -8.269;  -10.544;  646.681
414.842;  -10.462;   -9.744;  676.353
415.434;   -8.644;   -6.994;  570.463
416.027;   -4.238;   -5.893;  652.196
416.619;   -6.668;   -7.264;  713.400
417.211;   -7.110;  -10.374;  599.352
417.804;   -3.212;   -7.993;  628.499
418.396;   -6.684;   -7.234;  607.643
418.988;   -4.584;   -9.443;  659.238
419.580;   -7.896;  -10.724;  568.276
420.172;   -6.035;  -10.323;  536.196
420.764;   -1.392;   -8.793;  672.482
421.356;   -2.941;  -11.143;  636.898
421.948;   -3.669;   -8.293;  677.661
422.540;    1.259;   -7.893;  680.027
423.132;    0.322;   -7.082;  600.641
423.724;   -2.523;   -8.653;  561.267
424.316;   -1.184;  -10.213;  621.345
424.908;    2.626;   -9.762;  591.517
425.500;    3.059;   -5.572;  647.978
426.092;    3.128;   -8.422;  648.268
426.683;    2.779;   -9.283;  684.836
427.275;    5.298;   -7.852;  641.471
427.867;    6.958;   -5.272;  668.948
428.458;    7.108;   -7.682;  732.344
429.050;    6.150;  -10.612;  680.749
429.642;    8.430;   -9.882;  743.124
430.233;    8.466;   -6.962;  569.356
430.825;    9.975;   -6.842;  724.809
431.416;    7.432;   -9.672;  698.241
432.008;   10.659;   -6.552;  651.723
432.599;   11.020;   -6.891;  656.073
433.190;    8.596;  -10.912;  637.670
433.782;    7.185;  -11.172;  590.395
434.373;   15.098;   -6.061;  884.765
434.964;   13.779;   -8.251;  602.920
435.556;   11.455;   -9.722;  634.537
436.147;   14.591;   -9.082;  758.490
436.738;   13.985;   -8.041;  701.099
437.329;   19.184;   -7.341;  721.723
437.920;   12.351;   -8.162;  666.688
438.511;   12.054;  -11.802;  564.526
439.103;   19.273;  -10.191;  623.998
439.694;   20.526;   -7.601;  681.583
440.285;   21.654;   -8.541;  764.432
440.876;   19.590;   -9.751;  845.738
441.466;   18.820;   -9.401;  575.162
442.057;   24.578;   -7.760;  665.814
442.648;   23.148;   -9.971;  746.255
443.239;   21.511;  -11.001;  620.477
443.830;   26.454;   -7.990;  704.958
444.421;   27.828;   -7.910;  655.474
445.011;   24.539;   -8.131;  693.619
445.602;   25.073;   -7.111;  743.126
446.193;   26.059;  -10.920;  488.117
446.783;   30.056;   -6.500;  640.397
447.374;   26.213;   -8.671;  692.759
447.964;   26.548;  -10.781;  713.770
448.555;   35.162;   -9.650;  822.742
449.145;   31.361;   -8.660;  662.853
449.736;   32.177;   -8.990;  803.179
450.326;   32.521;   -9.500;  713.626
450.917;   37.033;   -8.680;  675.324
451.507;   35.923;   -7.520;  600.661
452.097;   36.507;   -8.590;  746.267
452.688;   37.755;  -11.340;  742.160
453.278;   37.136;  -10.100;  566.840
453.868;   42.027;   -6.019;  793.550
454.458;   39.591;   -9.440;  651.141
455.048;   39.558;  -10.560;  711.783
455.639;   42.437;  -11.799;  567.096
456.229;   44.590;   -6.899;  710.694
456.819;   47.527;   -7.389;  751.158
457.409;   47.517;  -11.119;  773.993
457.999;   50.484;   -9.289;  737.505
458.589;   50.124;   -6.139;  686.606
459.179;   50.207;   -8.729;  717.658
459.769;   47.794;   -9.789;  627.099
460.358;   52.853;  -10.259;  797.262
460.948;   53.418;   -7.299;  689.503
461.538;   54.329;  -10.289;  660.677
462.128;   52.316;  -11.269;  664.934
462.717;   59.132;   -9.368;  710.326
463.307;   61.245;   -7.908;  705.846
463.897;   57.540;   -9.599;  656.942
464.486;   56.971;   -9.769;  837.128
465.076;   61.171;   -8.048;  733.776
465.666;   65.373;   -9.358;  652.900
466.255;   62.910;   -7.919;  785.651
466.845;   62.114;  -11.689;  666.749
467.434;   64.626;   -7.818;  725.873
468.023;   66.153;   -7.678;  658.357
468.613;   63.358;  -10.939;  713.946
469.202;   68.263;  -10.118;  646.507
469.791;   71.674;   -9.108;  737.811
470.381;   73.881;   -6.058;  742.813
470.970;   74.048;  -10.428;  711.099
471.559;   73.794;  -10.268;  733.291
472.148;   76.458;   -8.448;  675.737
472.738;   78.748;   -6.917;  765.466
473.327;   77.252;  -11.978;  637.529
473.916;   78.718;  -11.888;  737.446
474.505;   82.610;   -9.437;  751.703
475.094;   85.343;   -6.747;  806.570
475.683;   84.620;   -9.367;  797.699
476.272;   85.683;  -12.637;  730.632
476.861;   88.069;  -10.027;  706.754
477.449;   94.727;   -8.716;  728.487
478.038;   89.254;   -9.577;  692.513
478.627;   90.931;   -9.718;  714.852
479.216;   97.076;   -8.947;  769.441
479.805;   99.984;   -6.256;  783.375
480.393;   99.060;   -7.937; 1008.945
480.982;   99.144;   -7.717;  874.501
481.571;  105.156;   -9.266;  858.333
482.159;  105.607;   -7.636;  705.386
482.748;  105.223;   -9.667;  821.385
483.336;  110.263;  -10.376;  858.209
483.925;  110.752;   -7.147;  774.373
484.513;  116.993;   -7.996;  758.962
485.102;  113.019;  -10.027;  810.965
485.690;  121.979;  -10.446; 1011.050
486.278;  124.259;   -8.446;  979.329
486.867;  125.141;   -6.356;  809.662
487.455;  126.974;   -9.136;  898.229
488.043;  128.527;  -10.646;  748.361
488.631;  136.025;   -7.456; 1005.079
489.220;  140.203;   -6.636;  908.626
489.808;  140.238;  -11.036;  741.415
490.396;  148.281;  -10.246;  914.645
490.984;  154.408;   -8.556;  830.161
491.572;  163.340;   -5.886;  940.315
492.160;  168.719;   -9.486;  919.081
492.748;  180.769;  -10.976;  884.341
493.336;  203.511;   -8.776; 1019.693
493.924;  229.245;   -5.465;  958.077
494.512;  255.056;   -9.986; 1066.638
495.100;  290.949;  -10.636; 1103.280
495.687;  346.477;  -10.885; 1206.373
496.275;  406.062;   -8.126; 1150.796
496.863;  476.676;  -10.586; 1281.171
497.451;  577.068;  -11.926; 1386.805
498.038;  705.107;  -10.885; 1556.729
498.626;  811.117;   -6.315; 1741.407
499.214;  960.850;   -7.326; 2016.609
499.801; 1150.153;  -11.906; 2220.633
500.389; 1399.259;  -10.466; 2312.494
500.976; 1703.351;   -5.236; 2744.849
501.564; 2135.719;   -8.936; 3148.565
502.151; 2499.913;  -13.176; 3515.999
502.738; 2939.548;  -10.646; 3971.274
503.326; 3336.558;   -9.525; 4403.796
503.913; 3719.720;  -10.856; 5161.749
504.500; 4082.288;  -11.586; 5986.420
505.088; 4516.449;  -10.336; 6381.201
505.675; 5038.080;   -6.355; 6925.547
506.262; 5758.628;   -9.046; 7619.060
506.849; 6475.064;  -10.416; 8733.969
507.436; 6941.538;  -10.305; 9790.121
508.023; 7513.955;   -5.496; 9985.472
508.610; 7781.018;   -7.856;10434.618
509.197; 8424.529;  -10.097;11198.435
509.784; 9784.632;  -10.886;12391.194
510.371;10839.240;   -9.315;13603.713
510.958;11569.513;   -9.936;14426.586
511.545;12324.669;   -9.326;15243.775
512.132;13139.157;  -10.075;15945.876
512.719;13623.466;   -7.796;16340.369
513.305;14517.639;  -10.606;18011.766
513.892;15210.643;  -11.486;19754.971
514.479;16527.168;   -9.126;20967.805
515.066;18105.674;   -6.026;22299.793
515.652;19461.023;   -8.466;22908.660
516.239;20606.736;  -10.886;23798.875
516.825;21502.959;  -11.496;25567.275
517.412;22384.873;   -5.796;28154.959
517.998;22999.486;  -10.506;28344.111
518.585;23156.430;  -10.076;27134.219
519.171;23691.572;   -8.315;27268.576
519.758;24969.715;   -8.596;28964.129
520.344;26784.203;   -8.466;30664.494
520.930;26831.313;  -11.006;32550.605
521.516;27869.400;  -10.495;35422.895
522.103;29967.113;   -5.526;38280.004
522.689;30385.219;   -8.746;37835.117
523.275;29984.420;  -11.376;37288.613
523.861;31388.053;  -11.156;37281.395
524.447;32676.295;   -8.135;37846.949
525.033;32361.568;   -7.896;38321.949
525.619;32377.996;  -12.476;38579.285
526.205;33656.633;   -9.516;40622.875
526.791;35550.734;   -6.926;42258.836
527.377;35245.645;   -8.346;42966.902
527.963;35170.758;   -8.717;42018.949
528.549;31850.855;  -11.016;42476.828
529.135;29577.768;   -8.536;41854.852
529.721;30523.570;   -9.666;41237.711
530.306;32554.408;  -10.066;41259.445
530.892;34035.078;  -11.356;41506.047
531.478;35997.598;   -6.596;43559.613
532.063;38953.719;   -8.836;47695.563
532.649;39496.965;  -10.047;50808.324
533.235;39972.484;   -9.746;51787.500
533.820;40046.473;   -6.566;52145.035
534.406;41267.535;  -10.817;51133.488
534.991;40816.125;   -9.416;49996.805
535.576;39001.195;   -9.036;48882.852
536.162;38854.750;   -6.156;46942.285
536.747;38252.453;  -11.607;45711.746
537.333;38852.297;  -11.787;48510.180
537.918;39004.008;  -12.437;50439.891
538.503;37354.691;   -7.196;50863.711
539.088;36235.648;  -10.556;50906.922
539.673;39513.371;   -8.767;52621.965
540.259;42793.992;  -10.026;52368.094
540.844;42047.824;   -7.416;50879.109
541.429;43873.121;   -9.467;52077.777
542.014;46687.590;   -9.527;52716.695
542.599;45959.172;   -9.946;52363.281
543.184;43642.695;   -7.927;53187.137
543.769;45027.488;   -9.297;54697.605
544.354;44565.133;  -10.127;53913.914
544.938;43374.336;   -9.267;49680.164
545.523;45329.656;   -6.506;47386.277
546.108;48147.664;   -9.787;49151.949
546.693;49988.586;  -11.587;51384.637
547.278;49693.082;  -10.986;51853.254
547.862;46875.855;   -8.206;51173.750
548.447;42464.266;  -10.067;51691.395
549.031;41949.375;   -9.637;52456.703
549.616;46731.422;   -9.926;52714.516
550.201;46157.477;   -6.347;52414.598
550.785;47286.879;   -7.917;52355.059
551.370;46345.043;  -10.867;54589.453
551.954;45752.109;   -9.047;58267.348
552.538;46636.922;   -7.827;59062.176
553.123;45091.746;  -10.287;58115.285
553.707;42751.918;  -12.178;56556.285
554.291;44225.707;   -8.717;56201.668
554.876;46723.199;   -7.457;55335.762
555.460;46839.223;  -10.387;54155.703
556.044;47775.531;   -9.618;53721.484
556.628;46512.199;  -11.567;53731.016
557.212;45543.945;   -8.097;54312.531
557.796;43987.656;  -11.077;53797.773
558.380;44029.824;  -11.108;56145.984
558.964;44454.707;   -9.057;57277.930
559.548;45819.438;   -6.977;56459.641
560.132;44201.434;  -11.457;54434.543
560.716;42591.859;  -11.378;54800.617
561.300;43572.230;   -9.577;57606.945
561.884;44845.773;   -7.127;58972.445
562.467;43144.410;   -7.118;57327.570
563.051;42621.117;  -13.358;54962.434
563.635;43831.844;  -10.178;52594.473
564.219;43976.426;   -7.837;50610.410
564.802;44790.063;  -11.398;49551.180
565.386;44688.660;  -12.788;48370.953
565.969;43928.480;   -9.077;48178.871
566.553;42966.000;   -6.207;49957.305
567.136;43734.855;   -8.568;50369.594
567.720;40369.449;  -11.868;49492.004
568.303;38302.535;   -8.268;50616.352
568.887;38333.598;   -8.698;50727.148
569.470;38621.105;   -6.808;51698.379
570.053;37235.316;  -13.188;52122.078
570.637;35752.359;  -12.037;52536.438
571.220;35826.945;   -8.577;51186.098
571.803;36599.305;   -8.498;51032.762
572.386;38502.750;  -10.498;49609.887
572.969;40893.426;   -9.388;48285.926
573.552;39151.633;   -8.338;47624.285
574.135;37768.867;   -8.518;45498.641
574.718;35545.461;  -13.628;41970.434
575.301;34589.598;  -10.893;41447.137
575.884;33633.730;   -8.158;40923.836
576.467;34782.195;  -10.328;45267.723
577.050;36430.270;  -13.058;48175.543
577.633;37776.184;   -9.458;47729.328
578.216;36977.016;   -8.928;47579.793
578.799;36110.199;   -9.358;47820.996
579.381;35068.902;  -11.388;48115.551
579.964;33127.914;  -11.718;47333.766
580.547;34886.605;   -8.588;46668.969
581.129;36058.105;   -8.859;44466.141
581.712;36954.398;  -10.729;44164.922
582.294;37526.789;  -11.118;46477.855
582.877;37218.711;   -5.218;48244.254
583.459;34852.945;   -8.679;47437.895
584.042;32943.125;  -10.709;46943.219
584.624;33389.539;  -11.669;46792.227
585.206;32983.348;   -8.218;46557.250
585.789;32904.453;  -10.569;45793.773
586.371;35797.156;  -11.859;43836.391
586.953;36532.980;  -10.719;42972.492
587.536;37766.570;   -7.198;42487.211
588.118;38001.910;   -8.720;42086.414
588.700;34195.070;  -10.439;43389.930
589.282;33255.641;   -9.198;43646.039
589.864;34154.641;   -9.199;43438.109
590.446;35234.008;  -11.319;43151.926
591.028;35339.391;  -11.159;42781.867
591.610;34282.453;  -11.779;42839.098
592.192;31506.883;   -7.668;42820.402
592.774;29883.607;  -11.949;40724.277
593.356;28573.035;  -12.129;39874.789
593.937;27408.725;  -10.669;39980.648
594.519;29474.441;   -6.509;42069.633
595.101;31699.387;  -10.849;42976.031
595.683;31927.455;  -11.679;44084.441
596.264;32998.684;   -9.049;43478.797
596.846;32529.480;   -8.849;43803.672
597.427;32444.926;   -9.570;42986.934
598.009;34133.668;  -12.620;42832.219
598.591;34527.348;  -10.039;42580.086
599.172;33751.754;  -10.369;43061.805
599.753;33956.105;   -9.140;41691.469
600.335;35511.730;  -11.430;40692.520
600.916;33687.367;   -9.939;39982.422
601.498;31039.848;   -8.479;40318.617
602.079;29539.119;  -10.920;40670.609
602.660;29314.869;  -11.480;41450.898
603.241;30976.287;  -11.699;41137.738
603.823;29823.352;   -9.579;38868.797
604.404;29070.143;  -10.620;38182.785
604.985;30759.875;  -10.450;38078.047
605.566;30796.785;   -9.129;38056.633
606.147;30989.398;   -7.510;37020.418
606.728;32466.818;  -10.660;37883.359
607.309;31026.002;  -11.740;38748.273
607.890;30485.680;   -9.759;38850.230
608.471;29975.313;   -8.250;37457.918
609.051;29162.070;   -9.240;36066.457
609.632;28106.344;  -12.120;35991.074
610.213;28828.246;   -9.110;37402.641
610.794;29573.920;   -8.030;38383.363
611.374;29120.904;   -8.110;40562.387
611.955;29618.764;  -13.560;38533.727
612.536;30922.623;  -11.400;36951.789
613.116;30729.217;   -8.070;37197.891
613.697;31151.811;  -10.830;38411.125
614.277;29560.898;  -11.641;38673.938
614.858;30371.705;  -13.310;37075.863
615.438;29540.516;   -7.460;35092.906
616.019;27024.551;   -7.601;33666.301
616.599;27677.980;  -12.020;34189.023
617.179;29609.113;  -11.780;36952.047
617.760;30624.994;   -8.570;39582.574
618.340;31597.078;  -11.471;38943.977
618.920;32868.094;  -11.170;37594.156
619.500;32568.598;  -11.071;37866.938
620.080;31426.914;   -7.750;37869.043
620.660;32491.496;  -12.711;36868.617
621.241;33906.699;  -10.211;36352.309
621.821;34343.121;  -10.961;35459.520
622.401;33381.172;   -7.720;35207.414
622.980;32663.246;   -8.981;35980.422
623.560;31155.549;   -9.331;37351.328
624.140;29796.307;   -9.850;34388.582
624.720;24814.230;   -7.451;32368.764
625.300;21471.439;   -9.070;32638.629
625.880;24834.275;  -12.601;34599.035
626.459;28669.461;  -11.751;36831.738
627.039;31718.713;   -9.281;38299.098
627.619;31663.730;   -8.801;38289.574
628.198;30220.422;  -12.071;37220.695
628.778;29372.670;   -9.461;37632.563
629.357;29927.496;   -8.491;38003.012
629.937;29919.059;   -9.721;38402.039
630.516;29528.240;   -9.951;37868.801
631.096;29426.711;  -11.731;35760.410
631.675;31685.402;   -8.572;35225.219
632.254;36651.316;  -11.282;35130.289
632.834;36093.531;  -13.322;35794.570
633.413;34330.504;  -10.301;35788.922
633.992;31712.369;   -8.582;34532.863
634.571;32436.826;   -8.352;33590.113
635.151;35558.629;  -11.912;34943.863
635.730;34001.363;  -10.511;35352.523
636.309;30349.441;   -7.731;35366.605
636.888;27771.279;   -9.952;36165.637
637.467;28425.139;  -11.672;37515.902
638.046;30086.986;   -8.901;39288.695
638.625;33241.652;   -7.912;38279.699
639.204;33072.578;  -10.022;37741.598
639.782;31557.795;  -12.252;38364.551
640.361;28031.957;  -10.041;36740.621
640.940;25214.688;  -11.161;34950.082
641.519;25923.930;   -9.701;34137.398
642.097;28750.055;  -11.271;35654.258
642.676;31530.814;   -8.651;35637.957
643.255;32355.811;   -8.711;36567.074
643.833;31584.395;   -9.581;37809.434
644.412;31510.275;  -13.711;37337.293
644.990;30441.432;  -11.811;37018.531
645.569;30249.467;   -9.411;36518.469
646.147;29275.625;  -10.291;36186.430
646.726;29210.275;  -12.401;36267.688
647.304;30554.871;  -10.411;36647.625
647.882;32255.686;   -9.651;39286.742
648.461;33868.605;   -9.631;39157.703
649.039;32310.898;  -11.881;35412.883
649.617;31655.631;   -9.661;34744.918
650.195;31172.166;   -9.301;35403.098
650.773;29760.250;  -10.511;35053.797
651.352;27140.352;  -11.521;33756.816
651.930;24780.424;  -12.211;31868.773
652.508;23488.281;   -9.171;33121.551
653.086;27488.498;   -9.371;33564.793
653.663;30362.557;  -13.161;34054.668
654.241;28992.982;  -13.031;35693.309
654.819;30579.588;   -9.371;36422.906
655.397;30767.000;  -10.511;38213.484
655.975;30309.344;  -10.371;39507.625
656.553;30214.881;  -10.051;39498.223
657.130;28660.104;  -10.061;40395.480
657.708;27669.357;   -9.561;39242.020
658.286;27668.061;  -11.511;38920.020
658.863;29168.984;  -10.261;40202.898
659.441;32356.861;   -7.531;39677.938
660.018;31959.955;   -9.501;40413.355
660.596;30795.898;  -13.301;39931.414
661.173;32614.135;  -11.211;39604.531
661.750;32572.611;   -9.951;39700.070
662.328;31110.377;   -9.390;39292.809
662.905;30313.217;  -11.330;38235.648
663.482;26388.721;   -9.050;36212.305
664.060;24557.295;   -8.240;35944.945
664.637;27298.346;  -10.050;35170.785
665.214;29112.332;  -11.760;34197.523
665.791;30856.436;  -10.530;34549.520
666.368;29714.752;   -9.690;35118.578
666.945;30091.766;   -9.320;36019.418
667.522;31710.086;  -11.860;36048.438
668.099;31406.262;  -10.770;36243.914
668.676;30122.738;   -6.260;35958.875
669.253;28812.125;   -7.000;37384.730
669.830;29514.957;  -10.190;36779.629
670.407;29322.150;   -9.550;35231.289
670.984;28972.234;   -9.260;35544.270
671.560;29521.365;   -9.280;35466.867
672.137;28942.514;  -11.810;34280.863
672.714;29813.508;  -11.490;34632.863
673.290;30437.303;   -7.740;35135.422
673.867;30593.012;  -10.660;36114.480
674.443;30624.205;  -12.230;36152.859
675.020;28851.619;  -10.450;35327.238
675.596;29695.902;   -9.260;35795.176
676.173;30103.242;  -10.780;35430.355
676.749;29930.814;  -13.690;33549.516
677.326;29955.449;  -11.980;32210.012
677.902;29922.896;   -8.630;32068.871
678.478;29286.832;  -10.730;32583.891
679.054;28611.156;  -10.520;32088.928
679.631;28891.168;  -11.920;30978.848
680.207;30541.469;   -7.490;33160.887
680.783;32174.926;   -9.860;35570.363
681.359;31276.307;  -13.380;36125.184
681.935;30707.430;  -12.480;35240.922
682.511;30033.264;   -7.900;34429.961
683.087;30124.541;   -7.710;34463.680
683.663;29566.240;  -11.480;34648.898
684.239;28403.340;  -14.090;34546.457
684.815;28087.727;   -7.560;35586.375
685.390;28340.408;   -9.910;35821.895
685.966;28791.043;  -11.159;35085.871
686.542;31082.336;  -11.169;34198.230
687.118;33381.336;   -5.959;32847.707
687.693;33835.059;  -10.329;32794.027
688.269;33499.426;  -12.059;33072.367
688.844;31663.738;  -10.909;33141.664
689.420;29467.594;   -8.019;33965.742
689.995;27227.973;   -8.399;34655.523
690.571;25859.998;  -10.949;33576.742
691.146;26297.885;   -9.619;32657.219
691.722;25871.053;   -8.999;32526.979
692.297;25493.066;  -11.589;33014.617
692.872;27209.936;  -11.739;34012.254
693.448;26896.363;  -11.059;34237.434
694.023;26104.660;  -10.139;34142.672
694.598;28028.268;   -9.029;34132.031
695.173;28449.863;  -13.319;34205.250
695.748;27679.850;  -10.169;32882.488
696.323;27917.406;   -8.339;32864.906
696.898;28173.889;   -8.169;33170.004
697.473;28092.563;  -12.309;32432.984
698.048;27595.955;  -10.989;31649.303
698.623;27386.941;   -9.329;30778.141
699.198;29210.463;   -9.849;31140.119
699.773;30258.113;  -12.329;31764.299
700.348;28535.266;  -10.389;31780.816
700.922;28585.742;   -9.269;32046.375
701.497;29599.064;   -9.329;32603.574
702.072;29945.164;  -10.789;34799.871
702.646;28555.910;  -10.839;35793.172
703.221;26238.287;   -9.099;35201.590
703.795;28318.117;  -10.939;34764.527
704.370;28833.137;  -12.859;34307.367
704.944;29218.986;  -11.559;33509.887
705.519;29991.898;   -7.939;31388.584
706.093;31399.484;  -10.499;31340.104
706.668;31907.307;  -11.289;32630.281
707.242;30794.879;  -11.509;32728.779
707.816;29133.031;   -9.639;32947.238
708.390;27556.898;  -11.429;33277.855
708.965;27893.934;  -11.869;33834.336
709.539;27712.887;  -11.689;33709.273
710.113;28236.193;  -10.478;33044.313
710.687;28005.213;  -10.228;31953.992
711.261;26432.252;  -13.698;30505.949
711.835;26187.121;  -13.378;30262.369
712.409;26839.070;   -9.698;31254.447
712.983;28846.598;  -11.898;32754.986
713.557;29938.850;  -15.138;34018.824
714.131;29567.207;  -14.098;34579.625
714.704;28541.854;   -9.958;33890.262
715.278;26242.359;  -10.028;33531.102
715.852;25137.182;  -11.148;33601.660
716.425;25943.557;   -9.068;33515.117
716.999;26700.643;  -10.038;33185.555
717.573;27661.613;   -9.798;33905.996
718.146;28733.850;  -12.378;35199.293
718.720;28881.758;  -11.918;35060.551
719.293;28321.207;   -8.088;34973.230
719.867;31161.393;  -10.888;36394.449
720.440;31053.664;  -11.938;36663.008
721.013;29459.379;  -12.818;35102.426
721.587;27944.768;  -10.298;33985.266
722.160;26852.900;  -10.048;33524.965
722.733;25723.334;  -12.108;32987.043
723.306;25894.219;  -10.818;33066.301
723.880;28453.344;   -8.908;33399.500
724.453;30866.500;   -9.878;33468.297
725.026;30012.830;  -11.188;33816.637
725.599;26950.945;  -11.678;32797.996
726.172;26785.275;   -9.618;33187.434
726.745;27623.990;   -8.258;35136.613
727.318;28944.863;  -12.978;35751.730
727.891;29790.385;  -12.148;35890.430
728.463;29743.066;   -8.968;34822.090
729.036;28753.641;  -10.188;32895.086
729.609;29212.061;  -11.788;31823.225
730.182;26203.154;  -11.788;31445.283
730.754;23749.850;  -10.268;32373.223
731.327;23778.217;   -9.998;33676.820
731.900;23945.098;  -12.228;33417.000
732.472;25175.820;  -13.848;31978.498
733.045;27233.459;   -8.698;30368.777
733.617;27349.377;  -10.607;30574.215
734.190;27082.590;  -11.507;31280.975
734.762;24357.285;  -13.647;31674.412
735.334;22474.428;   -9.767;31247.291
735.907;23036.680;   -9.897;29876.211
736.479;23286.582;  -11.637;29808.488
737.051;23017.074;   -9.567;30233.547
737.623;23951.057;   -8.187;31469.086
738.195;24555.314;  -11.187;31784.225
738.768;26343.471;  -12.337;32120.523
739.340;26817.574;  -12.227;32094.342
739.912;25778.639;  -11.057;31312.680
740.484;24260.174;  -10.207;31946.238
741.056;22985.520;  -10.047;32984.059
741.628;24716.486;  -13.627;33897.715
742.199;26952.238;   -7.177;33213.016
742.771;25214.883;  -10.797;31369.113
743.343;22814.230;  -11.997;31865.473
743.915;21793.404;  -12.867;32388.631
744.487;21898.203;   -7.617;31079.568
745.058;22203.135;   -9.557;30570.107
745.630;22654.910;   -9.877;29970.127
746.201;23565.412;  -14.177;29186.766
746.773;24176.463;   -9.237;28805.723
747.344;23954.912;   -9.847;29591.223
747.916;22380.176;  -11.657;31412.201
748.487;22442.582;  -10.587;32194.898
749.059;23485.984;   -8.707;32533.719
749.630;23998.123;  -10.537;32158.518
750.201;22980.602;  -11.687;30855.395
750.773;21339.477;  -11.647;28622.555
751.344;21377.273;   -7.147;28405.732
751.915;22762.031;   -9.757;28461.551
752.486;22918.449;  -12.427;27842.850
753.057;20586.641;  -12.227;27845.008
753.628;19235.574;  -10.417;27728.107
754.199;20298.748;  -11.767;27381.086
754.770;21355.148;  -11.187;25882.203
755.341;21334.357;  -10.507;25886.184
755.912;21475.693;   -9.387;26050.861
756.483;21078.906;  -10.647;26798.779
757.054;19369.506;  -11.837;27048.238
757.625;18075.664;  -12.716;26294.838
758.195;17707.240;   -9.666;26142.076
758.766;17350.084;   -8.656;26392.234
759.337;18110.398;  -12.856;26334.594
759.907;19754.961;  -13.366;27579.652
760.478;20735.301;   -8.576;28352.770
761.048;20251.297;  -10.526;27325.088
761.619;19413.406;  -11.116;26460.428
762.189;19392.570;  -12.136;26029.826
762.760;20351.887;   -9.456;26430.145
763.330;21504.029;   -7.136;26670.902
763.900;21064.385;  -11.786;26603.021
764.471;18549.646;  -11.546;25542.740
765.041;17310.865;   -8.096;24358.459
765.611;17369.260;   -8.876;23991.297
766.181;17689.105;  -12.196;24470.236
766.751;18577.588;  -11.636;24845.975
767.321;18404.238;  -10.156;24533.633
767.891;16584.900;  -11.766;24916.492
768.461;16041.926;  -14.936;24776.771
769.031;16512.814;  -12.356;24757.988
769.601;18097.906;   -7.526;24181.088
770.171;18003.904;  -10.766;23670.387
770.741;17161.607;  -13.176;22960.045
771.311;17227.930;  -10.616;22917.523
771.880;17624.549;   -9.576;23562.941
772.450;17305.326;  -10.336;24216.500
773.020;17224.580;  -13.516;24140.398
773.589;16488.822;  -13.466;24414.857
774.159;15763.414;   -8.686;23858.717
774.729;15397.191;   -9.476;22942.135
775.298;15019.371;  -13.666;22324.033
775.867;14684.345;  -11.716;21140.313
776.437;14812.250;   -9.906;20838.092
777.006;14652.876;  -12.166;20599.510
777.576;14519.493;  -12.356;20508.809
778.145;14581.225;  -11.646;20732.947
778.714;14484.042;   -8.226;21062.465
779.283;13758.637;   -9.556;20949.664
779.853;13188.990;  -14.116;20508.623
780.422;13667.213;  -11.506;20649.082
780.991;13240.325;   -9.556;21527.520
781.560;12038.715;   -9.095;22632.658
782.129;11861.128;  -12.135;23048.277
782.698;11929.606;  -10.865;23438.555
783.267;11545.330;   -9.335;23267.734
783.836;11476.978;  -11.045;22415.133
784.404;12509.402;  -13.865;20443.152
784.973;13150.213;  -13.095;19699.150
785.542;13043.970;  -11.575;19763.828
786.111;12804.315;   -9.705;20341.408
786.679;12315.704;  -12.105;20207.967
787.248;12093.521;  -12.455;19516.465
787.817;11955.812;  -11.535;18900.363
788.385;11576.193;   -9.765;17879.121
788.954;10982.044;  -14.005;17658.301
789.522;10439.169;  -11.955;17788.879
790.090;10986.396;  -10.135;18118.277
790.659;11428.218;  -10.975;18338.736
791.227;10942.253;  -13.375;18508.615
791.795;11371.576;  -12.375;17898.254
792.364;11796.311;  -10.725;17295.133
792.932;12160.075;   -9.715;16822.051
793.500;12295.045;  -12.675;17040.148
794.068;12431.167;  -13.495;17179.787
794.636;12555.046;  -10.885;16664.246
795.204;11908.516;  -11.045;16524.545
795.772;11955.951;  -13.175;17274.564
796.340;11526.439;  -12.445;17891.002
796.908;11332.847;   -9.735;17648.561
797.476;11234.254;   -9.815;17064.080
798.044;10797.664;  -13.985;16672.777
798.612; 9983.015;  -13.115;17023.996
799.180; 9601.185;  -10.185;16561.615
799.747; 9542.806;   -9.055;15962.773
800.315; 9265.346;  -12.385;15296.992
800.883; 8949.908;  -15.035;14801.771
801.450; 8990.558;  -10.365;14534.430
802.018; 9065.953;   -9.855;14173.248
802.585; 9196.907;  -11.905;14029.547
803.153; 9217.129;  -11.585;13836.846
803.720; 9021.770;   -9.095;13567.324
804.287; 8587.813;   -9.135;13360.622
804.855; 8168.867;  -11.604;13681.981
805.422; 8030.223;  -11.794;13536.560
805.989; 8059.059;  -10.734;13355.958
806.556; 8201.757;  -10.444;13747.896
807.124; 8408.881;  -12.764;13987.376
807.691; 8375.313;  -12.964;14038.674
808.258; 8208.681;  -11.134;14120.152
808.825; 7947.298;   -9.854;13860.111
809.392; 8023.894;  -10.504;13268.790
809.959; 7506.039;  -13.054;12680.389
810.526; 7044.230;   -8.294;12427.308
811.093; 7091.004;   -8.394;12030.105
811.659; 7754.175;  -12.304;11653.664
812.226; 8306.520;  -13.944;11637.183
812.793; 8028.037;  -10.484;11611.521
813.360; 7405.248;  -10.144;11885.181
813.926; 7088.641;  -11.684;12770.539
814.493; 6871.555;  -13.644;12677.638
815.060; 6471.636;   -9.724;11974.336
815.626; 6463.167;   -9.854;11594.715
816.193; 6873.392;  -13.254;11579.474
816.759; 6902.916;  -13.204;11666.972
817.325; 6949.017;   -9.434;11325.530
817.892; 7305.564;  -10.134;11105.369
818.458; 7742.486;  -13.474;10843.928
819.024; 7396.055;  -11.854;10714.406
819.591; 7080.242;  -10.244;10469.165
820.157; 6853.902;  -10.704;10235.523
820.723; 6327.988;  -12.324;10847.563
821.289; 6003.549;   -9.444;11040.980
821.855; 5930.431;   -8.374;10357.100
822.421; 5954.494;  -10.234; 9978.918
822.987; 6001.054;  -13.294; 9754.177
823.553; 5675.497;  -10.884;10065.755
824.119; 5477.610;   -8.884;10036.294
824.685; 5578.679;   -6.784;10029.192
825.251; 5692.221;  -12.004;10199.230
825.816; 5655.467;  -11.474; 9820.189
826.382; 5399.577;   -9.174; 9297.248
826.948; 5582.220;   -9.214; 9381.347
827.513; 5995.431;  -10.774; 9450.726
828.079; 5839.298;  -11.924; 9472.444
828.645; 5229.106;  -10.543; 9292.643
829.210; 5111.108;  -10.533; 9065.341
829.776; 5111.369;  -10.753; 9132.620
830.341; 5007.149;  -10.173; 9092.878
830.906; 5203.956;  -10.743; 9078.557
831.472; 5568.797;  -11.113; 8534.535
832.037; 5326.667;  -10.603; 8677.874
832.602; 4765.030;  -13.323; 8628.692
833.167; 4495.012;  -10.823; 8879.031
833.733; 4430.389;  -10.113; 9189.790
834.298; 4579.684;  -13.583; 9052.608
834.863; 4664.691;  -12.703; 8895.087
835.428; 4630.156;  -10.523; 8824.266
835.993; 4465.792;   -6.963; 8845.385
836.558; 4281.564;  -10.763; 8888.563
837.123; 4401.742;   -9.903; 8966.582
837.688; 4643.258;   -9.913; 8617.860
838.253; 4912.147;  -10.283; 8590.699
838.817; 5134.438;  -12.963; 8443.797
839.382; 5045.953;  -14.243; 8799.356
839.947; 4716.420;  -10.733; 8810.595
840.511; 4418.687;   -9.383; 8796.394
841.076; 4024.016;  -12.563; 8347.231
841.641; 4060.356;  -12.953; 8224.330
842.205; 4161.959;   -7.043; 8223.349
842.770; 4263.140;   -8.163; 8622.107
843.334; 4415.966;  -12.503; 8410.386
843.898; 4340.376;  -11.693; 8337.465
844.463; 4345.854;  -10.203; 8506.283
845.027; 4114.701;   -9.533; 8280.962
845.591; 3927.489;  -13.443; 8231.141
846.156; 3928.010;  -13.143; 7969.179
846.720; 3821.283;   -9.433; 7768.278
847.284; 3698.672;  -11.033; 7630.957
847.848; 3567.236;  -10.403; 7472.395
848.412; 3479.280;  -11.553; 7437.394
848.976; 3529.202;   -8.393; 7674.592
849.540; 3450.317;   -8.713; 7836.011
850.104; 3555.438;  -12.463; 7913.669
850.668; 3921.869;  -12.973; 7694.508
851.232; 4027.327;  -10.793; 7756.887
851.796; 3861.201;  -10.662; 7926.545
852.359; 3563.486;  -13.082; 7827.844
852.923; 3382.267;  -12.192; 7641.163
853.487; 3191.226;  -11.912; 7342.501
854.050; 3149.220;  -10.892; 7042.820
854.614; 3298.979;  -13.992; 7151.338
855.177; 3432.364;  -11.732; 7105.077
855.741; 3461.561;   -8.962; 6989.675
856.304; 3330.604;   -9.442; 6596.634
856.868; 3275.800;  -14.192; 6356.272
857.431; 3361.166;  -12.702; 6468.571
857.995; 3465.478;   -9.942; 6373.210
858.558; 3465.766;   -9.112; 6324.448
859.121; 3192.301;  -12.932; 6408.327
859.684; 3066.897;  -13.442; 6347.886
860.247; 3187.308;  -10.632; 6321.264
860.810; 3200.390;  -11.272; 6301.903
861.374; 2950.600;   -9.832; 6607.881
861.937; 2683.924;  -11.762; 6408.200
862.500; 2675.194;   -9.722; 6572.639
863.062; 2854.672;  -10.512; 6387.297
863.625; 3036.818;  -11.232; 6190.836
864.188; 3195.532;  -14.112; 5807.254
864.751; 3259.396;  -11.302; 5682.413
865.314; 3149.354;  -10.112; 5547.492
865.876; 2926.529;  -12.182; 5500.150
866.439; 2902.108;  -10.722; 5415.909
867.002; 2852.549;   -9.252; 5501.567
867.564; 2656.612;   -9.572; 5413.946
868.127; 2438.826;  -13.142; 5160.325
868.689; 2339.321;  -12.902; 5133.183
869.252; 2249.438;   -9.732; 5252.382
869.814; 2153.974;   -9.432; 5297.141
870.377; 2156.532;  -11.552; 5390.919
870.939; 2218.350;   -9.052; 5599.898
871.501; 2287.764;  -10.982; 5248.336
872.063; 2299.047;  -12.292; 4854.235
872.626; 2261.209;  -14.912; 4817.074
873.188; 2293.185;  -13.112; 4987.732
873.750; 2258.324;  -13.442; 4868.651
874.312; 2148.690;   -9.402; 4779.330
874.874; 2060.255;  -11.062; 4866.348
875.436; 1974.833;  -13.931; 4718.887
875.998; 1961.850;   -9.561; 4660.005
876.560; 1991.277;  -11.321; 4462.964
877.122; 1940.529;  -12.221; 4145.042
877.683; 1855.792;  -12.191; 4056.481
878.245; 1792.253;  -12.101; 3950.740
878.807; 1838.547;   -8.971; 4058.958
879.369; 1864.927;  -12.071; 3954.677
879.930; 1754.567;  -14.621; 3941.495
880.492; 1682.388;  -10.311; 4067.014
881.053; 1676.549;  -10.901; 3859.633
881.615; 1638.994;  -14.411; 3776.071
882.176; 1617.997;  -13.761; 3734.750
882.738; 1598.695;   -9.181; 3678.489
883.299; 1477.929;  -11.791; 3405.407
883.860; 1258.568;  -13.121; 3351.106
884.422;  996.800;  -11.211; 3394.044
884.983;  790.193;  -10.091; 3166.443
885.544;  705.295;   -8.461; 3189.802
886.105;  698.546;  -12.361; 3160.360
886.666;  708.753;  -14.141; 3093.059
887.227;  723.287;  -11.361; 2941.957
887.788;  720.878;  -11.401; 2974.836
888.349;  707.478;  -13.791; 2721.214
888.910;  730.179;  -13.191; 2696.493
889.471;  753.353;   -9.881; 2560.172
890.032;  751.388;   -9.881; 2558.190
890.593;  740.505;  -10.371; 2567.669
891.153;  723.902;  -13.301; 2460.307
891.714;  686.218;  -11.431; 2372.046
892.275;  656.336;  -11.291; 2309.505
892.835;  628.446;  -11.471; 2382.543
893.396;  586.172;  -11.541; 2295.502
893.956;  535.942;  -11.181; 2162.420
894.517;  501.959;  -11.741; 2125.439
895.077;  496.193;  -11.671; 2086.978
895.638;  497.978;  -11.311; 2126.316
896.198;  472.011;   -9.831; 1838.275
896.758;  431.424;   -8.421; 1892.813
897.319;  403.750;  -12.351; 1792.232
897.879;  389.959;  -13.511; 1762.751
898.439;  364.475;  -12.001; 1661.149
898.999;  343.540;  -10.180; 1781.468
899.559;  336.086;  -12.030; 1703.347
900.119;  331.241;  -15.710; 1537.525
900.679;  327.381;   -8.900; 1638.384
901.239;  314.111;   -8.340; 1527.902
901.799;  304.119;  -13.910; 1456.441
902.359;  298.481;  -13.460; 1357.140
902.919;  292.834;  -11.490; 1331.118
903.479;  280.206;  -12.110; 1317.257
904.038;  259.840;  -11.720; 1262.595
904.598;  244.288;  -13.610; 1152.034
905.158;  241.216;  -11.040; 1240.893
905.717;  235.054;  -10.900; 1233.691
906.277;  224.617;  -15.080; 1217.330
906.836;  215.333;  -13.380; 1222.408
907.396;  207.102;  -10.780; 1193.047
907.955;  198.927;   -8.500; 1182.526
908.515;  193.162;  -12.760; 1099.364
909.074;  184.900;  -11.900; 1092.863
909.633;  178.045;   -8.950; 1069.121
910.192;  171.678;   -8.770; 1196.460
910.752;  165.959;  -12.390; 1029.960
911.311;  162.734;  -13.680; 1009.780
911.870;  161.037;  -12.370;  971.460
912.429;  163.412;  -10.900; 1094.080
912.988;  161.927;  -11.690; 1081.060
913.547;  158.607;  -13.240;  940.380
914.106;  153.812;  -11.990;  999.420
914.665;  150.968;   -9.990;  984.020
915.224;  150.473;  -12.880; 1035.760
915.782;  150.909;  -12.350;  922.560
916.341;  150.583;   -9.110; 1049.840
916.900;  146.166;   -9.270;  925.260
917.458;  144.758;  -13.240;  884.220
918.017;  144.699;  -13.550;  942.600
918.576;  143.728;  -12.320;  904.440
919.134;  142.294;  -11.490;  837.980
919.693;  140.270;  -13.670;  893.060
920.251;  138.750;  -15.470;  876.500
920.809;  137.223;  -11.290;  839.580
921.368;  137.256;  -10.210;  885.360
921.926;  136.058;  -12.140;  842.940
922.484;  135.234;  -13.080;  903.360
923.042;  134.198;  -11.720;  880.340
923.601;  137.711;   -7.480;  998.680
924.159;  135.348;  -11.570;  935.560
924.717;  133.180;  -13.840;  841.080
925.275;  132.596;  -10.640;  903.240
925.833;  132.361;  -11.540;  779.320
926.391;  133.709;  -12.960;  938.380
926.949;  132.512;  -14.130;  857.680
927.506;  131.683;  -11.750;  903.500
928.064;  132.230;  -10.250;  877.580
928.622;  131.496;  -13.030;  880.100
929.180;  131.280;  -13.400;  814.180
929.737;  132.144;  -10.700;  808.540
930.295;  135.593;  -10.070;  928.480
930.853;  136.693;  -11.960;  849.100
931.410;  137.871;  -13.120;  821.120
931.968;  137.160;  -10.770;  940.660
932.525;  136.673;  -10.680;  909.380
933.082;  137.846;  -13.130;  811.440
933.640;  138.045;  -13.210;  925.900
934.197;  136.031;  -11.060;  886.360
934.754;  136.974;   -9.580;  897.780
935.312;  140.351;  -14.000;  863.340
935.869;  143.874;  -10.710; 1012.980
936.426;  144.391;   -9.860;  872.800
936.983;  145.787;   -9.710;  889.020
937.540;  144.760;  -13.990;  838.280
938.097;  144.162;  -14.040;  940.120
938.654;  143.768;  -10.310;  898.860
939.211;  147.641;  -10.560;  952.480
939.768;  150.545;  -13.900;  915.420
940.324;  153.548;  -14.760;  904.200
940.881;  153.973;  -10.370;  878.500
941.438;  155.008;   -8.260; 1021.200
941.995;  151.351;  -12.540;  992.560
942.551;  149.530;  -14.670;  875.620
943.108;  149.858;  -10.450;  937.920
943.664;  151.068;  -10.750;  869.340
944.221;  155.284;  -11.550; 1088.140
944.777;  152.087;  -14.770;  869.680
945.334;  152.146;  -12.820;  884.840
945.890;  153.928;  -10.130;  946.480
946.446;  154.881;  -13.470;  947.020
947.003;  157.091;  -12.120;  964.940
947.559;  158.325;   -9.980; 1063.040
948.115;  157.808;   -9.080; 1026.540
948.671;  156.264;  -10.830;  967.300
949.227;  153.433;  -12.440;  859.560
949.783;  151.059;  -12.910;  858.900
950.339;  152.574;  -10.270;  991.000
950.895;  152.840;  -13.630; 1023.840
951.451;  152.394;  -15.100;  925.280
952.007;  151.714;  -11.330;  998.540
952.563;  153.451;  -10.580;  937.780
953.118;  152.203;  -13.440;  904.940
953.674;  151.808;  -12.710;  935.780
954.230;  151.450;  -10.350;  949.640
954.785;  148.736;   -9.190;  936.640
955.341;  145.885;  -11.200;  998.160
955.897;  144.782;  -16.560;  834.660
956.452;  146.311;  -12.570;  953.840
957.008;  145.832;   -7.970; 1083.640
957.563;  143.031;  -11.940; 1009.540
958.118;  136.523;  -13.450;  877.700
958.674;  137.429;  -12.030;  946.780
959.229;  138.266;   -9.410; 1013.980
959.784;  136.356;  -12.000;  832.400
960.339;  136.022;  -14.780; 1001.280
960.894;  132.792;   -9.860;  963.760
961.449;  128.921;   -9.970;  859.960
962.004;  129.274;  -10.900; 1212.840
962.559;  123.337;  -13.150;  860.140
963.114;  121.466;  -13.740;  742.480
963.669;  121.058;   -9.820;  915.500
964.224;  119.859;  -13.890;  874.340
964.779;  118.710;  -12.600;  828.420
965.334;  119.888;  -10.950; 1017.860
965.888;  119.005;  -11.170;  875.360
966.443;  122.234;  -12.540;  972.380
966.998;  120.892;  -15.780;  819.460
967.552;  120.260;   -9.760;  908.380
968.107;  116.533;   -9.060;  868.300
968.661;  117.322;  -11.950;  922.440
969.216;  118.034;  -12.800;  856.280
969.770;  117.910;  -11.210;  917.200
970.324;  117.387;  -11.610;  923.140
970.879;  113.782;  -11.370;  947.180
971.433;  111.024;  -12.540;  952.720
971.987;  106.120;  -11.320;  895.340
972.541;  103.592;  -10.720;  917.100
973.095;  103.503;   -9.680; 1009.460
973.649;  101.948;  -11.440;  809.480
974.203;  100.455;  -11.210;  829.040
974.757;  100.658;  -10.240;  855.220
975.311;  100.638;  -13.720;  872.600
975.865;  100.127;  -13.770;  881.820
976.419;   98.153;  -11.690;  857.400
976.973;   98.375;   -9.510;  849.620
977.526;   99.591;  -12.620;  949.920
978.080;   98.805;  -12.010;  796.780
978.634;  100.125;  -10.170;  921.320
979.187;   97.587;   -9.020;  905.400
979.741;   94.796;   -9.820; 1018.380
980.294;   90.090;  -14.870;  789.160
980.848;   87.737;  -12.380;  717.220
981.401;   89.857;  -10.350;  816.540
981.955;   93.158;  -13.720;  844.300
982.508;   91.766;  -11.490;  746.340
983.061;   91.855;  -10.000;  915.260
983.615;   87.655;  -11.480;  798.800
984.168;   85.188;  -13.220;  770.080
984.721;   83.655;  -13.960;  880.760
985.274;   83.440;  -10.870;  867.500
985.827;   81.901;   -9.790;  834.220
986.380;   79.698;  -13.120;  721.340
986.933;   79.358;  -12.450;  864.800
987.486;   77.531;  -10.210;  861.920
988.039;   76.465;   -8.430;  863.100
988.591;   74.522;  -10.520;  893.260
989.144;   72.132;  -14.860;  737.260
989.697;   70.901;  -13.080;  758.740
990.250;   71.185;  -10.150;  858.100
990.802;   70.771;  -13.430;  755.860
991.355;   71.743;  -12.750;  974.880
991.907;   69.582;  -12.040;  864.320
992.460;   67.422;  -11.330;  753.760
993.012;   66.957;  -13.610;  749.540
993.565;   66.034;  -13.460;  711.360
994.117;   67.281;   -9.360;  950.780
994.669;   62.702;  -11.300;  701.320
995.221;   61.513;  -13.540;  791.920
995.774;   59.928;  -13.430;  787.580
996.326;   57.663;  -12.520;  740.220
996.878;   58.055;  -10.950;  838.420
997.430;   56.046;  -14.300;  699.860
997.982;   55.662;  -13.760;  750.140
998.534;   54.472;  -11.530;  739.060
999.086;   53.213;  -10.310;  738.220
999.638;   51.933;  -12.530;  661.380
1000.190;   51.180;  -11.840;  699.320
1000.741;   51.309;  -10.260;  742.700
1001.293;   51.232;   -8.860;  686.020
1001.845;   49.213;  -13.700;  676.640
1002.396;   49.934;  -12.100;  743.400
1002.948;   49.150;  -12.760;  737.400
1003.500;   47.651;  -10.380;  723.780
1004.051;   48.508;  -11.900;  907.580
1004.603;   46.150;  -12.250;  791.820
1005.154;   43.085;  -13.210;  608.980
1005.705;   42.295;  -10.950;  723.960
1006.257;   42.164;  -13.880;  707.220
1006.808;   41.002;  -12.840;  685.460
1007.359;   41.288;  -10.570;  763.240
1007.910;   39.522;   -9.620;  646.640
1008.461;   39.270;  -13.630;  732.940
1009.013;   38.409;  -17.200;  588.340
1009.564;   39.103;  -10.200;  793.520
1010.115;   37.050;  -12.570;  597.040
1010.665;   36.516;  -15.150;  602.160
1011.216;   37.170;  -14.480;  667.920
1011.767;   36.482;  -11.340;  697.920
1012.318;   36.113;   -9.780;  736.980
1012.869;   35.855;  -12.380;  679.000
1013.419;   35.152;  -15.560;  603.120
1013.970;   35.688;  -11.010;  666.640
1014.521;   34.638;  -11.610;  620.620
1015.071;   35.211;  -13.450;  670.380
1015.622;   34.901;  -13.870;  635.460
1016.172;   33.461;  -11.610;  596.820
1016.723;   32.669;  -12.120;  614.380
1017.273;   33.077;  -13.620;  604.160
1017.823;   33.434;  -14.140;  650.340
1018.374;   32.965;  -12.800;  611.760
1018.924;   32.300;  -12.340;  716.880
1019.474;   33.188;  -11.410;  718.880
1020.024;   31.809;  -14.770;  657.580
1020.574;   32.753;   -9.780;  726.160
1021.124;   32.238;   -8.560;  673.580
1021.674;   31.268;  -15.190;  559.120
1022.224;   32.465;  -13.530;  708.940
1022.774;   32.024;  -13.280;  668.820
1023.324;   32.516;  -10.690;  753.520
1023.874;   32.789;  -10.240;  875.760
1024.423;   30.502;  -12.540;  613.700
1024.973;   30.408;  -10.010;  610.760
1025.523;   29.669;  -10.550;  620.960
1026.072;   29.494;  -13.560;  606.420
1026.622;   29.690;  -15.120;  675.740
1027.172;   30.158;  -11.260;  715.660
1027.721;   28.842;  -11.410;  601.220
1028.270;   29.258;  -13.530;  663.400
1028.820;   28.819;  -13.680;  638.080
1029.369;   27.919;  -13.520;  612.700
1029.918;   28.500;  -10.980;  649.840
1030.468;   28.359;  -13.530;  564.780
1031.017;   28.502;  -13.170;  634.800
1031.566;   27.011;  -12.200;  608.900
1032.115;   28.269;   -9.960;  694.500
1032.664;   27.018;  -13.210;  596.480
1033.213;   28.127;  -12.500;  735.420
1033.762;   26.862;  -11.910;  635.620
1034.311;   26.285;   -9.640;  677.220
1034.860;   27.467;  -13.310;  691.000
1035.408;   27.801;  -11.830;  722.720
1035.957;   27.429;  -12.000;  719.540
1036.506;   25.007;  -11.690;  530.800
1037.055;   27.677;  -10.990;  844.320
1037.603;   26.421;  -15.120;  664.000
1038.152;   24.279;  -12.450;  534.760
1038.700;   25.001;  -10.560;  585.740
1039.249;   24.916;  -11.080;  681.220
1039.797;   25.485;  -12.540;  633.360
1040.345;   25.259;  -11.920;  705.420
1040.894;   23.844;  -11.410;  625.300
1041.442;   24.612;  -14.320;  632.200
1041.990;   23.501;  -16.240;  559.160
1042.538;   23.213;  -11.680;  536.180
1043.087;   23.194;  -10.760;  570.860
1043.635;   25.080;  -11.850;  670.500
1044.183;   23.481;  -15.480;  586.400
1044.731;   23.107;  -11.770;  576.000
1045.279;   23.317;  -13.090;  674.920
1045.827;   25.150;  -12.440;  892.400
1046.374;   22.494;  -13.840;  515.420
1046.922;   21.643;  -13.220;  590.580
1047.470;   23.418;  -10.230;  691.300
1048.018;   23.347;  -14.590;  647.960
1048.565;   23.849;  -12.050;  708.600
1049.113;   21.885;  -11.650;  557.000
1049.660;   21.669;  -10.510;  629.660
1050.208;   22.085;  -13.310;  675.640
1050.755;   21.355;  -15.900;  606.580
1051.303;   21.984;  -11.430;  686.820
1051.850;   20.741;   -8.480;  635.120
1052.397;   20.393;  -15.010;  473.960
1052.945;   20.277;  -13.960;  617.760
1053.492;   21.920;  -13.150;  741.840
1054.039;   22.075;   -9.630;  720.180
1054.586;   20.650;  -13.680;  557.240
1055.133;   21.793;  -14.570;  693.140
1055.680;   20.790;  -13.820;  646.620
1056.227;   20.293;  -11.730;  542.780
1056.774;   21.278;  -12.480;  794.980
1057.321;   19.170;  -13.930;  523.260
1057.868;   19.718;  -11.690;  651.320
1058.415;   19.408;   -9.520;  651.980
1058.961;   19.755;  -13.160;  678.940
1059.508;   18.913;  -12.920;  643.820
1060.055;   19.444;  -11.920;  581.780
1060.601;   19.883;  -11.500;  624.300
1061.148;   18.936;  -14.330;  616.820
1061.694;   18.127;  -16.870;  592.580
1062.241;   18.229;  -10.330;  596.320
1062.787;   19.117;  -10.620;  663.140
1063.334;   20.210;  -10.110;  808.560
1063.880;   18.779;  -13.400;  668.360
1064.426;   19.187;  -10.680;  706.820
1064.972;   17.120;   -9.920;  601.340
1065.518;   17.034;  -10.980;  566.640
1066.065;   18.605;  -14.890;  624.460
1066.611;   16.920;  -12.870;  598.800
1067.157;   17.880;  -12.950;  641.860
1067.703;   17.922;  -13.540;  668.480
1068.249;   17.946;  -13.540;  605.220
1068.794;   16.758;  -12.600;  626.880
1069.340;   15.899;  -10.620;  578.960
1069.886;   16.698;  -12.830;  590.700
1070.432;   15.447;  -14.870;  541.720
1070.977;   16.166;  -11.980;  601.080
1071.523;   16.282;   -8.200;  573.060
1072.068;   16.291;  -12.330;  582.000
1072.614;   16.587;  -16.370;  527.760
1073.160;   16.452;  -11.100;  687.040
1073.705;   14.904;  -10.480;  572.520
1074.250;   15.053;  -14.520;  559.900
1074.796;   16.328;  -11.460;  655.160
1075.341;   17.002;  -11.950;  664.100
1075.886;   15.591;  -11.460;  594.240
1076.431;   15.051;  -13.770;  649.880
1076.976;   15.051;  -12.680;  639.220
1077.521;   14.582;  -13.170;  583.080
1078.067;   14.223;  -10.860;  579.400
1078.612;   15.073;  -13.920;  661.620
1079.156;   14.753;  -13.880;  601.540
1079.701;   15.142;  -13.120;  693.260
1080.246;   15.381;   -9.940;  696.300
1080.791;   14.921;  -14.740;  625.020
1081.336;   14.560;  -13.750;  659.320
1081.880;   14.397;  -13.400;  649.680
1082.425;   13.386;  -12.220;  573.480
1082.970;   14.996;  -11.610;  717.040
1083.514;   13.731;  -13.580;  597.000
1084.059;   13.083;  -12.810;  586.720
1084.603;   12.632;  -12.320;  565.840
1085.147;   13.017;  -13.190;  645.220
1085.692;   14.666;  -12.480;  716.800
1086.236;   12.671;  -13.020;  503.140
1086.780;   14.187;   -9.190;  751.440
1087.325;   13.667;  -12.480;  654.620
1087.869;   13.497;  -12.450;  610.700
1088.413;   13.610;  -12.240;  705.040
1088.957;   11.768;   -9.020;  543.400
1089.501;   13.814;  -10.320;  766.640
1090.045;   12.753;  -12.720;  726.480
1090.589;   10.931;  -13.690;  569.920
1091.133;   12.784;  -10.020;  673.340
1091.676;   13.164;  -12.330;  591.940
1092.220;   11.499;  -14.970;  600.920
1092.764;   12.911;  -12.430;  706.960
1093.307;   12.183;   -9.800;  673.780
1093.851;   10.925;  -14.970;  556.540
1094.395;   12.306;  -15.310;  683.140
1094.938;   10.683;  -10.370;  632.520
1095.482;   10.803;  -11.050;  559.800
1096.025;   11.624;  -11.840;  710.880
1096.568;   12.409;  -12.840;  779.280
1097.112;    9.743;  -14.700;  508.180
1097.655;   11.040;   -8.720;  603.000
1098.198;   10.398;  -13.610;  600.180
1098.741;   10.429;  -13.350;  612.860
1099.285;   11.134;  -11.230;  657.300
1099.828;    8.557;  -11.840;  439.400
1100.371;   10.514;  -10.840;  608.160
1100.914;   10.358;  -14.190;  682.660
1101.457;   10.286;  -11.240;  679.900
1101.999;    9.034;  -11.270;  584.680
1102.542;   10.268;  -11.480;  641.440
1103.085;    9.291;  -11.750;  658.500
1103.628;   10.460;  -11.400;  762.060
1104.170;    9.363;  -10.490;  588.280
1104.713;    9.194;  -10.600;  646.700
1105.256;    8.702;  -14.360;  557.440
1105.798;    8.279;  -13.210;  499.980
1106.341;    9.988;  -10.270;  728.900
1106.883;    8.793;  -12.200;  521.340
1107.425;    8.735;  -13.110;  668.180
1107.968;    8.251;  -12.840;  612.380
1108.510;    8.911;   -6.480;  684.960
1109.052;    7.731;  -13.940;  612.620
1109.594;    7.819;  -13.690;  554.440
1110.136;    8.630;  -11.880;  643.220
1110.679;    7.499;   -9.500;  633.080
1111.221;    8.637;  -14.160;  604.460
1111.763;    8.056;  -13.980;  559.220
1112.304;    7.510;  -13.880;  547.140
1112.846;    8.399;  -12.210;  666.240
1113.388;   10.054;  -11.390;  942.180
1113.930;    7.737;  -14.540;  694.200
1114.472;    7.211;  -12.640;  606.540
1115.013;    5.994;  -11.620;  551.280
1115.555;    5.915;  -13.640;  587.100
1116.097;    6.268;  -15.380;  579.480
1116.638;    6.964;  -12.640;  684.600
1117.180;    7.419;   -9.850;  667.740
1117.721;    7.155;  -13.690;  568.580
1118.262;    7.659;  -12.680;  677.960
1118.804;    6.662;  -12.530;  637.340
1119.345;    5.861;  -11.690;  578.400
1119.886;    7.034;  -13.380;  704.040
1120.427;    6.063;  -14.070;  589.020
1120.969;    5.737;  -13.500;  597.920
1121.510;    5.843;  -11.480;  563.060
1122.051;    6.014;  -12.830;  723.580
1122.592;    6.011;  -14.290;  655.420
1123.133;    4.391;  -12.400;  547.940
1123.673;    5.949;  -10.130;  706.480
1124.214;    5.486;  -12.930;  612.460
1124.755;    6.475;  -14.380;  639.460
1125.296;    6.663;  -14.000;  627.320
1125.836;    5.886;  -10.070;  691.500
1126.377;    4.883;  -12.640;  599.660
1126.918;    5.505;  -12.960;  614.980
1127.458;    4.683;  -13.350;  622.220
1127.999;    5.246;  -10.750;  656.980
1128.539;    6.055;  -12.350;  694.240
1129.079;    5.489;  -14.860;  632.720
1129.620;    4.174;  -13.840;  558.100
1130.160;    3.570;  -12.330;  539.480
1130.700;    4.876;  -14.530;  640.840
1131.240;    5.805;  -12.530;  643.700
1131.781;    4.318;  -14.450;  619.680
1132.321;    4.418;   -9.790;  599.120
1132.861;    3.343;  -14.860;  564.200
1133.401;    4.082;  -14.290;  593.940
1133.941;    3.904;  -11.750;  626.280
1134.481;    3.237;   -9.920;  597.580
1135.020;    3.983;  -12.290;  609.160
1135.560;    4.250;  -11.650;  674.940
1136.100;    2.854;  -16.270;  501.160
1136.640;    2.915;  -10.890;  510.480
1137.179;    3.159;  -14.180;  537.960
1137.719;    3.689;  -16.250;  605.400
1138.258;    3.547;  -14.230;  587.360
1138.798;    3.519;   -9.090;  663.780
1139.337;    2.354;  -15.130;  482.840
1139.877;    3.226;  -13.680;  642.360
1140.416;    4.837;  -11.320;  878.060
1140.955;    2.793;  -10.860;  535.380
1141.494;    2.803;  -12.920;  669.280
1142.034;    2.284;  -13.930;  583.520
1142.573;    3.064;  -11.440;  646.280
1143.112;    2.500;  -12.000;  553.480
1143.651;    2.291;  -13.670;  536.480
1144.190;    2.677;  -12.730;  691.640
1144.729;    2.567;  -14.560;  607.420
1145.267;    2.379;  -11.830;  584.900
1145.806;    2.845;  -12.230;  637.040
1146.345;    2.301;  -14.130;  635.020
1146.884;    1.794;  -11.590;  622.500
1147.422;    1.361;  -12.550;  533.060
1147.961;    3.696;  -11.180;  708.460
1148.500;    2.461;  -11.510;  669.720
1149.038;    2.464;  -11.640;  632.500
1149.577;    2.546;  -10.130;  698.640
1150.115;    0.189;  -13.970;  452.280
1150.653;    1.919;  -14.520;  607.340
1151.192;    1.564;  -12.810;  552.920
1151.730;    1.604;   -9.100;  652.560
1152.268;    0.845;  -12.220;  589.520
1152.806;    0.818;  -14.140;  571.180
1153.344;    0.350;  -12.350;  577.640
1153.882;    1.364;   -8.980;  600.060
1154.421;   -0.280;  -15.190;  470.620
1154.958;   -0.056;  -15.210;  595.240
1155.496;    1.622;  -12.850;  645.280
1156.034;    0.910;   -9.940;  721.880
1156.572;    2.508;  -13.570;  667.060
1157.110;    0.017;  -14.590;  473.940
1157.647;    1.279;  -13.030;  676.960
1158.185;   -0.337;  -12.140;  564.320
1158.723;   -1.000;  -14.390;  509.200
1159.260;    0.367;  -14.090;  701.700
1159.798;    0.686;  -11.920;  658.160
1160.335;    0.360;  -11.110;  631.820

