
Integration time [ms]:   3.276
Averaging Nr. [scans]: 1000
Smoothing Nr. [pixels]: 0
Data measured with spectrometer [name]: 7414430SP
Wave   ;Sample   ;Dark     ;Reference
[nm]   ;[counts] ;[counts] ;[counts] 

288.544;  149.325;    7.793;  793.890
289.143;  152.952;    7.462;  681.602
289.742;  153.350;    8.602;  828.814
290.341;  138.092;    1.321;  789.841
290.940;  128.145;   -0.709;  730.702
291.538;  128.796;    0.881;  881.108
292.137;  128.792;    0.122;  792.581
292.736;  133.446;   -1.929;  975.101
293.335;  130.103;   -8.229;  735.086
293.934;  130.677;   -5.279;  781.677
294.532;  128.688;   -1.369; 1031.958
295.131;  114.168;   -7.641;  834.394
295.730;  114.971;   -8.420;  809.588
296.328;  114.394;   -5.611;  783.442
296.927;  114.743;   -5.781;  779.652
297.525;  115.468;   -6.361;  781.236
298.124;  107.134;  -11.382;  654.009
298.722;  109.772;   -7.641;  761.933
299.321;  108.012;   -6.811;  708.597
299.919;  105.415;   -6.991;  751.918
300.518;  103.125;  -10.362;  689.338
301.116;  105.238;   -9.581;  691.381
301.715;  103.656;   -4.891;  730.222
302.313;  102.915;   -8.801;  704.943
302.911;   98.682;   -8.522;  733.830
303.509;  104.088;   -6.171;  925.627
304.108;  101.482;   -7.311;  760.383
304.706;  101.133;   -8.321;  801.664
305.304;   95.277;  -10.222;  796.707
305.902;  100.886;   -6.021;  784.484
306.500;   96.527;   -4.971;  728.200
307.098;   94.976;   -7.061;  746.560
307.696;   93.792;   -8.801;  780.432
308.294;   94.162;   -6.411;  731.359
308.892;   95.605;   -2.901;  759.769
309.490;   91.844;   -5.041;  712.161
310.088;   90.972;   -5.002;  788.444
310.686;   94.216;   -2.041;  821.749
311.284;   89.953;   -2.351;  766.040
311.882;   87.112;   -4.422;  731.225
312.480;   85.197;   -4.192;  697.167
313.078;   85.361;   -1.172;  808.331
313.675;   86.125;   -2.601;  691.600
314.273;   82.059;   -1.312;  797.837
314.871;   81.644;   -3.942;  589.829
315.468;   79.816;   -2.802;  652.090
316.066;   82.049;   -0.701;  694.427
316.664;   75.370;   -4.362;  656.351
317.261;   79.726;   -2.872;  910.128
317.859;   74.568;   -2.022;  768.735
318.456;   75.170;   -0.531;  830.096
319.054;   70.592;   -3.912;  787.828
319.651;   70.890;   -4.752;  759.928
320.249;   69.211;   -2.602;  810.188
320.846;   66.611;   -0.821;  714.286
321.443;   64.797;   -4.642;  832.135
322.041;   61.782;   -5.002;  812.315
322.638;   59.003;   -3.982;  701.456
323.235;   59.941;   -3.411;  665.683
323.833;   57.291;   -7.361;  740.354
324.430;   53.085;   -8.611;  615.900
325.027;   53.183;   -4.061;  876.855
325.624;   52.941;   -4.031;  644.532
326.221;   49.799;   -7.481;  689.717
326.818;   50.500;   -5.281;  818.332
327.415;   53.529;   -7.460;  748.828
328.012;   52.151;   -5.510;  690.585
328.609;   51.542;   -7.880;  731.389
329.206;   49.427;   -8.331;  778.621
329.803;   49.868;   -5.121;  737.841
330.400;   52.076;   -4.510;  704.260
330.997;   53.838;   -6.441;  817.147
331.594;   52.669;   -8.831;  788.185
332.191;   57.488;   -7.621;  728.722
332.787;   60.370;   -4.591;  844.463
333.384;   58.872;   -7.412;  763.093
333.981;   58.323;   -8.293;  815.687
334.578;   60.013;   -7.052;  708.378
335.174;   63.422;   -3.102;  731.469
335.771;   62.344;   -5.943;  836.456
336.367;   60.856;   -7.393;  710.631
336.964;   63.449;   -4.063;  793.266
337.561;   60.945;   -3.813;  731.112
338.157;   57.275;   -4.654;  911.916
338.754;   55.002;   -7.934;  796.589
339.350;   53.730;   -4.414;  722.493
339.946;   54.177;   -4.664;  773.135
340.543;   46.938;   -6.375;  846.136
341.139;   42.358;   -9.815;  720.836
341.735;   40.156;   -4.526;  772.593
342.332;   38.015;   -4.895;  691.472
342.928;   38.424;   -4.295;  795.394
343.524;   32.241;   -5.476;  761.684
344.120;   28.719;   -5.856;  738.562
344.716;   31.925;   -2.155;  723.717
345.313;   29.901;   -6.275;  795.342
345.909;   25.125;   -8.815;  627.336
346.505;   26.615;   -5.305;  740.247
347.101;   26.535;   -2.674;  827.864
347.697;   26.841;   -4.344;  785.398
348.293;   21.633;   -9.975;  627.244
348.889;   23.215;   -5.774;  745.914
349.485;   21.681;   -5.004;  688.205
350.081;   23.222;   -4.704;  772.592
350.676;   18.112;   -6.635;  691.606
351.272;   22.181;   -4.504;  809.530
351.868;   21.646;   -3.914;  780.497
352.464;   19.239;   -9.044;  723.932
353.059;   16.129;   -8.314;  646.017
353.655;   18.447;   -7.024;  777.063
354.251;   19.834;   -5.343;  759.845
354.846;   14.073;   -8.604;  740.646
355.442;   12.604;   -6.945;  753.071
356.038;   14.532;   -7.564;  751.708
356.633;   14.099;   -5.814;  728.594
357.229;   11.706;   -7.364;  724.757
357.824;   10.752;   -8.024;  703.600
358.420;    9.166;   -9.384;  679.726
359.015;    9.826;   -5.104;  695.357
359.610;   10.835;   -6.854;  763.920
360.206;    4.942;  -10.185;  603.240
360.801;    8.286;   -7.054;  646.503
361.396;   10.394;   -5.034;  725.975
361.992;    5.057;   -8.284;  668.220
362.587;    3.534;   -8.625;  670.160
363.182;    5.035;   -7.674;  689.631
363.777;    5.084;   -5.164;  738.242
364.372;    5.033;   -8.604;  737.314
364.967;    2.077;   -9.055;  680.744
365.563;    6.585;   -6.114;  815.567
366.158;    2.263;   -5.814;  685.161
366.753;    3.847;   -7.854;  649.263
367.348;    1.506;   -7.804;  746.056
367.942;    2.055;   -7.954;  697.298
368.537;    0.509;   -4.984;  754.245
369.132;    0.762;   -8.564;  703.428
369.727;   -3.102;   -8.855;  638.079
370.322;   -1.862;   -6.245;  580.186
370.917;   -1.590;   -6.425;  710.646
371.511;    0.499;   -6.294;  861.834
372.106;   -2.687;   -7.685;  776.964
372.701;   -6.499;   -7.335;  585.988
373.296;   -0.862;   -4.564;  863.135
373.890;   -4.756;  -10.235;  647.840
374.485;   -6.866;   -7.885;  691.199
375.079;   -4.059;   -7.324;  738.685
375.674;   -2.098;   -3.494;  812.970
376.268;   -7.421;   -8.525;  691.759
376.863;  -12.134;  -10.086;  580.327
377.457;   -6.058;   -7.025;  662.490
378.052;   -8.061;   -3.585;  764.884
378.646;   -8.592;   -7.595;  741.167
379.240;   -9.064;   -8.335;  721.176
379.835;   -8.183;   -5.785;  636.978
380.429;  -10.027;   -4.335;  562.557
381.023;  -10.160;   -6.805;  779.205
381.617;  -12.182;   -9.195;  680.106
382.212;   -9.190;   -6.905;  685.303
382.806;   -8.488;   -3.745;  760.690
383.400;  -12.337;   -7.745;  672.281
383.994;  -13.569;   -9.765;  664.870
384.588;   -9.063;   -6.564;  697.701
385.182;   -8.124;   -5.344;  726.624
385.776;  -10.167;   -8.514;  706.875
386.370;  -13.045;   -9.555;  681.968
386.964;  -11.812;   -8.715;  684.155
387.558;  -10.883;   -6.174;  598.360
388.152;  -14.547;   -8.725;  681.959
388.745;  -11.825;   -7.965;  814.707
389.339;  -10.266;   -5.924;  747.642
389.933;   -9.882;   -5.524;  695.370
390.527;  -10.289;   -7.114;  859.029
391.120;  -15.956;  -10.725;  595.318
391.714;  -13.434;   -8.035;  711.633
392.308;  -11.474;   -3.574;  780.253
392.901;  -14.456;   -7.245;  642.460
393.495;  -15.342;   -9.285;  595.414
394.089;  -13.869;   -5.895;  760.452
394.682;  -14.879;   -4.295;  697.188
395.275;  -15.315;   -9.875;  719.927
395.869;  -16.012;   -8.485;  667.314
396.462;  -14.273;   -7.455;  616.609
397.056;  -10.707;   -5.424;  776.621
397.649;  -16.216;   -6.605;  731.575
398.242;  -12.554;   -8.224;  712.645
398.836;  -12.198;   -7.474;  766.408
399.429;  -13.152;   -7.094;  631.041
400.022;  -17.228;   -9.475;  665.902
400.615;  -14.251;   -7.145;  805.609
401.208;  -12.297;   -7.174;  691.451
401.802;  -15.100;   -5.515;  699.329
402.395;  -15.892;   -9.875;  683.502
402.988;  -16.280;   -8.845;  696.627
403.581;  -12.874;   -8.874;  646.878
404.174;  -11.197;   -5.324;  686.568
404.767;  -14.106;   -9.575;  638.583
405.360;  -16.475;  -10.965;  621.445
405.953;  -10.763;   -8.764;  759.034
406.545;  -10.751;   -7.514;  725.342
407.138;  -15.313;  -10.025;  618.350
407.731;  -13.428;  -10.034;  613.303
408.324;   -8.873;   -9.374;  660.554
408.917;  -10.994;   -6.534;  681.864
409.509;  -13.200;   -8.004;  740.396
410.102;  -13.976;   -9.875;  643.948
410.695;   -8.768;   -8.604;  665.758
411.287;   -9.342;   -6.794;  599.821
411.880;  -10.903;   -9.334;  585.421
412.472;  -13.914;  -10.254;  613.092
413.065;  -10.246;   -6.714;  629.408
413.657;   -9.457;   -7.234;  576.678
414.250;   -9.083;  -10.544;  646.681
414.842;   -9.699;   -9.744;  676.353
415.434;   -7.715;   -6.994;  570.463
416.027;   -4.398;   -5.893;  652.196
416.619;   -6.562;   -7.264;  713.400
417.211;   -6.320;  -10.374;  599.352
417.804;   -3.914;   -7.993;  628.499
418.396;   -7.568;   -7.234;  607.643
418.988;   -5.869;   -9.443;  659.238
419.580;   -7.924;  -10.724;  568.276
420.172;   -5.717;  -10.323;  536.196
420.764;   -2.443;   -8.793;  672.482
421.356;   -3.645;  -11.143;  636.898
421.948;   -4.257;   -8.293;  677.661
422.540;    0.977;   -7.893;  680.027
423.132;    0.370;   -7.082;  600.641
423.724;   -2.839;   -8.653;  561.267
424.316;   -0.980;  -10.213;  621.345
424.908;    2.050;   -9.762;  591.517
425.500;    2.758;   -5.572;  647.978
426.092;    3.187;   -8.422;  648.268
426.683;    2.451;   -9.283;  684.836
427.275;    5.822;   -7.852;  641.471
427.867;    6.999;   -5.272;  668.948
428.458;    7.085;   -7.682;  732.344
429.050;    5.914;  -10.612;  680.749
429.642;    7.975;   -9.882;  743.124
430.233;    8.036;   -6.962;  569.356
430.825;    9.807;   -6.842;  724.809
431.416;    6.852;   -9.672;  698.241
432.008;   10.589;   -6.552;  651.723
432.599;   10.667;   -6.891;  656.073
433.190;    8.045;  -10.912;  637.670
433.782;    7.185;  -11.172;  590.395
434.373;   14.537;   -6.061;  884.765
434.964;   13.223;   -8.251;  602.920
435.556;   10.766;   -9.722;  634.537
436.147;   14.476;   -9.082;  758.490
436.738;   15.437;   -8.041;  701.099
437.329;   18.656;   -7.341;  721.723
437.920;   12.065;   -8.162;  666.688
438.511;   12.533;  -11.802;  564.526
439.103;   19.181;  -10.191;  623.998
439.694;   19.856;   -7.601;  681.583
440.285;   21.227;   -8.541;  764.432
440.876;   19.153;   -9.751;  845.738
441.466;   19.260;   -9.401;  575.162
442.057;   23.802;   -7.760;  665.814
442.648;   22.637;   -9.971;  746.255
443.239;   21.269;  -11.001;  620.477
443.830;   26.504;   -7.990;  704.958
444.421;   27.822;   -7.910;  655.474
445.011;   24.280;   -8.131;  693.619
445.602;   24.362;   -7.111;  743.126
446.193;   26.271;  -10.920;  488.117
446.783;   30.023;   -6.500;  640.397
447.374;   26.305;   -8.671;  692.759
447.964;   26.414;  -10.781;  713.770
448.555;   34.730;   -9.650;  822.742
449.145;   31.650;   -8.660;  662.853
449.736;   32.275;   -8.990;  803.179
450.326;   31.694;   -9.500;  713.626
450.917;   36.378;   -8.680;  675.324
451.507;   35.562;   -7.520;  600.661
452.097;   36.464;   -8.590;  746.267
452.688;   38.062;  -11.340;  742.160
453.278;   37.562;  -10.100;  566.840
453.868;   41.803;   -6.019;  793.550
454.458;   39.319;   -9.440;  651.141
455.048;   40.187;  -10.560;  711.783
455.639;   41.216;  -11.799;  567.096
456.229;   44.711;   -6.899;  710.694
456.819;   46.291;   -7.389;  751.158
457.409;   47.335;  -11.119;  773.993
457.999;   50.742;   -9.289;  737.505
458.589;   49.692;   -6.139;  686.606
459.179;   49.140;   -8.729;  717.658
459.769;   47.595;   -9.789;  627.099
460.358;   53.268;  -10.259;  797.262
460.948;   51.860;   -7.299;  689.503
461.538;   54.147;  -10.289;  660.677
462.128;   52.042;  -11.269;  664.934
462.717;   58.447;   -9.368;  710.326
463.307;   61.393;   -7.908;  705.846
463.897;   57.040;   -9.599;  656.942
464.486;   56.645;   -9.769;  837.128
465.076;   61.067;   -8.048;  733.776
465.666;   64.404;   -9.358;  652.900
466.255;   62.058;   -7.919;  785.651
466.845;   61.927;  -11.689;  666.749
467.434;   64.346;   -7.818;  725.873
468.023;   64.978;   -7.678;  658.357
468.613;   62.749;  -10.939;  713.946
469.202;   67.713;  -10.118;  646.507
469.791;   71.009;   -9.108;  737.811
470.381;   73.095;   -6.058;  742.813
470.970;   73.045;  -10.428;  711.099
471.559;   72.965;  -10.268;  733.291
472.148;   75.933;   -8.448;  675.737
472.738;   78.478;   -6.917;  765.466
473.327;   77.519;  -11.978;  637.529
473.916;   77.138;  -11.888;  737.446
474.505;   82.232;   -9.437;  751.703
475.094;   84.469;   -6.747;  806.570
475.683;   84.081;   -9.367;  797.699
476.272;   84.983;  -12.637;  730.632
476.861;   87.886;  -10.027;  706.754
477.449;   93.884;   -8.716;  728.487
478.038;   88.048;   -9.577;  692.513
478.627;   89.863;   -9.718;  714.852
479.216;   95.467;   -8.947;  769.441
479.805;   99.202;   -6.256;  783.375
480.393;   98.217;   -7.937; 1008.945
480.982;   97.733;   -7.717;  874.501
481.571;  104.790;   -9.266;  858.333
482.159;  104.552;   -7.636;  705.386
482.748;  104.564;   -9.667;  821.385
483.336;  108.983;  -10.376;  858.209
483.925;  109.732;   -7.147;  774.373
484.513;  116.152;   -7.996;  758.962
485.102;  112.822;  -10.027;  810.965
485.690;  122.065;  -10.446; 1011.050
486.278;  123.578;   -8.446;  979.329
486.867;  124.604;   -6.356;  809.662
487.455;  125.007;   -9.136;  898.229
488.043;  127.242;  -10.646;  748.361
488.631;  135.470;   -7.456; 1005.079
489.220;  139.193;   -6.636;  908.626
489.808;  139.404;  -11.036;  741.415
490.396;  147.276;  -10.246;  914.645
490.984;  152.851;   -8.556;  830.161
491.572;  161.007;   -5.886;  940.315
492.160;  167.189;   -9.486;  919.081
492.748;  179.235;  -10.976;  884.341
493.336;  201.195;   -8.776; 1019.693
493.924;  226.259;   -5.465;  958.077
494.512;  252.104;   -9.986; 1066.638
495.100;  287.544;  -10.636; 1103.280
495.687;  340.513;  -10.885; 1206.373
496.275;  401.430;   -8.126; 1150.796
496.863;  469.583;  -10.586; 1281.171
497.451;  569.362;  -11.926; 1386.805
498.038;  694.730;  -10.885; 1556.729
498.626;  801.653;   -6.315; 1741.407
499.214;  946.776;   -7.326; 2016.609
499.801; 1133.774;  -11.906; 2220.633
500.389; 1381.051;  -10.466; 2312.494
500.976; 1678.728;   -5.236; 2744.849
501.564; 2106.192;   -8.936; 3148.565
502.151; 2470.668;  -13.176; 3515.999
502.738; 2902.688;  -10.646; 3971.274
503.326; 3293.657;   -9.525; 4403.796
503.913; 3676.761;  -10.856; 5161.749
504.500; 4027.967;  -11.586; 5986.420
505.088; 4437.256;  -10.336; 6381.201
505.675; 4953.148;   -6.355; 6925.547
506.262; 5664.740;   -9.046; 7619.060
506.849; 6365.959;  -10.416; 8733.969
507.436; 6822.418;  -10.305; 9790.121
508.023; 7385.930;   -5.496; 9985.472
508.610; 7657.982;   -7.856;10434.618
509.197; 8293.069;  -10.097;11198.435
509.784; 9648.245;  -10.886;12391.194
510.371;10691.261;   -9.315;13603.713
510.958;11421.114;   -9.936;14426.586
511.545;12194.371;   -9.326;15243.775
512.132;12996.400;  -10.075;15945.876
512.719;13483.215;   -7.796;16340.369
513.305;14351.896;  -10.606;18011.766
513.892;15025.686;  -11.486;19754.971
514.479;16348.188;   -9.126;20967.805
515.066;17937.475;   -6.026;22299.793
515.652;19307.123;   -8.466;22908.660
516.239;20484.664;  -10.886;23798.875
516.825;21384.736;  -11.496;25567.275
517.412;22258.652;   -5.796;28154.959
517.998;22829.396;  -10.506;28344.111
518.585;22999.824;  -10.076;27134.219
519.171;23538.221;   -8.315;27268.576
519.758;24835.514;   -8.596;28964.129
520.344;26671.387;   -8.466;30664.494
520.930;26738.504;  -11.006;32550.605
521.516;27826.652;  -10.495;35422.895
522.103;29972.326;   -5.526;38280.004
522.689;30456.455;   -8.746;37835.117
523.275;30148.037;  -11.376;37288.613
523.861;31641.244;  -11.156;37281.395
524.447;33068.922;   -8.135;37846.949
525.033;32877.141;   -7.896;38321.949
525.619;32996.977;  -12.476;38579.285
526.205;34510.832;   -9.516;40622.875
526.791;36773.344;   -6.926;42258.836
527.377;37144.156;   -8.346;42966.902
527.963;38451.602;   -8.717;42018.949
528.549;37021.730;  -11.016;42476.828
529.135;35758.484;   -8.536;41854.852
529.721;34957.461;   -9.666;41237.711
530.306;34208.773;  -10.066;41259.445
530.892;34034.844;  -11.356;41506.047
531.478;35455.145;   -6.596;43559.613
532.063;38346.914;   -8.836;47695.563
532.649;39002.723;  -10.047;50808.324
533.235;39689.762;   -9.746;51787.500
533.820;39976.105;   -6.566;52145.035
534.406;41387.367;  -10.817;51133.488
534.991;41159.043;   -9.416;49996.805
535.576;39730.766;   -9.036;48882.852
536.162;40363.727;   -6.156;46942.285
536.747;41149.164;  -11.607;45711.746
537.333;44395.715;  -11.787;48510.180
537.918;47533.992;  -12.437;50439.891
538.503;46517.117;   -7.196;50863.711
539.088;43082.242;  -10.556;50906.922
539.673;42798.258;   -8.767;52621.965
540.259;43005.383;  -10.026;52368.094
540.844;40794.695;   -7.416;50879.109
541.429;42058.746;   -9.467;52077.777
542.014;44566.320;   -9.527;52716.695
542.599;43882.586;   -9.946;52363.281
543.184;41708.367;   -7.927;53187.137
543.769;43120.363;   -9.297;54697.605
544.354;42739.113;  -10.127;53913.914
544.938;41588.602;   -9.267;49680.164
545.523;43557.211;   -6.506;47386.277
546.108;46384.930;   -9.787;49151.949
546.693;48145.484;  -11.587;51384.637
547.278;47750.539;  -10.986;51853.254
547.862;45067.543;   -8.206;51173.750
548.447;41005.816;  -10.067;51691.395
549.031;40467.961;   -9.637;52456.703
549.616;45124.391;   -9.926;52714.516
550.201;44611.125;   -6.347;52414.598
550.785;45726.984;   -7.917;52355.059
551.370;44882.414;  -10.867;54589.453
551.954;44328.328;   -9.047;58267.348
552.538;45307.023;   -7.827;59062.176
553.123;43826.941;  -10.287;58115.285
553.707;41397.324;  -12.178;56556.285
554.291;42722.262;   -8.717;56201.668
554.876;45196.297;   -7.457;55335.762
555.460;45463.449;  -10.387;54155.703
556.044;46288.652;   -9.618;53721.484
556.628;45067.156;  -11.567;53731.016
557.212;44188.949;   -8.097;54312.531
557.796;42790.219;  -11.077;53797.773
558.380;42847.398;  -11.108;56145.984
558.964;43144.535;   -9.057;57277.930
559.548;44474.082;   -6.977;56459.641
560.132;42899.180;  -11.457;54434.543
560.716;41381.727;  -11.378;54800.617
561.300;42310.543;   -9.577;57606.945
561.884;43532.230;   -7.127;58972.445
562.467;41925.324;   -7.118;57327.570
563.051;41454.961;  -13.358;54962.434
563.635;42569.832;  -10.178;52594.473
564.219;42609.285;   -7.837;50610.410
564.802;43379.871;  -11.398;49551.180
565.386;43349.336;  -12.788;48370.953
565.969;42715.199;   -9.077;48178.871
566.553;41824.383;   -6.207;49957.305
567.136;42553.492;   -8.568;50369.594
567.720;39258.086;  -11.868;49492.004
568.303;37162.180;   -8.268;50616.352
568.887;37122.504;   -8.698;50727.148
569.470;37496.719;   -6.808;51698.379
570.053;36206.070;  -13.188;52122.078
570.637;34766.910;  -12.037;52536.438
571.220;34764.836;   -8.577;51186.098
571.803;35507.563;   -8.498;51032.762
572.386;37387.461;  -10.498;49609.887
572.969;39748.016;   -9.388;48285.926
573.552;38017.473;   -8.338;47624.285
574.135;36609.438;   -8.518;45498.641
574.718;34351.246;  -13.628;41970.434
575.301;33358.680;  -10.893;41447.137
575.884;32366.113;   -8.158;40923.836
576.467;33224.461;  -10.328;45267.723
577.050;34434.676;  -13.058;48175.543
577.633;35086.570;   -9.458;47729.328
578.216;33799.941;   -8.928;47579.793
578.799;33275.277;   -9.358;47820.996
579.381;33135.504;  -11.388;48115.551
579.964;32084.396;  -11.718;47333.766
580.547;34118.617;   -8.588;46668.969
581.129;35269.477;   -8.859;44466.141
581.712;36018.410;  -10.729;44164.922
582.294;36567.121;  -11.118;46477.855
582.877;36378.684;   -5.218;48244.254
583.459;34002.387;   -8.679;47437.895
584.042;32051.508;  -10.709;46943.219
584.624;32444.723;  -11.669;46792.227
585.206;31933.803;   -8.218;46557.250
585.789;31680.518;  -10.569;45793.773
586.371;34215.637;  -11.859;43836.391
586.953;34571.449;  -10.719;42972.492
587.536;35458.480;   -7.198;42487.211
588.118;35198.156;   -8.720;42086.414
588.700;30409.053;  -10.439;43389.930
589.282;27666.311;   -9.198;43646.039
589.864;27266.143;   -9.199;43438.109
590.446;29502.549;  -11.319;43151.926
591.028;32253.094;  -11.159;42781.867
591.610;33011.258;  -11.779;42839.098
592.192;31056.822;   -7.668;42820.402
592.774;29745.373;  -11.949;40724.277
593.356;28493.939;  -12.129;39874.789
593.937;27340.184;  -10.669;39980.648
594.519;29363.637;   -6.509;42069.633
595.101;31604.502;  -10.849;42976.031
595.683;31788.295;  -11.679;44084.441
596.264;32825.453;   -9.049;43478.797
596.846;32420.367;   -8.849;43803.672
597.427;32340.021;   -9.570;42986.934
598.009;33949.676;  -12.620;42832.219
598.591;34352.051;  -10.039;42580.086
599.172;33629.934;  -10.369;43061.805
599.753;33870.832;   -9.140;41691.469
600.335;35387.707;  -11.430;40692.520
600.916;33489.207;   -9.939;39982.422
601.498;30867.990;   -8.479;40318.617
602.079;29318.086;  -10.920;40670.609
602.660;29085.178;  -11.480;41450.898
603.241;30783.627;  -11.699;41137.738
603.823;29595.861;   -9.579;38868.797
604.404;28783.027;  -10.620;38182.785
604.985;30447.979;  -10.450;38078.047
605.566;30488.059;   -9.129;38056.633
606.147;30684.072;   -7.510;37020.418
606.728;32169.166;  -10.660;37883.359
607.309;30819.762;  -11.740;38748.273
607.890;30379.752;   -9.759;38850.230
608.471;29828.777;   -8.250;37457.918
609.051;28935.014;   -9.240;36066.457
609.632;27795.080;  -12.120;35991.074
610.213;28538.678;   -9.110;37402.641
610.794;29320.088;   -8.030;38383.363
611.374;28847.680;   -8.110;40562.387
611.955;29340.229;  -13.560;38533.727
612.536;30642.912;  -11.400;36951.789
613.116;30496.461;   -8.070;37197.891
613.697;30964.262;  -10.830;38411.125
614.277;29319.027;  -11.641;38673.938
614.858;30080.389;  -13.310;37075.863
615.438;29290.258;   -7.460;35092.906
616.019;26821.598;   -7.601;33666.301
616.599;27479.236;  -12.020;34189.023
617.179;29383.457;  -11.780;36952.047
617.760;30468.572;   -8.570;39582.574
618.340;31506.127;  -11.471;38943.977
618.920;32735.039;  -11.170;37594.156
619.500;32377.449;  -11.071;37866.938
620.080;31274.674;   -7.750;37869.043
620.660;32405.482;  -12.711;36868.617
621.241;33752.461;  -10.211;36352.309
621.821;34059.602;  -10.961;35459.520
622.401;33133.715;   -7.720;35207.414
622.980;32457.111;   -8.981;35980.422
623.560;31081.572;   -9.331;37351.328
624.140;29762.924;   -9.850;34388.582
624.720;24774.668;   -7.451;32368.764
625.300;21349.025;   -9.070;32638.629
625.880;24697.586;  -12.601;34599.035
626.459;28540.352;  -11.751;36831.738
627.039;31488.338;   -9.281;38299.098
627.619;31407.848;   -8.801;38289.574
628.198;30005.311;  -12.071;37220.695
628.778;29234.213;   -9.461;37632.563
629.357;29845.967;   -8.491;38003.012
629.937;29788.242;   -9.721;38402.039
630.516;29332.828;   -9.951;37868.801
631.096;29150.551;  -11.731;35760.410
631.675;31427.225;   -8.572;35225.219
632.254;36378.625;  -11.282;35130.289
632.834;35862.270;  -13.322;35794.570
633.413;34150.941;  -10.301;35788.922
633.992;31659.293;   -8.582;34532.863
634.571;32397.635;   -8.352;33590.113
635.151;35516.172;  -11.912;34943.863
635.730;33813.375;  -10.511;35352.523
636.309;30126.025;   -7.731;35366.605
636.888;27590.824;   -9.952;36165.637
637.467;28234.207;  -11.672;37515.902
638.046;29911.135;   -8.901;39288.695
638.625;33011.566;   -7.912;38279.699
639.204;32878.406;  -10.022;37741.598
639.782;31428.289;  -12.252;38364.551
640.361;27872.955;  -10.041;36740.621
640.940;25043.203;  -11.161;34950.082
641.519;25691.854;   -9.701;34137.398
642.097;28484.266;  -11.271;35654.258
642.676;31377.291;   -8.651;35637.957
643.255;32179.557;   -8.711;36567.074
643.833;31400.756;   -9.581;37809.434
644.412;31327.100;  -13.711;37337.293
644.990;30269.020;  -11.811;37018.531
645.569;30043.332;   -9.411;36518.469
646.147;29065.787;  -10.291;36186.430
646.726;29041.033;  -12.401;36267.688
647.304;30460.383;  -10.411;36647.625
647.882;32131.217;   -9.651;39286.742
648.461;33678.879;   -9.631;39157.703
649.039;32118.525;  -11.881;35412.883
649.617;31518.098;   -9.661;34744.918
650.195;31045.982;   -9.301;35403.098
650.773;29609.252;  -10.511;35053.797
651.352;27059.961;  -11.521;33756.816
651.930;24674.197;  -12.211;31868.773
652.508;23326.369;   -9.171;33121.551
653.086;27283.939;   -9.371;33564.793
653.663;30180.291;  -13.161;34054.668
654.241;28787.877;  -13.031;35693.309
654.819;30360.617;   -9.371;36422.906
655.397;30548.332;  -10.511;38213.484
655.975;30075.883;  -10.371;39507.625
656.553;29978.975;  -10.051;39498.223
657.130;28469.930;  -10.061;40395.480
657.708;27505.432;   -9.561;39242.020
658.286;27568.813;  -11.511;38920.020
658.863;29024.080;  -10.261;40202.898
659.441;32053.359;   -7.531;39677.938
660.018;31608.898;   -9.501;40413.355
660.596;30507.938;  -13.301;39931.414
661.173;32431.113;  -11.211;39604.531
661.750;32383.291;   -9.951;39700.070
662.328;30791.549;   -9.390;39292.809
662.905;29988.381;  -11.330;38235.648
663.482;26178.365;   -9.050;36212.305
664.060;24368.383;   -8.240;35944.945
664.637;27047.494;  -10.050;35170.785
665.214;28828.512;  -11.760;34197.523
665.791;30503.328;  -10.530;34549.520
666.368;29434.105;   -9.690;35118.578
666.945;29864.383;   -9.320;36019.418
667.522;31436.590;  -11.860;36048.438
668.099;31103.443;  -10.770;36243.914
668.676;29895.926;   -6.260;35958.875
669.253;28748.992;   -7.000;37384.730
669.830;29417.627;  -10.190;36779.629
670.407;29099.066;   -9.550;35231.289
670.984;28693.578;   -9.260;35544.270
671.560;29324.621;   -9.280;35466.867
672.137;28813.625;  -11.810;34280.863
672.714;29669.947;  -11.490;34632.863
673.290;30275.502;   -7.740;35135.422
673.867;30373.186;  -10.660;36114.480
674.443;30414.807;  -12.230;36152.859
675.020;28750.707;  -10.450;35327.238
675.596;29659.607;   -9.260;35795.176
676.173;30086.762;  -10.780;35430.355
676.749;29867.969;  -13.690;33549.516
677.326;29806.152;  -11.980;32210.012
677.902;29707.793;   -8.630;32068.871
678.478;29052.598;  -10.730;32583.891
679.054;28414.361;  -10.520;32088.928
679.631;28737.787;  -11.920;30978.848
680.207;30316.223;   -7.490;33160.887
680.783;31957.605;   -9.860;35570.363
681.359;31110.744;  -13.380;36125.184
681.935;30589.104;  -12.480;35240.922
682.511;29850.781;   -7.900;34429.961
683.087;29863.750;   -7.710;34463.680
683.663;29315.213;  -11.480;34648.898
684.239;28140.504;  -14.090;34546.457
684.815;27860.047;   -7.560;35586.375
685.390;28152.320;   -9.910;35821.895
685.966;28628.340;  -11.159;35085.871
686.542;30947.680;  -11.169;34198.230
687.118;33267.055;   -5.959;32847.707
687.693;33709.477;  -10.329;32794.027
688.269;33405.047;  -12.059;33072.367
688.844;31576.436;  -10.909;33141.664
689.420;29394.125;   -8.019;33965.742
689.995;27181.109;   -8.399;34655.523
690.571;25799.648;  -10.949;33576.742
691.146;26183.961;   -9.619;32657.219
691.722;25772.670;   -8.999;32526.979
692.297;25404.123;  -11.589;33014.617
692.872;27142.029;  -11.739;34012.254
693.448;26884.930;  -11.059;34237.434
694.023;26062.609;  -10.139;34142.672
694.598;27894.498;   -9.029;34132.031
695.173;28265.115;  -13.319;34205.250
695.748;27509.029;  -10.169;32882.488
696.323;27847.332;   -8.339;32864.906
696.898;28157.402;   -8.169;33170.004
697.473;28005.451;  -12.309;32432.984
698.048;27463.219;  -10.989;31649.303
698.623;27246.773;   -9.329;30778.141
699.198;29046.127;   -9.849;31140.119
699.773;30107.121;  -12.329;31764.299
700.348;28411.836;  -10.389;31780.816
700.922;28453.652;   -9.269;32046.375
701.497;29466.754;   -9.329;32603.574
702.072;29763.367;  -10.789;34799.871
702.646;28279.186;  -10.839;35793.172
703.221;25988.936;   -9.099;35201.590
703.795;28154.309;  -10.939;34764.527
704.370;28733.305;  -12.859;34307.367
704.944;29134.230;  -11.559;33509.887
705.519;29911.314;   -7.939;31388.584
706.093;31324.350;  -10.499;31340.104
706.668;31813.273;  -11.289;32630.281
707.242;30635.865;  -11.509;32728.779
707.816;28995.975;   -9.639;32947.238
708.390;27536.094;  -11.429;33277.855
708.965;27880.836;  -11.869;33834.336
709.539;27680.080;  -11.689;33709.273
710.113;28198.959;  -10.478;33044.313
710.687;27866.396;  -10.228;31953.992
711.261;26320.375;  -13.698;30505.949
711.835;26112.645;  -13.378;30262.369
712.409;26760.316;   -9.698;31254.447
712.983;28746.469;  -11.898;32754.986
713.557;29817.822;  -15.138;34018.824
714.131;29375.137;  -14.098;34579.625
714.704;28303.611;   -9.958;33890.262
715.278;26085.354;  -10.028;33531.102
715.852;24987.959;  -11.148;33601.660
716.425;25776.633;   -9.068;33515.117
716.999;26529.359;  -10.038;33185.555
717.573;27433.795;   -9.798;33905.996
718.146;28473.086;  -12.378;35199.293
718.720;28657.289;  -11.918;35060.551
719.293;28154.283;   -8.088;34973.230
719.867;31038.549;  -10.888;36394.449
720.440;30989.162;  -11.938;36663.008
721.013;29429.830;  -12.818;35102.426
721.587;27856.625;  -10.298;33985.266
722.160;26780.615;  -10.048;33524.965
722.733;25687.492;  -12.108;32987.043
723.306;25852.875;  -10.818;33066.301
723.880;28379.234;   -8.908;33399.500
724.453;30705.080;   -9.878;33468.297
725.026;29838.979;  -11.188;33816.637
725.599;26897.561;  -11.678;32797.996
726.172;26972.154;   -9.618;33187.434
726.745;27934.752;   -8.258;35136.613
727.318;29179.559;  -12.978;35751.730
727.891;29930.531;  -12.148;35890.430
728.463;29750.252;   -8.968;34822.090
729.036;28697.303;  -10.188;32895.086
729.609;29124.928;  -11.788;31823.225
730.182;26069.924;  -11.788;31445.283
730.754;23562.723;  -10.268;32373.223
731.327;23598.521;   -9.998;33676.820
731.900;23802.715;  -12.228;33417.000
732.472;25064.439;  -13.848;31978.498
733.045;27088.875;   -8.698;30368.777
733.617;27171.789;  -10.607;30574.215
734.190;26896.498;  -11.507;31280.975
734.762;24246.934;  -13.647;31674.412
735.334;22424.541;   -9.767;31247.291
735.907;22962.902;   -9.897;29876.211
736.479;23155.318;  -11.637;29808.488
737.051;22889.209;   -9.567;30233.547
737.623;23788.863;   -8.187;31469.086
738.195;24363.441;  -11.187;31784.225
738.768;26168.332;  -12.337;32120.523
739.340;26679.236;  -12.227;32094.342
739.912;25615.711;  -11.057;31312.680
740.484;24089.236;  -10.207;31946.238
741.056;22856.688;  -10.047;32984.059
741.628;24577.055;  -13.627;33897.715
742.199;26733.965;   -7.177;33213.016
742.771;25069.154;  -10.797;31369.113
743.343;22793.906;  -11.997;31865.473
743.915;21777.594;  -12.867;32388.631
744.487;21840.117;   -7.617;31079.568
745.058;22108.850;   -9.557;30570.107
745.630;22593.818;   -9.877;29970.127
746.201;23575.619;  -14.177;29186.766
746.773;24232.619;   -9.237;28805.723
747.344;24039.898;   -9.847;29591.223
747.916;22457.693;  -11.657;31412.201
748.487;22543.930;  -10.587;32194.898
749.059;23674.975;   -8.707;32533.719
749.630;24204.488;  -10.537;32158.518
750.201;23128.389;  -11.687;30855.395
750.773;21392.945;  -11.647;28622.555
751.344;21390.119;   -7.147;28405.732
751.915;22782.496;   -9.757;28461.551
752.486;22930.566;  -12.427;27842.850
753.057;20587.994;  -12.227;27845.008
753.628;19239.514;  -10.417;27728.107
754.199;20275.920;  -11.767;27381.086
754.770;21308.365;  -11.187;25882.203
755.341;21301.486;  -10.507;25886.184
755.912;21433.043;   -9.387;26050.861
756.483;21035.936;  -10.647;26798.779
757.054;19374.348;  -11.837;27048.238
757.625;18123.717;  -12.716;26294.838
758.195;17735.215;   -9.666;26142.076
758.766;17342.531;   -8.656;26392.234
759.337;18080.156;  -12.856;26334.594
759.907;19714.137;  -13.366;27579.652
760.478;20680.262;   -8.576;28352.770
761.048;20218.150;  -10.526;27325.088
761.619;19405.623;  -11.116;26460.428
762.189;19383.143;  -12.136;26029.826
762.760;20286.785;   -9.456;26430.145
763.330;21431.293;   -7.136;26670.902
763.900;20972.680;  -11.786;26603.021
764.471;18470.559;  -11.546;25542.740
765.041;17265.035;   -8.096;24358.459
765.611;17339.320;   -8.876;23991.297
766.181;17671.850;  -12.196;24470.236
766.751;18570.689;  -11.636;24845.975
767.321;18399.383;  -10.156;24533.633
767.891;16612.344;  -11.766;24916.492
768.461;16062.274;  -14.936;24776.771
769.031;16503.602;  -12.356;24757.988
769.601;18073.574;   -7.526;24181.088
770.171;17965.660;  -10.766;23670.387
770.741;17124.105;  -13.176;22960.045
771.311;17194.504;  -10.616;22917.523
771.880;17596.213;   -9.576;23562.941
772.450;17277.844;  -10.336;24216.500
773.020;17237.807;  -13.516;24140.398
773.589;16531.791;  -13.466;24414.857
774.159;15827.110;   -8.686;23858.717
774.729;15454.677;   -9.476;22942.135
775.298;15047.154;  -13.666;22324.033
775.867;14708.814;  -11.716;21140.313
776.437;14844.221;   -9.906;20838.092
777.006;14696.548;  -12.166;20599.510
777.576;14559.078;  -12.356;20508.809
778.145;14587.913;  -11.646;20732.947
778.714;14454.292;   -8.226;21062.465
779.283;13724.225;   -9.556;20949.664
779.853;13204.456;  -14.116;20508.623
780.422;13696.021;  -11.506;20649.082
780.991;13251.172;   -9.556;21527.520
781.560;12056.201;   -9.095;22632.658
782.129;11934.817;  -12.135;23048.277
782.698;12025.472;  -10.865;23438.555
783.267;11619.045;   -9.335;23267.734
783.836;11514.322;  -11.045;22415.133
784.404;12532.305;  -13.865;20443.152
784.973;13165.383;  -13.095;19699.150
785.542;13050.104;  -11.575;19763.828
786.111;12785.887;   -9.705;20341.408
786.679;12300.805;  -12.105;20207.967
787.248;12082.180;  -12.455;19516.465
787.817;11944.307;  -11.535;18900.363
788.385;11586.724;   -9.765;17879.121
788.954;11022.522;  -14.005;17658.301
789.522;10474.378;  -11.955;17788.879
790.090;11012.671;  -10.135;18118.277
790.659;11457.019;  -10.975;18338.736
791.227;10990.433;  -13.375;18508.615
791.795;11418.040;  -12.375;17898.254
792.364;11841.936;  -10.725;17295.133
792.932;12221.931;   -9.715;16822.051
793.500;12336.412;  -12.675;17040.148
794.068;12451.970;  -13.495;17179.787
794.636;12577.548;  -10.885;16664.246
795.204;11941.480;  -11.045;16524.545
795.772;12001.868;  -13.175;17274.564
796.340;11574.367;  -12.445;17891.002
796.908;11381.791;   -9.735;17648.561
797.476;11260.042;   -9.815;17064.080
798.044;10787.410;  -13.985;16672.777
798.612; 9964.105;  -13.115;17023.996
799.180; 9607.584;  -10.185;16561.615
799.747; 9558.095;   -9.055;15962.773
800.315; 9294.815;  -12.385;15296.992
800.883; 8995.026;  -15.035;14801.771
801.450; 9031.260;  -10.365;14534.430
802.018; 9108.036;   -9.855;14173.248
802.585; 9240.586;  -11.905;14029.547
803.153; 9259.924;  -11.585;13836.846
803.720; 9050.030;   -9.095;13567.324
804.287; 8594.258;   -9.135;13360.622
804.855; 8171.801;  -11.604;13681.981
805.422; 8049.280;  -11.794;13536.560
805.989; 8073.800;  -10.734;13355.958
806.556; 8226.644;  -10.444;13747.896
807.124; 8430.128;  -12.764;13987.376
807.691; 8400.092;  -12.964;14038.674
808.258; 8234.526;  -11.134;14120.152
808.825; 7963.144;   -9.854;13860.111
809.392; 8031.128;  -10.504;13268.790
809.959; 7509.132;  -13.054;12680.389
810.526; 7046.355;   -8.294;12427.308
811.093; 7096.867;   -8.394;12030.105
811.659; 7765.556;  -12.304;11653.664
812.226; 8318.404;  -13.944;11637.183
812.793; 8047.352;  -10.484;11611.521
813.360; 7440.612;  -10.144;11885.181
813.926; 7143.093;  -11.684;12770.539
814.493; 6933.148;  -13.644;12677.638
815.060; 6518.634;   -9.724;11974.336
815.626; 6462.216;   -9.854;11594.715
816.193; 6837.027;  -13.254;11579.474
816.759; 6846.393;  -13.204;11666.972
817.325; 6902.846;   -9.434;11325.530
817.892; 7290.049;  -10.134;11105.369
818.458; 7776.454;  -13.474;10843.928
819.024; 7449.403;  -11.854;10714.406
819.591; 7130.249;  -10.244;10469.165
820.157; 6899.323;  -10.704;10235.523
820.723; 6376.266;  -12.324;10847.563
821.289; 6056.265;   -9.444;11040.980
821.855; 5992.661;   -8.374;10357.100
822.421; 6016.919;  -10.234; 9978.918
822.987; 6054.528;  -13.294; 9754.177
823.553; 5726.262;  -10.884;10065.755
824.119; 5522.335;   -8.884;10036.294
824.685; 5621.762;   -6.784;10029.192
825.251; 5723.246;  -12.004;10199.230
825.816; 5677.003;  -11.474; 9820.189
826.382; 5431.648;   -9.174; 9297.248
826.948; 5614.575;   -9.214; 9381.347
827.513; 6039.240;  -10.774; 9450.726
828.079; 5875.750;  -11.924; 9472.444
828.645; 5253.336;  -10.543; 9292.643
829.210; 5128.216;  -10.533; 9065.341
829.776; 5128.513;  -10.753; 9132.620
830.341; 5030.881;  -10.173; 9092.878
830.906; 5230.049;  -10.743; 9078.557
831.472; 5590.275;  -11.113; 8534.535
832.037; 5349.767;  -10.603; 8677.874
832.602; 4791.622;  -13.323; 8628.692
833.167; 4523.423;  -10.823; 8879.031
833.733; 4456.771;  -10.113; 9189.790
834.298; 4606.771;  -13.583; 9052.608
834.863; 4701.121;  -12.703; 8895.087
835.428; 4680.345;  -10.523; 8824.266
835.993; 4509.970;   -6.963; 8845.385
836.558; 4317.271;  -10.763; 8888.563
837.123; 4440.630;   -9.903; 8966.582
837.688; 4691.135;   -9.913; 8617.860
838.253; 4963.000;  -10.283; 8590.699
838.817; 5179.479;  -12.963; 8443.797
839.382; 5089.901;  -14.243; 8799.356
839.947; 4753.447;  -10.733; 8810.595
840.511; 4440.087;   -9.383; 8796.394
841.076; 4033.931;  -12.563; 8347.231
841.641; 4057.426;  -12.953; 8224.330
842.205; 4138.452;   -7.043; 8223.349
842.770; 4230.112;   -8.163; 8622.107
843.334; 4383.716;  -12.503; 8410.386
843.898; 4305.934;  -11.693; 8337.465
844.463; 4329.333;  -10.203; 8506.283
845.027; 4119.948;   -9.533; 8280.962
845.591; 3947.638;  -13.443; 8231.141
846.156; 3943.356;  -13.143; 7969.179
846.720; 3825.524;   -9.433; 7768.278
847.284; 3703.670;  -11.033; 7630.957
847.848; 3577.534;  -10.403; 7472.395
848.412; 3487.476;  -11.553; 7437.394
848.976; 3536.672;   -8.393; 7674.592
849.540; 3458.284;   -8.713; 7836.011
850.104; 3565.063;  -12.463; 7913.669
850.668; 3930.487;  -12.973; 7694.508
851.232; 4031.866;  -10.793; 7756.887
851.796; 3865.240;  -10.662; 7926.545
852.359; 3561.809;  -13.082; 7827.844
852.923; 3384.309;  -12.192; 7641.163
853.487; 3188.188;  -11.912; 7342.501
854.050; 3145.133;  -10.892; 7042.820
854.614; 3301.644;  -13.992; 7151.338
855.177; 3438.596;  -11.732; 7105.077
855.741; 3473.008;   -8.962; 6989.675
856.304; 3343.541;   -9.442; 6596.634
856.868; 3288.740;  -14.192; 6356.272
857.431; 3369.411;  -12.702; 6468.571
857.995; 3470.302;   -9.942; 6373.210
858.558; 3473.293;   -9.112; 6324.448
859.121; 3199.323;  -12.932; 6408.327
859.684; 3071.428;  -13.442; 6347.886
860.247; 3188.378;  -10.632; 6321.264
860.810; 3197.061;  -11.272; 6301.903
861.374; 2941.873;   -9.832; 6607.881
861.937; 2681.827;  -11.762; 6408.200
862.500; 2672.639;   -9.722; 6572.639
863.062; 2848.736;  -10.512; 6387.297
863.625; 3020.087;  -11.232; 6190.836
864.188; 3167.829;  -14.112; 5807.254
864.751; 3224.090;  -11.302; 5682.413
865.314; 3114.380;  -10.112; 5547.492
865.876; 2896.920;  -12.182; 5500.150
866.439; 2876.534;  -10.722; 5415.909
867.002; 2831.818;   -9.252; 5501.567
867.564; 2641.042;   -9.572; 5413.946
868.127; 2423.838;  -13.142; 5160.325
868.689; 2320.915;  -12.902; 5133.183
869.252; 2224.729;   -9.732; 5252.382
869.814; 2131.794;   -9.432; 5297.141
870.377; 2134.747;  -11.552; 5390.919
870.939; 2196.232;   -9.052; 5599.898
871.501; 2263.148;  -10.982; 5248.336
872.063; 2269.396;  -12.292; 4854.235
872.626; 2227.387;  -14.912; 4817.074
873.188; 2252.239;  -13.112; 4987.732
873.750; 2220.260;  -13.442; 4868.651
874.312; 2109.189;   -9.402; 4779.330
874.874; 2017.969;  -11.062; 4866.348
875.436; 1933.942;  -13.931; 4718.887
875.998; 1926.693;   -9.561; 4660.005
876.560; 1953.766;  -11.321; 4462.964
877.122; 1895.846;  -12.221; 4145.042
877.683; 1804.326;  -12.191; 4056.481
878.245; 1737.569;  -12.101; 3950.740
878.807; 1780.706;   -8.971; 4058.958
879.369; 1805.790;  -12.071; 3954.677
879.930; 1704.621;  -14.621; 3941.495
880.492; 1632.491;  -10.311; 4067.014
881.053; 1604.179;  -10.901; 3859.633
881.615; 1506.840;  -14.411; 3776.071
882.176; 1406.947;  -13.761; 3734.750
882.738; 1351.881;   -9.181; 3678.489
883.299; 1325.135;  -11.791; 3405.407
883.860; 1324.180;  -13.121; 3351.106
884.422; 1325.405;  -11.211; 3394.044
884.983; 1285.163;  -10.091; 3166.443
885.544; 1207.495;   -8.461; 3189.802
886.105; 1124.874;  -12.361; 3160.360
886.666; 1055.851;  -14.141; 3093.059
887.227;  995.846;  -11.361; 2941.957
887.788;  931.633;  -11.401; 2974.836
888.349;  869.499;  -13.791; 2721.214
888.910;  867.367;  -13.191; 2696.493
889.471;  874.199;   -9.881; 2560.172
890.032;  858.664;   -9.881; 2558.190
890.593;  836.590;  -10.371; 2567.669
891.153;  807.504;  -13.301; 2460.307
891.714;  757.768;  -11.431; 2372.046
892.275;  718.873;  -11.291; 2309.505
892.835;  682.701;  -11.471; 2382.543
893.396;  631.117;  -11.541; 2295.502
893.956;  574.473;  -11.181; 2162.420
894.517;  536.369;  -11.741; 2125.439
895.077;  528.493;  -11.671; 2086.978
895.638;  527.649;  -11.311; 2126.316
896.198;  497.908;   -9.831; 1838.275
896.758;  453.873;   -8.421; 1892.813
897.319;  422.840;  -12.351; 1792.232
897.879;  407.039;  -13.511; 1762.751
898.439;  381.050;  -12.001; 1661.149
898.999;  357.011;  -10.180; 1781.468
899.559;  349.897;  -12.030; 1703.347
900.119;  343.668;  -15.710; 1537.525
900.679;  338.309;   -8.900; 1638.384
901.239;  324.322;   -8.340; 1527.902
901.799;  312.760;  -13.910; 1456.441
902.359;  306.556;  -13.460; 1357.140
902.919;  301.382;  -11.490; 1331.118
903.479;  287.277;  -12.110; 1317.257
904.038;  266.345;  -11.720; 1262.595
904.598;  251.518;  -13.610; 1152.034
905.158;  245.724;  -11.040; 1240.893
905.717;  239.565;  -10.900; 1233.691
906.277;  228.800;  -15.080; 1217.330
906.836;  218.849;  -13.380; 1222.408
907.396;  209.240;  -10.780; 1193.047
907.955;  202.236;   -8.500; 1182.526
908.515;  196.143;  -12.760; 1099.364
909.074;  190.851;  -11.900; 1092.863
909.633;  184.001;   -8.950; 1069.121
910.192;  179.905;   -8.770; 1196.460
910.752;  173.923;  -12.390; 1029.960
911.311;  170.423;  -13.680; 1009.780
911.870;  168.349;  -12.370;  971.460
912.429;  167.773;  -10.900; 1094.080
912.988;  167.221;  -11.690; 1081.060
913.547;  163.333;  -13.240;  940.380
914.106;  157.498;  -11.990;  999.420
914.665;  153.523;   -9.990;  984.020
915.224;  153.099;  -12.880; 1035.760
915.782;  153.738;  -12.350;  922.560
916.341;  153.634;   -9.110; 1049.840
916.900;  148.571;   -9.270;  925.260
917.458;  146.755;  -13.240;  884.220
918.017;  147.260;  -13.550;  942.600
918.576;  146.538;  -12.320;  904.440
919.134;  143.422;  -11.490;  837.980
919.693;  141.988;  -13.670;  893.060
920.251;  140.909;  -15.470;  876.500
920.809;  139.484;  -11.290;  839.580
921.368;  138.321;  -10.210;  885.360
921.926;  138.183;  -12.140;  842.940
922.484;  137.211;  -13.080;  903.360
923.042;  136.090;  -11.720;  880.340
923.601;  139.067;   -7.480;  998.680
924.159;  138.026;  -11.570;  935.560
924.717;  134.644;  -13.840;  841.080
925.275;  134.078;  -10.640;  903.240
925.833;  133.360;  -11.540;  779.320
926.391;  134.609;  -12.960;  938.380
926.949;  133.860;  -14.130;  857.680
927.506;  134.218;  -11.750;  903.500
928.064;  133.748;  -10.250;  877.580
928.622;  133.277;  -13.030;  880.100
929.180;  133.646;  -13.400;  814.180
929.737;  134.339;  -10.700;  808.540
930.295;  138.326;  -10.070;  928.480
930.853;  138.911;  -11.960;  849.100
931.410;  139.759;  -13.120;  821.120
931.968;  139.742;  -10.770;  940.660
932.525;  138.675;  -10.680;  909.380
933.082;  139.764;  -13.130;  811.440
933.640;  141.151;  -13.210;  925.900
934.197;  139.266;  -11.060;  886.360
934.754;  138.883;   -9.580;  897.780
935.312;  141.691;  -14.000;  863.340
935.869;  147.348;  -10.710; 1012.980
936.426;  147.385;   -9.860;  872.800
936.983;  148.344;   -9.710;  889.020
937.540;  148.181;  -13.990;  838.280
938.097;  147.278;  -14.040;  940.120
938.654;  146.785;  -10.310;  898.860
939.211;  149.270;  -10.560;  952.480
939.768;  153.220;  -13.900;  915.420
940.324;  157.143;  -14.760;  904.200
940.881;  158.257;  -10.370;  878.500
941.438;  158.708;   -8.260; 1021.200
941.995;  154.859;  -12.540;  992.560
942.551;  152.945;  -14.670;  875.620
943.108;  152.105;  -10.450;  937.920
943.664;  154.652;  -10.750;  869.340
944.221;  158.750;  -11.550; 1088.140
944.777;  156.060;  -14.770;  869.680
945.334;  156.525;  -12.820;  884.840
945.890;  158.337;  -10.130;  946.480
946.446;  158.947;  -13.470;  947.020
947.003;  161.737;  -12.120;  964.940
947.559;  163.882;   -9.980; 1063.040
948.115;  162.662;   -9.080; 1026.540
948.671;  160.718;  -10.830;  967.300
949.227;  157.987;  -12.440;  859.560
949.783;  155.851;  -12.910;  858.900
950.339;  157.573;  -10.270;  991.000
950.895;  157.139;  -13.630; 1023.840
951.451;  156.391;  -15.100;  925.280
952.007;  156.898;  -11.330;  998.540
952.563;  157.664;  -10.580;  937.780
953.118;  156.659;  -13.440;  904.940
953.674;  157.086;  -12.710;  935.780
954.230;  157.236;  -10.350;  949.640
954.785;  154.514;   -9.190;  936.640
955.341;  151.703;  -11.200;  998.160
955.897;  150.535;  -16.560;  834.660
956.452;  152.197;  -12.570;  953.840
957.008;  150.137;   -7.970; 1083.640
957.563;  147.449;  -11.940; 1009.540
958.118;  143.001;  -13.450;  877.700
958.674;  143.427;  -12.030;  946.780
959.229;  144.488;   -9.410; 1013.980
959.784;  142.127;  -12.000;  832.400
960.339;  141.711;  -14.780; 1001.280
960.894;  139.673;   -9.860;  963.760
961.449;  134.953;   -9.970;  859.960
962.004;  135.981;  -10.900; 1212.840
962.559;  130.175;  -13.150;  860.140
963.114;  127.368;  -13.740;  742.480
963.669;  126.568;   -9.820;  915.500
964.224;  125.347;  -13.890;  874.340
964.779;  124.529;  -12.600;  828.420
965.334;  125.408;  -10.950; 1017.860
965.888;  124.846;  -11.170;  875.360
966.443;  129.266;  -12.540;  972.380
966.998;  128.605;  -15.780;  819.460
967.552;  128.633;   -9.760;  908.380
968.107;  123.457;   -9.060;  868.300
968.661;  124.305;  -11.950;  922.440
969.216;  125.400;  -12.800;  856.280
969.770;  125.262;  -11.210;  917.200
970.324;  124.312;  -11.610;  923.140
970.879;  123.098;  -11.370;  947.180
971.433;  120.579;  -12.540;  952.720
971.987;  114.658;  -11.320;  895.340
972.541;  107.376;  -10.720;  917.100
973.095;  101.397;   -9.680; 1009.460
973.649;   92.154;  -11.440;  809.480
974.203;   85.192;  -11.210;  829.040
974.757;   81.586;  -10.240;  855.220
975.311;   81.891;  -13.720;  872.600
975.865;   84.339;  -13.770;  881.820
976.419;   84.878;  -11.690;  857.400
976.973;   86.885;   -9.510;  849.620
977.526;   89.958;  -12.620;  949.920
978.080;   90.439;  -12.010;  796.780
978.634;   92.733;  -10.170;  921.320
979.187;   90.513;   -9.020;  905.400
979.741;   89.871;   -9.820; 1018.380
980.294;   85.343;  -14.870;  789.160
980.848;   83.800;  -12.380;  717.220
981.401;   85.853;  -10.350;  816.540
981.955;   88.867;  -13.720;  844.300
982.508;   88.311;  -11.490;  746.340
983.061;   88.590;  -10.000;  915.260
983.615;   84.789;  -11.480;  798.800
984.168;   82.176;  -13.220;  770.080
984.721;   82.264;  -13.960;  880.760
985.274;   82.104;  -10.870;  867.500
985.827;   80.870;   -9.790;  834.220
986.380;   78.426;  -13.120;  721.340
986.933;   78.147;  -12.450;  864.800
987.486;   75.761;  -10.210;  861.920
988.039;   75.723;   -8.430;  863.100
988.591;   73.666;  -10.520;  893.260
989.144;   72.062;  -14.860;  737.260
989.697;   70.463;  -13.080;  758.740
990.250;   71.793;  -10.150;  858.100
990.802;   71.082;  -13.430;  755.860
991.355;   71.809;  -12.750;  974.880
991.907;   69.711;  -12.040;  864.320
992.460;   67.612;  -11.330;  753.760
993.012;   66.715;  -13.610;  749.540
993.565;   65.258;  -13.460;  711.360
994.117;   67.314;   -9.360;  950.780
994.669;   63.877;  -11.300;  701.320
995.221;   62.783;  -13.540;  791.920
995.774;   60.876;  -13.430;  787.580
996.326;   59.153;  -12.520;  740.220
996.878;   59.166;  -10.950;  838.420
997.430;   56.395;  -14.300;  699.860
997.982;   55.880;  -13.760;  750.140
998.534;   53.552;  -11.530;  739.060
999.086;   51.367;  -10.310;  738.220
999.638;   49.977;  -12.530;  661.380
1000.190;   49.475;  -11.840;  699.320
1000.741;   48.757;  -10.260;  742.700
1001.293;   48.717;   -8.860;  686.020
1001.845;   48.508;  -13.700;  676.640
1002.396;   49.353;  -12.100;  743.400
1002.948;   49.248;  -12.760;  737.400
1003.500;   46.206;  -10.380;  723.780
1004.051;   47.155;  -11.900;  907.580
1004.603;   46.002;  -12.250;  791.820
1005.154;   42.878;  -13.210;  608.980
1005.705;   42.036;  -10.950;  723.960
1006.257;   41.976;  -13.880;  707.220
1006.808;   40.680;  -12.840;  685.460
1007.359;   39.903;  -10.570;  763.240
1007.910;   39.130;   -9.620;  646.640
1008.461;   39.846;  -13.630;  732.940
1009.013;   38.251;  -17.200;  588.340
1009.564;   39.751;  -10.200;  793.520
1010.115;   37.717;  -12.570;  597.040
1010.665;   36.978;  -15.150;  602.160
1011.216;   37.092;  -14.480;  667.920
1011.767;   36.653;  -11.340;  697.920
1012.318;   36.037;   -9.780;  736.980
1012.869;   35.818;  -12.380;  679.000
1013.419;   35.256;  -15.560;  603.120
1013.970;   35.597;  -11.010;  666.640
1014.521;   34.264;  -11.610;  620.620
1015.071;   35.061;  -13.450;  670.380
1015.622;   34.518;  -13.870;  635.460
1016.172;   33.918;  -11.610;  596.820
1016.723;   33.684;  -12.120;  614.380
1017.273;   32.848;  -13.620;  604.160
1017.823;   33.999;  -14.140;  650.340
1018.374;   32.750;  -12.800;  611.760
1018.924;   32.654;  -12.340;  716.880
1019.474;   33.399;  -11.410;  718.880
1020.024;   32.014;  -14.770;  657.580
1020.574;   32.832;   -9.780;  726.160
1021.124;   32.726;   -8.560;  673.580
1021.674;   30.499;  -15.190;  559.120
1022.224;   32.839;  -13.530;  708.940
1022.774;   31.759;  -13.280;  668.820
1023.324;   31.905;  -10.690;  753.520
1023.874;   32.386;  -10.240;  875.760
1024.423;   31.129;  -12.540;  613.700
1024.973;   30.582;  -10.010;  610.760
1025.523;   29.715;  -10.550;  620.960
1026.072;   28.830;  -13.560;  606.420
1026.622;   30.018;  -15.120;  675.740
1027.172;   30.263;  -11.260;  715.660
1027.721;   28.787;  -11.410;  601.220
1028.270;   29.306;  -13.530;  663.400
1028.820;   29.555;  -13.680;  638.080
1029.369;   28.856;  -13.520;  612.700
1029.918;   28.429;  -10.980;  649.840
1030.468;   28.972;  -13.530;  564.780
1031.017;   29.178;  -13.170;  634.800
1031.566;   27.274;  -12.200;  608.900
1032.115;   27.920;   -9.960;  694.500
1032.664;   27.208;  -13.210;  596.480
1033.213;   28.071;  -12.500;  735.420
1033.762;   27.437;  -11.910;  635.620
1034.311;   27.139;   -9.640;  677.220
1034.860;   27.347;  -13.310;  691.000
1035.408;   27.246;  -11.830;  722.720
1035.957;   27.211;  -12.000;  719.540
1036.506;   25.006;  -11.690;  530.800
1037.055;   27.495;  -10.990;  844.320
1037.603;   26.825;  -15.120;  664.000
1038.152;   24.821;  -12.450;  534.760
1038.700;   24.550;  -10.560;  585.740
1039.249;   24.998;  -11.080;  681.220
1039.797;   25.825;  -12.540;  633.360
1040.345;   26.294;  -11.920;  705.420
1040.894;   24.744;  -11.410;  625.300
1041.442;   24.567;  -14.320;  632.200
1041.990;   23.911;  -16.240;  559.160
1042.538;   23.667;  -11.680;  536.180
1043.087;   23.542;  -10.760;  570.860
1043.635;   24.719;  -11.850;  670.500
1044.183;   24.342;  -15.480;  586.400
1044.731;   23.742;  -11.770;  576.000
1045.279;   23.423;  -13.090;  674.920
1045.827;   24.555;  -12.440;  892.400
1046.374;   22.557;  -13.840;  515.420
1046.922;   21.852;  -13.220;  590.580
1047.470;   23.335;  -10.230;  691.300
1048.018;   23.226;  -14.590;  647.960
1048.565;   24.093;  -12.050;  708.600
1049.113;   22.011;  -11.650;  557.000
1049.660;   21.650;  -10.510;  629.660
1050.208;   21.789;  -13.310;  675.640
1050.755;   21.413;  -15.900;  606.580
1051.303;   23.063;  -11.430;  686.820
1051.850;   21.168;   -8.480;  635.120
1052.397;   20.712;  -15.010;  473.960
1052.945;   20.412;  -13.960;  617.760
1053.492;   22.464;  -13.150;  741.840
1054.039;   21.475;   -9.630;  720.180
1054.586;   19.781;  -13.680;  557.240
1055.133;   21.367;  -14.570;  693.140
1055.680;   21.328;  -13.820;  646.620
1056.227;   19.807;  -11.730;  542.780
1056.774;   21.388;  -12.480;  794.980
1057.321;   20.066;  -13.930;  523.260
1057.868;   19.451;  -11.690;  651.320
1058.415;   18.927;   -9.520;  651.980
1058.961;   20.051;  -13.160;  678.940
1059.508;   19.846;  -12.920;  643.820
1060.055;   20.005;  -11.920;  581.780
1060.601;   19.503;  -11.500;  624.300
1061.148;   18.890;  -14.330;  616.820
1061.694;   19.238;  -16.870;  592.580
1062.241;   18.916;  -10.330;  596.320
1062.787;   18.722;  -10.620;  663.140
1063.334;   19.989;  -10.110;  808.560
1063.880;   19.257;  -13.400;  668.360
1064.426;   18.325;  -10.680;  706.820
1064.972;   17.855;   -9.920;  601.340
1065.518;   16.530;  -10.980;  566.640
1066.065;   18.929;  -14.890;  624.460
1066.611;   17.461;  -12.870;  598.800
1067.157;   17.541;  -12.950;  641.860
1067.703;   17.527;  -13.540;  668.480
1068.249;   17.190;  -13.540;  605.220
1068.794;   17.405;  -12.600;  626.880
1069.340;   15.602;  -10.620;  578.960
1069.886;   16.832;  -12.830;  590.700
1070.432;   16.345;  -14.870;  541.720
1070.977;   16.465;  -11.980;  601.080
1071.523;   15.695;   -8.200;  573.060
1072.068;   16.712;  -12.330;  582.000
1072.614;   16.080;  -16.370;  527.760
1073.160;   17.008;  -11.100;  687.040
1073.705;   15.905;  -10.480;  572.520
1074.250;   14.975;  -14.520;  559.900
1074.796;   16.930;  -11.460;  655.160
1075.341;   17.053;  -11.950;  664.100
1075.886;   15.637;  -11.460;  594.240
1076.431;   14.967;  -13.770;  649.880
1076.976;   15.334;  -12.680;  639.220
1077.521;   14.947;  -13.170;  583.080
1078.067;   14.448;  -10.860;  579.400
1078.612;   14.730;  -13.920;  661.620
1079.156;   14.859;  -13.880;  601.540
1079.701;   15.918;  -13.120;  693.260
1080.246;   14.589;   -9.940;  696.300
1080.791;   14.856;  -14.740;  625.020
1081.336;   14.829;  -13.750;  659.320
1081.880;   14.846;  -13.400;  649.680
1082.425;   12.780;  -12.220;  573.480
1082.970;   14.937;  -11.610;  717.040
1083.514;   13.591;  -13.580;  597.000
1084.059;   13.667;  -12.810;  586.720
1084.603;   12.743;  -12.320;  565.840
1085.147;   13.665;  -13.190;  645.220
1085.692;   14.689;  -12.480;  716.800
1086.236;   12.557;  -13.020;  503.140
1086.780;   14.334;   -9.190;  751.440
1087.325;   12.754;  -12.480;  654.620
1087.869;   13.078;  -12.450;  610.700
1088.413;   14.073;  -12.240;  705.040
1088.957;   11.323;   -9.020;  543.400
1089.501;   13.578;  -10.320;  766.640
1090.045;   13.173;  -12.720;  726.480
1090.589;   11.304;  -13.690;  569.920
1091.133;   11.928;  -10.020;  673.340
1091.676;   12.106;  -12.330;  591.940
1092.220;   12.807;  -14.970;  600.920
1092.764;   13.447;  -12.430;  706.960
1093.307;   12.533;   -9.800;  673.780
1093.851;    9.949;  -14.970;  556.540
1094.395;   12.156;  -15.310;  683.140
1094.938;   11.354;  -10.370;  632.520
1095.482;   10.891;  -11.050;  559.800
1096.025;   11.287;  -11.840;  710.880
1096.568;   11.940;  -12.840;  779.280
1097.112;    9.394;  -14.700;  508.180
1097.655;   10.968;   -8.720;  603.000
1098.198;    9.992;  -13.610;  600.180
1098.741;   10.329;  -13.350;  612.860
1099.285;   11.183;  -11.230;  657.300
1099.828;    8.617;  -11.840;  439.400
1100.371;   10.779;  -10.840;  608.160
1100.914;   10.633;  -14.190;  682.660
1101.457;   10.988;  -11.240;  679.900
1101.999;    8.888;  -11.270;  584.680
1102.542;   10.513;  -11.480;  641.440
1103.085;    9.860;  -11.750;  658.500
1103.628;   10.581;  -11.400;  762.060
1104.170;    9.673;  -10.490;  588.280
1104.713;    9.503;  -10.600;  646.700
1105.256;    8.653;  -14.360;  557.440
1105.798;    8.840;  -13.210;  499.980
1106.341;    9.859;  -10.270;  728.900
1106.883;    8.105;  -12.200;  521.340
1107.425;    8.736;  -13.110;  668.180
1107.968;    8.951;  -12.840;  612.380
1108.510;    9.198;   -6.480;  684.960
1109.052;    7.531;  -13.940;  612.620
1109.594;    8.749;  -13.690;  554.440
1110.136;    9.116;  -11.880;  643.220
1110.679;    8.061;   -9.500;  633.080
1111.221;    7.899;  -14.160;  604.460
1111.763;    8.331;  -13.980;  559.220
1112.304;    7.816;  -13.880;  547.140
1112.846;    8.464;  -12.210;  666.240
1113.388;   10.327;  -11.390;  942.180
1113.930;    7.977;  -14.540;  694.200
1114.472;    7.070;  -12.640;  606.540
1115.013;    5.770;  -11.620;  551.280
1115.555;    6.815;  -13.640;  587.100
1116.097;    6.262;  -15.380;  579.480
1116.638;    7.155;  -12.640;  684.600
1117.180;    7.352;   -9.850;  667.740
1117.721;    6.843;  -13.690;  568.580
1118.262;    7.436;  -12.680;  677.960
1118.804;    7.484;  -12.530;  637.340
1119.345;    5.730;  -11.690;  578.400
1119.886;    7.378;  -13.380;  704.040
1120.427;    6.209;  -14.070;  589.020
1120.969;    5.641;  -13.500;  597.920
1121.510;    4.846;  -11.480;  563.060
1122.051;    6.882;  -12.830;  723.580
1122.592;    5.816;  -14.290;  655.420
1123.133;    4.660;  -12.400;  547.940
1123.673;    6.281;  -10.130;  706.480
1124.214;    5.691;  -12.930;  612.460
1124.755;    6.797;  -14.380;  639.460
1125.296;    6.114;  -14.000;  627.320
1125.836;    5.823;  -10.070;  691.500
1126.377;    4.736;  -12.640;  599.660
1126.918;    6.113;  -12.960;  614.980
1127.458;    5.262;  -13.350;  622.220
1127.999;    5.584;  -10.750;  656.980
1128.539;    5.621;  -12.350;  694.240
1129.079;    5.253;  -14.860;  632.720
1129.620;    4.799;  -13.840;  558.100
1130.160;    3.623;  -12.330;  539.480
1130.700;    4.796;  -14.530;  640.840
1131.240;    5.629;  -12.530;  643.700
1131.781;    4.068;  -14.450;  619.680
1132.321;    4.121;   -9.790;  599.120
1132.861;    3.375;  -14.860;  564.200
1133.401;    3.500;  -14.290;  593.940
1133.941;    4.333;  -11.750;  626.280
1134.481;    2.713;   -9.920;  597.580
1135.020;    3.626;  -12.290;  609.160
1135.560;    3.893;  -11.650;  674.940
1136.100;    3.283;  -16.270;  501.160
1136.640;    2.829;  -10.890;  510.480
1137.179;    2.711;  -14.180;  537.960
1137.719;    3.560;  -16.250;  605.400
1138.258;    3.327;  -14.230;  587.360
1138.798;    3.541;   -9.090;  663.780
1139.337;    1.323;  -15.130;  482.840
1139.877;    3.448;  -13.680;  642.360
1140.416;    5.216;  -11.320;  878.060
1140.955;    2.737;  -10.860;  535.380
1141.494;    3.201;  -12.920;  669.280
1142.034;    2.742;  -13.930;  583.520
1142.573;    4.123;  -11.440;  646.280
1143.112;    2.222;  -12.000;  553.480
1143.651;    2.567;  -13.670;  536.480
1144.190;    2.781;  -12.730;  691.640
1144.729;    2.684;  -14.560;  607.420
1145.267;    2.178;  -11.830;  584.900
1145.806;    2.626;  -12.230;  637.040
1146.345;    1.576;  -14.130;  635.020
1146.884;    2.290;  -11.590;  622.500
1147.422;    1.624;  -12.550;  533.060
1147.961;    2.944;  -11.180;  708.460
1148.500;    3.097;  -11.510;  669.720
1149.038;    2.544;  -11.640;  632.500
1149.577;    2.217;  -10.130;  698.640
1150.115;   -0.592;  -13.970;  452.280
1150.653;    2.438;  -14.520;  607.340
1151.192;    2.377;  -12.810;  552.920
1151.730;    1.017;   -9.100;  652.560
1152.268;    0.831;  -12.220;  589.520
1152.806;    1.452;  -14.140;  571.180
1153.344;    0.615;  -12.350;  577.640
1153.882;    1.280;   -8.980;  600.060
1154.421;    0.038;  -15.190;  470.620
1154.958;    0.279;  -15.210;  595.240
1155.496;    1.843;  -12.850;  645.280
1156.034;    0.918;   -9.940;  721.880
1156.572;    1.576;  -13.570;  667.060
1157.110;   -0.065;  -14.590;  473.940
1157.647;    1.451;  -13.030;  676.960
1158.185;   -0.082;  -12.140;  564.320
1158.723;   -0.472;  -14.390;  509.200
1159.260;    0.392;  -14.090;  701.700
1159.798;    0.528;  -11.920;  658.160
1160.335;    0.303;  -11.110;  631.820

