
Integration time [ms]:   3.276
Averaging Nr. [scans]: 1000
Smoothing Nr. [pixels]: 0
Data measured with spectrometer [name]: 7414430SP
Wave   ;Sample   ;Dark     ;Reference
[nm]   ;[counts] ;[counts] ;[counts] 

288.544;  159.264;    7.793;  793.890
289.143;  163.129;    7.462;  681.602
289.742;  164.188;    8.602;  828.814
290.341;  150.753;    1.321;  789.841
290.940;  139.188;   -0.709;  730.702
291.538;  142.849;    0.881;  881.108
292.137;  141.657;    0.122;  792.581
292.736;  144.394;   -1.929;  975.101
293.335;  139.913;   -8.229;  735.086
293.934;  141.406;   -5.279;  781.677
294.532;  142.651;   -1.369; 1031.958
295.131;  128.587;   -7.641;  834.394
295.730;  127.861;   -8.420;  809.588
296.328;  125.200;   -5.611;  783.442
296.927;  125.708;   -5.781;  779.652
297.525;  127.300;   -6.361;  781.236
298.124;  117.841;  -11.382;  654.009
298.722;  123.186;   -7.641;  761.933
299.321;  119.149;   -6.811;  708.597
299.919;  115.783;   -6.991;  751.918
300.518;  112.484;  -10.362;  689.338
301.116;  115.441;   -9.581;  691.381
301.715;  115.788;   -4.891;  730.222
302.313;  112.791;   -8.801;  704.943
302.911;  107.996;   -8.522;  733.830
303.509;  112.799;   -6.171;  925.627
304.108;  112.519;   -7.311;  760.383
304.706;  111.283;   -8.321;  801.664
305.304;  104.522;  -10.222;  796.707
305.902;  110.259;   -6.021;  784.484
306.500;  105.947;   -4.971;  728.200
307.098;  104.248;   -7.061;  746.560
307.696;  102.463;   -8.801;  780.432
308.294;  102.830;   -6.411;  731.359
308.892;  105.701;   -2.901;  759.769
309.490;  100.737;   -5.041;  712.161
310.088;   98.570;   -5.002;  788.444
310.686;  103.323;   -2.041;  821.749
311.284;   99.141;   -2.351;  766.040
311.882;   97.016;   -4.422;  731.225
312.480;   93.233;   -4.192;  697.167
313.078;   95.709;   -1.172;  808.331
313.675;   96.324;   -2.601;  691.600
314.273;   90.728;   -1.312;  797.837
314.871;   88.619;   -3.942;  589.829
315.468;   88.252;   -2.802;  652.090
316.066;   90.529;   -0.701;  694.427
316.664;   83.137;   -4.362;  656.351
317.261;   86.685;   -2.872;  910.128
317.859;   83.417;   -2.022;  768.735
318.456;   84.104;   -0.531;  830.096
319.054;   79.436;   -3.912;  787.828
319.651;   77.522;   -4.752;  759.928
320.249;   76.488;   -2.602;  810.188
320.846;   74.314;   -0.821;  714.286
321.443;   71.631;   -4.642;  832.135
322.041;   68.405;   -5.002;  812.315
322.638;   66.895;   -3.982;  701.456
323.235;   67.298;   -3.411;  665.683
323.833;   64.588;   -7.361;  740.354
324.430;   59.262;   -8.611;  615.900
325.027;   60.387;   -4.061;  876.855
325.624;   60.906;   -4.031;  644.532
326.221;   57.294;   -7.481;  689.717
326.818;   56.901;   -5.281;  818.332
327.415;   59.524;   -7.460;  748.828
328.012;   59.201;   -5.510;  690.585
328.609;   57.876;   -7.880;  731.389
329.206;   54.960;   -8.331;  778.621
329.803;   55.467;   -5.121;  737.841
330.400;   58.625;   -4.510;  704.260
330.997;   59.165;   -6.441;  817.147
331.594;   56.744;   -8.831;  788.185
332.191;   63.398;   -7.621;  728.722
332.787;   67.023;   -4.591;  844.463
333.384;   66.567;   -7.412;  763.093
333.981;   64.924;   -8.293;  815.687
334.578;   68.246;   -7.052;  708.378
335.174;   69.968;   -3.102;  731.469
335.771;   68.723;   -5.943;  836.456
336.367;   66.631;   -7.393;  710.631
336.964;   71.026;   -4.063;  793.266
337.561;   69.448;   -3.813;  731.112
338.157;   64.780;   -4.654;  911.916
338.754;   63.044;   -7.934;  796.589
339.350;   62.418;   -4.414;  722.493
339.946;   63.488;   -4.664;  773.135
340.543;   55.478;   -6.375;  846.136
341.139;   48.168;   -9.815;  720.836
341.735;   46.332;   -4.526;  772.593
342.332;   45.795;   -4.895;  691.472
342.928;   45.610;   -4.295;  795.394
343.524;   37.749;   -5.476;  761.684
344.120;   35.181;   -5.856;  738.562
344.716;   39.190;   -2.155;  723.717
345.313;   35.565;   -6.275;  795.342
345.909;   30.536;   -8.815;  627.336
346.505;   31.705;   -5.305;  740.247
347.101;   32.871;   -2.674;  827.864
347.697;   33.296;   -4.344;  785.398
348.293;   27.390;   -9.975;  627.244
348.889;   27.997;   -5.774;  745.914
349.485;   27.814;   -5.004;  688.205
350.081;   28.462;   -4.704;  772.592
350.676;   23.026;   -6.635;  691.606
351.272;   27.219;   -4.504;  809.530
351.868;   27.590;   -3.914;  780.497
352.464;   24.349;   -9.044;  723.932
353.059;   20.287;   -8.314;  646.017
353.655;   24.018;   -7.024;  777.063
354.251;   24.947;   -5.343;  759.845
354.846;   18.744;   -8.604;  740.646
355.442;   16.507;   -6.945;  753.071
356.038;   19.009;   -7.564;  751.708
356.633;   19.294;   -5.814;  728.594
357.229;   17.115;   -7.364;  724.757
357.824;   14.889;   -8.024;  703.600
358.420;   14.795;   -9.384;  679.726
359.015;   14.754;   -5.104;  695.357
359.610;   15.075;   -6.854;  763.920
360.206;    9.183;  -10.185;  603.240
360.801;   12.770;   -7.054;  646.503
361.396;   14.281;   -5.034;  725.975
361.992;    9.862;   -8.284;  668.220
362.587;    7.292;   -8.625;  670.160
363.182;    8.610;   -7.674;  689.631
363.777;   10.062;   -5.164;  738.242
364.372;    9.526;   -8.604;  737.314
364.967;    5.036;   -9.055;  680.744
365.563;    9.985;   -6.114;  815.567
366.158;    6.948;   -5.814;  685.161
366.753;    7.447;   -7.854;  649.263
367.348;    5.516;   -7.804;  746.056
367.942;    5.653;   -7.954;  697.298
368.537;    4.969;   -4.984;  754.245
369.132;    5.078;   -8.564;  703.428
369.727;    0.921;   -8.855;  638.079
370.322;    1.868;   -6.245;  580.186
370.917;    1.838;   -6.425;  710.646
371.511;    4.054;   -6.294;  861.834
372.106;    0.210;   -7.685;  776.964
372.701;   -3.117;   -7.335;  585.988
373.296;    2.744;   -4.564;  863.135
373.890;   -2.065;  -10.235;  647.840
374.485;   -4.547;   -7.885;  691.199
375.079;    0.225;   -7.324;  738.685
375.674;    1.441;   -3.494;  812.970
376.268;   -3.285;   -8.525;  691.759
376.863;   -8.636;  -10.086;  580.327
377.457;   -2.721;   -7.025;  662.490
378.052;   -4.206;   -3.585;  764.884
378.646;   -4.995;   -7.595;  741.167
379.240;   -6.147;   -8.335;  721.176
379.835;   -5.055;   -5.785;  636.978
380.429;   -6.384;   -4.335;  562.557
381.023;   -7.062;   -6.805;  779.205
381.617;   -9.593;   -9.195;  680.106
382.212;   -5.677;   -6.905;  685.303
382.806;   -5.264;   -3.745;  760.690
383.400;   -9.042;   -7.745;  672.281
383.994;  -10.975;   -9.765;  664.870
384.588;   -6.312;   -6.564;  697.701
385.182;   -4.840;   -5.344;  726.624
385.776;   -6.677;   -8.514;  706.875
386.370;  -10.444;   -9.555;  681.968
386.964;   -8.657;   -8.715;  684.155
387.558;   -7.536;   -6.174;  598.360
388.152;  -11.397;   -8.725;  681.959
388.745;   -9.550;   -7.965;  814.707
389.339;   -7.293;   -5.924;  747.642
389.933;   -5.628;   -5.524;  695.370
390.527;   -7.302;   -7.114;  859.029
391.120;  -14.106;  -10.725;  595.318
391.714;  -11.455;   -8.035;  711.633
392.308;   -7.281;   -3.574;  780.253
392.901;  -11.384;   -7.245;  642.460
393.495;  -14.338;   -9.285;  595.414
394.089;  -11.364;   -5.895;  760.452
394.682;  -11.959;   -4.295;  697.188
395.275;  -11.861;   -9.875;  719.927
395.869;  -14.201;   -8.485;  667.314
396.462;  -11.554;   -7.455;  616.609
397.056;   -8.096;   -5.424;  776.621
397.649;  -13.274;   -6.605;  731.575
398.242;  -10.532;   -8.224;  712.645
398.836;  -10.218;   -7.474;  766.408
399.429;  -11.013;   -7.094;  631.041
400.022;  -14.206;   -9.475;  665.902
400.615;  -12.221;   -7.145;  805.609
401.208;   -9.629;   -7.174;  691.451
401.802;  -12.014;   -5.515;  699.329
402.395;  -12.903;   -9.875;  683.502
402.988;  -14.531;   -8.845;  696.627
403.581;  -10.935;   -8.874;  646.878
404.174;   -8.365;   -5.324;  686.568
404.767;  -11.913;   -9.575;  638.583
405.360;  -14.198;  -10.965;  621.445
405.953;   -9.379;   -8.764;  759.034
406.545;   -7.688;   -7.514;  725.342
407.138;  -12.358;  -10.025;  618.350
407.731;  -12.025;  -10.034;  613.303
408.324;   -7.798;   -9.374;  660.554
408.917;   -7.816;   -6.534;  681.864
409.509;  -10.065;   -8.004;  740.396
410.102;  -12.340;   -9.875;  643.948
410.695;   -6.014;   -8.604;  665.758
411.287;   -6.960;   -6.794;  599.821
411.880;   -7.921;   -9.334;  585.421
412.472;  -12.345;  -10.254;  613.092
413.065;   -8.333;   -6.714;  629.408
413.657;   -6.188;   -7.234;  576.678
414.250;   -6.507;  -10.544;  646.681
414.842;   -8.689;   -9.744;  676.353
415.434;   -5.365;   -6.994;  570.463
416.027;   -2.092;   -5.893;  652.196
416.619;   -4.640;   -7.264;  713.400
417.211;   -5.121;  -10.374;  599.352
417.804;   -0.450;   -7.993;  628.499
418.396;   -4.767;   -7.234;  607.643
418.988;   -3.338;   -9.443;  659.238
419.580;   -6.766;  -10.724;  568.276
420.172;   -3.858;  -10.323;  536.196
420.764;    0.152;   -8.793;  672.482
421.356;   -0.411;  -11.143;  636.898
421.948;   -2.451;   -8.293;  677.661
422.540;    3.084;   -7.893;  680.027
423.132;    2.622;   -7.082;  600.641
423.724;   -0.171;   -8.653;  561.267
424.316;    0.901;  -10.213;  621.345
424.908;    4.905;   -9.762;  591.517
425.500;    5.403;   -5.572;  647.978
426.092;    5.905;   -8.422;  648.268
426.683;    4.832;   -9.283;  684.836
427.275;    7.919;   -7.852;  641.471
427.867;    9.203;   -5.272;  668.948
428.458;    9.323;   -7.682;  732.344
429.050;    8.063;  -10.612;  680.749
429.642;   10.176;   -9.882;  743.124
430.233;   11.288;   -6.962;  569.356
430.825;   12.143;   -6.842;  724.809
431.416;    9.018;   -9.672;  698.241
432.008;   13.110;   -6.552;  651.723
432.599;   14.109;   -6.891;  656.073
433.190;   10.812;  -10.912;  637.670
433.782;    9.123;  -11.172;  590.395
434.373;   17.679;   -6.061;  884.765
434.964;   16.762;   -8.251;  602.920
435.556;   14.013;   -9.722;  634.537
436.147;   16.226;   -9.082;  758.490
436.738;   16.893;   -8.041;  701.099
437.329;   22.511;   -7.341;  721.723
437.920;   14.202;   -8.162;  666.688
438.511;   14.563;  -11.802;  564.526
439.103;   21.506;  -10.191;  623.998
439.694;   23.124;   -7.601;  681.583
440.285;   24.216;   -8.541;  764.432
440.876;   21.205;   -9.751;  845.738
441.466;   21.735;   -9.401;  575.162
442.057;   27.230;   -7.760;  665.814
442.648;   25.117;   -9.971;  746.255
443.239;   23.277;  -11.001;  620.477
443.830;   28.424;   -7.990;  704.958
444.421;   30.057;   -7.910;  655.474
445.011;   27.417;   -8.131;  693.619
445.602;   26.707;   -7.111;  743.126
446.193;   29.020;  -10.920;  488.117
446.783;   32.853;   -6.500;  640.397
447.374;   28.874;   -8.671;  692.759
447.964;   27.917;  -10.781;  713.770
448.555;   37.742;   -9.650;  822.742
449.145;   33.682;   -8.660;  662.853
449.736;   35.380;   -8.990;  803.179
450.326;   34.658;   -9.500;  713.626
450.917;   39.523;   -8.680;  675.324
451.507;   38.671;   -7.520;  600.661
452.097;   39.596;   -8.590;  746.267
452.688;   40.022;  -11.340;  742.160
453.278;   39.641;  -10.100;  566.840
453.868;   45.505;   -6.019;  793.550
454.458;   42.935;   -9.440;  651.141
455.048;   42.491;  -10.560;  711.783
455.639;   44.463;  -11.799;  567.096
456.229;   48.152;   -6.899;  710.694
456.819;   50.740;   -7.389;  751.158
457.409;   49.765;  -11.119;  773.993
457.999;   53.294;   -9.289;  737.505
458.589;   53.530;   -6.139;  686.606
459.179;   53.733;   -8.729;  717.658
459.769;   50.573;   -9.789;  627.099
460.358;   55.589;  -10.259;  797.262
460.948;   56.063;   -7.299;  689.503
461.538;   57.219;  -10.289;  660.677
462.128;   54.647;  -11.269;  664.934
462.717;   61.748;   -9.368;  710.326
463.307;   65.296;   -7.908;  705.846
463.897;   61.357;   -9.599;  656.942
464.486;   59.622;   -9.769;  837.128
465.076;   65.346;   -8.048;  733.776
465.666;   68.083;   -9.358;  652.900
466.255;   65.565;   -7.919;  785.651
466.845;   63.871;  -11.689;  666.749
467.434;   68.003;   -7.818;  725.873
468.023;   69.543;   -7.678;  658.357
468.613;   66.809;  -10.939;  713.946
469.202;   70.954;  -10.118;  646.507
469.791;   74.908;   -9.108;  737.811
470.381;   77.386;   -6.058;  742.813
470.970;   76.527;  -10.428;  711.099
471.559;   76.620;  -10.268;  733.291
472.148;   79.254;   -8.448;  675.737
472.738;   82.831;   -6.917;  765.466
473.327;   82.104;  -11.978;  637.529
473.916;   80.384;  -11.888;  737.446
474.505;   85.545;   -9.437;  751.703
475.094;   89.019;   -6.747;  806.570
475.683;   88.754;   -9.367;  797.699
476.272;   89.076;  -12.637;  730.632
476.861;   91.675;  -10.027;  706.754
477.449;   98.410;   -8.716;  728.487
478.038;   92.242;   -9.577;  692.513
478.627;   93.217;   -9.718;  714.852
479.216;  100.738;   -8.947;  769.441
479.805;  102.750;   -6.256;  783.375
480.393;  102.505;   -7.937; 1008.945
480.982;  101.659;   -7.717;  874.501
481.571;  108.871;   -9.266;  858.333
482.159;  109.723;   -7.636;  705.386
482.748;  108.931;   -9.667;  821.385
483.336;  113.538;  -10.376;  858.209
483.925;  114.614;   -7.147;  774.373
484.513;  121.213;   -7.996;  758.962
485.102;  118.536;  -10.027;  810.965
485.690;  126.352;  -10.446; 1011.050
486.278;  128.334;   -8.446;  979.329
486.867;  129.658;   -6.356;  809.662
487.455;  131.029;   -9.136;  898.229
488.043;  131.654;  -10.646;  748.361
488.631;  141.650;   -7.456; 1005.079
489.220;  145.142;   -6.636;  908.626
489.808;  145.553;  -11.036;  741.415
490.396;  152.587;  -10.246;  914.645
490.984;  160.155;   -8.556;  830.161
491.572;  170.902;   -5.886;  940.315
492.160;  178.888;   -9.486;  919.081
492.748;  189.973;  -10.976;  884.341
493.336;  213.708;   -8.776; 1019.693
493.924;  240.188;   -5.465;  958.077
494.512;  269.186;   -9.986; 1066.638
495.100;  315.492;  -10.636; 1103.280
495.687;  376.456;  -10.885; 1206.373
496.275;  435.361;   -8.126; 1150.796
496.863;  505.551;  -10.586; 1281.171
497.451;  616.331;  -11.926; 1386.805
498.038;  721.774;  -10.885; 1556.729
498.626;  824.783;   -6.315; 1741.407
499.214;  988.087;   -7.326; 2016.609
499.801; 1182.808;  -11.906; 2220.633
500.389; 1395.613;  -10.466; 2312.494
500.976; 1666.898;   -5.236; 2744.849
501.564; 2102.073;   -8.936; 3148.565
502.151; 2582.376;  -13.176; 3515.999
502.738; 3047.228;  -10.646; 3971.274
503.326; 3467.703;   -9.525; 4403.796
503.913; 3844.795;  -10.856; 5161.749
504.500; 4312.266;  -11.586; 5986.420
505.088; 4759.868;  -10.336; 6381.201
505.675; 5134.931;   -6.355; 6925.547
506.262; 5571.382;   -9.046; 7619.060
506.849; 5926.634;  -10.416; 8733.969
507.436; 6306.167;  -10.305; 9790.121
508.023; 6752.922;   -5.496; 9985.472
508.610; 7582.487;   -7.856;10434.618
509.197; 9288.966;  -10.097;11198.435
509.784;10765.674;  -10.886;12391.194
510.371;11585.692;   -9.315;13603.713
510.958;12306.425;   -9.936;14426.586
511.545;12803.987;   -9.326;15243.775
512.132;13768.072;  -10.075;15945.876
512.719;14171.495;   -7.796;16340.369
513.305;15217.273;  -10.606;18011.766
513.892;16545.078;  -11.486;19754.971
514.479;18255.576;   -9.126;20967.805
515.066;19334.611;   -6.026;22299.793
515.652;19738.264;   -8.466;22908.660
516.239;21100.063;  -10.886;23798.875
516.825;23010.684;  -11.496;25567.275
517.412;23946.811;   -5.796;28154.959
517.998;25164.719;  -10.506;28344.111
518.585;25616.531;  -10.076;27134.219
519.171;25141.309;   -8.315;27268.576
519.758;24739.529;   -8.596;28964.129
520.344;25674.488;   -8.466;30664.494
520.930;28291.527;  -11.006;32550.605
521.516;28498.082;  -10.495;35422.895
522.103;27992.184;   -5.526;38280.004
522.689;28386.963;   -8.746;37835.117
523.275;29318.990;  -11.376;37288.613
523.861;29317.791;  -11.156;37281.395
524.447;29316.813;   -8.135;37846.949
525.033;30522.682;   -7.896;38321.949
525.619;33675.980;  -12.476;38579.285
526.205;36744.684;   -9.516;40622.875
526.791;37418.250;   -6.926;42258.836
527.377;40287.293;   -8.346;42966.902
527.963;42079.949;   -8.717;42018.949
528.549;40348.301;  -11.016;42476.828
529.135;39641.715;   -8.536;41854.852
529.721;38723.578;   -9.666;41237.711
530.306;37077.723;  -10.066;41259.445
530.892;37241.016;  -11.356;41506.047
531.478;37766.906;   -6.596;43559.613
532.063;37996.523;   -8.836;47695.563
532.649;40856.148;  -10.047;50808.324
533.235;43639.730;   -9.746;51787.500
533.820;43085.449;   -6.566;52145.035
534.406;42297.578;  -10.817;51133.488
534.991;44582.723;   -9.416;49996.805
535.576;44939.313;   -9.036;48882.852
536.162;45960.672;   -6.156;46942.285
536.747;45666.258;  -11.607;45711.746
537.333;45007.918;  -11.787;48510.180
537.918;43945.652;  -12.437;50439.891
538.503;43356.359;   -7.196;50863.711
539.088;42669.902;  -10.556;50906.922
539.673;43221.930;   -8.767;52621.965
540.259;43404.703;  -10.026;52368.094
540.844;44243.047;   -7.416;50879.109
541.429;41649.242;   -9.467;52077.777
542.014;39661.121;   -9.527;52716.695
542.599;39029.344;   -9.946;52363.281
543.184;39810.832;   -7.927;53187.137
543.769;41745.219;   -9.297;54697.605
544.354;42551.098;  -10.127;53913.914
544.938;42009.953;   -9.267;49680.164
545.523;44543.844;   -6.506;47386.277
546.108;50075.883;   -9.787;49151.949
546.693;51341.977;  -11.587;51384.637
547.278;52000.289;  -10.986;51853.254
547.862;47994.453;   -8.206;51173.750
548.447;44989.875;  -10.067;51691.395
549.031;47402.160;   -9.637;52456.703
549.616;49606.582;   -9.926;52714.516
550.201;46867.027;   -6.347;52414.598
550.785;44132.152;   -7.917;52355.059
551.370;42101.230;  -10.867;54589.453
551.954;43655.348;   -9.047;58267.348
552.538;46848.668;   -7.827;59062.176
553.123;45639.836;  -10.287;58115.285
553.707;41728.941;  -12.178;56556.285
554.291;43930.340;   -8.717;56201.668
554.876;46552.938;   -7.457;55335.762
555.460;47920.688;  -10.387;54155.703
556.044;48307.461;   -9.618;53721.484
556.628;47511.988;  -11.567;53731.016
557.212;46973.129;   -8.097;54312.531
557.796;46798.602;  -11.077;53797.773
558.380;45126.637;  -11.108;56145.984
558.964;43451.805;   -9.057;57277.930
559.548;42946.855;   -6.977;56459.641
560.132;43278.070;  -11.457;54434.543
560.716;41157.527;  -11.378;54800.617
561.300;42165.547;   -9.577;57606.945
561.884;45009.961;   -7.127;58972.445
562.467;45214.426;   -7.118;57327.570
563.051;45184.707;  -13.358;54962.434
563.635;44170.125;  -10.178;52594.473
564.219;44371.148;   -7.837;50610.410
564.802;43823.941;  -11.398;49551.180
565.386;44767.473;  -12.788;48370.953
565.969;44724.672;   -9.077;48178.871
566.553;44114.957;   -6.207;49957.305
567.136;41813.219;   -8.568;50369.594
567.720;41191.426;  -11.868;49492.004
568.303;42290.148;   -8.268;50616.352
568.887;41558.492;   -8.698;50727.148
569.470;40429.621;   -6.808;51698.379
570.053;38788.270;  -13.188;52122.078
570.637;36265.504;  -12.037;52536.438
571.220;35650.184;   -8.577;51186.098
571.803;37395.523;   -8.498;51032.762
572.386;39525.883;  -10.498;49609.887
572.969;40581.316;   -9.388;48285.926
573.552;36939.902;   -8.338;47624.285
574.135;35795.156;   -8.518;45498.641
574.718;34661.879;  -13.628;41970.434
575.301;33014.902;  -10.893;41447.137
575.884;31367.928;   -8.158;40923.836
576.467;35556.293;  -10.328;45267.723
577.050;34785.840;  -13.058;48175.543
577.633;33083.438;   -9.458;47729.328
578.216;33379.430;   -8.928;47579.793
578.799;34083.887;   -9.358;47820.996
579.381;34289.484;  -11.388;48115.551
579.964;32755.314;  -11.718;47333.766
580.547;33443.391;   -8.588;46668.969
581.129;34775.781;   -8.859;44466.141
581.712;33968.730;  -10.729;44164.922
582.294;35239.621;  -11.118;46477.855
582.877;33245.789;   -5.218;48244.254
583.459;32851.266;   -8.679;47437.895
584.042;34097.898;  -10.709;46943.219
584.624;37199.531;  -11.669;46792.227
585.206;37510.352;   -8.218;46557.250
585.789;35568.176;  -10.569;45793.773
586.371;34635.133;  -11.859;43836.391
586.953;33229.359;  -10.719;42972.492
587.536;34233.793;   -7.198;42487.211
588.118;36316.820;   -8.720;42086.414
588.700;35704.727;  -10.439;43389.930
589.282;34696.891;   -9.198;43646.039
589.864;34443.480;   -9.199;43438.109
590.446;32635.855;  -11.319;43151.926
591.028;31099.732;  -11.159;42781.867
591.610;30434.785;  -11.779;42839.098
592.192;28222.480;   -7.668;42820.402
592.774;29200.992;  -11.949;40724.277
593.356;30407.902;  -12.129;39874.789
593.937;30414.660;  -10.669;39980.648
594.519;31749.721;   -6.509;42069.633
595.101;33873.832;  -10.849;42976.031
595.683;33028.879;  -11.679;44084.441
596.264;30792.650;   -9.049;43478.797
596.846;31139.738;   -8.849;43803.672
597.427;32068.436;   -9.570;42986.934
598.009;31223.953;  -12.620;42832.219
598.591;30769.605;  -10.039;42580.086
599.172;31108.197;  -10.369;43061.805
599.753;31099.375;   -9.140;41691.469
600.335;30887.873;  -11.430;40692.520
600.916;31731.063;   -9.939;39982.422
601.498;31503.637;   -8.479;40318.617
602.079;30210.322;  -10.920;40670.609
602.660;31411.588;  -11.480;41450.898
603.241;32006.668;  -11.699;41137.738
603.823;32002.549;   -9.579;38868.797
604.404;32065.994;  -10.620;38182.785
604.985;30840.842;  -10.450;38078.047
605.566;30186.863;   -9.129;38056.633
606.147;30267.285;   -7.510;37020.418
606.728;31411.188;  -10.660;37883.359
607.309;31664.627;  -11.740;38748.273
607.890;30493.398;   -9.759;38850.230
608.471;29260.279;   -8.250;37457.918
609.051;31185.938;   -9.240;36066.457
609.632;30011.607;  -12.120;35991.074
610.213;27656.072;   -9.110;37402.641
610.794;28166.898;   -8.030;38383.363
611.374;30827.500;   -8.110;40562.387
611.955;31642.912;  -13.560;38533.727
612.536;29896.951;  -11.400;36951.789
613.116;29431.611;   -8.070;37197.891
613.697;30871.928;  -10.830;38411.125
614.277;30932.656;  -11.641;38673.938
614.858;29523.840;  -13.310;37075.863
615.438;28947.168;   -7.460;35092.906
616.019;28588.430;   -7.601;33666.301
616.599;28864.066;  -12.020;34189.023
617.179;30039.393;  -11.780;36952.047
617.760;32047.604;   -8.570;39582.574
618.340;32203.248;  -11.471;38943.977
618.920;30061.967;  -11.170;37594.156
619.500;31052.865;  -11.071;37866.938
620.080;31697.189;   -7.750;37869.043
620.660;31143.467;  -12.711;36868.617
621.241;30472.115;  -10.211;36352.309
621.821;29255.014;  -10.961;35459.520
622.401;28391.537;   -7.720;35207.414
622.980;29634.182;   -8.981;35980.422
623.560;29656.029;   -9.331;37351.328
624.140;27863.652;   -9.850;34388.582
624.720;25689.152;   -7.451;32368.764
625.300;24673.824;   -9.070;32638.629
625.880;28203.660;  -12.601;34599.035
626.459;30975.135;  -11.751;36831.738
627.039;32191.148;   -9.281;38299.098
627.619;33535.707;   -8.801;38289.574
628.198;33099.109;  -12.071;37220.695
628.778;31027.611;   -9.461;37632.563
629.357;31516.195;   -8.491;38003.012
629.937;31522.475;   -9.721;38402.039
630.516;31693.133;   -9.951;37868.801
631.096;31349.838;  -11.731;35760.410
631.675;33035.227;   -8.572;35225.219
632.254;33427.336;  -11.282;35130.289
632.834;32785.988;  -13.322;35794.570
633.413;32777.031;  -10.301;35788.922
633.992;32391.721;   -8.582;34532.863
634.571;32451.854;   -8.352;33590.113
635.151;31503.527;  -11.912;34943.863
635.730;30468.484;  -10.511;35352.523
636.309;32183.730;   -7.731;35366.605
636.888;32500.066;   -9.952;36165.637
637.467;32065.113;  -11.672;37515.902
638.046;31519.859;   -8.901;39288.695
638.625;31745.637;   -7.912;38279.699
639.204;32232.381;  -10.022;37741.598
639.782;31203.369;  -12.252;38364.551
640.361;29570.881;  -10.041;36740.621
640.940;28022.229;  -11.161;34950.082
641.519;29363.643;   -9.701;34137.398
642.097;32258.125;  -11.271;35654.258
642.676;33301.887;   -8.651;35637.957
643.255;34995.051;   -8.711;36567.074
643.833;33326.355;   -9.581;37809.434
644.412;30235.191;  -13.711;37337.293
644.990;30070.918;  -11.811;37018.531
645.569;32198.523;   -9.411;36518.469
646.147;31978.762;  -10.291;36186.430
646.726;30602.957;  -12.401;36267.688
647.304;29487.432;  -10.411;36647.625
647.882;29939.027;   -9.651;39286.742
648.461;31519.338;   -9.631;39157.703
649.039;33985.563;  -11.881;35412.883
649.617;35167.793;   -9.661;34744.918
650.195;33838.789;   -9.301;35403.098
650.773;32063.623;  -10.511;35053.797
651.352;30641.584;  -11.521;33756.816
651.930;27863.721;  -12.211;31868.773
652.508;24582.713;   -9.171;33121.551
653.086;25188.441;   -9.371;33564.793
653.663;29688.615;  -13.161;34054.668
654.241;31764.088;  -13.031;35693.309
654.819;33734.754;   -9.371;36422.906
655.397;33850.043;  -10.511;38213.484
655.975;32374.371;  -10.371;39507.625
656.553;31517.340;  -10.051;39498.223
657.130;31213.783;  -10.061;40395.480
657.708;29710.191;   -9.561;39242.020
658.286;26236.137;  -11.511;38920.020
658.863;26047.033;  -10.261;40202.898
659.441;30135.867;   -7.531;39677.938
660.018;32254.813;   -9.501;40413.355
660.596;31192.094;  -13.301;39931.414
661.173;29470.879;  -11.211;39604.531
661.750;30476.973;   -9.951;39700.070
662.328;31007.035;   -9.390;39292.809
662.905;29741.584;  -11.330;38235.648
663.482;26832.963;   -9.050;36212.305
664.060;24364.732;   -8.240;35944.945
664.637;26072.736;  -10.050;35170.785
665.214;29366.883;  -11.760;34197.523
665.791;30814.746;  -10.530;34549.520
666.368;30015.547;   -9.690;35118.578
666.945;30510.969;   -9.320;36019.418
667.522;30123.621;  -11.860;36048.438
668.099;31116.193;  -10.770;36243.914
668.676;32135.064;   -6.260;35958.875
669.253;33906.281;   -7.000;37384.730
669.830;35067.988;  -10.190;36779.629
670.407;32735.818;   -9.550;35231.289
670.984;32476.832;   -9.260;35544.270
671.560;29674.561;   -9.280;35466.867
672.137;23879.314;  -11.810;34280.863
672.714;24560.754;  -11.490;34632.863
673.290;30393.334;   -7.740;35135.422
673.867;31415.762;  -10.660;36114.480
674.443;31260.775;  -12.230;36152.859
675.020;30555.750;  -10.450;35327.238
675.596;31366.695;   -9.260;35795.176
676.173;31771.270;  -10.780;35430.355
676.749;30211.229;  -13.690;33549.516
677.326;29166.539;  -11.980;32210.012
677.902;28724.164;   -8.630;32068.871
678.478;29616.492;  -10.730;32583.891
679.054;30300.977;  -10.520;32088.928
679.631;30935.535;  -11.920;30978.848
680.207;30848.586;   -7.490;33160.887
680.783;31867.430;   -9.860;35570.363
681.359;32359.852;  -13.380;36125.184
681.935;32197.646;  -12.480;35240.922
682.511;31122.111;   -7.900;34429.961
683.087;30804.857;   -7.710;34463.680
683.663;30394.484;  -11.480;34648.898
684.239;29541.717;  -14.090;34546.457
684.815;28874.730;   -7.560;35586.375
685.390;28992.900;   -9.910;35821.895
685.966;29840.195;  -11.159;35085.871
686.542;30223.715;  -11.169;34198.230
687.118;31814.676;   -5.959;32847.707
687.693;31854.873;  -10.329;32794.027
688.269;31674.967;  -12.059;33072.367
688.844;32925.797;  -10.909;33141.664
689.420;32314.396;   -8.019;33965.742
689.995;30842.227;   -8.399;34655.523
690.571;31560.807;  -10.949;33576.742
691.146;31332.740;   -9.619;32657.219
691.722;30059.047;   -8.999;32526.979
692.297;28476.969;  -11.589;33014.617
692.872;28615.488;  -11.739;34012.254
693.448;31510.752;  -11.059;34237.434
694.023;31883.945;  -10.139;34142.672
694.598;28379.225;   -9.029;34132.031
695.173;29084.021;  -13.319;34205.250
695.748;30676.125;  -10.169;32882.488
696.323;29099.135;   -8.339;32864.906
696.898;27790.959;   -8.169;33170.004
697.473;27782.596;  -12.309;32432.984
698.048;27608.410;  -10.989;31649.303
698.623;27359.971;   -9.329;30778.141
699.198;28328.506;   -9.849;31140.119
699.773;29296.688;  -12.329;31764.299
700.348;30936.783;  -10.389;31780.816
700.922;30336.250;   -9.269;32046.375
701.497;30259.520;   -9.329;32603.574
702.072;31718.188;  -10.789;34799.871
702.646;30797.898;  -10.839;35793.172
703.221;31168.004;   -9.099;35201.590
703.795;32898.977;  -10.939;34764.527
704.370;30880.611;  -12.859;34307.367
704.944;29161.875;  -11.559;33509.887
705.519;29511.049;   -7.939;31388.584
706.093;31016.549;  -10.499;31340.104
706.668;32336.943;  -11.289;32630.281
707.242;31902.160;  -11.509;32728.779
707.816;29358.896;   -9.639;32947.238
708.390;28724.053;  -11.429;33277.855
708.965;29408.926;  -11.869;33834.336
709.539;31253.857;  -11.689;33709.273
710.113;31138.279;  -10.478;33044.313
710.687;29894.357;  -10.228;31953.992
711.261;28899.279;  -13.698;30505.949
711.835;29159.609;  -13.378;30262.369
712.409;28806.006;   -9.698;31254.447
712.983;27105.318;  -11.898;32754.986
713.557;28643.797;  -15.138;34018.824
714.131;27724.131;  -14.098;34579.625
714.704;27715.178;   -9.958;33890.262
715.278;29065.303;  -10.028;33531.102
715.852;27485.072;  -11.148;33601.660
716.425;26659.063;   -9.068;33515.117
716.999;26127.018;  -10.038;33185.555
717.573;26039.396;   -9.798;33905.996
718.146;25796.002;  -12.378;35199.293
718.720;25551.162;  -11.918;35060.551
719.293;26130.371;   -8.088;34973.230
719.867;28480.180;  -10.888;36394.449
720.440;31430.484;  -11.938;36663.008
721.013;32098.840;  -12.818;35102.426
721.587;29530.557;  -10.298;33985.266
722.160;28409.756;  -10.048;33524.965
722.733;27318.959;  -12.108;32987.043
723.306;26783.125;  -10.818;33066.301
723.880;28049.152;   -8.908;33399.500
724.453;26568.098;   -9.878;33468.297
725.026;26885.646;  -11.188;33816.637
725.599;30645.047;  -11.678;32797.996
726.172;30658.334;   -9.618;33187.434
726.745;27335.146;   -8.258;35136.613
727.318;26365.262;  -12.978;35751.730
727.891;26487.482;  -12.148;35890.430
728.463;26585.604;   -8.968;34822.090
729.036;25907.158;  -10.188;32895.086
729.609;25854.219;  -11.788;31823.225
730.182;24565.926;  -11.788;31445.283
730.754;22889.943;  -10.268;32373.223
731.327;22537.131;   -9.998;33676.820
731.900;23690.732;  -12.228;33417.000
732.472;24894.148;  -13.848;31978.498
733.045;24878.895;   -8.698;30368.777
733.617;23188.342;  -10.607;30574.215
734.190;24356.295;  -11.507;31280.975
734.762;25834.268;  -13.647;31674.412
735.334;25573.549;   -9.767;31247.291
735.907;25318.924;   -9.897;29876.211
736.479;24990.916;  -11.637;29808.488
737.051;26884.039;   -9.567;30233.547
737.623;27424.965;   -8.187;31469.086
738.195;26604.541;  -11.187;31784.225
738.768;25515.439;  -12.337;32120.523
739.340;23363.592;  -12.227;32094.342
739.912;22347.055;  -11.057;31312.680
740.484;21758.049;  -10.207;31946.238
741.056;21019.504;  -10.047;32984.059
741.628;21912.141;  -13.627;33897.715
742.199;23651.680;   -7.177;33213.016
742.771;26449.604;  -10.797;31369.113
743.343;27942.379;  -11.997;31865.473
743.915;27416.176;  -12.867;32388.631
744.487;24598.947;   -7.617;31079.568
745.058;21554.561;   -9.557;30570.107
745.630;21780.158;   -9.877;29970.127
746.201;23167.342;  -14.177;29186.766
746.773;23698.750;   -9.237;28805.723
747.344;23188.674;   -9.847;29591.223
747.916;22108.305;  -11.657;31412.201
748.487;22621.406;  -10.587;32194.898
749.059;23534.352;   -8.707;32533.719
749.630;23883.664;  -10.537;32158.518
750.201;23235.535;  -11.687;30855.395
750.773;21732.383;  -11.647;28622.555
751.344;20661.607;   -7.147;28405.732
751.915;21611.379;   -9.757;28461.551
752.486;22977.465;  -12.427;27842.850
753.057;22568.662;  -12.227;27845.008
753.628;22607.338;  -10.417;27728.107
754.199;21535.988;  -11.767;27381.086
754.770;21601.193;  -11.187;25882.203
755.341;21966.559;  -10.507;25886.184
755.912;20573.445;   -9.387;26050.861
756.483;18774.035;  -10.647;26798.779
757.054;19207.434;  -11.837;27048.238
757.625;19505.238;  -12.716;26294.838
758.195;19763.162;   -9.666;26142.076
758.766;20410.498;   -8.656;26392.234
759.337;19783.994;  -12.856;26334.594
759.907;19656.809;  -13.366;27579.652
760.478;19470.953;   -8.576;28352.770
761.048;19709.607;  -10.526;27325.088
761.619;19823.434;  -11.116;26460.428
762.189;18656.902;  -12.136;26029.826
762.760;18230.777;   -9.456;26430.145
763.330;18770.178;   -7.136;26670.902
763.900;19171.527;  -11.786;26603.021
764.471;18314.498;  -11.546;25542.740
765.041;17196.877;   -8.096;24358.459
765.611;16735.672;   -8.876;23991.297
766.181;16633.193;  -12.196;24470.236
766.751;16285.672;  -11.636;24845.975
767.321;16677.361;  -10.156;24533.633
767.891;16767.658;  -11.766;24916.492
768.461;17103.295;  -14.936;24776.771
769.031;18084.908;  -12.356;24757.988
769.601;18563.346;   -7.526;24181.088
770.171;18168.166;  -10.766;23670.387
770.741;17011.725;  -13.176;22960.045
771.311;16568.680;  -10.616;22917.523
771.880;16738.600;   -9.576;23562.941
772.450;16523.475;  -10.336;24216.500
773.020;16544.305;  -13.516;24140.398
773.589;17165.234;  -13.466;24414.857
774.159;16708.785;   -8.686;23858.717
774.729;16064.873;   -9.476;22942.135
775.298;14796.258;  -13.666;22324.033
775.867;14143.649;  -11.716;21140.313
776.437;14335.616;   -9.906;20838.092
777.006;13694.429;  -12.166;20599.510
777.576;12895.724;  -12.356;20508.809
778.145;12991.982;  -11.646;20732.947
778.714;13209.556;   -8.226;21062.465
779.283;13725.119;   -9.556;20949.664
779.853;14285.829;  -14.116;20508.623
780.422;13831.574;  -11.506;20649.082
780.991;13382.819;   -9.556;21527.520
781.560;13091.812;   -9.095;22632.658
782.129;12601.090;  -12.135;23048.277
782.698;12650.654;  -10.865;23438.555
783.267;12524.682;   -9.335;23267.734
783.836;12615.181;  -11.045;22415.133
784.404;13445.199;  -13.865;20443.152
784.973;13101.925;  -13.095;19699.150
785.542;12025.629;  -11.575;19763.828
786.111;11455.794;   -9.705;20341.408
786.679;11940.361;  -12.105;20207.967
787.248;12129.256;  -12.455;19516.465
787.817;11376.609;  -11.535;18900.363
788.385;11473.373;   -9.765;17879.121
788.954;12120.596;  -14.005;17658.301
789.522;11858.464;  -11.955;17788.879
790.090;11720.359;  -10.135;18118.277
790.659;12696.733;  -10.975;18338.736
791.227;12824.724;  -13.375;18508.615
791.795;12133.719;  -12.375;17898.254
792.364;11617.155;  -10.725;17295.133
792.932;11571.963;   -9.715;16822.051
793.500;11669.473;  -12.675;17040.148
794.068;11287.738;  -13.495;17179.787
794.636;10097.421;  -10.885;16664.246
795.204; 9151.644;  -11.045;16524.545
795.772; 9783.290;  -13.175;17274.564
796.340;11178.147;  -12.445;17891.002
796.908;10913.450;   -9.735;17648.561
797.476;10803.333;   -9.815;17064.080
798.044;11164.726;  -13.985;16672.777
798.612;10931.668;  -13.115;17023.996
799.180;10028.643;  -10.185;16561.615
799.747; 8894.784;   -9.055;15962.773
800.315; 7965.028;  -12.385;15296.992
800.883; 8196.567;  -15.035;14801.771
801.450; 8963.952;  -10.365;14534.430
802.018; 9444.335;   -9.855;14173.248
802.585; 9828.699;  -11.905;14029.547
803.153; 9501.896;  -11.585;13836.846
803.720; 8730.115;   -9.095;13567.324
804.287; 8808.462;   -9.135;13360.622
804.855; 9425.760;  -11.604;13681.981
805.422; 9559.633;  -11.794;13536.560
805.989; 9042.464;  -10.734;13355.958
806.556; 8481.102;  -10.444;13747.896
807.124; 8334.256;  -12.764;13987.376
807.691; 8928.288;  -12.964;14038.674
808.258; 9252.584;  -11.134;14120.152
808.825; 9152.136;   -9.854;13860.111
809.392; 8610.360;  -10.504;13268.790
809.959; 8096.756;  -13.054;12680.389
810.526; 7853.160;   -8.294;12427.308
811.093; 7723.831;   -8.394;12030.105
811.659; 7314.086;  -12.304;11653.664
812.226; 7078.147;  -13.944;11637.183
812.793; 7488.666;  -10.484;11611.521
813.360; 7707.784;  -10.144;11885.181
813.926; 7247.270;  -11.684;12770.539
814.493; 6614.119;  -13.644;12677.638
815.060; 6354.547;   -9.724;11974.336
815.626; 6534.334;   -9.854;11594.715
816.193; 6627.880;  -13.254;11579.474
816.759; 6492.122;  -13.204;11666.972
817.325; 6379.768;   -9.434;11325.530
817.892; 6219.355;  -10.134;11105.369
818.458; 6166.712;  -13.474;10843.928
819.024; 5949.348;  -11.854;10714.406
819.591; 6038.496;  -10.244;10469.165
820.157; 6227.682;  -10.704;10235.523
820.723; 6606.417;  -12.324;10847.563
821.289; 7086.671;   -9.444;11040.980
821.855; 7132.152;   -8.374;10357.100
822.421; 6757.374;  -10.234; 9978.918
822.987; 6547.347;  -13.294; 9754.177
823.553; 6624.542;  -10.884;10065.755
824.119; 6358.976;   -8.884;10036.294
824.685; 6113.166;   -6.784;10029.192
825.251; 5947.773;  -12.004;10199.230
825.816; 6176.100;  -11.474; 9820.189
826.382; 6184.939;   -9.174; 9297.248
826.948; 5825.262;   -9.214; 9381.347
827.513; 5389.097;  -10.774; 9450.726
828.079; 5240.910;  -11.924; 9472.444
828.645; 5211.476;  -10.543; 9292.643
829.210; 5187.807;  -10.533; 9065.341
829.776; 5165.000;  -10.753; 9132.620
830.341; 5220.536;  -10.173; 9092.878
830.906; 5434.279;  -10.743; 9078.557
831.472; 5530.806;  -11.113; 8534.535
832.037; 5106.729;  -10.603; 8677.874
832.602; 4899.739;  -13.323; 8628.692
833.167; 5162.873;  -10.823; 8879.031
833.733; 5110.225;  -10.113; 9189.790
834.298; 4948.369;  -13.583; 9052.608
834.863; 4883.245;  -12.703; 8895.087
835.428; 4746.702;  -10.523; 8824.266
835.993; 4606.491;   -6.963; 8845.385
836.558; 4572.865;  -10.763; 8888.563
837.123; 4684.189;   -9.903; 8966.582
837.688; 4603.955;   -9.913; 8617.860
838.253; 4577.659;  -10.283; 8590.699
838.817; 4794.173;  -12.963; 8443.797
839.382; 4964.959;  -14.243; 8799.356
839.947; 4710.410;  -10.733; 8810.595
840.511; 4588.334;   -9.383; 8796.394
841.076; 4708.362;  -12.563; 8347.231
841.641; 4581.616;  -12.953; 8224.330
842.205; 4207.608;   -7.043; 8223.349
842.770; 4115.326;   -8.163; 8622.107
843.334; 4237.293;  -12.503; 8410.386
843.898; 4349.953;  -11.693; 8337.465
844.463; 4310.247;  -10.203; 8506.283
845.027; 4167.280;   -9.533; 8280.962
845.591; 4183.274;  -13.443; 8231.141
846.156; 4119.892;  -13.143; 7969.179
846.720; 3858.618;   -9.433; 7768.278
847.284; 3416.906;  -11.033; 7630.957
847.848; 3225.700;  -10.403; 7472.395
848.412; 3369.940;  -11.553; 7437.394
848.976; 3668.487;   -8.393; 7674.592
849.540; 3801.546;   -8.713; 7836.011
850.104; 3770.179;  -12.463; 7913.669
850.668; 3797.860;  -12.973; 7694.508
851.232; 3744.227;  -10.793; 7756.887
851.796; 3641.669;  -10.662; 7926.545
852.359; 3678.279;  -13.082; 7827.844
852.923; 3488.050;  -12.192; 7641.163
853.487; 3340.825;  -11.912; 7342.501
854.050; 3472.766;  -10.892; 7042.820
854.614; 3454.275;  -13.992; 7151.338
855.177; 3288.593;  -11.732; 7105.077
855.741; 3215.387;   -8.962; 6989.675
856.304; 3204.176;   -9.442; 6596.634
856.868; 3058.378;  -14.192; 6356.272
857.431; 2937.198;  -12.702; 6468.571
857.995; 3063.585;   -9.942; 6373.210
858.558; 3112.503;   -9.112; 6324.448
859.121; 2807.549;  -12.932; 6408.327
859.684; 2550.098;  -13.442; 6347.886
860.247; 2799.329;  -10.632; 6321.264
860.810; 3203.223;  -11.272; 6301.903
861.374; 3279.385;   -9.832; 6607.881
861.937; 3245.332;  -11.762; 6408.200
862.500; 3199.812;   -9.722; 6572.639
863.062; 2901.598;  -10.512; 6387.297
863.625; 2659.303;  -11.232; 6190.836
864.188; 2581.303;  -14.112; 5807.254
864.751; 2530.702;  -11.302; 5682.413
865.314; 2685.265;  -10.112; 5547.492
865.876; 2909.356;  -12.182; 5500.150
866.439; 2995.340;  -10.722; 5415.909
867.002; 2893.607;   -9.252; 5501.567
867.564; 2747.618;   -9.572; 5413.946
868.127; 2606.396;  -13.142; 5160.325
868.689; 2342.496;  -12.902; 5133.183
869.252; 2124.565;   -9.732; 5252.382
869.814; 2089.226;   -9.432; 5297.141
870.377; 2239.660;  -11.552; 5390.919
870.939; 2284.069;   -9.052; 5599.898
871.501; 2202.681;  -10.982; 5248.336
872.063; 2237.558;  -12.292; 4854.235
872.626; 2233.784;  -14.912; 4817.074
873.188; 2308.902;  -13.112; 4987.732
873.750; 2394.134;  -13.442; 4868.651
874.312; 2500.732;   -9.402; 4779.330
874.874; 2621.309;  -11.062; 4866.348
875.436; 2324.196;  -13.931; 4718.887
875.998; 1673.164;   -9.561; 4660.005
876.560; 1187.161;  -11.321; 4462.964
877.122;  987.580;  -12.221; 4145.042
877.683;  957.175;  -12.191; 4056.481
878.245; 1090.903;  -12.101; 3950.740
878.807; 1289.646;   -8.971; 4058.958
879.369; 1386.889;  -12.071; 3954.677
879.930; 1384.459;  -14.621; 3941.495
880.492; 1338.352;  -10.311; 4067.014
881.053; 1265.728;  -10.901; 3859.633
881.615; 1252.444;  -14.411; 3776.071
882.176; 1281.344;  -13.761; 3734.750
882.738; 1332.582;   -9.181; 3678.489
883.299; 1324.315;  -11.791; 3405.407
883.860; 1246.755;  -13.121; 3351.106
884.422; 1155.808;  -11.211; 3394.044
884.983; 1110.442;  -10.091; 3166.443
885.544; 1100.394;   -8.461; 3189.802
886.105; 1058.978;  -12.361; 3160.360
886.666; 1004.837;  -14.141; 3093.059
887.227;  988.690;  -11.361; 2941.957
887.788; 1002.812;  -11.401; 2974.836
888.349;  968.150;  -13.791; 2721.214
888.910;  887.595;  -13.191; 2696.493
889.471;  797.214;   -9.881; 2560.172
890.032;  725.421;   -9.881; 2558.190
890.593;  711.033;  -10.371; 2567.669
891.153;  708.197;  -13.301; 2460.307
891.714;  655.188;  -11.431; 2372.046
892.275;  604.499;  -11.291; 2309.505
892.835;  607.299;  -11.471; 2382.543
893.396;  600.225;  -11.541; 2295.502
893.956;  576.643;  -11.181; 2162.420
894.517;  538.073;  -11.741; 2125.439
895.077;  481.590;  -11.671; 2086.978
895.638;  437.113;  -11.311; 2126.316
896.198;  424.338;   -9.831; 1838.275
896.758;  422.231;   -8.421; 1892.813
897.319;  410.733;  -12.351; 1792.232
897.879;  391.454;  -13.511; 1762.751
898.439;  368.923;  -12.001; 1661.149
898.999;  349.077;  -10.180; 1781.468
899.559;  335.184;  -12.030; 1703.347
900.119;  330.217;  -15.710; 1537.525
900.679;  320.231;   -8.900; 1638.384
901.239;  295.399;   -8.340; 1527.902
901.799;  276.579;  -13.910; 1456.441
902.359;  264.944;  -13.460; 1357.140
902.919;  260.612;  -11.490; 1331.118
903.479;  258.806;  -12.110; 1317.257
904.038;  251.296;  -11.720; 1262.595
904.598;  235.584;  -13.610; 1152.034
905.158;  223.596;  -11.040; 1240.893
905.717;  216.950;  -10.900; 1233.691
906.277;  211.244;  -15.080; 1217.330
906.836;  207.936;  -13.380; 1222.408
907.396;  205.368;  -10.780; 1193.047
907.955;  199.547;   -8.500; 1182.526
908.515;  191.519;  -12.760; 1099.364
909.074;  187.834;  -11.900; 1092.863
909.633;  185.063;   -8.950; 1069.121
910.192;  182.312;   -8.770; 1196.460
910.752;  176.055;  -12.390; 1029.960
911.311;  172.060;  -13.680; 1009.780
911.870;  168.550;  -12.370;  971.460
912.429;  167.184;  -10.900; 1094.080
912.988;  163.418;  -11.690; 1081.060
913.547;  159.396;  -13.240;  940.380
914.106;  158.842;  -11.990;  999.420
914.665;  157.621;   -9.990;  984.020
915.224;  155.765;  -12.880; 1035.760
915.782;  153.953;  -12.350;  922.560
916.341;  155.939;   -9.110; 1049.840
916.900;  152.194;   -9.270;  925.260
917.458;  148.074;  -13.240;  884.220
918.017;  143.020;  -13.550;  942.600
918.576;  142.646;  -12.320;  904.440
919.134;  141.901;  -11.490;  837.980
919.693;  141.188;  -13.670;  893.060
920.251;  139.563;  -15.470;  876.500
920.809;  139.817;  -11.290;  839.580
921.368;  140.068;  -10.210;  885.360
921.926;  139.111;  -12.140;  842.940
922.484;  138.203;  -13.080;  903.360
923.042;  139.098;  -11.720;  880.340
923.601;  141.330;   -7.480;  998.680
924.159;  139.968;  -11.570;  935.560
924.717;  137.967;  -13.840;  841.080
925.275;  140.784;  -10.640;  903.240
925.833;  140.236;  -11.540;  779.320
926.391;  140.600;  -12.960;  938.380
926.949;  139.693;  -14.130;  857.680
927.506;  140.989;  -11.750;  903.500
928.064;  140.221;  -10.250;  877.580
928.622;  138.080;  -13.030;  880.100
929.180;  138.231;  -13.400;  814.180
929.737;  140.605;  -10.700;  808.540
930.295;  141.281;  -10.070;  928.480
930.853;  141.878;  -11.960;  849.100
931.410;  141.429;  -13.120;  821.120
931.968;  141.894;  -10.770;  940.660
932.525;  142.829;  -10.680;  909.380
933.082;  144.642;  -13.130;  811.440
933.640;  151.290;  -13.210;  925.900
934.197;  152.894;  -11.060;  886.360
934.754;  156.184;   -9.580;  897.780
935.312;  156.272;  -14.000;  863.340
935.869;  158.225;  -10.710; 1012.980
936.426;  157.817;   -9.860;  872.800
936.983;  156.787;   -9.710;  889.020
937.540;  155.786;  -13.990;  838.280
938.097;  154.244;  -14.040;  940.120
938.654;  155.661;  -10.310;  898.860
939.211;  156.203;  -10.560;  952.480
939.768;  153.993;  -13.900;  915.420
940.324;  153.425;  -14.760;  904.200
940.881;  157.611;  -10.370;  878.500
941.438;  164.134;   -8.260; 1021.200
941.995;  163.494;  -12.540;  992.560
942.551;  162.607;  -14.670;  875.620
943.108;  163.803;  -10.450;  937.920
943.664;  164.892;  -10.750;  869.340
944.221;  168.587;  -11.550; 1088.140
944.777;  170.785;  -14.770;  869.680
945.334;  172.343;  -12.820;  884.840
945.890;  172.612;  -10.130;  946.480
946.446;  170.823;  -13.470;  947.020
947.003;  170.490;  -12.120;  964.940
947.559;  172.562;   -9.980; 1063.040
948.115;  172.175;   -9.080; 1026.540
948.671;  170.595;  -10.830;  967.300
949.227;  164.609;  -12.440;  859.560
949.783;  163.125;  -12.910;  858.900
950.339;  164.751;  -10.270;  991.000
950.895;  164.924;  -13.630; 1023.840
951.451;  163.823;  -15.100;  925.280
952.007;  162.891;  -11.330;  998.540
952.563;  162.934;  -10.580;  937.780
953.118;  158.962;  -13.440;  904.940
953.674;  155.537;  -12.710;  935.780
954.230;  155.967;  -10.350;  949.640
954.785;  158.014;   -9.190;  936.640
955.341;  157.413;  -11.200;  998.160
955.897;  152.314;  -16.560;  834.660
956.452;  151.554;  -12.570;  953.840
957.008;  150.704;   -7.970; 1083.640
957.563;  150.531;  -11.940; 1009.540
958.118;  149.245;  -13.450;  877.700
958.674;  150.528;  -12.030;  946.780
959.229;  150.091;   -9.410; 1013.980
959.784;  147.486;  -12.000;  832.400
960.339;  142.244;  -14.780; 1001.280
960.894;  136.245;   -9.860;  963.760
961.449;  130.919;   -9.970;  859.960
962.004;  129.912;  -10.900; 1212.840
962.559;  124.872;  -13.150;  860.140
963.114;  123.081;  -13.740;  742.480
963.669;  126.144;   -9.820;  915.500
964.224;  127.588;  -13.890;  874.340
964.779;  126.498;  -12.600;  828.420
965.334;  126.851;  -10.950; 1017.860
965.888;  122.044;  -11.170;  875.360
966.443;  122.045;  -12.540;  972.380
966.998;  120.664;  -15.780;  819.460
967.552;  121.884;   -9.760;  908.380
968.107;  117.527;   -9.060;  868.300
968.661;  116.884;  -11.950;  922.440
969.216;  114.011;  -12.800;  856.280
969.770;  114.465;  -11.210;  917.200
970.324;  113.041;  -11.610;  923.140
970.879;  111.326;  -11.370;  947.180
971.433;  110.012;  -12.540;  952.720
971.987;  108.375;  -11.320;  895.340
972.541;  108.644;  -10.720;  917.100
973.095;  108.884;   -9.680; 1009.460
973.649;  107.325;  -11.440;  809.480
974.203;  107.458;  -11.210;  829.040
974.757;  107.137;  -10.240;  855.220
975.311;  107.400;  -13.720;  872.600
975.865;  107.534;  -13.770;  881.820
976.419;  107.884;  -11.690;  857.400
976.973;  107.529;   -9.510;  849.620
977.526;  107.869;  -12.620;  949.920
978.080;  102.576;  -12.010;  796.780
978.634;  101.605;  -10.170;  921.320
979.187;   98.273;   -9.020;  905.400
979.741;   97.266;   -9.820; 1018.380
980.294;   92.928;  -14.870;  789.160
980.848;   90.166;  -12.380;  717.220
981.401;   91.877;  -10.350;  816.540
981.955;   91.502;  -13.720;  844.300
982.508;   88.455;  -11.490;  746.340
983.061;   88.817;  -10.000;  915.260
983.615;   86.855;  -11.480;  798.800
984.168;   85.536;  -13.220;  770.080
984.721;   84.486;  -13.960;  880.760
985.274;   82.314;  -10.870;  867.500
985.827;   81.748;   -9.790;  834.220
986.380;   79.374;  -13.120;  721.340
986.933;   79.821;  -12.450;  864.800
987.486;   79.693;  -10.210;  861.920
988.039;   79.338;   -8.430;  863.100
988.591;   77.625;  -10.520;  893.260
989.144;   74.153;  -14.860;  737.260
989.697;   72.985;  -13.080;  758.740
990.250;   71.630;  -10.150;  858.100
990.802;   69.398;  -13.430;  755.860
991.355;   68.388;  -12.750;  974.880
991.907;   66.177;  -12.040;  864.320
992.460;   63.967;  -11.330;  753.760
993.012;   62.113;  -13.610;  749.540
993.565;   60.211;  -13.460;  711.360
994.117;   62.802;   -9.360;  950.780
994.669;   60.321;  -11.300;  701.320
995.221;   59.808;  -13.540;  791.920
995.774;   58.639;  -13.430;  787.580
996.326;   57.793;  -12.520;  740.220
996.878;   58.633;  -10.950;  838.420
997.430;   56.167;  -14.300;  699.860
997.982;   54.820;  -13.760;  750.140
998.534;   54.900;  -11.530;  739.060
999.086;   52.939;  -10.310;  738.220
999.638;   52.071;  -12.530;  661.380
1000.190;   50.486;  -11.840;  699.320
1000.741;   50.478;  -10.260;  742.700
1001.293;   50.360;   -8.860;  686.020
1001.845;   50.419;  -13.700;  676.640
1002.396;   49.825;  -12.100;  743.400
1002.948;   49.593;  -12.760;  737.400
1003.500;   47.999;  -10.380;  723.780
1004.051;   49.080;  -11.900;  907.580
1004.603;   46.459;  -12.250;  791.820
1005.154;   43.615;  -13.210;  608.980
1005.705;   43.207;  -10.950;  723.960
1006.257;   42.945;  -13.880;  707.220
1006.808;   41.352;  -12.840;  685.460
1007.359;   41.437;  -10.570;  763.240
1007.910;   40.397;   -9.620;  646.640
1008.461;   39.770;  -13.630;  732.940
1009.013;   38.605;  -17.200;  588.340
1009.564;   40.378;  -10.200;  793.520
1010.115;   38.249;  -12.570;  597.040
1010.665;   38.471;  -15.150;  602.160
1011.216;   37.712;  -14.480;  667.920
1011.767;   37.365;  -11.340;  697.920
1012.318;   38.026;   -9.780;  736.980
1012.869;   37.093;  -12.380;  679.000
1013.419;   35.705;  -15.560;  603.120
1013.970;   35.873;  -11.010;  666.640
1014.521;   35.485;  -11.610;  620.620
1015.071;   36.211;  -13.450;  670.380
1015.622;   35.014;  -13.870;  635.460
1016.172;   34.889;  -11.610;  596.820
1016.723;   34.856;  -12.120;  614.380
1017.273;   34.164;  -13.620;  604.160
1017.823;   33.939;  -14.140;  650.340
1018.374;   34.654;  -12.800;  611.760
1018.924;   34.021;  -12.340;  716.880
1019.474;   33.680;  -11.410;  718.880
1020.024;   32.096;  -14.770;  657.580
1020.574;   33.256;   -9.780;  726.160
1021.124;   33.474;   -8.560;  673.580
1021.674;   32.215;  -15.190;  559.120
1022.224;   33.617;  -13.530;  708.940
1022.774;   32.792;  -13.280;  668.820
1023.324;   33.206;  -10.690;  753.520
1023.874;   33.698;  -10.240;  875.760
1024.423;   31.451;  -12.540;  613.700
1024.973;   31.391;  -10.010;  610.760
1025.523;   30.684;  -10.550;  620.960
1026.072;   30.641;  -13.560;  606.420
1026.622;   29.546;  -15.120;  675.740
1027.172;   31.218;  -11.260;  715.660
1027.721;   29.891;  -11.410;  601.220
1028.270;   30.848;  -13.530;  663.400
1028.820;   29.133;  -13.680;  638.080
1029.369;   30.042;  -13.520;  612.700
1029.918;   29.664;  -10.980;  649.840
1030.468;   29.226;  -13.530;  564.780
1031.017;   29.377;  -13.170;  634.800
1031.566;   28.813;  -12.200;  608.900
1032.115;   29.380;   -9.960;  694.500
1032.664;   28.363;  -13.210;  596.480
1033.213;   28.464;  -12.500;  735.420
1033.762;   28.295;  -11.910;  635.620
1034.311;   27.823;   -9.640;  677.220
1034.860;   28.258;  -13.310;  691.000
1035.408;   27.843;  -11.830;  722.720
1035.957;   28.557;  -12.000;  719.540
1036.506;   26.489;  -11.690;  530.800
1037.055;   28.899;  -10.990;  844.320
1037.603;   26.468;  -15.120;  664.000
1038.152;   25.040;  -12.450;  534.760
1038.700;   26.311;  -10.560;  585.740
1039.249;   25.954;  -11.080;  681.220
1039.797;   25.958;  -12.540;  633.360
1040.345;   26.010;  -11.920;  705.420
1040.894;   25.961;  -11.410;  625.300
1041.442;   25.573;  -14.320;  632.200
1041.990;   24.094;  -16.240;  559.160
1042.538;   24.283;  -11.680;  536.180
1043.087;   24.879;  -10.760;  570.860
1043.635;   25.569;  -11.850;  670.500
1044.183;   23.932;  -15.480;  586.400
1044.731;   24.158;  -11.770;  576.000
1045.279;   24.229;  -13.090;  674.920
1045.827;   25.691;  -12.440;  892.400
1046.374;   22.422;  -13.840;  515.420
1046.922;   22.798;  -13.220;  590.580
1047.470;   24.268;  -10.230;  691.300
1048.018;   24.598;  -14.590;  647.960
1048.565;   24.379;  -12.050;  708.600
1049.113;   22.512;  -11.650;  557.000
1049.660;   23.697;  -10.510;  629.660
1050.208;   23.553;  -13.310;  675.640
1050.755;   22.318;  -15.900;  606.580
1051.303;   23.942;  -11.430;  686.820
1051.850;   22.264;   -8.480;  635.120
1052.397;   20.511;  -15.010;  473.960
1052.945;   21.629;  -13.960;  617.760
1053.492;   23.015;  -13.150;  741.840
1054.039;   22.862;   -9.630;  720.180
1054.586;   21.680;  -13.680;  557.240
1055.133;   21.592;  -14.570;  693.140
1055.680;   22.907;  -13.820;  646.620
1056.227;   21.413;  -11.730;  542.780
1056.774;   23.231;  -12.480;  794.980
1057.321;   20.008;  -13.930;  523.260
1057.868;   20.465;  -11.690;  651.320
1058.415;   21.422;   -9.520;  651.980
1058.961;   21.261;  -13.160;  678.940
1059.508;   19.427;  -12.920;  643.820
1060.055;   20.372;  -11.920;  581.780
1060.601;   21.281;  -11.500;  624.300
1061.148;   20.936;  -14.330;  616.820
1061.694;   19.071;  -16.870;  592.580
1062.241;   20.338;  -10.330;  596.320
1062.787;   20.410;  -10.620;  663.140
1063.334;   21.321;  -10.110;  808.560
1063.880;   19.279;  -13.400;  668.360
1064.426;   19.927;  -10.680;  706.820
1064.972;   19.065;   -9.920;  601.340
1065.518;   17.673;  -10.980;  566.640
1066.065;   18.579;  -14.890;  624.460
1066.611;   18.155;  -12.870;  598.800
1067.157;   19.207;  -12.950;  641.860
1067.703;   18.799;  -13.540;  668.480
1068.249;   18.013;  -13.540;  605.220
1068.794;   18.601;  -12.600;  626.880
1069.340;   17.793;  -10.620;  578.960
1069.886;   18.614;  -12.830;  590.700
1070.432;   16.807;  -14.870;  541.720
1070.977;   17.281;  -11.980;  601.080
1071.523;   17.492;   -8.200;  573.060
1072.068;   17.408;  -12.330;  582.000
1072.614;   16.316;  -16.370;  527.760
1073.160;   17.745;  -11.100;  687.040
1073.705;   16.415;  -10.480;  572.520
1074.250;   16.815;  -14.520;  559.900
1074.796;   17.878;  -11.460;  655.160
1075.341;   17.912;  -11.950;  664.100
1075.886;   16.959;  -11.460;  594.240
1076.431;   15.863;  -13.770;  649.880
1076.976;   16.016;  -12.680;  639.220
1077.521;   15.546;  -13.170;  583.080
1078.067;   15.954;  -10.860;  579.400
1078.612;   15.918;  -13.920;  661.620
1079.156;   15.810;  -13.880;  601.540
1079.701;   15.542;  -13.120;  693.260
1080.246;   15.724;   -9.940;  696.300
1080.791;   16.210;  -14.740;  625.020
1081.336;   14.830;  -13.750;  659.320
1081.880;   15.801;  -13.400;  649.680
1082.425;   15.094;  -12.220;  573.480
1082.970;   16.766;  -11.610;  717.040
1083.514;   13.946;  -13.580;  597.000
1084.059;   14.131;  -12.810;  586.720
1084.603;   13.903;  -12.320;  565.840
1085.147;   14.489;  -13.190;  645.220
1085.692;   15.073;  -12.480;  716.800
1086.236;   12.951;  -13.020;  503.140
1086.780;   15.655;   -9.190;  751.440
1087.325;   14.675;  -12.480;  654.620
1087.869;   13.858;  -12.450;  610.700
1088.413;   14.791;  -12.240;  705.040
1088.957;   13.520;   -9.020;  543.400
1089.501;   15.237;  -10.320;  766.640
1090.045;   13.177;  -12.720;  726.480
1090.589;   11.436;  -13.690;  569.920
1091.133;   13.148;  -10.020;  673.340
1091.676;   13.090;  -12.330;  591.940
1092.220;   12.218;  -14.970;  600.920
1092.764;   13.324;  -12.430;  706.960
1093.307;   13.542;   -9.800;  673.780
1093.851;   12.449;  -14.970;  556.540
1094.395;   12.752;  -15.310;  683.140
1094.938;   12.136;  -10.370;  632.520
1095.482;   12.877;  -11.050;  559.800
1096.025;   13.555;  -11.840;  710.880
1096.568;   12.779;  -12.840;  779.280
1097.112;   10.353;  -14.700;  508.180
1097.655;   11.706;   -8.720;  603.000
1098.198;   10.972;  -13.610;  600.180
1098.741;   11.530;  -13.350;  612.860
1099.285;   12.510;  -11.230;  657.300
1099.828;    9.951;  -11.840;  439.400
1100.371;   11.574;  -10.840;  608.160
1100.914;   11.453;  -14.190;  682.660
1101.457;   11.759;  -11.240;  679.900
1101.999;   10.506;  -11.270;  584.680
1102.542;   11.218;  -11.480;  641.440
1103.085;    9.417;  -11.750;  658.500
1103.628;   11.117;  -11.400;  762.060
1104.170;   10.170;  -10.490;  588.280
1104.713;   10.720;  -10.600;  646.700
1105.256;    9.856;  -14.360;  557.440
1105.798;    8.991;  -13.210;  499.980
1106.341;   11.032;  -10.270;  728.900
1106.883;    9.954;  -12.200;  521.340
1107.425;    9.916;  -13.110;  668.180
1107.968;   10.005;  -12.840;  612.380
1108.510;   10.355;   -6.480;  684.960
1109.052;    8.330;  -13.940;  612.620
1109.594;    8.527;  -13.690;  554.440
1110.136;    9.865;  -11.880;  643.220
1110.679;    8.769;   -9.500;  633.080
1111.221;    9.776;  -14.160;  604.460
1111.763;    8.177;  -13.980;  559.220
1112.304;    8.886;  -13.880;  547.140
1112.846;    9.355;  -12.210;  666.240
1113.388;   12.382;  -11.390;  942.180
1113.930;    8.590;  -14.540;  694.200
1114.472;    7.499;  -12.640;  606.540
1115.013;    7.070;  -11.620;  551.280
1115.555;    7.559;  -13.640;  587.100
1116.097;    6.852;  -15.380;  579.480
1116.638;    8.699;  -12.640;  684.600
1117.180;    8.661;   -9.850;  667.740
1117.721;    7.831;  -13.690;  568.580
1118.262;    8.252;  -12.680;  677.960
1118.804;    8.204;  -12.530;  637.340
1119.345;    6.899;  -11.690;  578.400
1119.886;    8.855;  -13.380;  704.040
1120.427;    6.143;  -14.070;  589.020
1120.969;    6.664;  -13.500;  597.920
1121.510;    6.706;  -11.480;  563.060
1122.051;    7.314;  -12.830;  723.580
1122.592;    6.091;  -14.290;  655.420
1123.133;    5.645;  -12.400;  547.940
1123.673;    7.874;  -10.130;  706.480
1124.214;    6.913;  -12.930;  612.460
1124.755;    7.217;  -14.380;  639.460
1125.296;    6.085;  -14.000;  627.320
1125.836;    7.210;  -10.070;  691.500
1126.377;    5.944;  -12.640;  599.660
1126.918;    6.882;  -12.960;  614.980
1127.458;    5.515;  -13.350;  622.220
1127.999;    6.653;  -10.750;  656.980
1128.539;    6.181;  -12.350;  694.240
1129.079;    5.084;  -14.860;  632.720
1129.620;    4.413;  -13.840;  558.100
1130.160;    5.133;  -12.330;  539.480
1130.700;    6.783;  -14.530;  640.840
1131.240;    5.372;  -12.530;  643.700
1131.781;    5.363;  -14.450;  619.680
1132.321;    6.155;   -9.790;  599.120
1132.861;    4.483;  -14.860;  564.200
1133.401;    3.781;  -14.290;  593.940
1133.941;    4.821;  -11.750;  626.280
1134.481;    4.359;   -9.920;  597.580
1135.020;    4.239;  -12.290;  609.160
1135.560;    4.332;  -11.650;  674.940
1136.100;    3.624;  -16.270;  501.160
1136.640;    4.574;  -10.890;  510.480
1137.179;    4.363;  -14.180;  537.960
1137.719;    4.263;  -16.250;  605.400
1138.258;    4.671;  -14.230;  587.360
1138.798;    4.585;   -9.090;  663.780
1139.337;    3.377;  -15.130;  482.840
1139.877;    4.523;  -13.680;  642.360
1140.416;    6.091;  -11.320;  878.060
1140.955;    3.183;  -10.860;  535.380
1141.494;    4.498;  -12.920;  669.280
1142.034;    2.326;  -13.930;  583.520
1142.573;    3.959;  -11.440;  646.280
1143.112;    3.479;  -12.000;  553.480
1143.651;    4.104;  -13.670;  536.480
1144.190;    4.242;  -12.730;  691.640
1144.729;    3.481;  -14.560;  607.420
1145.267;    3.600;  -11.830;  584.900
1145.806;    3.946;  -12.230;  637.040
1146.345;    2.454;  -14.130;  635.020
1146.884;    2.844;  -11.590;  622.500
1147.422;    2.437;  -12.550;  533.060
1147.961;    4.283;  -11.180;  708.460
1148.500;    3.211;  -11.510;  669.720
1149.038;    3.093;  -11.640;  632.500
1149.577;    3.061;  -10.130;  698.640
1150.115;    1.387;  -13.970;  452.280
1150.653;    2.556;  -14.520;  607.340
1151.192;    2.290;  -12.810;  552.920
1151.730;    2.532;   -9.100;  652.560
1152.268;    1.970;  -12.220;  589.520
1152.806;    1.580;  -14.140;  571.180
1153.344;    0.839;  -12.350;  577.640
1153.882;    2.055;   -8.980;  600.060
1154.421;    0.860;  -15.190;  470.620
1154.958;    0.827;  -15.210;  595.240
1155.496;    2.400;  -12.850;  645.280
1156.034;    2.211;   -9.940;  721.880
1156.572;    2.918;  -13.570;  667.060
1157.110;    0.440;  -14.590;  473.940
1157.647;    1.960;  -13.030;  676.960
1158.185;    0.907;  -12.140;  564.320
1158.723;    0.388;  -14.390;  509.200
1159.260;    1.491;  -14.090;  701.700
1159.798;    2.263;  -11.920;  658.160
1160.335;    1.111;  -11.110;  631.820

