
Integration time [ms]:   3.276
Averaging Nr. [scans]: 1000
Smoothing Nr. [pixels]: 0
Data measured with spectrometer [name]: 7414430SP
Wave   ;Sample   ;Dark     ;Reference
[nm]   ;[counts] ;[counts] ;[counts] 

288.544;  161.019;    7.793;  793.890
289.143;  163.777;    7.462;  681.602
289.742;  164.430;    8.602;  828.814
290.341;  150.357;    1.321;  789.841
290.940;  140.951;   -0.709;  730.702
291.538;  143.143;    0.881;  881.108
292.137;  142.547;    0.122;  792.581
292.736;  144.457;   -1.929;  975.101
293.335;  140.019;   -8.229;  735.086
293.934;  141.407;   -5.279;  781.677
294.532;  142.353;   -1.369; 1031.958
295.131;  129.636;   -7.641;  834.394
295.730;  128.849;   -8.420;  809.588
296.328;  126.145;   -5.611;  783.442
296.927;  124.754;   -5.781;  779.652
297.525;  127.297;   -6.361;  781.236
298.124;  118.685;  -11.382;  654.009
298.722;  123.071;   -7.641;  761.933
299.321;  119.412;   -6.811;  708.597
299.919;  116.004;   -6.991;  751.918
300.518;  112.352;  -10.362;  689.338
301.116;  115.490;   -9.581;  691.381
301.715;  116.076;   -4.891;  730.222
302.313;  114.906;   -8.801;  704.943
302.911;  109.220;   -8.522;  733.830
303.509;  114.083;   -6.171;  925.627
304.108;  112.344;   -7.311;  760.383
304.706;  111.608;   -8.321;  801.664
305.304;  106.479;  -10.222;  796.707
305.902;  110.599;   -6.021;  784.484
306.500;  106.253;   -4.971;  728.200
307.098;  106.344;   -7.061;  746.560
307.696;  104.268;   -8.801;  780.432
308.294;  103.073;   -6.411;  731.359
308.892;  103.982;   -2.901;  759.769
309.490;  101.942;   -5.041;  712.161
310.088;   99.438;   -5.002;  788.444
310.686;  103.638;   -2.041;  821.749
311.284;   99.329;   -2.351;  766.040
311.882;   97.333;   -4.422;  731.225
312.480;   94.154;   -4.192;  697.167
313.078;   95.500;   -1.172;  808.331
313.675;   95.915;   -2.601;  691.600
314.273;   90.802;   -1.312;  797.837
314.871;   90.101;   -3.942;  589.829
315.468;   87.812;   -2.802;  652.090
316.066;   91.142;   -0.701;  694.427
316.664;   83.844;   -4.362;  656.351
317.261;   87.558;   -2.872;  910.128
317.859;   83.413;   -2.022;  768.735
318.456;   83.772;   -0.531;  830.096
319.054;   80.654;   -3.912;  787.828
319.651;   78.446;   -4.752;  759.928
320.249;   77.899;   -2.602;  810.188
320.846;   74.723;   -0.821;  714.286
321.443;   72.603;   -4.642;  832.135
322.041;   70.579;   -5.002;  812.315
322.638;   67.071;   -3.982;  701.456
323.235;   68.078;   -3.411;  665.683
323.833;   65.707;   -7.361;  740.354
324.430;   60.808;   -8.611;  615.900
325.027;   61.487;   -4.061;  876.855
325.624;   61.056;   -4.031;  644.532
326.221;   57.766;   -7.481;  689.717
326.818;   57.883;   -5.281;  818.332
327.415;   60.559;   -7.460;  748.828
328.012;   60.280;   -5.510;  690.585
328.609;   58.444;   -7.880;  731.389
329.206;   56.685;   -8.331;  778.621
329.803;   56.230;   -5.121;  737.841
330.400;   58.871;   -4.510;  704.260
330.997;   59.848;   -6.441;  817.147
331.594;   58.146;   -8.831;  788.185
332.191;   64.333;   -7.621;  728.722
332.787;   67.461;   -4.591;  844.463
333.384;   67.024;   -7.412;  763.093
333.981;   65.481;   -8.293;  815.687
334.578;   68.899;   -7.052;  708.378
335.174;   71.035;   -3.102;  731.469
335.771;   69.922;   -5.943;  836.456
336.367;   68.224;   -7.393;  710.631
336.964;   72.802;   -4.063;  793.266
337.561;   69.780;   -3.813;  731.112
338.157;   65.849;   -4.654;  911.916
338.754;   63.663;   -7.934;  796.589
339.350;   63.448;   -4.414;  722.493
339.946;   64.598;   -4.664;  773.135
340.543;   55.834;   -6.375;  846.136
341.139;   50.007;   -9.815;  720.836
341.735;   48.204;   -4.526;  772.593
342.332;   46.862;   -4.895;  691.472
342.928;   46.346;   -4.295;  795.394
343.524;   39.645;   -5.476;  761.684
344.120;   36.406;   -5.856;  738.562
344.716;   39.550;   -2.155;  723.717
345.313;   37.506;   -6.275;  795.342
345.909;   32.251;   -8.815;  627.336
346.505;   32.717;   -5.305;  740.247
347.101;   34.391;   -2.674;  827.864
347.697;   34.068;   -4.344;  785.398
348.293;   28.418;   -9.975;  627.244
348.889;   29.426;   -5.774;  745.914
349.485;   28.347;   -5.004;  688.205
350.081;   28.976;   -4.704;  772.592
350.676;   24.333;   -6.635;  691.606
351.272;   28.111;   -4.504;  809.530
351.868;   28.357;   -3.914;  780.497
352.464;   25.357;   -9.044;  723.932
353.059;   22.154;   -8.314;  646.017
353.655;   24.956;   -7.024;  777.063
354.251;   25.860;   -5.343;  759.845
354.846;   20.821;   -8.604;  740.646
355.442;   18.310;   -6.945;  753.071
356.038;   20.612;   -7.564;  751.708
356.633;   20.475;   -5.814;  728.594
357.229;   17.999;   -7.364;  724.757
357.824;   16.801;   -8.024;  703.600
358.420;   15.746;   -9.384;  679.726
359.015;   15.410;   -5.104;  695.357
359.610;   16.486;   -6.854;  763.920
360.206;   11.040;  -10.185;  603.240
360.801;   12.495;   -7.054;  646.503
361.396;   15.876;   -5.034;  725.975
361.992;   11.368;   -8.284;  668.220
362.587;    8.188;   -8.625;  670.160
363.182;   10.101;   -7.674;  689.631
363.777;   11.478;   -5.164;  738.242
364.372;   11.890;   -8.604;  737.314
364.967;    6.915;   -9.055;  680.744
365.563;   10.946;   -6.114;  815.567
366.158;    8.457;   -5.814;  685.161
366.753;    8.998;   -7.854;  649.263
367.348;    7.081;   -7.804;  746.056
367.942;    7.257;   -7.954;  697.298
368.537;    6.243;   -4.984;  754.245
369.132;    5.813;   -8.564;  703.428
369.727;    2.682;   -8.855;  638.079
370.322;    3.671;   -6.245;  580.186
370.917;    3.010;   -6.425;  710.646
371.511;    6.574;   -6.294;  861.834
372.106;    2.659;   -7.685;  776.964
372.701;   -0.108;   -7.335;  585.988
373.296;    4.219;   -4.564;  863.135
373.890;   -0.084;  -10.235;  647.840
374.485;   -2.058;   -7.885;  691.199
375.079;    1.525;   -7.324;  738.685
375.674;    2.712;   -3.494;  812.970
376.268;   -1.532;   -8.525;  691.759
376.863;   -6.042;  -10.086;  580.327
377.457;    0.036;   -7.025;  662.490
378.052;   -2.186;   -3.585;  764.884
378.646;   -3.300;   -7.595;  741.167
379.240;   -3.323;   -8.335;  721.176
379.835;   -2.874;   -5.785;  636.978
380.429;   -5.294;   -4.335;  562.557
381.023;   -5.323;   -6.805;  779.205
381.617;   -7.028;   -9.195;  680.106
382.212;   -3.920;   -6.905;  685.303
382.806;   -3.170;   -3.745;  760.690
383.400;   -7.668;   -7.745;  672.281
383.994;   -8.787;   -9.765;  664.870
384.588;   -4.072;   -6.564;  697.701
385.182;   -3.690;   -5.344;  726.624
385.776;   -5.113;   -8.514;  706.875
386.370;   -8.106;   -9.555;  681.968
386.964;   -7.198;   -8.715;  684.155
387.558;   -5.099;   -6.174;  598.360
388.152;   -9.195;   -8.725;  681.959
388.745;   -6.841;   -7.965;  814.707
389.339;   -5.621;   -5.924;  747.642
389.933;   -4.930;   -5.524;  695.370
390.527;   -6.313;   -7.114;  859.029
391.120;  -11.702;  -10.725;  595.318
391.714;   -8.736;   -8.035;  711.633
392.308;   -5.677;   -3.574;  780.253
392.901;   -9.783;   -7.245;  642.460
393.495;  -10.675;   -9.285;  595.414
394.089;   -8.752;   -5.895;  760.452
394.682;   -9.779;   -4.295;  697.188
395.275;  -10.665;   -9.875;  719.927
395.869;  -11.991;   -8.485;  667.314
396.462;   -9.601;   -7.455;  616.609
397.056;   -5.713;   -5.424;  776.621
397.649;  -10.673;   -6.605;  731.575
398.242;   -7.652;   -8.224;  712.645
398.836;   -7.635;   -7.474;  766.408
399.429;   -8.538;   -7.094;  631.041
400.022;  -12.185;   -9.475;  665.902
400.615;   -9.222;   -7.145;  805.609
401.208;   -7.043;   -7.174;  691.451
401.802;   -9.670;   -5.515;  699.329
402.395;  -10.986;   -9.875;  683.502
402.988;  -11.961;   -8.845;  696.627
403.581;   -8.660;   -8.874;  646.878
404.174;   -6.448;   -5.324;  686.568
404.767;   -8.324;   -9.575;  638.583
405.360;  -11.182;  -10.965;  621.445
405.953;   -6.131;   -8.764;  759.034
406.545;   -6.397;   -7.514;  725.342
407.138;   -9.805;  -10.025;  618.350
407.731;   -8.434;  -10.034;  613.303
408.324;   -4.957;   -9.374;  660.554
408.917;   -5.569;   -6.534;  681.864
409.509;   -7.227;   -8.004;  740.396
410.102;   -8.505;   -9.875;  643.948
410.695;   -3.436;   -8.604;  665.758
411.287;   -4.012;   -6.794;  599.821
411.880;   -5.404;   -9.334;  585.421
412.472;   -8.485;  -10.254;  613.092
413.065;   -5.383;   -6.714;  629.408
413.657;   -3.571;   -7.234;  576.678
414.250;   -2.567;  -10.544;  646.681
414.842;   -4.339;   -9.744;  676.353
415.434;   -3.061;   -6.994;  570.463
416.027;    1.353;   -5.893;  652.196
416.619;   -1.078;   -7.264;  713.400
417.211;   -1.175;  -10.374;  599.352
417.804;    2.872;   -7.993;  628.499
418.396;   -1.723;   -7.234;  607.643
418.988;    0.477;   -9.443;  659.238
419.580;   -3.032;  -10.724;  568.276
420.172;   -0.131;  -10.323;  536.196
420.764;    2.492;   -8.793;  672.482
421.356;    2.557;  -11.143;  636.898
421.948;    0.518;   -8.293;  677.661
422.540;    6.410;   -7.893;  680.027
423.132;    6.176;   -7.082;  600.641
423.724;    2.267;   -8.653;  561.267
424.316;    5.320;  -10.213;  621.345
424.908;    8.243;   -9.762;  591.517
425.500;    8.632;   -5.572;  647.978
426.092;    8.924;   -8.422;  648.268
426.683;    8.040;   -9.283;  684.836
427.275;   11.045;   -7.852;  641.471
427.867;   12.959;   -5.272;  668.948
428.458;   13.353;   -7.682;  732.344
429.050;   11.239;  -10.612;  680.749
429.642;   14.339;   -9.882;  743.124
430.233;   14.407;   -6.962;  569.356
430.825;   15.937;   -6.842;  724.809
431.416;   12.657;   -9.672;  698.241
432.008;   16.727;   -6.552;  651.723
432.599;   17.363;   -6.891;  656.073
433.190;   14.762;  -10.912;  637.670
433.782;   13.519;  -11.172;  590.395
434.373;   21.539;   -6.061;  884.765
434.964;   20.279;   -8.251;  602.920
435.556;   17.418;   -9.722;  634.537
436.147;   20.252;   -9.082;  758.490
436.738;   20.554;   -8.041;  701.099
437.329;   26.072;   -7.341;  721.723
437.920;   18.076;   -8.162;  666.688
438.511;   18.798;  -11.802;  564.526
439.103;   25.596;  -10.191;  623.998
439.694;   27.709;   -7.601;  681.583
440.285;   28.031;   -8.541;  764.432
440.876;   26.333;   -9.751;  845.738
441.466;   25.908;   -9.401;  575.162
442.057;   31.074;   -7.760;  665.814
442.648;   29.711;   -9.971;  746.255
443.239;   27.968;  -11.001;  620.477
443.830;   33.311;   -7.990;  704.958
444.421;   35.186;   -7.910;  655.474
445.011;   31.301;   -8.131;  693.619
445.602;   30.966;   -7.111;  743.126
446.193;   33.747;  -10.920;  488.117
446.783;   37.700;   -6.500;  640.397
447.374;   32.566;   -8.671;  692.759
447.964;   34.015;  -10.781;  713.770
448.555;   41.987;   -9.650;  822.742
449.145;   38.821;   -8.660;  662.853
449.736;   39.643;   -8.990;  803.179
450.326;   39.529;   -9.500;  713.626
450.917;   45.443;   -8.680;  675.324
451.507;   43.908;   -7.520;  600.661
452.097;   44.680;   -8.590;  746.267
452.688;   46.300;  -11.340;  742.160
453.278;   45.469;  -10.100;  566.840
453.868;   49.096;   -6.019;  793.550
454.458;   48.980;   -9.440;  651.141
455.048;   48.242;  -10.560;  711.783
455.639;   50.055;  -11.799;  567.096
456.229;   53.550;   -6.899;  710.694
456.819;   56.369;   -7.389;  751.158
457.409;   55.380;  -11.119;  773.993
457.999;   59.197;   -9.289;  737.505
458.589;   58.387;   -6.139;  686.606
459.179;   58.226;   -8.729;  717.658
459.769;   56.674;   -9.789;  627.099
460.358;   61.974;  -10.259;  797.262
460.948;   61.586;   -7.299;  689.503
461.538;   63.327;  -10.289;  660.677
462.128;   60.602;  -11.269;  664.934
462.717;   67.985;   -9.368;  710.326
463.307;   70.478;   -7.908;  705.846
463.897;   67.082;   -9.599;  656.942
464.486;   66.344;   -9.769;  837.128
465.076;   72.154;   -8.048;  733.776
465.666;   74.393;   -9.358;  652.900
466.255;   71.523;   -7.919;  785.651
466.845;   71.238;  -11.689;  666.749
467.434;   75.368;   -7.818;  725.873
468.023;   74.997;   -7.678;  658.357
468.613;   72.816;  -10.939;  713.946
469.202;   77.534;  -10.118;  646.507
469.791;   82.156;   -9.108;  737.811
470.381;   83.404;   -6.058;  742.813
470.970;   83.877;  -10.428;  711.099
471.559;   83.701;  -10.268;  733.291
472.148;   86.845;   -8.448;  675.737
472.738;   89.584;   -6.917;  765.466
473.327;   89.341;  -11.978;  637.529
473.916;   88.521;  -11.888;  737.446
474.505;   92.254;   -9.437;  751.703
475.094;   95.786;   -6.747;  806.570
475.683;   95.504;   -9.367;  797.699
476.272;   96.786;  -12.637;  730.632
476.861;   99.404;  -10.027;  706.754
477.449;  105.490;   -8.716;  728.487
478.038;   99.979;   -9.577;  692.513
478.627;  101.303;   -9.718;  714.852
479.216;  107.570;   -8.947;  769.441
479.805;  111.049;   -6.256;  783.375
480.393;  110.584;   -7.937; 1008.945
480.982;  110.477;   -7.717;  874.501
481.571;  116.774;   -9.266;  858.333
482.159;  118.167;   -7.636;  705.386
482.748;  117.799;   -9.667;  821.385
483.336;  122.271;  -10.376;  858.209
483.925;  123.420;   -7.147;  774.373
484.513;  130.269;   -7.996;  758.962
485.102;  127.208;  -10.027;  810.965
485.690;  136.019;  -10.446; 1011.050
486.278;  138.327;   -8.446;  979.329
486.867;  138.427;   -6.356;  809.662
487.455;  140.878;   -9.136;  898.229
488.043;  142.615;  -10.646;  748.361
488.631;  152.514;   -7.456; 1005.079
489.220;  155.320;   -6.636;  908.626
489.808;  155.524;  -11.036;  741.415
490.396;  165.116;  -10.246;  914.645
490.984;  172.505;   -8.556;  830.161
491.572;  184.137;   -5.886;  940.315
492.160;  192.434;   -9.486;  919.081
492.748;  205.401;  -10.976;  884.341
493.336;  230.828;   -8.776; 1019.693
493.924;  259.326;   -5.465;  958.077
494.512;  293.521;   -9.986; 1066.638
495.100;  343.269;  -10.636; 1103.280
495.687;  406.811;  -10.885; 1206.373
496.275;  475.163;   -8.126; 1150.796
496.863;  550.716;  -10.586; 1281.171
497.451;  670.307;  -11.926; 1386.805
498.038;  785.143;  -10.885; 1556.729
498.626;  899.365;   -6.315; 1741.407
499.214; 1075.614;   -7.326; 2016.609
499.801; 1287.281;  -11.906; 2220.633
500.389; 1515.870;  -10.466; 2312.494
500.976; 1814.679;   -5.236; 2744.849
501.564; 2300.647;   -8.936; 3148.565
502.151; 2834.179;  -13.176; 3515.999
502.738; 3327.528;  -10.646; 3971.274
503.326; 3748.572;   -9.525; 4403.796
503.913; 4178.089;  -10.856; 5161.749
504.500; 4687.683;  -11.586; 5986.420
505.088; 5150.598;  -10.336; 6381.201
505.675; 5571.506;   -6.355; 6925.547
506.262; 6072.839;   -9.046; 7619.060
506.849; 6485.383;  -10.416; 8733.969
507.436; 6903.367;  -10.305; 9790.121
508.023; 7418.027;   -5.496; 9985.472
508.610; 8260.506;   -7.856;10434.618
509.197;10105.154;  -10.097;11198.435
509.784;11822.074;  -10.886;12391.194
510.371;12809.968;   -9.315;13603.713
510.958;13583.567;   -9.936;14426.586
511.545;13923.066;   -9.326;15243.775
512.132;14888.475;  -10.075;15945.876
512.719;15437.469;   -7.796;16340.369
513.305;16692.654;  -10.606;18011.766
513.892;18074.346;  -11.486;19754.971
514.479;19903.982;   -9.126;20967.805
515.066;21102.650;   -6.026;22299.793
515.652;21528.926;   -8.466;22908.660
516.239;23002.611;  -10.886;23798.875
516.825;25030.855;  -11.496;25567.275
517.412;26158.291;   -5.796;28154.959
517.998;27767.621;  -10.506;28344.111
518.585;28295.674;  -10.076;27134.219
519.171;27665.496;   -8.315;27268.576
519.758;27296.469;   -8.596;28964.129
520.344;28326.527;   -8.466;30664.494
520.930;31554.598;  -11.006;32550.605
521.516;31977.463;  -10.495;35422.895
522.103;31527.188;   -5.526;38280.004
522.689;32435.230;   -8.746;37835.117
523.275;34840.625;  -11.376;37288.613
523.861;36999.184;  -11.156;37281.395
524.447;39258.398;   -8.135;37846.949
525.033;39972.316;   -7.896;38321.949
525.619;39671.133;  -12.476;38579.285
526.205;39976.973;   -9.516;40622.875
526.791;39392.488;   -6.926;42258.836
527.377;42131.309;   -8.346;42966.902
527.963;44154.332;   -8.717;42018.949
528.549;42360.129;  -11.016;42476.828
529.135;41727.473;   -8.536;41854.852
529.721;40837.754;   -9.666;41237.711
530.306;39205.652;  -10.066;41259.445
530.892;39262.195;  -11.356;41506.047
531.478;40057.109;   -6.596;43559.613
532.063;40815.551;   -8.836;47695.563
532.649;44037.195;  -10.047;50808.324
533.235;46706.488;   -9.746;51787.500
533.820;46185.617;   -6.566;52145.035
534.406;45139.711;  -10.817;51133.488
534.991;47476.551;   -9.416;49996.805
535.576;47873.785;   -9.036;48882.852
536.162;49152.113;   -6.156;46942.285
536.747;49147.523;  -11.607;45711.746
537.333;48539.363;  -11.787;48510.180
537.918;47464.836;  -12.437;50439.891
538.503;47196.352;   -7.196;50863.711
539.088;46619.023;  -10.556;50906.922
539.673;47437.555;   -8.767;52621.965
540.259;48267.363;  -10.026;52368.094
540.844;49977.066;   -7.416;50879.109
541.429;48598.832;   -9.467;52077.777
542.014;48937.211;   -9.527;52716.695
542.599;51272.410;   -9.946;52363.281
543.184;52646.664;   -7.927;53187.137
543.769;51737.410;   -9.297;54697.605
544.354;48479.672;  -10.127;53913.914
544.938;45087.961;   -9.267;49680.164
545.523;46464.430;   -6.506;47386.277
546.108;51621.680;   -9.787;49151.949
546.693;52669.824;  -11.587;51384.637
547.278;53141.355;  -10.986;51853.254
547.862;49070.977;   -8.206;51173.750
548.447;46051.227;  -10.067;51691.395
549.031;48590.953;   -9.637;52456.703
549.616;50926.215;   -9.926;52714.516
550.201;48225.270;   -6.347;52414.598
550.785;45755.059;   -7.917;52355.059
551.370;43507.215;  -10.867;54589.453
551.954;44996.633;   -9.047;58267.348
552.538;48506.637;   -7.827;59062.176
553.123;47754.391;  -10.287;58115.285
553.707;43663.320;  -12.178;56556.285
554.291;45508.723;   -8.717;56201.668
554.876;48071.957;   -7.457;55335.762
555.460;49734.520;  -10.387;54155.703
556.044;50195.387;   -9.618;53721.484
556.628;49390.754;  -11.567;53731.016
557.212;49197.426;   -8.097;54312.531
557.796;48938.129;  -11.077;53797.773
558.380;47043.227;  -11.108;56145.984
558.964;44976.430;   -9.057;57277.930
559.548;44382.414;   -6.977;56459.641
560.132;44973.926;  -11.457;54434.543
560.716;42926.828;  -11.378;54800.617
561.300;44007.805;   -9.577;57606.945
561.884;46815.090;   -7.127;58972.445
562.467;46961.035;   -7.118;57327.570
563.051;46797.785;  -13.358;54962.434
563.635;45662.938;  -10.178;52594.473
564.219;46063.363;   -7.837;50610.410
564.802;45654.340;  -11.398;49551.180
565.386;46746.074;  -12.788;48370.953
565.969;46386.246;   -9.077;48178.871
566.553;45746.348;   -6.207;49957.305
567.136;43312.051;   -8.568;50369.594
567.720;42776.473;  -11.868;49492.004
568.303;43913.316;   -8.268;50616.352
568.887;42757.465;   -8.698;50727.148
569.470;41386.504;   -6.808;51698.379
570.053;40070.359;  -13.188;52122.078
570.637;37702.063;  -12.037;52536.438
571.220;36935.824;   -8.577;51186.098
571.803;38601.574;   -8.498;51032.762
572.386;40750.082;  -10.498;49609.887
572.969;41796.563;   -9.388;48285.926
573.552;37978.133;   -8.338;47624.285
574.135;36609.930;   -8.518;45498.641
574.718;35524.367;  -13.628;41970.434
575.301;33923.113;  -10.893;41447.137
575.884;32321.861;   -8.158;40923.836
576.467;36410.887;  -10.328;45267.723
577.050;35783.336;  -13.058;48175.543
577.633;34221.500;   -9.458;47729.328
578.216;34351.371;   -8.928;47579.793
578.799;35117.914;   -9.358;47820.996
579.381;35694.484;  -11.388;48115.551
579.964;34056.684;  -11.718;47333.766
580.547;34705.102;   -8.588;46668.969
581.129;36118.973;   -8.859;44466.141
581.712;35334.523;  -10.729;44164.922
582.294;36391.180;  -11.118;46477.855
582.877;34351.953;   -5.218;48244.254
583.459;34080.012;   -8.679;47437.895
584.042;35077.781;  -10.709;46943.219
584.624;38277.230;  -11.669;46792.227
585.206;38860.418;   -8.218;46557.250
585.789;36839.746;  -10.569;45793.773
586.371;35544.234;  -11.859;43836.391
586.953;34083.523;  -10.719;42972.492
587.536;34743.508;   -7.198;42487.211
588.118;36641.094;   -8.720;42086.414
588.700;36459.195;  -10.439;43389.930
589.282;35823.199;   -9.198;43646.039
589.864;35667.449;   -9.199;43438.109
590.446;33614.324;  -11.319;43151.926
591.028;32026.904;  -11.159;42781.867
591.610;31273.768;  -11.779;42839.098
592.192;28893.068;   -7.668;42820.402
592.774;30061.207;  -11.949;40724.277
593.356;31256.053;  -12.129;39874.789
593.937;31304.660;  -10.669;39980.648
594.519;32610.195;   -6.509;42069.633
595.101;34918.590;  -10.849;42976.031
595.683;34104.098;  -11.679;44084.441
596.264;31713.766;   -9.049;43478.797
596.846;31986.285;   -8.849;43803.672
597.427;33045.742;   -9.570;42986.934
598.009;32235.678;  -12.620;42832.219
598.591;31649.852;  -10.039;42580.086
599.172;31866.631;  -10.369;43061.805
599.753;31849.406;   -9.140;41691.469
600.335;31668.875;  -11.430;40692.520
600.916;32448.086;   -9.939;39982.422
601.498;32248.395;   -8.479;40318.617
602.079;31033.861;  -10.920;40670.609
602.660;32310.006;  -11.480;41450.898
603.241;33101.715;  -11.699;41137.738
603.823;33204.199;   -9.579;38868.797
604.404;33319.668;  -10.620;38182.785
604.985;31896.082;  -10.450;38078.047
605.566;31104.994;   -9.129;38056.633
606.147;31106.818;   -7.510;37020.418
606.728;32090.609;  -10.660;37883.359
607.309;32552.531;  -11.740;38748.273
607.890;31402.877;   -9.759;38850.230
608.471;30003.428;   -8.250;37457.918
609.051;31672.631;   -9.240;36066.457
609.632;30442.543;  -12.120;35991.074
610.213;28375.283;   -9.110;37402.641
610.794;28913.244;   -8.030;38383.363
611.374;31377.127;   -8.110;40562.387
611.955;32167.072;  -13.560;38533.727
612.536;30419.281;  -11.400;36951.789
613.116;30066.811;   -8.070;37197.891
613.697;31524.311;  -10.830;38411.125
614.277;31682.709;  -11.641;38673.938
614.858;30455.275;  -13.310;37075.863
615.438;29618.986;   -7.460;35092.906
616.019;28954.314;   -7.601;33666.301
616.599;29402.379;  -12.020;34189.023
617.179;30780.416;  -11.780;36952.047
617.760;32947.168;   -8.570;39582.574
618.340;32876.035;  -11.471;38943.977
618.920;30561.406;  -11.170;37594.156
619.500;31676.000;  -11.071;37866.938
620.080;32471.650;   -7.750;37869.043
620.660;31843.873;  -12.711;36868.617
621.241;31050.029;  -10.211;36352.309
621.821;29816.613;  -10.961;35459.520
622.401;28765.303;   -7.720;35207.414
622.980;29977.850;   -8.981;35980.422
623.560;30188.848;   -9.331;37351.328
624.140;28535.195;   -9.850;34388.582
624.720;26180.793;   -7.451;32368.764
625.300;24959.258;   -9.070;32638.629
625.880;28611.109;  -12.601;34599.035
626.459;31403.752;  -11.751;36831.738
627.039;32385.246;   -9.281;38299.098
627.619;33688.578;   -8.801;38289.574
628.198;33579.742;  -12.071;37220.695
628.778;31630.627;   -9.461;37632.563
629.357;32097.611;   -8.491;38003.012
629.937;32288.764;   -9.721;38402.039
630.516;32265.447;   -9.951;37868.801
631.096;31707.645;  -11.731;35760.410
631.675;33432.441;   -8.572;35225.219
632.254;33641.730;  -11.282;35130.289
632.834;33285.293;  -13.322;35794.570
633.413;33549.438;  -10.301;35788.922
633.992;33160.676;   -8.582;34532.863
634.571;33292.691;   -8.352;33590.113
635.151;32159.438;  -11.912;34943.863
635.730;30848.086;  -10.511;35352.523
636.309;32652.402;   -7.731;35366.605
636.888;32912.789;   -9.952;36165.637
637.467;32337.666;  -11.672;37515.902
638.046;31608.039;   -8.901;39288.695
638.625;31822.688;   -7.912;38279.699
639.204;32621.605;  -10.022;37741.598
639.782;31509.984;  -12.252;38364.551
640.361;29710.994;  -10.041;36740.621
640.940;28179.170;  -11.161;34950.082
641.519;29481.602;   -9.701;34137.398
642.097;32587.512;  -11.271;35654.258
642.676;33727.215;   -8.651;35637.957
643.255;35280.582;   -8.711;36567.074
643.833;33710.125;   -9.581;37809.434
644.412;30584.064;  -13.711;37337.293
644.990;30276.088;  -11.811;37018.531
645.569;32302.426;   -9.411;36518.469
646.147;32112.775;  -10.291;36186.430
646.726;30871.225;  -12.401;36267.688
647.304;29830.053;  -10.411;36647.625
647.882;30231.355;   -9.651;39286.742
648.461;31790.215;   -9.631;39157.703
649.039;34337.074;  -11.881;35412.883
649.617;35615.348;   -9.661;34744.918
650.195;34345.770;   -9.301;35403.098
650.773;32497.611;  -10.511;35053.797
651.352;31082.473;  -11.521;33756.816
651.930;28123.650;  -12.211;31868.773
652.508;24606.420;   -9.171;33121.551
653.086;25537.117;   -9.371;33564.793
653.663;30215.623;  -13.161;34054.668
654.241;32136.232;  -13.031;35693.309
654.819;34160.430;   -9.371;36422.906
655.397;34501.320;  -10.511;38213.484
655.975;32876.852;  -10.371;39507.625
656.553;31864.068;  -10.051;39498.223
657.130;31493.943;  -10.061;40395.480
657.708;29855.932;   -9.561;39242.020
658.286;26465.838;  -11.511;38920.020
658.863;26099.080;  -10.261;40202.898
659.441;30232.822;   -7.531;39677.938
660.018;32474.727;   -9.501;40413.355
660.596;31290.039;  -13.301;39931.414
661.173;29391.438;  -11.211;39604.531
661.750;30589.518;   -9.951;39700.070
662.328;31165.215;   -9.390;39292.809
662.905;29862.645;  -11.330;38235.648
663.482;26826.920;   -9.050;36212.305
664.060;24524.578;   -8.240;35944.945
664.637;26288.523;  -10.050;35170.785
665.214;29463.277;  -11.760;34197.523
665.791;30791.584;  -10.530;34549.520
666.368;30182.367;   -9.690;35118.578
666.945;30808.902;   -9.320;36019.418
667.522;30271.834;  -11.860;36048.438
668.099;31218.219;  -10.770;36243.914
668.676;32353.428;   -6.260;35958.875
669.253;34429.234;   -7.000;37384.730
669.830;35563.859;  -10.190;36779.629
670.407;32887.801;   -9.550;35231.289
670.984;32250.361;   -9.260;35544.270
671.560;29304.813;   -9.280;35466.867
672.137;23791.873;  -11.810;34280.863
672.714;24569.391;  -11.490;34632.863
673.290;30539.359;   -7.740;35135.422
673.867;31705.557;  -10.660;36114.480
674.443;31485.143;  -12.230;36152.859
675.020;30887.400;  -10.450;35327.238
675.596;31424.191;   -9.260;35795.176
676.173;31683.506;  -10.780;35430.355
676.749;30080.000;  -13.690;33549.516
677.326;29054.680;  -11.980;32210.012
677.902;28525.688;   -8.630;32068.871
678.478;29488.928;  -10.730;32583.891
679.054;30263.377;  -10.520;32088.928
679.631;30947.594;  -11.920;30978.848
680.207;30943.402;   -7.490;33160.887
680.783;32117.158;   -9.860;35570.363
681.359;32675.303;  -13.380;36125.184
681.935;32303.383;  -12.480;35240.922
682.511;30962.912;   -7.900;34429.961
683.087;30635.793;   -7.710;34463.680
683.663;30356.137;  -11.480;34648.898
684.239;29663.113;  -14.090;34546.457
684.815;29020.148;   -7.560;35586.375
685.390;29166.586;   -9.910;35821.895
685.966;30017.426;  -11.159;35085.871
686.542;30324.539;  -11.169;34198.230
687.118;31740.670;   -5.959;32847.707
687.693;31637.893;  -10.329;32794.027
688.269;31300.939;  -12.059;33072.367
688.844;32610.285;  -10.909;33141.664
689.420;32146.977;   -8.019;33965.742
689.995;30594.641;   -8.399;34655.523
690.571;31369.563;  -10.949;33576.742
691.146;31384.479;   -9.619;32657.219
691.722;30166.830;   -8.999;32526.979
692.297;28541.988;  -11.589;33014.617
692.872;28574.770;  -11.739;34012.254
693.448;31349.684;  -11.059;34237.434
694.023;31525.195;  -10.139;34142.672
694.598;28012.535;   -9.029;34132.031
695.173;28890.182;  -13.319;34205.250
695.748;30616.250;  -10.169;32882.488
696.323;29108.527;   -8.339;32864.906
696.898;27943.008;   -8.169;33170.004
697.473;27782.277;  -12.309;32432.984
698.048;27550.795;  -10.989;31649.303
698.623;27323.516;   -9.329;30778.141
699.198;28220.857;   -9.849;31140.119
699.773;29080.021;  -12.329;31764.299
700.348;30684.584;  -10.389;31780.816
700.922;30387.270;   -9.269;32046.375
701.497;30502.975;   -9.329;32603.574
702.072;31690.719;  -10.789;34799.871
702.646;30585.021;  -10.839;35793.172
703.221;31074.123;   -9.099;35201.590
703.795;32742.186;  -10.939;34764.527
704.370;30463.229;  -12.859;34307.367
704.944;28662.584;  -11.559;33509.887
705.519;29013.168;   -7.939;31388.584
706.093;30722.441;  -10.499;31340.104
706.668;32328.859;  -11.289;32630.281
707.242;32151.199;  -11.509;32728.779
707.816;29531.314;   -9.639;32947.238
708.390;28731.219;  -11.429;33277.855
708.965;29362.742;  -11.869;33834.336
709.539;31310.863;  -11.689;33709.273
710.113;31145.555;  -10.478;33044.313
710.687;29876.805;  -10.228;31953.992
711.261;28717.318;  -13.698;30505.949
711.835;28940.107;  -13.378;30262.369
712.409;28666.676;   -9.698;31254.447
712.983;27084.063;  -11.898;32754.986
713.557;28653.189;  -15.138;34018.824
714.131;27705.547;  -14.098;34579.625
714.704;27788.244;   -9.958;33890.262
715.278;29208.418;  -10.028;33531.102
715.852;27800.275;  -11.148;33601.660
716.425;26936.023;   -9.068;33515.117
716.999;26309.221;  -10.038;33185.555
717.573;25956.291;   -9.798;33905.996
718.146;25404.326;  -12.378;35199.293
718.720;25318.709;  -11.918;35060.551
719.293;26175.443;   -8.088;34973.230
719.867;28566.705;  -10.888;36394.449
720.440;31260.041;  -11.938;36663.008
721.013;31759.301;  -12.818;35102.426
721.587;29150.297;  -10.298;33985.266
722.160;27781.199;  -10.048;33524.965
722.733;26765.920;  -12.108;32987.043
723.306;26440.920;  -10.818;33066.301
723.880;27563.094;   -8.908;33399.500
724.453;26075.598;   -9.878;33468.297
725.026;26471.041;  -11.188;33816.637
725.599;30387.043;  -11.678;32797.996
726.172;30533.596;   -9.618;33187.434
726.745;27202.861;   -8.258;35136.613
727.318;26166.488;  -12.978;35751.730
727.891;26057.996;  -12.148;35890.430
728.463;25909.426;   -8.968;34822.090
729.036;25280.299;  -10.188;32895.086
729.609;25469.025;  -11.788;31823.225
730.182;24303.090;  -11.788;31445.283
730.754;22464.385;  -10.268;32373.223
731.327;21903.205;   -9.998;33676.820
731.900;23231.275;  -12.228;33417.000
732.472;24539.369;  -13.848;31978.498
733.045;24563.477;   -8.698;30368.777
733.617;22921.020;  -10.607;30574.215
734.190;23975.527;  -11.507;31280.975
734.762;25267.822;  -13.647;31674.412
735.334;24991.252;   -9.767;31247.291
735.907;24827.195;   -9.897;29876.211
736.479;24748.533;  -11.637;29808.488
737.051;26915.709;   -9.567;30233.547
737.623;27613.350;   -8.187;31469.086
738.195;26612.385;  -11.187;31784.225
738.768;25286.102;  -12.337;32120.523
739.340;23073.992;  -12.227;32094.342
739.912;22082.727;  -11.057;31312.680
740.484;21408.688;  -10.207;31946.238
741.056;20558.701;  -10.047;32984.059
741.628;21465.535;  -13.627;33897.715
742.199;23359.916;   -7.177;33213.016
742.771;26265.023;  -10.797;31369.113
743.343;27805.170;  -11.997;31865.473
743.915;27337.658;  -12.867;32388.631
744.487;24566.617;   -7.617;31079.568
745.058;21460.951;   -9.557;30570.107
745.630;21536.260;   -9.877;29970.127
746.201;22882.303;  -14.177;29186.766
746.773;23400.465;   -9.237;28805.723
747.344;22935.500;   -9.847;29591.223
747.916;21815.645;  -11.657;31412.201
748.487;22190.588;  -10.587;32194.898
749.059;23277.400;   -8.707;32533.719
749.630;23708.014;  -10.537;32158.518
750.201;23096.646;  -11.687;30855.395
750.773;21652.139;  -11.647;28622.555
751.344;20595.719;   -7.147;28405.732
751.915;21373.363;   -9.757;28461.551
752.486;22568.154;  -12.427;27842.850
753.057;22158.973;  -12.227;27845.008
753.628;22293.273;  -10.417;27728.107
754.199;21289.736;  -11.767;27381.086
754.770;21244.926;  -11.187;25882.203
755.341;21488.939;  -10.507;25886.184
755.912;20176.332;   -9.387;26050.861
756.483;18419.412;  -10.647;26798.779
757.054;18825.869;  -11.837;27048.238
757.625;19046.525;  -12.716;26294.838
758.195;19303.084;   -9.666;26142.076
758.766;20036.895;   -8.656;26392.234
759.337;19489.068;  -12.856;26334.594
759.907;19495.490;  -13.366;27579.652
760.478;19331.545;   -8.576;28352.770
761.048;19528.727;  -10.526;27325.088
761.619;19560.871;  -11.116;26460.428
762.189;18271.234;  -12.136;26029.826
762.760;17781.670;   -9.456;26430.145
763.330;18313.482;   -7.136;26670.902
763.900;18756.801;  -11.786;26603.021
764.471;17976.557;  -11.546;25542.740
765.041;16850.383;   -8.096;24358.459
765.611;16407.352;   -8.876;23991.297
766.181;16338.701;  -12.196;24470.236
766.751;16071.984;  -11.636;24845.975
767.321;16360.287;  -10.156;24533.633
767.891;16294.073;  -11.766;24916.492
768.461;16659.828;  -14.936;24776.771
769.031;17665.227;  -12.356;24757.988
769.601;18213.963;   -7.526;24181.088
770.171;17903.791;  -10.766;23670.387
770.741;16757.098;  -13.176;22960.045
771.311;16286.729;  -10.616;22917.523
771.880;16398.609;   -9.576;23562.941
772.450;16094.080;  -10.336;24216.500
773.020;16110.003;  -13.516;24140.398
773.589;16840.904;  -13.466;24414.857
774.159;16523.469;   -8.686;23858.717
774.729;15800.261;   -9.476;22942.135
775.298;14430.805;  -13.666;22324.033
775.867;13920.515;  -11.716;21140.313
776.437;14197.217;   -9.906;20838.092
777.006;13439.621;  -12.166;20599.510
777.576;12694.955;  -12.356;20508.809
778.145;12821.896;  -11.646;20732.947
778.714;13023.971;   -8.226;21062.465
779.283;13546.294;   -9.556;20949.664
779.853;14134.272;  -14.116;20508.623
780.422;13693.213;  -11.506;20649.082
780.991;13291.388;   -9.556;21527.520
781.560;13028.144;   -9.095;22632.658
782.129;12511.645;  -12.135;23048.277
782.698;12523.434;  -10.865;23438.555
783.267;12466.049;   -9.335;23267.734
783.836;12483.873;  -11.045;22415.133
784.404;13178.539;  -13.865;20443.152
784.973;12785.488;  -13.095;19699.150
785.542;11693.130;  -11.575;19763.828
786.111;11125.741;   -9.705;20341.408
786.679;11589.350;  -12.105;20207.967
787.248;11840.119;  -12.455;19516.465
787.817;11193.458;  -11.535;18900.363
788.385;11327.290;   -9.765;17879.121
788.954;11872.678;  -14.005;17658.301
789.522;11562.687;  -11.955;17788.879
790.090;11456.001;  -10.135;18118.277
790.659;12434.335;  -10.975;18338.736
791.227;12634.390;  -13.375;18508.615
791.795;11977.271;  -12.375;17898.254
792.364;11432.666;  -10.725;17295.133
792.932;11402.376;   -9.715;16822.051
793.500;11450.749;  -12.675;17040.148
794.068;11002.288;  -13.495;17179.787
794.636; 9812.141;  -10.885;16664.246
795.204; 8879.647;  -11.045;16524.545
795.772; 9429.115;  -13.175;17274.564
796.340;10791.983;  -12.445;17891.002
796.908;10643.964;   -9.735;17648.561
797.476;10588.179;   -9.815;17064.080
798.044;10997.340;  -13.985;16672.777
798.612;10818.389;  -13.115;17023.996
799.180; 9902.454;  -10.185;16561.615
799.747; 8795.411;   -9.055;15962.773
800.315; 7894.365;  -12.385;15296.992
800.883; 8103.100;  -15.035;14801.771
801.450; 8810.296;  -10.365;14534.430
802.018; 9266.982;   -9.855;14173.248
802.585; 9717.062;  -11.905;14029.547
803.153; 9393.447;  -11.585;13836.846
803.720; 8593.135;   -9.095;13567.324
804.287; 8648.832;   -9.135;13360.622
804.855; 9228.866;  -11.604;13681.981
805.422; 9311.599;  -11.794;13536.560
805.989; 8840.146;  -10.734;13355.958
806.556; 8317.061;  -10.444;13747.896
807.124; 8152.821;  -12.764;13987.376
807.691; 8715.282;  -12.964;14038.674
808.258; 9073.786;  -11.134;14120.152
808.825; 9006.300;   -9.854;13860.111
809.392; 8466.453;  -10.504;13268.790
809.959; 7969.275;  -13.054;12680.389
810.526; 7732.734;   -8.294;12427.308
811.093; 7576.091;   -8.394;12030.105
811.659; 7107.912;  -12.304;11653.664
812.226; 6874.395;  -13.944;11637.183
812.793; 7302.753;  -10.484;11611.521
813.360; 7556.640;  -10.144;11885.181
813.926; 7107.613;  -11.684;12770.539
814.493; 6445.456;  -13.644;12677.638
815.060; 6185.240;   -9.724;11974.336
815.626; 6361.358;   -9.854;11594.715
816.193; 6425.329;  -13.254;11579.474
816.759; 6291.377;  -13.204;11666.972
817.325; 6211.700;   -9.434;11325.530
817.892; 6076.832;  -10.134;11105.369
818.458; 6031.711;  -13.474;10843.928
819.024; 5814.160;  -11.854;10714.406
819.591; 5879.069;  -10.244;10469.165
820.157; 6029.188;  -10.704;10235.523
820.723; 6359.399;  -12.324;10847.563
821.289; 6815.047;   -9.444;11040.980
821.855; 6883.443;   -8.374;10357.100
822.421; 6565.429;  -10.234; 9978.918
822.987; 6375.706;  -13.294; 9754.177
823.553; 6435.897;  -10.884;10065.755
824.119; 6144.111;   -8.884;10036.294
824.685; 5900.004;   -6.784;10029.192
825.251; 5787.313;  -12.004;10199.230
825.816; 6021.876;  -11.474; 9820.189
826.382; 6022.109;   -9.174; 9297.248
826.948; 5668.842;   -9.214; 9381.347
827.513; 5235.713;  -10.774; 9450.726
828.079; 5077.534;  -11.924; 9472.444
828.645; 5058.131;  -10.543; 9292.643
829.210; 5051.747;  -10.533; 9065.341
829.776; 5044.037;  -10.753; 9132.620
830.341; 5078.968;  -10.173; 9092.878
830.906; 5257.933;  -10.743; 9078.557
831.472; 5336.397;  -11.113; 8534.535
832.037; 4933.862;  -10.603; 8677.874
832.602; 4729.717;  -13.323; 8628.692
833.167; 4965.911;  -10.823; 8879.031
833.733; 4915.600;  -10.113; 9189.790
834.298; 4796.460;  -13.583; 9052.608
834.863; 4753.159;  -12.703; 8895.087
835.428; 4606.137;  -10.523; 8824.266
835.993; 4455.563;   -6.963; 8845.385
836.558; 4430.188;  -10.763; 8888.563
837.123; 4542.285;   -9.903; 8966.582
837.688; 4450.108;   -9.913; 8617.860
838.253; 4433.050;  -10.283; 8590.699
838.817; 4659.481;  -12.963; 8443.797
839.382; 4818.979;  -14.243; 8799.356
839.947; 4575.155;  -10.733; 8810.595
840.511; 4443.845;   -9.383; 8796.394
841.076; 4540.421;  -12.563; 8347.231
841.641; 4412.535;  -12.953; 8224.330
842.205; 4064.736;   -7.043; 8223.349
842.770; 3976.474;   -8.163; 8622.107
843.334; 4093.264;  -12.503; 8410.386
843.898; 4201.246;  -11.693; 8337.465
844.463; 4143.347;  -10.203; 8506.283
845.027; 4004.068;   -9.533; 8280.962
845.591; 4023.353;  -13.443; 8231.141
846.156; 3978.821;  -13.143; 7969.179
846.720; 3752.140;   -9.433; 7768.278
847.284; 3318.386;  -11.033; 7630.957
847.848; 3112.911;  -10.403; 7472.395
848.412; 3239.966;  -11.553; 7437.394
848.976; 3520.386;   -8.393; 7674.592
849.540; 3658.145;   -8.713; 7836.011
850.104; 3639.307;  -12.463; 7913.669
850.668; 3667.108;  -12.973; 7694.508
851.232; 3609.490;  -10.793; 7756.887
851.796; 3520.554;  -10.662; 7926.545
852.359; 3575.633;  -13.082; 7827.844
852.923; 3401.255;  -12.192; 7641.163
853.487; 3266.299;  -11.912; 7342.501
854.050; 3381.993;  -10.892; 7042.820
854.614; 3344.877;  -13.992; 7151.338
855.177; 3177.961;  -11.732; 7105.077
855.741; 3104.871;   -8.962; 6989.675
856.304; 3088.688;   -9.442; 6596.634
856.868; 2944.040;  -14.192; 6356.272
857.431; 2821.140;  -12.702; 6468.571
857.995; 2933.122;   -9.942; 6373.210
858.558; 2976.606;   -9.112; 6324.448
859.121; 2692.382;  -12.932; 6408.327
859.684; 2447.309;  -13.442; 6347.886
860.247; 2682.037;  -10.632; 6321.264
860.810; 3078.475;  -11.272; 6301.903
861.374; 3170.489;   -9.832; 6607.881
861.937; 3153.252;  -11.762; 6408.200
862.500; 3105.917;   -9.722; 6572.639
863.062; 2816.046;  -10.512; 6387.297
863.625; 2576.752;  -11.232; 6190.836
864.188; 2477.836;  -14.112; 5807.254
864.751; 2400.995;  -11.302; 5682.413
865.314; 2526.656;  -10.112; 5547.492
865.876; 2739.885;  -12.182; 5500.150
866.439; 2819.634;  -10.722; 5415.909
867.002; 2713.372;   -9.252; 5501.567
867.564; 2568.533;   -9.572; 5413.946
868.127; 2432.525;  -13.142; 5160.325
868.689; 2175.067;  -12.902; 5133.183
869.252; 1966.679;   -9.732; 5252.382
869.814; 1938.653;   -9.432; 5297.141
870.377; 2090.392;  -11.552; 5390.919
870.939; 2135.399;   -9.052; 5599.898
871.501; 2050.263;  -10.982; 5248.336
872.063; 2073.638;  -12.292; 4854.235
872.626; 2032.885;  -14.912; 4817.074
873.188; 2004.809;  -13.112; 4987.732
873.750; 1960.000;  -13.442; 4868.651
874.312; 1959.027;   -9.402; 4779.330
874.874; 2053.523;  -11.062; 4866.348
875.436; 2007.238;  -13.931; 4718.887
875.998; 1765.763;   -9.561; 4660.005
876.560; 1583.911;  -11.321; 4462.964
877.122; 1564.949;  -12.221; 4145.042
877.683; 1535.843;  -12.191; 4056.481
878.245; 1599.626;  -12.101; 3950.740
878.807; 1743.450;   -8.971; 4058.958
879.369; 1775.069;  -12.071; 3954.677
879.930; 1702.293;  -14.621; 3941.495
880.492; 1576.655;  -10.311; 4067.014
881.053; 1436.543;  -10.901; 3859.633
881.615; 1383.926;  -14.411; 3776.071
882.176; 1391.393;  -13.761; 3734.750
882.738; 1421.424;   -9.181; 3678.489
883.299; 1391.899;  -11.791; 3405.407
883.860; 1299.724;  -13.121; 3351.106
884.422; 1196.226;  -11.211; 3394.044
884.983; 1141.534;  -10.091; 3166.443
885.544; 1128.651;   -8.461; 3189.802
886.105; 1083.765;  -12.361; 3160.360
886.666; 1025.214;  -14.141; 3093.059
887.227; 1004.141;  -11.361; 2941.957
887.788; 1015.488;  -11.401; 2974.836
888.349;  979.466;  -13.791; 2721.214
888.910;  893.270;  -13.191; 2696.493
889.471;  797.856;   -9.881; 2560.172
890.032;  724.165;   -9.881; 2558.190
890.593;  707.334;  -10.371; 2567.669
891.153;  707.099;  -13.301; 2460.307
891.714;  652.716;  -11.431; 2372.046
892.275;  603.800;  -11.291; 2309.505
892.835;  604.021;  -11.471; 2382.543
893.396;  596.481;  -11.541; 2295.502
893.956;  572.040;  -11.181; 2162.420
894.517;  532.591;  -11.741; 2125.439
895.077;  477.045;  -11.671; 2086.978
895.638;  432.201;  -11.311; 2126.316
896.198;  419.495;   -9.831; 1838.275
896.758;  417.067;   -8.421; 1892.813
897.319;  405.048;  -12.351; 1792.232
897.879;  384.628;  -13.511; 1762.751
898.439;  363.391;  -12.001; 1661.149
898.999;  343.506;  -10.180; 1781.468
899.559;  329.593;  -12.030; 1703.347
900.119;  324.223;  -15.710; 1537.525
900.679;  315.013;   -8.900; 1638.384
901.239;  290.872;   -8.340; 1527.902
901.799;  272.007;  -13.910; 1456.441
902.359;  259.251;  -13.460; 1357.140
902.919;  254.000;  -11.490; 1331.118
903.479;  251.793;  -12.110; 1317.257
904.038;  246.244;  -11.720; 1262.595
904.598;  231.193;  -13.610; 1152.034
905.158;  217.788;  -11.040; 1240.893
905.717;  211.275;  -10.900; 1233.691
906.277;  206.136;  -15.080; 1217.330
906.836;  202.588;  -13.380; 1222.408
907.396;  200.344;  -10.780; 1193.047
907.955;  194.444;   -8.500; 1182.526
908.515;  187.519;  -12.760; 1099.364
909.074;  183.905;  -11.900; 1092.863
909.633;  181.133;   -8.950; 1069.121
910.192;  177.755;   -8.770; 1196.460
910.752;  171.512;  -12.390; 1029.960
911.311;  168.338;  -13.680; 1009.780
911.870;  164.433;  -12.370;  971.460
912.429;  161.877;  -10.900; 1094.080
912.988;  158.371;  -11.690; 1081.060
913.547;  154.903;  -13.240;  940.380
914.106;  154.258;  -11.990;  999.420
914.665;  153.888;   -9.990;  984.020
915.224;  152.300;  -12.880; 1035.760
915.782;  150.850;  -12.350;  922.560
916.341;  151.487;   -9.110; 1049.840
916.900;  149.731;   -9.270;  925.260
917.458;  146.749;  -13.240;  884.220
918.017;  144.585;  -13.550;  942.600
918.576;  144.789;  -12.320;  904.440
919.134;  144.070;  -11.490;  837.980
919.693;  142.322;  -13.670;  893.060
920.251;  141.112;  -15.470;  876.500
920.809;  140.487;  -11.290;  839.580
921.368;  139.917;  -10.210;  885.360
921.926;  139.539;  -12.140;  842.940
922.484;  137.414;  -13.080;  903.360
923.042;  137.961;  -11.720;  880.340
923.601;  139.776;   -7.480;  998.680
924.159;  138.029;  -11.570;  935.560
924.717;  137.532;  -13.840;  841.080
925.275;  139.216;  -10.640;  903.240
925.833;  137.303;  -11.540;  779.320
926.391;  138.628;  -12.960;  938.380
926.949;  137.200;  -14.130;  857.680
927.506;  138.280;  -11.750;  903.500
928.064;  137.469;  -10.250;  877.580
928.622;  135.758;  -13.030;  880.100
929.180;  136.492;  -13.400;  814.180
929.737;  138.160;  -10.700;  808.540
930.295;  139.325;  -10.070;  928.480
930.853;  139.699;  -11.960;  849.100
931.410;  139.136;  -13.120;  821.120
931.968;  139.138;  -10.770;  940.660
932.525;  139.548;  -10.680;  909.380
933.082;  142.814;  -13.130;  811.440
933.640;  149.172;  -13.210;  925.900
934.197;  151.858;  -11.060;  886.360
934.754;  152.960;   -9.580;  897.780
935.312;  153.207;  -14.000;  863.340
935.869;  155.226;  -10.710; 1012.980
936.426;  154.508;   -9.860;  872.800
936.983;  154.608;   -9.710;  889.020
937.540;  152.955;  -13.990;  838.280
938.097;  152.269;  -14.040;  940.120
938.654;  153.431;  -10.310;  898.860
939.211;  153.571;  -10.560;  952.480
939.768;  151.030;  -13.900;  915.420
940.324;  151.868;  -14.760;  904.200
940.881;  155.479;  -10.370;  878.500
941.438;  160.339;   -8.260; 1021.200
941.995;  160.904;  -12.540;  992.560
942.551;  159.946;  -14.670;  875.620
943.108;  161.058;  -10.450;  937.920
943.664;  162.787;  -10.750;  869.340
944.221;  166.548;  -11.550; 1088.140
944.777;  167.592;  -14.770;  869.680
945.334;  169.475;  -12.820;  884.840
945.890;  168.805;  -10.130;  946.480
946.446;  167.287;  -13.470;  947.020
947.003;  168.321;  -12.120;  964.940
947.559;  170.156;   -9.980; 1063.040
948.115;  168.551;   -9.080; 1026.540
948.671;  167.485;  -10.830;  967.300
949.227;  162.872;  -12.440;  859.560
949.783;  160.090;  -12.910;  858.900
950.339;  160.976;  -10.270;  991.000
950.895;  161.522;  -13.630; 1023.840
951.451;  159.609;  -15.100;  925.280
952.007;  159.580;  -11.330;  998.540
952.563;  159.354;  -10.580;  937.780
953.118;  155.325;  -13.440;  904.940
953.674;  152.008;  -12.710;  935.780
954.230;  153.229;  -10.350;  949.640
954.785;  154.632;   -9.190;  936.640
955.341;  154.522;  -11.200;  998.160
955.897;  149.794;  -16.560;  834.660
956.452;  148.089;  -12.570;  953.840
957.008;  146.541;   -7.970; 1083.640
957.563;  145.853;  -11.940; 1009.540
958.118;  146.290;  -13.450;  877.700
958.674;  147.278;  -12.030;  946.780
959.229;  146.543;   -9.410; 1013.980
959.784;  143.432;  -12.000;  832.400
960.339;  139.585;  -14.780; 1001.280
960.894;  133.759;   -9.860;  963.760
961.449;  128.111;   -9.970;  859.960
962.004;  128.358;  -10.900; 1212.840
962.559;  123.038;  -13.150;  860.140
963.114;  120.895;  -13.740;  742.480
963.669;  122.930;   -9.820;  915.500
964.224;  124.311;  -13.890;  874.340
964.779;  123.297;  -12.600;  828.420
965.334;  123.801;  -10.950; 1017.860
965.888;  119.445;  -11.170;  875.360
966.443;  119.492;  -12.540;  972.380
966.998;  118.386;  -15.780;  819.460
967.552;  119.273;   -9.760;  908.380
968.107;  114.862;   -9.060;  868.300
968.661;  113.276;  -11.950;  922.440
969.216;  112.360;  -12.800;  856.280
969.770;  112.308;  -11.210;  917.200
970.324;  110.780;  -11.610;  923.140
970.879;  108.668;  -11.370;  947.180
971.433;  107.845;  -12.540;  952.720
971.987;  105.149;  -11.320;  895.340
972.541;  105.002;  -10.720;  917.100
973.095;  105.529;   -9.680; 1009.460
973.649;  105.024;  -11.440;  809.480
974.203;  105.628;  -11.210;  829.040
974.757;  104.992;  -10.240;  855.220
975.311;  104.099;  -13.720;  872.600
975.865;  104.967;  -13.770;  881.820
976.419;  105.152;  -11.690;  857.400
976.973;  104.457;   -9.510;  849.620
977.526;  105.088;  -12.620;  949.920
978.080;  100.685;  -12.010;  796.780
978.634;   99.738;  -10.170;  921.320
979.187;   94.944;   -9.020;  905.400
979.741;   95.229;   -9.820; 1018.380
980.294;   91.823;  -14.870;  789.160
980.848;   89.053;  -12.380;  717.220
981.401;   88.812;  -10.350;  816.540
981.955;   88.963;  -13.720;  844.300
982.508;   86.855;  -11.490;  746.340
983.061;   87.427;  -10.000;  915.260
983.615;   84.852;  -11.480;  798.800
984.168;   84.036;  -13.220;  770.080
984.721;   83.453;  -13.960;  880.760
985.274;   81.287;  -10.870;  867.500
985.827;   79.238;   -9.790;  834.220
986.380;   78.373;  -13.120;  721.340
986.933;   78.852;  -12.450;  864.800
987.486;   78.494;  -10.210;  861.920
988.039;   77.832;   -8.430;  863.100
988.591;   76.139;  -10.520;  893.260
989.144;   73.143;  -14.860;  737.260
989.697;   70.926;  -13.080;  758.740
990.250;   69.634;  -10.150;  858.100
990.802;   67.080;  -13.430;  755.860
991.355;   67.141;  -12.750;  974.880
991.907;   64.186;  -12.040;  864.320
992.460;   61.230;  -11.330;  753.760
993.012;   60.088;  -13.610;  749.540
993.565;   59.014;  -13.460;  711.360
994.117;   61.159;   -9.360;  950.780
994.669;   58.405;  -11.300;  701.320
995.221;   58.296;  -13.540;  791.920
995.774;   57.472;  -13.430;  787.580
996.326;   56.508;  -12.520;  740.220
996.878;   57.203;  -10.950;  838.420
997.430;   55.316;  -14.300;  699.860
997.982;   53.815;  -13.760;  750.140
998.534;   53.593;  -11.530;  739.060
999.086;   52.270;  -10.310;  738.220
999.638;   50.477;  -12.530;  661.380
1000.190;   49.606;  -11.840;  699.320
1000.741;   49.138;  -10.260;  742.700
1001.293;   48.760;   -8.860;  686.020
1001.845;   47.953;  -13.700;  676.640
1002.396;   48.802;  -12.100;  743.400
1002.948;   48.602;  -12.760;  737.400
1003.500;   45.986;  -10.380;  723.780
1004.051;   47.382;  -11.900;  907.580
1004.603;   45.929;  -12.250;  791.820
1005.154;   42.590;  -13.210;  608.980
1005.705;   42.064;  -10.950;  723.960
1006.257;   41.828;  -13.880;  707.220
1006.808;   40.630;  -12.840;  685.460
1007.359;   40.659;  -10.570;  763.240
1007.910;   39.290;   -9.620;  646.640
1008.461;   38.798;  -13.630;  732.940
1009.013;   37.850;  -17.200;  588.340
1009.564;   39.645;  -10.200;  793.520
1010.115;   36.790;  -12.570;  597.040
1010.665;   36.693;  -15.150;  602.160
1011.216;   37.341;  -14.480;  667.920
1011.767;   36.391;  -11.340;  697.920
1012.318;   36.466;   -9.780;  736.980
1012.869;   35.077;  -12.380;  679.000
1013.419;   35.140;  -15.560;  603.120
1013.970;   35.770;  -11.010;  666.640
1014.521;   34.421;  -11.610;  620.620
1015.071;   34.573;  -13.450;  670.380
1015.622;   34.190;  -13.870;  635.460
1016.172;   33.785;  -11.610;  596.820
1016.723;   33.452;  -12.120;  614.380
1017.273;   33.407;  -13.620;  604.160
1017.823;   33.247;  -14.140;  650.340
1018.374;   33.558;  -12.800;  611.760
1018.924;   32.897;  -12.340;  716.880
1019.474;   32.648;  -11.410;  718.880
1020.024;   31.303;  -14.770;  657.580
1020.574;   32.789;   -9.780;  726.160
1021.124;   33.006;   -8.560;  673.580
1021.674;   31.086;  -15.190;  559.120
1022.224;   32.441;  -13.530;  708.940
1022.774;   32.162;  -13.280;  668.820
1023.324;   32.167;  -10.690;  753.520
1023.874;   33.592;  -10.240;  875.760
1024.423;   30.614;  -12.540;  613.700
1024.973;   30.249;  -10.010;  610.760
1025.523;   29.552;  -10.550;  620.960
1026.072;   29.327;  -13.560;  606.420
1026.622;   28.955;  -15.120;  675.740
1027.172;   30.384;  -11.260;  715.660
1027.721;   28.731;  -11.410;  601.220
1028.270;   29.715;  -13.530;  663.400
1028.820;   28.888;  -13.680;  638.080
1029.369;   28.650;  -13.520;  612.700
1029.918;   28.969;  -10.980;  649.840
1030.468;   28.047;  -13.530;  564.780
1031.017;   28.605;  -13.170;  634.800
1031.566;   27.262;  -12.200;  608.900
1032.115;   28.506;   -9.960;  694.500
1032.664;   27.157;  -13.210;  596.480
1033.213;   28.527;  -12.500;  735.420
1033.762;   27.682;  -11.910;  635.620
1034.311;   27.249;   -9.640;  677.220
1034.860;   27.379;  -13.310;  691.000
1035.408;   26.836;  -11.830;  722.720
1035.957;   27.990;  -12.000;  719.540
1036.506;   24.899;  -11.690;  530.800
1037.055;   27.719;  -10.990;  844.320
1037.603;   25.975;  -15.120;  664.000
1038.152;   25.098;  -12.450;  534.760
1038.700;   25.591;  -10.560;  585.740
1039.249;   25.267;  -11.080;  681.220
1039.797;   25.243;  -12.540;  633.360
1040.345;   25.033;  -11.920;  705.420
1040.894;   25.299;  -11.410;  625.300
1041.442;   23.778;  -14.320;  632.200
1041.990;   23.989;  -16.240;  559.160
1042.538;   23.062;  -11.680;  536.180
1043.087;   23.778;  -10.760;  570.860
1043.635;   24.902;  -11.850;  670.500
1044.183;   23.718;  -15.480;  586.400
1044.731;   23.199;  -11.770;  576.000
1045.279;   23.440;  -13.090;  674.920
1045.827;   24.735;  -12.440;  892.400
1046.374;   22.237;  -13.840;  515.420
1046.922;   22.345;  -13.220;  590.580
1047.470;   23.195;  -10.230;  691.300
1048.018;   23.364;  -14.590;  647.960
1048.565;   23.645;  -12.050;  708.600
1049.113;   21.642;  -11.650;  557.000
1049.660;   21.878;  -10.510;  629.660
1050.208;   21.446;  -13.310;  675.640
1050.755;   21.261;  -15.900;  606.580
1051.303;   22.427;  -11.430;  686.820
1051.850;   21.232;   -8.480;  635.120
1052.397;   20.015;  -15.010;  473.960
1052.945;   20.625;  -13.960;  617.760
1053.492;   22.650;  -13.150;  741.840
1054.039;   22.345;   -9.630;  720.180
1054.586;   20.140;  -13.680;  557.240
1055.133;   21.013;  -14.570;  693.140
1055.680;   21.730;  -13.820;  646.620
1056.227;   20.437;  -11.730;  542.780
1056.774;   21.872;  -12.480;  794.980
1057.321;   19.157;  -13.930;  523.260
1057.868;   19.816;  -11.690;  651.320
1058.415;   19.493;   -9.520;  651.980
1058.961;   20.492;  -13.160;  678.940
1059.508;   19.795;  -12.920;  643.820
1060.055;   19.640;  -11.920;  581.780
1060.601;   20.725;  -11.500;  624.300
1061.148;   18.988;  -14.330;  616.820
1061.694;   19.303;  -16.870;  592.580
1062.241;   19.638;  -10.330;  596.320
1062.787;   19.476;  -10.620;  663.140
1063.334;   20.710;  -10.110;  808.560
1063.880;   19.019;  -13.400;  668.360
1064.426;   18.933;  -10.680;  706.820
1064.972;   18.227;   -9.920;  601.340
1065.518;   17.399;  -10.980;  566.640
1066.065;   17.963;  -14.890;  624.460
1066.611;   17.534;  -12.870;  598.800
1067.157;   18.762;  -12.950;  641.860
1067.703;   18.170;  -13.540;  668.480
1068.249;   17.574;  -13.540;  605.220
1068.794;   18.148;  -12.600;  626.880
1069.340;   16.988;  -10.620;  578.960
1069.886;   17.142;  -12.830;  590.700
1070.432;   16.130;  -14.870;  541.720
1070.977;   17.182;  -11.980;  601.080
1071.523;   16.636;   -8.200;  573.060
1072.068;   16.608;  -12.330;  582.000
1072.614;   16.338;  -16.370;  527.760
1073.160;   17.468;  -11.100;  687.040
1073.705;   15.434;  -10.480;  572.520
1074.250;   16.094;  -14.520;  559.900
1074.796;   16.919;  -11.460;  655.160
1075.341;   17.524;  -11.950;  664.100
1075.886;   16.520;  -11.460;  594.240
1076.431;   15.838;  -13.770;  649.880
1076.976;   15.204;  -12.680;  639.220
1077.521;   15.359;  -13.170;  583.080
1078.067;   14.573;  -10.860;  579.400
1078.612;   14.654;  -13.920;  661.620
1079.156;   14.758;  -13.880;  601.540
1079.701;   15.056;  -13.120;  693.260
1080.246;   15.789;   -9.940;  696.300
1080.791;   14.691;  -14.740;  625.020
1081.336;   15.563;  -13.750;  659.320
1081.880;   15.247;  -13.400;  649.680
1082.425;   14.547;  -12.220;  573.480
1082.970;   15.013;  -11.610;  717.040
1083.514;   14.299;  -13.580;  597.000
1084.059;   13.713;  -12.810;  586.720
1084.603;   12.961;  -12.320;  565.840
1085.147;   13.363;  -13.190;  645.220
1085.692;   14.749;  -12.480;  716.800
1086.236;   13.247;  -13.020;  503.140
1086.780;   14.902;   -9.190;  751.440
1087.325;   13.481;  -12.480;  654.620
1087.869;   13.621;  -12.450;  610.700
1088.413;   14.382;  -12.240;  705.040
1088.957;   12.027;   -9.020;  543.400
1089.501;   13.474;  -10.320;  766.640
1090.045;   13.218;  -12.720;  726.480
1090.589;   11.379;  -13.690;  569.920
1091.133;   13.056;  -10.020;  673.340
1091.676;   12.134;  -12.330;  591.940
1092.220;   12.034;  -14.970;  600.920
1092.764;   13.582;  -12.430;  706.960
1093.307;   12.224;   -9.800;  673.780
1093.851;   11.303;  -14.970;  556.540
1094.395;   12.637;  -15.310;  683.140
1094.938;   11.773;  -10.370;  632.520
1095.482;   11.741;  -11.050;  559.800
1096.025;   12.243;  -11.840;  710.880
1096.568;   12.339;  -12.840;  779.280
1097.112;    9.951;  -14.700;  508.180
1097.655;   12.333;   -8.720;  603.000
1098.198;    9.831;  -13.610;  600.180
1098.741;   10.726;  -13.350;  612.860
1099.285;   11.545;  -11.230;  657.300
1099.828;    9.713;  -11.840;  439.400
1100.371;   10.897;  -10.840;  608.160
1100.914;   10.313;  -14.190;  682.660
1101.457;   10.696;  -11.240;  679.900
1101.999;    9.545;  -11.270;  584.680
1102.542;   10.091;  -11.480;  641.440
1103.085;    9.579;  -11.750;  658.500
1103.628;   11.637;  -11.400;  762.060
1104.170;   10.012;  -10.490;  588.280
1104.713;    9.801;  -10.600;  646.700
1105.256;    8.723;  -14.360;  557.440
1105.798;    8.264;  -13.210;  499.980
1106.341;   11.462;  -10.270;  728.900
1106.883;    9.106;  -12.200;  521.340
1107.425;    8.769;  -13.110;  668.180
1107.968;    8.723;  -12.840;  612.380
1108.510;   10.315;   -6.480;  684.960
1109.052;    7.709;  -13.940;  612.620
1109.594;    8.485;  -13.690;  554.440
1110.136;    9.355;  -11.880;  643.220
1110.679;    7.840;   -9.500;  633.080
1111.221;    9.075;  -14.160;  604.460
1111.763;    7.819;  -13.980;  559.220
1112.304;    8.038;  -13.880;  547.140
1112.846;    8.253;  -12.210;  666.240
1113.388;   10.904;  -11.390;  942.180
1113.930;    8.271;  -14.540;  694.200
1114.472;    7.799;  -12.640;  606.540
1115.013;    6.220;  -11.620;  551.280
1115.555;    6.641;  -13.640;  587.100
1116.097;    6.566;  -15.380;  579.480
1116.638;    7.617;  -12.640;  684.600
1117.180;    7.923;   -9.850;  667.740
1117.721;    6.917;  -13.690;  568.580
1118.262;    7.770;  -12.680;  677.960
1118.804;    7.842;  -12.530;  637.340
1119.345;    7.178;  -11.690;  578.400
1119.886;    7.124;  -13.380;  704.040
1120.427;    6.454;  -14.070;  589.020
1120.969;    6.309;  -13.500;  597.920
1121.510;    5.405;  -11.480;  563.060
1122.051;    6.373;  -12.830;  723.580
1122.592;    5.318;  -14.290;  655.420
1123.133;    4.705;  -12.400;  547.940
1123.673;    6.657;  -10.130;  706.480
1124.214;    6.329;  -12.930;  612.460
1124.755;    7.065;  -14.380;  639.460
1125.296;    6.002;  -14.000;  627.320
1125.836;    7.054;  -10.070;  691.500
1126.377;    5.249;  -12.640;  599.660
1126.918;    6.249;  -12.960;  614.980
1127.458;    5.263;  -13.350;  622.220
1127.999;    5.226;  -10.750;  656.980
1128.539;    5.584;  -12.350;  694.240
1129.079;    4.107;  -14.860;  632.720
1129.620;    4.492;  -13.840;  558.100
1130.160;    3.910;  -12.330;  539.480
1130.700;    5.660;  -14.530;  640.840
1131.240;    5.634;  -12.530;  643.700
1131.781;    5.019;  -14.450;  619.680
1132.321;    4.595;   -9.790;  599.120
1132.861;    3.348;  -14.860;  564.200
1133.401;    2.948;  -14.290;  593.940
1133.941;    4.554;  -11.750;  626.280
1134.481;    4.302;   -9.920;  597.580
1135.020;    3.313;  -12.290;  609.160
1135.560;    3.897;  -11.650;  674.940
1136.100;    3.724;  -16.270;  501.160
1136.640;    3.197;  -10.890;  510.480
1137.179;    2.810;  -14.180;  537.960
1137.719;    3.300;  -16.250;  605.400
1138.258;    4.077;  -14.230;  587.360
1138.798;    3.738;   -9.090;  663.780
1139.337;    2.324;  -15.130;  482.840
1139.877;    3.454;  -13.680;  642.360
1140.416;    5.430;  -11.320;  878.060
1140.955;    2.563;  -10.860;  535.380
1141.494;    3.053;  -12.920;  669.280
1142.034;    2.233;  -13.930;  583.520
1142.573;    3.638;  -11.440;  646.280
1143.112;    2.689;  -12.000;  553.480
1143.651;    2.508;  -13.670;  536.480
1144.190;    4.194;  -12.730;  691.640
1144.729;    3.387;  -14.560;  607.420
1145.267;    2.994;  -11.830;  584.900
1145.806;    3.236;  -12.230;  637.040
1146.345;    2.481;  -14.130;  635.020
1146.884;    2.394;  -11.590;  622.500
1147.422;    1.536;  -12.550;  533.060
1147.961;    3.155;  -11.180;  708.460
1148.500;    3.013;  -11.510;  669.720
1149.038;    3.288;  -11.640;  632.500
1149.577;    1.637;  -10.130;  698.640
1150.115;    0.695;  -13.970;  452.280
1150.653;    1.845;  -14.520;  607.340
1151.192;    2.305;  -12.810;  552.920
1151.730;    2.258;   -9.100;  652.560
1152.268;    1.631;  -12.220;  589.520
1152.806;    1.604;  -14.140;  571.180
1153.344;   -0.234;  -12.350;  577.640
1153.882;    1.236;   -8.980;  600.060
1154.421;    0.582;  -15.190;  470.620
1154.958;    0.843;  -15.210;  595.240
1155.496;    2.088;  -12.850;  645.280
1156.034;    0.935;   -9.940;  721.880
1156.572;    2.433;  -13.570;  667.060
1157.110;   -0.059;  -14.590;  473.940
1157.647;    1.365;  -13.030;  676.960
1158.185;    0.699;  -12.140;  564.320
1158.723;   -0.461;  -14.390;  509.200
1159.260;    0.713;  -14.090;  701.700
1159.798;    1.485;  -11.920;  658.160
1160.335;    0.802;  -11.110;  631.820

